PE IR       SUBTECH     SPECTRUM    ASCII       PEDS        4.00        
   -1
23m121_nitro.asc
24/09/12
15:25:44.00
24/09/12
15:25:44.00
Administrator
Sample 1166 By Administrator Date Thursday, September 12 2024
400.000000
#HDR
-1
-1
#GR
cm-1
%T
1.0
0.0
4000.000000
-1.000000
3601
8
79.851406
3.073279
#DATA
4000.000000	44.550156
3999.000000	44.589216
3998.000000	44.627993
3997.000000	44.666810
3996.000000	44.705598
3995.000000	44.744416
3994.000000	44.783857
3993.000000	44.824548
3992.000000	44.866264
3991.000000	44.907812
3990.000000	44.947974
3989.000000	44.986381
3988.000000	45.023403
3987.000000	45.059549
3986.000000	45.095213
3985.000000	45.130691
3984.000000	45.166276
3983.000000	45.202268
3982.000000	45.238942
3981.000000	45.276324
3980.000000	45.314090
3979.000000	45.351783
3978.000000	45.388974
3977.000000	45.425320
3976.000000	45.460678
3975.000000	45.494890
3974.000000	45.527815
3973.000000	45.559847
3972.000000	45.591904
3971.000000	45.624872
3970.000000	45.658842
3969.000000	45.693430
3968.000000	45.728050
3967.000000	45.762204
3966.000000	45.795742
3965.000000	45.828848
3964.000000	45.861787
3963.000000	45.894418
3962.000000	45.926346
3961.000000	45.957665
3960.000000	45.988991
3959.000000	46.020844
3958.000000	46.053129
3957.000000	46.086242
3956.000000	46.121003
3955.000000	46.157654
3954.000000	46.195423
3953.000000	46.232657
3952.000000	46.268159
3951.000000	46.301858
3950.000000	46.334911
3949.000000	46.368231
3948.000000	46.401433
3947.000000	46.434711
3946.000000	46.469717
3945.000000	46.507210
3944.000000	46.545302
3943.000000	46.581410
3942.000000	46.615781
3941.000000	46.650818
3940.000000	46.687304
3939.000000	46.723730
3938.000000	46.757663
3937.000000	46.789041
3936.000000	46.820526
3935.000000	46.854318
3934.000000	46.890731
3933.000000	46.928511
3932.000000	46.967015
3931.000000	47.005134
3930.000000	47.040446
3929.000000	47.072633
3928.000000	47.104836
3927.000000	47.140613
3926.000000	47.177885
3925.000000	47.211528
3924.000000	47.241881
3923.000000	47.273276
3922.000000	47.306188
3921.000000	47.337790
3920.000000	47.368411
3919.000000	47.402775
3918.000000	47.442052
3917.000000	47.481773
3916.000000	47.518376
3915.000000	47.552636
3914.000000	47.585768
3913.000000	47.617884
3912.000000	47.649130
3911.000000	47.682042
3910.000000	47.716886
3909.000000	47.753397
3908.000000	47.792238
3907.000000	47.833247
3906.000000	47.872872
3905.000000	47.904872
3904.000000	47.930746
3903.000000	47.960558
3902.000000	48.000338
3901.000000	48.045184
3900.000000	48.084593
3899.000000	48.114247
3898.000000	48.138752
3897.000000	48.162842
3896.000000	48.187440
3895.000000	48.215204
3894.000000	48.248947
3893.000000	48.289186
3892.000000	48.327946
3891.000000	48.357514
3890.000000	48.380645
3889.000000	48.408811
3888.000000	48.449139
3887.000000	48.494540
3886.000000	48.531627
3885.000000	48.559935
3884.000000	48.589375
3883.000000	48.624335
3882.000000	48.658989
3881.000000	48.685956
3880.000000	48.705762
3879.000000	48.725997
3878.000000	48.753591
3877.000000	48.790876
3876.000000	48.832396
3875.000000	48.867385
3874.000000	48.893529
3873.000000	48.923562
3872.000000	48.967729
3871.000000	49.014651
3870.000000	49.046745
3869.000000	49.069381
3868.000000	49.098808
3867.000000	49.137678
3866.000000	49.172942
3865.000000	49.198020
3864.000000	49.223897
3863.000000	49.259394
3862.000000	49.297454
3861.000000	49.334011
3860.000000	49.370614
3859.000000	49.411211
3858.000000	49.459435
3857.000000	49.518618
3856.000000	49.582801
3855.000000	49.625472
3854.000000	49.638326
3853.000000	49.658652
3852.000000	49.701590
3851.000000	49.741640
3850.000000	49.762508
3849.000000	49.771226
3848.000000	49.782555
3847.000000	49.806063
3846.000000	49.839820
3845.000000	49.878395
3844.000000	49.916561
3843.000000	49.950784
3842.000000	49.984223
3841.000000	50.024551
3840.000000	50.068044
3839.000000	50.108619
3838.000000	50.147628
3837.000000	50.186784
3836.000000	50.222653
3835.000000	50.252425
3834.000000	50.279710
3833.000000	50.307394
3832.000000	50.332898
3831.000000	50.356875
3830.000000	50.384864
3829.000000	50.421082
3828.000000	50.462252
3827.000000	50.499622
3826.000000	50.529265
3825.000000	50.561906
3824.000000	50.608475
3823.000000	50.664163
3822.000000	50.710489
3821.000000	50.738409
3820.000000	50.760255
3819.000000	50.790773
3818.000000	50.831777
3817.000000	50.868995
3816.000000	50.893598
3815.000000	50.918934
3814.000000	50.958241
3813.000000	51.001480
3812.000000	51.032912
3811.000000	51.055307
3810.000000	51.085042
3809.000000	51.128905
3808.000000	51.173819
3807.000000	51.205506
3806.000000	51.229364
3805.000000	51.261935
3804.000000	51.308166
3803.000000	51.357695
3802.000000	51.392072
3801.000000	51.414354
3800.000000	51.443508
3799.000000	51.482387
3798.000000	51.520663
3797.000000	51.549250
3796.000000	51.571610
3795.000000	51.598109
3794.000000	51.633430
3793.000000	51.670936
3792.000000	51.704643
3791.000000	51.736825
3790.000000	51.771229
3789.000000	51.807330
3788.000000	51.844190
3787.000000	51.883208
3786.000000	51.924565
3785.000000	51.964112
3784.000000	51.999093
3783.000000	52.034333
3782.000000	52.074551
3781.000000	52.116588
3780.000000	52.153172
3779.000000	52.184880
3778.000000	52.218894
3777.000000	52.259368
3776.000000	52.301218
3775.000000	52.338330
3774.000000	52.373056
3773.000000	52.413270
3772.000000	52.459597
3771.000000	52.503385
3770.000000	52.540073
3769.000000	52.575484
3768.000000	52.615076
3767.000000	52.657885
3766.000000	52.698229
3765.000000	52.731496
3764.000000	52.762602
3763.000000	52.801471
3762.000000	52.848161
3761.000000	52.893059
3760.000000	52.931649
3759.000000	52.971695
3758.000000	53.014463
3757.000000	53.054208
3756.000000	53.092384
3755.000000	53.134675
3754.000000	53.180219
3753.000000	53.220361
3752.000000	53.256818
3751.000000	53.304246
3750.000000	53.360044
3749.000000	53.405787
3748.000000	53.443171
3747.000000	53.492307
3746.000000	53.550643
3745.000000	53.590482
3744.000000	53.615378
3743.000000	53.652501
3742.000000	53.699268
3741.000000	53.737152
3740.000000	53.762470
3739.000000	53.793367
3738.000000	53.842242
3737.000000	53.898627
3736.000000	53.950753
3735.000000	54.000370
3734.000000	54.053509
3733.000000	54.103891
3732.000000	54.141802
3731.000000	54.168871
3730.000000	54.194774
3729.000000	54.227852
3728.000000	54.267335
3727.000000	54.305821
3726.000000	54.343995
3725.000000	54.388205
3724.000000	54.437514
3723.000000	54.484150
3722.000000	54.525441
3721.000000	54.566023
3720.000000	54.608787
3719.000000	54.654195
3718.000000	54.697461
3717.000000	54.737038
3716.000000	54.779857
3715.000000	54.829756
3714.000000	54.881361
3713.000000	54.926840
3712.000000	54.968209
3711.000000	55.014165
3710.000000	55.065936
3709.000000	55.118815
3708.000000	55.166925
3707.000000	55.207646
3706.000000	55.245474
3705.000000	55.286294
3704.000000	55.331171
3703.000000	55.375827
3702.000000	55.417805
3701.000000	55.459276
3700.000000	55.502723
3699.000000	55.549818
3698.000000	55.598571
3697.000000	55.643981
3696.000000	55.686789
3695.000000	55.732340
3694.000000	55.781434
3693.000000	55.831588
3692.000000	55.881400
3691.000000	55.930593
3690.000000	55.977521
3689.000000	56.022959
3688.000000	56.068684
3687.000000	56.113671
3686.000000	56.157414
3685.000000	56.197964
3684.000000	56.232713
3683.000000	56.266552
3682.000000	56.308716
3681.000000	56.357096
3680.000000	56.402468
3679.000000	56.444601
3678.000000	56.494998
3677.000000	56.550204
3676.000000	56.594841
3675.000000	56.634831
3674.000000	56.682739
3673.000000	56.739356
3672.000000	56.796741
3671.000000	56.842363
3670.000000	56.877502
3669.000000	56.919357
3668.000000	56.971457
3667.000000	57.021478
3666.000000	57.062162
3665.000000	57.097573
3664.000000	57.136410
3663.000000	57.184784
3662.000000	57.239041
3661.000000	57.289907
3660.000000	57.335993
3659.000000	57.381173
3658.000000	57.426585
3657.000000	57.465949
3656.000000	57.499334
3655.000000	57.537109
3654.000000	57.585754
3653.000000	57.640193
3652.000000	57.686475
3651.000000	57.713646
3650.000000	57.732006
3649.000000	57.765602
3648.000000	57.819565
3647.000000	57.877984
3646.000000	57.926562
3645.000000	57.964067
3644.000000	57.996224
3643.000000	58.028158
3642.000000	58.060176
3641.000000	58.092985
3640.000000	58.128870
3639.000000	58.166760
3638.000000	58.204541
3637.000000	58.243069
3636.000000	58.285779
3635.000000	58.330350
3634.000000	58.371314
3633.000000	58.410238
3632.000000	58.452601
3631.000000	58.493369
3630.000000	58.516121
3629.000000	58.524749
3628.000000	58.547542
3627.000000	58.592822
3626.000000	58.642354
3625.000000	58.682181
3624.000000	58.714532
3623.000000	58.750036
3622.000000	58.792525
3621.000000	58.831456
3620.000000	58.855526
3619.000000	58.869307
3618.000000	58.885197
3617.000000	58.908390
3616.000000	58.937341
3615.000000	58.965911
3614.000000	58.988560
3613.000000	59.008117
3612.000000	59.033365
3611.000000	59.068102
3610.000000	59.107747
3609.000000	59.146381
3608.000000	59.182989
3607.000000	59.220073
3606.000000	59.257036
3605.000000	59.290349
3604.000000	59.318920
3603.000000	59.344646
3602.000000	59.370815
3601.000000	59.398749
3600.000000	59.429115
3599.000000	59.461400
3598.000000	59.493257
3597.000000	59.522774
3596.000000	59.551949
3595.000000	59.581289
3594.000000	59.610437
3593.000000	59.640029
3592.000000	59.670522
3591.000000	59.702737
3590.000000	59.736355
3589.000000	59.769582
3588.000000	59.802667
3587.000000	59.838875
3586.000000	59.878656
3585.000000	59.918323
3584.000000	59.954327
3583.000000	59.985620
3582.000000	60.013346
3581.000000	60.038898
3580.000000	60.064063
3579.000000	60.090239
3578.000000	60.118075
3577.000000	60.147611
3576.000000	60.179006
3575.000000	60.213284
3574.000000	60.251027
3573.000000	60.292403
3572.000000	60.335467
3571.000000	60.376927
3570.000000	60.412958
3569.000000	60.440292
3568.000000	60.460735
3567.000000	60.483353
3566.000000	60.515715
3565.000000	60.556277
3564.000000	60.599234
3563.000000	60.640377
3562.000000	60.677820
3561.000000	60.711582
3560.000000	60.743336
3559.000000	60.775670
3558.000000	60.809553
3557.000000	60.843926
3556.000000	60.877755
3555.000000	60.911582
3554.000000	60.945340
3553.000000	60.977592
3552.000000	61.008192
3551.000000	61.039486
3550.000000	61.074115
3549.000000	61.112681
3548.000000	61.153991
3547.000000	61.196543
3546.000000	61.237816
3545.000000	61.274973
3544.000000	61.307273
3543.000000	61.336237
3542.000000	61.363327
3541.000000	61.390122
3540.000000	61.419424
3539.000000	61.453320
3538.000000	61.489691
3537.000000	61.523168
3536.000000	61.551418
3535.000000	61.576791
3534.000000	61.603136
3533.000000	61.631615
3532.000000	61.661488
3531.000000	61.691756
3530.000000	61.720866
3529.000000	61.747545
3528.000000	61.773326
3527.000000	61.802348
3526.000000	61.836037
3525.000000	61.869836
3524.000000	61.897276
3523.000000	61.916648
3522.000000	61.931849
3521.000000	61.948037
3520.000000	61.967559
3519.000000	61.989380
3518.000000	62.011802
3517.000000	62.034665
3516.000000	62.058586
3515.000000	62.081724
3514.000000	62.100193
3513.000000	62.111702
3512.000000	62.117680
3511.000000	62.121440
3510.000000	62.125574
3509.000000	62.131585
3508.000000	62.141137
3507.000000	62.155493
3506.000000	62.173000
3505.000000	62.189009
3504.000000	62.199280
3503.000000	62.202816
3502.000000	62.201369
3501.000000	62.197852
3500.000000	62.194821
3499.000000	62.192348
3498.000000	62.187495
3497.000000	62.177673
3496.000000	62.164070
3495.000000	62.149797
3494.000000	62.135734
3493.000000	62.120541
3492.000000	62.103810
3491.000000	62.086635
3490.000000	62.069127
3489.000000	62.049355
3488.000000	62.025287
3487.000000	61.996507
3486.000000	61.963759
3485.000000	61.928426
3484.000000	61.893083
3483.000000	61.860121
3482.000000	61.829038
3481.000000	61.796111
3480.000000	61.757354
3479.000000	61.711443
3478.000000	61.659529
3477.000000	61.603697
3476.000000	61.545914
3475.000000	61.487544
3474.000000	61.429632
3473.000000	61.373855
3472.000000	61.322001
3471.000000	61.272947
3470.000000	61.221117
3469.000000	61.159833
3468.000000	61.086044
3467.000000	61.001538
3466.000000	60.910512
3465.000000	60.817204
3464.000000	60.725070
3463.000000	60.635627
3462.000000	60.547436
3461.000000	60.457284
3460.000000	60.362794
3459.000000	60.263509
3458.000000	60.159914
3457.000000	60.052746
3456.000000	59.943300
3455.000000	59.832630
3454.000000	59.720670
3453.000000	59.606449
3452.000000	59.490021
3451.000000	59.372495
3450.000000	59.253134
3449.000000	59.128507
3448.000000	58.995895
3447.000000	58.856680
3446.000000	58.714797
3445.000000	58.572492
3444.000000	58.428832
3443.000000	58.281897
3442.000000	58.131335
3441.000000	57.979297
3440.000000	57.828640
3439.000000	57.679592
3438.000000	57.528336
3437.000000	57.369186
3436.000000	57.198661
3435.000000	57.017016
3434.000000	56.827126
3433.000000	56.632687
3432.000000	56.436611
3431.000000	56.238921
3430.000000	56.035915
3429.000000	55.823825
3428.000000	55.603255
3427.000000	55.378135
3426.000000	55.151098
3425.000000	54.922168
3424.000000	54.690689
3423.000000	54.455577
3422.000000	54.213988
3421.000000	53.963232
3420.000000	53.704223
3419.000000	53.440352
3418.000000	53.173544
3417.000000	52.903394
3416.000000	52.629452
3415.000000	52.351290
3414.000000	52.066552
3413.000000	51.772642
3412.000000	51.470020
3411.000000	51.161260
3410.000000	50.846869
3409.000000	50.524683
3408.000000	50.193735
3407.000000	49.855681
3406.000000	49.512565
3405.000000	49.165817
3404.000000	48.816628
3403.000000	48.464390
3402.000000	48.104743
3401.000000	47.731958
3400.000000	47.344097
3399.000000	46.944142
3398.000000	46.537047
3397.000000	46.127155
3396.000000	45.716788
3395.000000	45.304740
3394.000000	44.885812
3393.000000	44.454368
3392.000000	44.008682
3391.000000	43.551163
3390.000000	43.085992
3389.000000	42.617189
3388.000000	42.147473
3387.000000	41.676615
3386.000000	41.201655
3385.000000	40.720634
3384.000000	40.234499
3383.000000	39.744455
3382.000000	39.249471
3381.000000	38.747912
3380.000000	38.240177
3379.000000	37.727716
3378.000000	37.211188
3377.000000	36.691349
3376.000000	36.169974
3375.000000	35.648687
3374.000000	35.127875
3373.000000	34.607573
3372.000000	34.087548
3371.000000	33.565457
3370.000000	33.037456
3369.000000	32.501940
3368.000000	31.961122
3367.000000	31.418434
3366.000000	30.876368
3365.000000	30.337305
3364.000000	29.803380
3363.000000	29.274209
3362.000000	28.747115
3361.000000	28.220781
3360.000000	27.696496
3359.000000	27.175073
3358.000000	26.655293
3357.000000	26.136547
3356.000000	25.620576
3355.000000	25.109212
3354.000000	24.602645
3353.000000	24.100865
3352.000000	23.604457
3351.000000	23.113525
3350.000000	22.627841
3349.000000	22.148568
3348.000000	21.677447
3347.000000	21.213683
3346.000000	20.754652
3345.000000	20.299758
3344.000000	19.851009
3343.000000	19.409791
3342.000000	18.975658
3341.000000	18.548871
3340.000000	18.130812
3339.000000	17.721526
3338.000000	17.320057
3337.000000	16.926997
3336.000000	16.544066
3335.000000	16.170831
3334.000000	15.804820
3333.000000	15.445449
3332.000000	15.094230
3331.000000	14.751523
3330.000000	14.416056
3329.000000	14.087566
3328.000000	13.767378
3327.000000	13.455800
3326.000000	13.152382
3325.000000	12.858483
3324.000000	12.575914
3323.000000	12.303730
3322.000000	12.039008
3321.000000	11.780939
3320.000000	11.531053
3319.000000	11.289384
3318.000000	11.054620
3317.000000	10.827193
3316.000000	10.608851
3315.000000	10.399456
3314.000000	10.197048
3313.000000	10.001402
3312.000000	9.813776
3311.000000	9.633546
3310.000000	9.458984
3309.000000	9.290708
3308.000000	9.131553
3307.000000	8.982855
3306.000000	8.843977
3305.000000	8.715359
3304.000000	8.597762
3303.000000	8.489420
3302.000000	8.387099
3301.000000	8.289677
3300.000000	8.198044
3299.000000	8.111658
3298.000000	8.029081
3297.000000	7.951293
3296.000000	7.880675
3295.000000	7.817380
3294.000000	7.759618
3293.000000	7.707396
3292.000000	7.662490
3291.000000	7.624620
3290.000000	7.591489
3289.000000	7.561878
3288.000000	7.535929
3287.000000	7.512822
3286.000000	7.491092
3285.000000	7.471325
3284.000000	7.455183
3283.000000	7.442369
3282.000000	7.431302
3281.000000	7.421964
3280.000000	7.415284
3279.000000	7.410288
3278.000000	7.405112
3277.000000	7.400195
3276.000000	7.397302
3275.000000	7.396113
3274.000000	7.394771
3273.000000	7.393384
3272.000000	7.393998
3271.000000	7.397536
3270.000000	7.403529
3269.000000	7.412016
3268.000000	7.422834
3267.000000	7.433903
3266.000000	7.443039
3265.000000	7.450873
3264.000000	7.459356
3263.000000	7.468293
3262.000000	7.476259
3261.000000	7.483766
3260.000000	7.492448
3259.000000	7.502036
3258.000000	7.511163
3257.000000	7.520352
3256.000000	7.531150
3255.000000	7.543143
3254.000000	7.554692
3253.000000	7.565852
3252.000000	7.577715
3251.000000	7.589687
3250.000000	7.600322
3249.000000	7.610116
3248.000000	7.620812
3247.000000	7.632679
3246.000000	7.644955
3245.000000	7.657966
3244.000000	7.672198
3243.000000	7.686333
3242.000000	7.698829
3241.000000	7.710414
3240.000000	7.722514
3239.000000	7.734442
3238.000000	7.744689
3237.000000	7.753671
3236.000000	7.762637
3235.000000	7.771334
3234.000000	7.779399
3233.000000	7.788561
3232.000000	7.800457
3231.000000	7.813534
3230.000000	7.825018
3229.000000	7.834709
3228.000000	7.844032
3227.000000	7.852776
3226.000000	7.859777
3225.000000	7.865650
3224.000000	7.871806
3223.000000	7.877780
3222.000000	7.882281
3221.000000	7.885848
3220.000000	7.889784
3219.000000	7.893556
3218.000000	7.895953
3217.000000	7.897526
3216.000000	7.899279
3215.000000	7.900268
3214.000000	7.899135
3213.000000	7.896752
3212.000000	7.894715
3211.000000	7.892527
3210.000000	7.888880
3209.000000	7.884184
3208.000000	7.879289
3207.000000	7.873194
3206.000000	7.864728
3205.000000	7.855123
3204.000000	7.846104
3203.000000	7.836923
3202.000000	7.825943
3201.000000	7.813647
3200.000000	7.801338
3199.000000	7.788306
3198.000000	7.773198
3197.000000	7.756821
3196.000000	7.740750
3195.000000	7.724531
3194.000000	7.706926
3193.000000	7.688545
3192.000000	7.670554
3191.000000	7.652083
3190.000000	7.631737
3189.000000	7.610336
3188.000000	7.589542
3187.000000	7.569092
3186.000000	7.547884
3185.000000	7.526456
3184.000000	7.505780
3183.000000	7.485062
3182.000000	7.463260
3181.000000	7.441314
3180.000000	7.420444
3179.000000	7.399756
3178.000000	7.377936
3177.000000	7.355774
3176.000000	7.334582
3175.000000	7.313771
3174.000000	7.292485
3173.000000	7.271862
3172.000000	7.253163
3171.000000	7.235402
3170.000000	7.217319
3169.000000	7.199906
3168.000000	7.184430
3167.000000	7.169752
3166.000000	7.154324
3165.000000	7.139065
3164.000000	7.125558
3163.000000	7.113152
3162.000000	7.100463
3161.000000	7.088127
3160.000000	7.077440
3159.000000	7.067899
3158.000000	7.058587
3157.000000	7.050198
3156.000000	7.043310
3155.000000	7.036545
3154.000000	7.029085
3153.000000	7.023181
3152.000000	7.021326
3151.000000	7.022692
3150.000000	7.024892
3149.000000	7.027497
3148.000000	7.031203
3147.000000	7.035329
3146.000000	7.039057
3145.000000	7.043567
3144.000000	7.050193
3143.000000	7.057951
3142.000000	7.065332
3141.000000	7.073135
3140.000000	7.083106
3139.000000	7.095240
3138.000000	7.108811
3137.000000	7.124289
3136.000000	7.141915
3135.000000	7.160105
3134.000000	7.177546
3133.000000	7.195371
3132.000000	7.215041
3131.000000	7.235999
3130.000000	7.257558
3129.000000	7.280922
3128.000000	7.307023
3127.000000	7.334288
3126.000000	7.360955
3125.000000	7.387661
3124.000000	7.415398
3123.000000	7.443131
3122.000000	7.469940
3121.000000	7.497555
3120.000000	7.528177
3119.000000	7.561464
3118.000000	7.596243
3117.000000	7.633259
3116.000000	7.673621
3115.000000	7.716314
3114.000000	7.759587
3113.000000	7.803255
3112.000000	7.847426
3111.000000	7.890958
3110.000000	7.933597
3109.000000	7.977688
3108.000000	8.025409
3107.000000	8.075890
3106.000000	8.127168
3105.000000	8.179148
3104.000000	8.232373
3103.000000	8.285896
3102.000000	8.338812
3101.000000	8.392269
3100.000000	8.447759
3099.000000	8.504819
3098.000000	8.562525
3097.000000	8.621491
3096.000000	8.682238
3095.000000	8.743446
3094.000000	8.803935
3093.000000	8.864763
3092.000000	8.927429
3091.000000	8.991662
3090.000000	9.056858
3089.000000	9.123690
3088.000000	9.192295
3087.000000	9.260848
3086.000000	9.328007
3085.000000	9.395115
3084.000000	9.463925
3083.000000	9.533988
3082.000000	9.604305
3081.000000	9.675647
3080.000000	9.749211
3079.000000	9.824689
3078.000000	9.901595
3077.000000	9.980640
3076.000000	10.061776
3075.000000	10.142788
3074.000000	10.221869
3073.000000	10.299843
3072.000000	10.378110
3071.000000	10.456223
3070.000000	10.533548
3069.000000	10.611446
3068.000000	10.691650
3067.000000	10.773998
3066.000000	10.857514
3065.000000	10.942130
3064.000000	11.027583
3063.000000	11.112413
3062.000000	11.195885
3061.000000	11.279229
3060.000000	11.363373
3059.000000	11.447305
3058.000000	11.530274
3057.000000	11.613619
3056.000000	11.698517
3055.000000	11.783854
3054.000000	11.868320
3053.000000	11.952812
3052.000000	12.038819
3051.000000	12.126057
3050.000000	12.213474
3049.000000	12.300948
3048.000000	12.388210
3047.000000	12.473870
3046.000000	12.557449
3045.000000	12.640827
3044.000000	12.725982
3043.000000	12.812816
3042.000000	12.900677
3041.000000	12.990147
3040.000000	13.081468
3039.000000	13.172983
3038.000000	13.262964
3037.000000	13.351497
3036.000000	13.439162
3035.000000	13.525606
3034.000000	13.611080
3033.000000	13.697523
3032.000000	13.786206
3031.000000	13.875953
3030.000000	13.965314
3029.000000	14.054741
3028.000000	14.144999
3027.000000	14.235282
3026.000000	14.324707
3025.000000	14.413975
3024.000000	14.503771
3023.000000	14.593104
3022.000000	14.680890
3021.000000	14.767694
3020.000000	14.854374
3019.000000	14.940584
3018.000000	15.026130
3017.000000	15.112232
3016.000000	15.199872
3015.000000	15.288401
3014.000000	15.377219
3013.000000	15.467230
3012.000000	15.559143
3011.000000	15.651891
3010.000000	15.744104
3009.000000	15.835576
3008.000000	15.925995
3007.000000	16.014149
3006.000000	16.099919
3005.000000	16.185403
3004.000000	16.272541
3003.000000	16.361026
3002.000000	16.449807
3001.000000	16.538871
3000.000000	16.628153
2999.000000	16.716485
2998.000000	16.803229
2997.000000	16.889421
2996.000000	16.975795
2995.000000	17.061350
2994.000000	17.145447
2993.000000	17.229695
2992.000000	17.316105
2991.000000	17.404753
2990.000000	17.494724
2989.000000	17.585809
2988.000000	17.677653
2987.000000	17.768663
2986.000000	17.857417
2985.000000	17.944097
2984.000000	18.029305
2983.000000	18.112900
2982.000000	18.195274
2981.000000	18.278272
2980.000000	18.363371
2979.000000	18.450166
2978.000000	18.537836
2977.000000	18.626670
2976.000000	18.716890
2975.000000	18.807489
2974.000000	18.897594
2973.000000	18.987545
2972.000000	19.077393
2971.000000	19.165867
2970.000000	19.252240
2969.000000	19.337803
2968.000000	19.424051
2967.000000	19.510860
2966.000000	19.597765
2965.000000	19.685490
2964.000000	19.774672
2963.000000	19.864480
2962.000000	19.954007
2961.000000	20.043523
2960.000000	20.132941
2959.000000	20.220614
2958.000000	20.305171
2957.000000	20.387197
2956.000000	20.467759
2955.000000	20.546908
2954.000000	20.625086
2953.000000	20.704334
2952.000000	20.786348
2951.000000	20.870459
2950.000000	20.954919
2949.000000	21.038885
2948.000000	21.122021
2947.000000	21.203696
2946.000000	21.284048
2945.000000	21.364615
2944.000000	21.446595
2943.000000	21.529572
2942.000000	21.612918
2941.000000	21.697069
2940.000000	21.782307
2939.000000	21.867781
2938.000000	21.952919
2937.000000	22.038334
2936.000000	22.124168
2935.000000	22.209007
2934.000000	22.291743
2933.000000	22.373026
2932.000000	22.453705
2931.000000	22.533522
2930.000000	22.612762
2929.000000	22.693534
2928.000000	22.777707
2927.000000	22.864901
2926.000000	22.953881
2925.000000	23.044345
2924.000000	23.135778
2923.000000	23.226000
2922.000000	23.312506
2921.000000	23.394162
2920.000000	23.470369
2919.000000	23.540103
2918.000000	23.603177
2917.000000	23.661220
2916.000000	23.716278
2915.000000	23.769631
2914.000000	23.822906
2913.000000	23.878583
2912.000000	23.938077
2911.000000	24.000520
2910.000000	24.064520
2909.000000	24.129843
2908.000000	24.196250
2907.000000	24.262246
2906.000000	24.326459
2905.000000	24.389331
2904.000000	24.452069
2903.000000	24.515237
2902.000000	24.579265
2901.000000	24.645222
2900.000000	24.713998
2899.000000	24.785035
2898.000000	24.857054
2897.000000	24.929039
2896.000000	24.999888
2895.000000	25.068224
2894.000000	25.133573
2893.000000	25.196910
2892.000000	25.259244
2891.000000	25.320688
2890.000000	25.381582
2889.000000	25.443380
2888.000000	25.507420
2887.000000	25.573752
2886.000000	25.641829
2885.000000	25.711275
2884.000000	25.781169
2883.000000	25.849789
2882.000000	25.916053
2881.000000	25.980351
2880.000000	26.043299
2879.000000	26.104938
2878.000000	26.166121
2877.000000	26.229345
2876.000000	26.296657
2875.000000	26.367216
2874.000000	26.437998
2873.000000	26.506512
2872.000000	26.572206
2871.000000	26.635999
2870.000000	26.699292
2869.000000	26.762910
2868.000000	26.826258
2867.000000	26.887958
2866.000000	26.947753
2865.000000	27.007236
2864.000000	27.068507
2863.000000	27.132797
2862.000000	27.200449
2861.000000	27.270991
2860.000000	27.342814
2859.000000	27.414033
2858.000000	27.484239
2857.000000	27.554483
2856.000000	27.625285
2855.000000	27.696009
2854.000000	27.766507
2853.000000	27.837738
2852.000000	27.909906
2851.000000	27.981112
2850.000000	28.048603
2849.000000	28.110393
2848.000000	28.165495
2847.000000	28.214226
2846.000000	28.259037
2845.000000	28.303712
2844.000000	28.350902
2843.000000	28.401160
2842.000000	28.454353
2841.000000	28.510248
2840.000000	28.567152
2839.000000	28.622102
2838.000000	28.673961
2837.000000	28.725091
2836.000000	28.778819
2835.000000	28.836303
2834.000000	28.896761
2833.000000	28.959430
2832.000000	29.023754
2831.000000	29.088472
2830.000000	29.152085
2829.000000	29.214009
2828.000000	29.274490
2827.000000	29.333877
2826.000000	29.392746
2825.000000	29.452144
2824.000000	29.512919
2823.000000	29.575262
2822.000000	29.639408
2821.000000	29.705890
2820.000000	29.774367
2819.000000	29.842979
2818.000000	29.909661
2817.000000	29.973570
2816.000000	30.034691
2815.000000	30.093012
2814.000000	30.148961
2813.000000	30.203792
2812.000000	30.258543
2811.000000	30.313171
2810.000000	30.367547
2809.000000	30.422614
2808.000000	30.479540
2807.000000	30.538088
2806.000000	30.596651
2805.000000	30.653516
2804.000000	30.707485
2803.000000	30.757823
2802.000000	30.804535
2801.000000	30.848512
2800.000000	30.890842
2799.000000	30.932355
2798.000000	30.974298
2797.000000	31.018646
2796.000000	31.066868
2795.000000	31.118728
2794.000000	31.172881
2793.000000	31.228113
2792.000000	31.283280
2791.000000	31.336617
2790.000000	31.386219
2789.000000	31.431351
2788.000000	31.472918
2787.000000	31.512951
2786.000000	31.554004
2785.000000	31.598393
2784.000000	31.647129
2783.000000	31.699496
2782.000000	31.753898
2781.000000	31.808749
2780.000000	31.862293
2779.000000	31.912349
2778.000000	31.956997
2777.000000	31.995323
2776.000000	32.027302
2775.000000	32.053412
2774.000000	32.074905
2773.000000	32.093897
2772.000000	32.112267
2771.000000	32.130685
2770.000000	32.148914
2769.000000	32.166371
2768.000000	32.181857
2767.000000	32.193175
2766.000000	32.198029
2765.000000	32.195294
2764.000000	32.185217
2763.000000	32.169080
2762.000000	32.149129
2761.000000	32.128309
2760.000000	32.109205
2759.000000	32.093172
2758.000000	32.080781
2757.000000	32.072327
2756.000000	32.067173
2755.000000	32.063119
2754.000000	32.057173
2753.000000	32.046882
2752.000000	32.030571
2751.000000	32.007048
2750.000000	31.975950
2749.000000	31.938060
2748.000000	31.894791
2747.000000	31.847385
2746.000000	31.796916
2745.000000	31.744531
2744.000000	31.690829
2743.000000	31.635568
2742.000000	31.578619
2741.000000	31.520825
2740.000000	31.463693
2739.000000	31.408911
2738.000000	31.358813
2737.000000	31.317015
2736.000000	31.287712
2735.000000	31.274456
2734.000000	31.280141
2733.000000	31.306801
2732.000000	31.354861
2731.000000	31.422864
2730.000000	31.507867
2729.000000	31.606263
2728.000000	31.713635
2727.000000	31.825080
2726.000000	31.936949
2725.000000	32.047605
2724.000000	32.156607
2723.000000	32.263733
2722.000000	32.369151
2721.000000	32.473759
2720.000000	32.578184
2719.000000	32.681645
2718.000000	32.782417
2717.000000	32.878945
2716.000000	32.969746
2715.000000	33.052888
2714.000000	33.126211
2713.000000	33.188311
2712.000000	33.239096
2711.000000	33.279424
2710.000000	33.311193
2709.000000	33.337146
2708.000000	33.359807
2707.000000	33.380593
2706.000000	33.399850
2705.000000	33.417707
2704.000000	33.434118
2703.000000	33.448262
2702.000000	33.458802
2701.000000	33.464613
2700.000000	33.465158
2699.000000	33.460424
2698.000000	33.451162
2697.000000	33.439306
2696.000000	33.427390
2695.000000	33.417464
2694.000000	33.410649
2693.000000	33.407261
2692.000000	33.406784
2691.000000	33.407795
2690.000000	33.408465
2689.000000	33.407182
2688.000000	33.402568
2687.000000	33.393461
2686.000000	33.379628
2685.000000	33.362486
2684.000000	33.344622
2683.000000	33.328509
2682.000000	33.315835
2681.000000	33.307560
2680.000000	33.303877
2679.000000	33.304140
2678.000000	33.307339
2677.000000	33.312531
2676.000000	33.318706
2675.000000	33.324613
2674.000000	33.329345
2673.000000	33.333245
2672.000000	33.337845
2671.000000	33.345198
2670.000000	33.357417
2669.000000	33.376228
2668.000000	33.402252
2667.000000	33.434379
2666.000000	33.470129
2665.000000	33.506525
2664.000000	33.540499
2663.000000	33.569136
2662.000000	33.590366
2661.000000	33.603594
2660.000000	33.609647
2659.000000	33.610367
2658.000000	33.608368
2657.000000	33.606726
2656.000000	33.608137
2655.000000	33.614047
2654.000000	33.624744
2653.000000	33.639931
2652.000000	33.658865
2651.000000	33.680379
2650.000000	33.703523
2649.000000	33.728219
2648.000000	33.755440
2647.000000	33.786774
2646.000000	33.824055
2645.000000	33.869317
2644.000000	33.924196
2643.000000	33.989545
2642.000000	34.065233
2641.000000	34.149751
2640.000000	34.240093
2639.000000	34.332090
2638.000000	34.421734
2637.000000	34.506252
2636.000000	34.583958
2635.000000	34.653681
2634.000000	34.714909
2633.000000	34.768281
2632.000000	34.815428
2631.000000	34.858292
2630.000000	34.898380
2629.000000	34.936768
2628.000000	34.974004
2627.000000	35.009709
2626.000000	35.042734
2625.000000	35.071597
2624.000000	35.095138
2623.000000	35.112783
2622.000000	35.124567
2621.000000	35.131287
2620.000000	35.134127
2619.000000	35.134174
2618.000000	35.132193
2617.000000	35.128652
2616.000000	35.123816
2615.000000	35.117375
2614.000000	35.108255
2613.000000	35.094927
2612.000000	35.075857
2611.000000	35.050182
2610.000000	35.018118
2609.000000	34.981130
2608.000000	34.941837
2607.000000	34.903718
2606.000000	34.870757
2605.000000	34.846856
2604.000000	34.834949
2603.000000	34.836434
2602.000000	34.851686
2601.000000	34.880181
2600.000000	34.920376
2599.000000	34.969719
2598.000000	35.025039
2597.000000	35.083828
2596.000000	35.144591
2595.000000	35.206749
2594.000000	35.270479
2593.000000	35.336242
2592.000000	35.404599
2591.000000	35.475933
2590.000000	35.550365
2589.000000	35.627695
2588.000000	35.707097
2587.000000	35.787156
2586.000000	35.866337
2585.000000	35.943602
2584.000000	36.018658
2583.000000	36.091770
2582.000000	36.163639
2581.000000	36.235474
2580.000000	36.308941
2579.000000	36.385672
2578.000000	36.466557
2577.000000	36.551414
2576.000000	36.639151
2575.000000	36.728103
2574.000000	36.816245
2573.000000	36.901347
2572.000000	36.981309
2571.000000	37.054729
2570.000000	37.121396
2569.000000	37.182124
2568.000000	37.238238
2567.000000	37.290777
2566.000000	37.340174
2565.000000	37.386584
2564.000000	37.429664
2563.000000	37.468187
2562.000000	37.499587
2561.000000	37.520391
2560.000000	37.527498
2559.000000	37.518657
2558.000000	37.493228
2557.000000	37.452692
2556.000000	37.400937
2555.000000	37.344178
2554.000000	37.290064
2553.000000	37.246837
2552.000000	37.222094
2551.000000	37.221239
2550.000000	37.246014
2549.000000	37.294796
2548.000000	37.363376
2547.000000	37.446100
2546.000000	37.537262
2545.000000	37.631623
2544.000000	37.725497
2543.000000	37.816961
2542.000000	37.905563
2541.000000	37.992072
2540.000000	38.077716
2539.000000	38.163253
2538.000000	38.248310
2537.000000	38.331659
2536.000000	38.411870
2535.000000	38.487625
2534.000000	38.557453
2533.000000	38.620109
2532.000000	38.675525
2531.000000	38.724918
2530.000000	38.770195
2529.000000	38.813305
2528.000000	38.856176
2527.000000	38.900626
2526.000000	38.947694
2525.000000	38.997294
2524.000000	39.048338
2523.000000	39.099005
2522.000000	39.147151
2521.000000	39.190984
2520.000000	39.229818
2519.000000	39.264017
2518.000000	39.294423
2517.000000	39.322308
2516.000000	39.349507
2515.000000	39.377997
2514.000000	39.409000
2513.000000	39.442712
2512.000000	39.478764
2511.000000	39.516301
2510.000000	39.553706
2509.000000	39.588934
2508.000000	39.620486
2507.000000	39.647907
2506.000000	39.671403
2505.000000	39.691655
2504.000000	39.710031
2503.000000	39.728352
2502.000000	39.748235
2501.000000	39.770727
2500.000000	39.796351
2499.000000	39.824813
2498.000000	39.854586
2497.000000	39.883353
2496.000000	39.909200
2495.000000	39.931232
2494.000000	39.949335
2493.000000	39.963936
2492.000000	39.976161
2491.000000	39.987564
2490.000000	39.999509
2489.000000	40.013042
2488.000000	40.029097
2487.000000	40.048193
2486.000000	40.069752
2485.000000	40.092131
2484.000000	40.113485
2483.000000	40.132363
2482.000000	40.147803
2481.000000	40.159544
2480.000000	40.168267
2479.000000	40.175256
2478.000000	40.181751
2477.000000	40.189000
2476.000000	40.198518
2475.000000	40.211468
2474.000000	40.227619
2473.000000	40.245419
2472.000000	40.263116
2471.000000	40.279504
2470.000000	40.293774
2469.000000	40.305434
2468.000000	40.314539
2467.000000	40.321613
2466.000000	40.327319
2465.000000	40.332568
2464.000000	40.338817
2463.000000	40.347561
2462.000000	40.359428
2461.000000	40.374008
2460.000000	40.390410
2459.000000	40.407491
2458.000000	40.423814
2457.000000	40.438072
2456.000000	40.449709
2455.000000	40.458837
2454.000000	40.465812
2453.000000	40.471371
2452.000000	40.476955
2451.000000	40.484190
2450.000000	40.494007
2449.000000	40.506571
2448.000000	40.521687
2447.000000	40.538685
2446.000000	40.556153
2445.000000	40.572591
2444.000000	40.587260
2443.000000	40.600022
2442.000000	40.610651
2441.000000	40.619062
2440.000000	40.626029
2439.000000	40.633003
2438.000000	40.641300
2437.000000	40.651911
2436.000000	40.665668
2435.000000	40.682735
2434.000000	40.701972
2433.000000	40.721528
2432.000000	40.740028
2431.000000	40.756684
2430.000000	40.770747
2429.000000	40.781806
2428.000000	40.790583
2427.000000	40.798608
2426.000000	40.807123
2425.000000	40.816903
2424.000000	40.828887
2423.000000	40.844008
2422.000000	40.862281
2421.000000	40.882602
2420.000000	40.903463
2419.000000	40.923370
2418.000000	40.940930
2417.000000	40.955396
2416.000000	40.967235
2415.000000	40.977650
2414.000000	40.987673
2413.000000	40.998177
2412.000000	41.010409
2411.000000	41.025649
2410.000000	41.044389
2409.000000	41.066230
2408.000000	41.090226
2407.000000	41.114842
2406.000000	41.138085
2405.000000	41.158590
2404.000000	41.176421
2403.000000	41.192318
2402.000000	41.206719
2401.000000	41.220249
2400.000000	41.234533
2399.000000	41.251474
2398.000000	41.271888
2397.000000	41.295575
2396.000000	41.322188
2395.000000	41.351067
2394.000000	41.380693
2393.000000	41.409329
2392.000000	41.436156
2391.000000	41.461164
2390.000000	41.484592
2389.000000	41.507237
2388.000000	41.531136
2387.000000	41.558573
2386.000000	41.590855
2385.000000	41.628870
2384.000000	41.673321
2383.000000	41.724296
2382.000000	41.779899
2381.000000	41.837095
2380.000000	41.893765
2379.000000	41.948105
2378.000000	41.998326
2377.000000	42.043270
2376.000000	42.083430
2375.000000	42.120537
2374.000000	42.156690
2373.000000	42.194711
2372.000000	42.237838
2371.000000	42.287379
2370.000000	42.341014
2369.000000	42.396120
2368.000000	42.451620
2367.000000	42.506170
2366.000000	42.557251
2365.000000	42.604157
2364.000000	42.649679
2363.000000	42.693549
2362.000000	42.735030
2361.000000	42.776286
2360.000000	42.819759
2359.000000	42.869041
2358.000000	42.921949
2357.000000	42.975330
2356.000000	43.027627
2355.000000	43.074746
2354.000000	43.117146
2353.000000	43.157391
2352.000000	43.205709
2351.000000	43.262532
2350.000000	43.316281
2349.000000	43.360500
2348.000000	43.400202
2347.000000	43.451298
2346.000000	43.513787
2345.000000	43.574674
2344.000000	43.625288
2343.000000	43.665868
2342.000000	43.707499
2341.000000	43.750653
2340.000000	43.793739
2339.000000	43.834401
2338.000000	43.873855
2337.000000	43.913790
2336.000000	43.956431
2335.000000	44.005022
2334.000000	44.060994
2333.000000	44.121667
2332.000000	44.183030
2331.000000	44.244206
2330.000000	44.302112
2329.000000	44.359721
2328.000000	44.412079
2327.000000	44.463498
2326.000000	44.511116
2325.000000	44.556105
2324.000000	44.598061
2323.000000	44.637702
2322.000000	44.677584
2321.000000	44.717250
2320.000000	44.760434
2319.000000	44.809764
2318.000000	44.866011
2317.000000	44.925898
2316.000000	44.984283
2315.000000	45.039716
2314.000000	45.088574
2313.000000	45.130836
2312.000000	45.165756
2311.000000	45.199712
2310.000000	45.234969
2309.000000	45.274753
2308.000000	45.318031
2307.000000	45.367057
2306.000000	45.419941
2305.000000	45.474630
2304.000000	45.527621
2303.000000	45.578443
2302.000000	45.624995
2301.000000	45.666064
2300.000000	45.700923
2299.000000	45.733232
2298.000000	45.764765
2297.000000	45.797599
2296.000000	45.832502
2295.000000	45.872661
2294.000000	45.917657
2293.000000	45.965307
2292.000000	46.012420
2291.000000	46.058257
2290.000000	46.101195
2289.000000	46.138944
2288.000000	46.170797
2287.000000	46.198990
2286.000000	46.226094
2285.000000	46.253166
2284.000000	46.282050
2283.000000	46.315466
2282.000000	46.354741
2281.000000	46.398014
2280.000000	46.443238
2279.000000	46.489376
2278.000000	46.535002
2277.000000	46.577162
2276.000000	46.613992
2275.000000	46.646056
2274.000000	46.674331
2273.000000	46.699416
2272.000000	46.723081
2271.000000	46.748785
2270.000000	46.778714
2269.000000	46.812583
2268.000000	46.849548
2267.000000	46.889139
2266.000000	46.929426
2265.000000	46.967069
2264.000000	46.999831
2263.000000	47.027639
2262.000000	47.050088
2261.000000	47.066217
2260.000000	47.077229
2259.000000	47.086687
2258.000000	47.097383
2257.000000	47.109500
2256.000000	47.123119
2255.000000	47.138701
2254.000000	47.154780
2253.000000	47.167438
2252.000000	47.173372
2251.000000	47.171473
2250.000000	47.160290
2249.000000	47.138462
2248.000000	47.105861
2247.000000	47.065313
2246.000000	47.019375
2245.000000	46.968983
2244.000000	46.915438
2243.000000	46.860919
2242.000000	46.805726
2241.000000	46.747656
2240.000000	46.684900
2239.000000	46.617741
2238.000000	46.546804
2237.000000	46.472547
2236.000000	46.397550
2235.000000	46.326811
2234.000000	46.264868
2233.000000	46.214241
2232.000000	46.177213
2231.000000	46.155894
2230.000000	46.149541
2229.000000	46.153866
2228.000000	46.164055
2227.000000	46.176654
2226.000000	46.187903
2225.000000	46.193531
2224.000000	46.191568
2223.000000	46.183501
2222.000000	46.171676
2221.000000	46.157735
2220.000000	46.144243
2219.000000	46.134993
2218.000000	46.132221
2217.000000	46.135350
2216.000000	46.143108
2215.000000	46.154498
2214.000000	46.166986
2213.000000	46.176434
2212.000000	46.180215
2211.000000	46.178559
2210.000000	46.172349
2209.000000	46.162203
2208.000000	46.150544
2207.000000	46.141756
2206.000000	46.138845
2205.000000	46.141773
2204.000000	46.149681
2203.000000	46.162140
2202.000000	46.177302
2201.000000	46.191368
2200.000000	46.201327
2199.000000	46.206211
2198.000000	46.205271
2197.000000	46.197557
2196.000000	46.184421
2195.000000	46.169775
2194.000000	46.156678
2193.000000	46.145697
2192.000000	46.137121
2191.000000	46.132019
2190.000000	46.129967
2189.000000	46.128161
2188.000000	46.123933
2187.000000	46.116171
2186.000000	46.103790
2185.000000	46.085777
2184.000000	46.063849
2183.000000	46.042648
2182.000000	46.026095
2181.000000	46.015833
2180.000000	46.013487
2179.000000	46.021379
2178.000000	46.039635
2177.000000	46.065111
2176.000000	46.094566
2175.000000	46.126429
2174.000000	46.158705
2173.000000	46.188230
2172.000000	46.213754
2171.000000	46.237424
2170.000000	46.261923
2169.000000	46.288327
2168.000000	46.317812
2167.000000	46.352683
2166.000000	46.394057
2165.000000	46.440550
2164.000000	46.490349
2163.000000	46.542166
2162.000000	46.593300
2161.000000	46.639614
2160.000000	46.679005
2159.000000	46.712842
2158.000000	46.743130
2157.000000	46.771029
2156.000000	46.798885
2155.000000	46.830536
2154.000000	46.868016
2153.000000	46.910242
2152.000000	46.955630
2151.000000	47.003313
2150.000000	47.050897
2149.000000	47.094168
2148.000000	47.130782
2147.000000	47.161678
2146.000000	47.187947
2145.000000	47.209965
2144.000000	47.230374
2143.000000	47.254207
2142.000000	47.284619
2141.000000	47.321433
2140.000000	47.364648
2139.000000	47.415449
2138.000000	47.472257
2137.000000	47.529511
2136.000000	47.582395
2135.000000	47.629905
2134.000000	47.672245
2133.000000	47.708911
2132.000000	47.741061
2131.000000	47.772405
2130.000000	47.805626
2129.000000	47.840702
2128.000000	47.877971
2127.000000	47.919346
2126.000000	47.964688
2125.000000	48.010237
2124.000000	48.052683
2123.000000	48.091514
2122.000000	48.126199
2121.000000	48.154859
2120.000000	48.177877
2119.000000	48.199556
2118.000000	48.224238
2117.000000	48.253404
2116.000000	48.287701
2115.000000	48.328243
2114.000000	48.374102
2113.000000	48.421613
2112.000000	48.467952
2111.000000	48.512603
2110.000000	48.554251
2109.000000	48.589959
2108.000000	48.618710
2107.000000	48.642431
2106.000000	48.662541
2105.000000	48.678581
2104.000000	48.691756
2103.000000	48.705706
2102.000000	48.721800
2101.000000	48.737708
2100.000000	48.750822
2099.000000	48.760959
2098.000000	48.767221
2097.000000	48.765470
2096.000000	48.752063
2095.000000	48.727821
2094.000000	48.696830
2093.000000	48.663840
2092.000000	48.633698
2091.000000	48.610166
2090.000000	48.593827
2089.000000	48.583263
2088.000000	48.578857
2087.000000	48.582885
2086.000000	48.595272
2085.000000	48.612762
2084.000000	48.633094
2083.000000	48.656762
2082.000000	48.683424
2081.000000	48.711073
2080.000000	48.738934
2079.000000	48.769596
2078.000000	48.805797
2077.000000	48.847977
2076.000000	48.897502
2075.000000	48.955864
2074.000000	49.022010
2073.000000	49.091890
2072.000000	49.160738
2071.000000	49.223936
2070.000000	49.277766
2069.000000	49.324378
2068.000000	49.374373
2067.000000	49.437854
2066.000000	49.513424
2065.000000	49.592102
2064.000000	49.670419
2063.000000	49.753250
2062.000000	49.844020
2061.000000	49.939432
2060.000000	50.035346
2059.000000	50.130802
2058.000000	50.223804
2057.000000	50.309439
2056.000000	50.386384
2055.000000	50.458272
2054.000000	50.527840
2053.000000	50.595318
2052.000000	50.662951
2051.000000	50.734971
2050.000000	50.813137
2049.000000	50.894872
2048.000000	50.976046
2047.000000	51.052866
2046.000000	51.122222
2045.000000	51.184912
2044.000000	51.247743
2043.000000	51.316862
2042.000000	51.389836
2041.000000	51.459809
2040.000000	51.526599
2039.000000	51.597492
2038.000000	51.677353
2037.000000	51.764284
2036.000000	51.855695
2035.000000	51.951635
2034.000000	52.049297
2033.000000	52.141563
2032.000000	52.225014
2031.000000	52.302019
2030.000000	52.376128
2029.000000	52.447310
2028.000000	52.518038
2027.000000	52.593384
2026.000000	52.676144
2025.000000	52.764488
2024.000000	52.853441
2023.000000	52.936637
2022.000000	53.008740
2021.000000	53.072579
2020.000000	53.141977
2019.000000	53.228363
2018.000000	53.326005
2017.000000	53.419247
2016.000000	53.501530
2015.000000	53.579131
2014.000000	53.659190
2013.000000	53.742688
2012.000000	53.830632
2011.000000	53.926843
2010.000000	54.031896
2009.000000	54.138456
2008.000000	54.241082
2007.000000	54.340087
2006.000000	54.435494
2005.000000	54.525591
2004.000000	54.610081
2003.000000	54.696611
2002.000000	54.788992
2001.000000	54.886201
2000.000000	54.990258
1999.000000	55.101043
1998.000000	55.204909
1997.000000	55.284869
1996.000000	55.345065
1995.000000	55.411242
1994.000000	55.497508
1993.000000	55.589958
1992.000000	55.675353
1991.000000	55.760199
1990.000000	55.853409
1989.000000	55.950120
1988.000000	56.041171
1987.000000	56.126521
1986.000000	56.209480
1985.000000	56.289018
1984.000000	56.362464
1983.000000	56.434424
1982.000000	56.505289
1981.000000	56.569735
1980.000000	56.627652
1979.000000	56.686076
1978.000000	56.746775
1977.000000	56.803911
1976.000000	56.857712
1975.000000	56.916010
1974.000000	56.977292
1973.000000	57.025198
1972.000000	57.048305
1971.000000	57.057986
1970.000000	57.082007
1969.000000	57.138759
1968.000000	57.221311
1967.000000	57.308103
1966.000000	57.380475
1965.000000	57.432153
1964.000000	57.472884
1963.000000	57.516707
1962.000000	57.565153
1961.000000	57.609826
1960.000000	57.647931
1959.000000	57.686466
1958.000000	57.731868
1957.000000	57.782425
1956.000000	57.836368
1955.000000	57.891477
1954.000000	57.944701
1953.000000	57.989899
1952.000000	58.021338
1951.000000	58.043232
1950.000000	58.065493
1949.000000	58.092594
1948.000000	58.119676
1947.000000	58.138255
1946.000000	58.151668
1945.000000	58.180861
1944.000000	58.238624
1943.000000	58.311455
1942.000000	58.377687
1941.000000	58.424094
1940.000000	58.452944
1939.000000	58.474705
1938.000000	58.492839
1937.000000	58.506548
1936.000000	58.524203
1935.000000	58.553149
1934.000000	58.593376
1933.000000	58.636474
1932.000000	58.674531
1931.000000	58.716600
1930.000000	58.762744
1929.000000	58.797687
1928.000000	58.794841
1927.000000	58.751202
1926.000000	58.712966
1925.000000	58.736259
1924.000000	58.824480
1923.000000	58.933767
1922.000000	59.016545
1921.000000	59.057051
1920.000000	59.072448
1919.000000	59.082861
1918.000000	59.097443
1917.000000	59.115092
1916.000000	59.128087
1915.000000	59.127069
1914.000000	59.107013
1913.000000	59.076305
1912.000000	59.060732
1911.000000	59.086765
1910.000000	59.143807
1909.000000	59.206506
1908.000000	59.257676
1907.000000	59.297712
1906.000000	59.336876
1905.000000	59.373787
1904.000000	59.404242
1903.000000	59.436364
1902.000000	59.469111
1901.000000	59.488819
1900.000000	59.482723
1899.000000	59.457878
1898.000000	59.444171
1897.000000	59.464845
1896.000000	59.514497
1895.000000	59.568799
1894.000000	59.600297
1893.000000	59.599443
1892.000000	59.592901
1891.000000	59.604481
1890.000000	59.621899
1889.000000	59.625835
1888.000000	59.616333
1887.000000	59.607950
1886.000000	59.609374
1885.000000	59.609485
1884.000000	59.598790
1883.000000	59.589136
1882.000000	59.590524
1881.000000	59.599908
1880.000000	59.615946
1879.000000	59.639355
1878.000000	59.668068
1877.000000	59.699246
1876.000000	59.734864
1875.000000	59.778802
1874.000000	59.812782
1873.000000	59.791636
1872.000000	59.698785
1871.000000	59.596629
1870.000000	59.553409
1869.000000	59.569616
1868.000000	59.615232
1867.000000	59.666516
1866.000000	59.704909
1865.000000	59.718212
1864.000000	59.709480
1863.000000	59.694690
1862.000000	59.683134
1861.000000	59.670512
1860.000000	59.653788
1859.000000	59.639880
1858.000000	59.630153
1857.000000	59.620003
1856.000000	59.607227
1855.000000	59.608749
1854.000000	59.617657
1853.000000	59.603805
1852.000000	59.568345
1851.000000	59.548918
1850.000000	59.569846
1849.000000	59.605898
1848.000000	59.617211
1847.000000	59.588644
1846.000000	59.532647
1845.000000	59.471456
1844.000000	59.432247
1843.000000	59.418209
1842.000000	59.396203
1841.000000	59.353840
1840.000000	59.307159
1839.000000	59.277110
1838.000000	59.269262
1837.000000	59.272519
1836.000000	59.281690
1835.000000	59.293901
1834.000000	59.264646
1833.000000	59.165635
1832.000000	59.066962
1831.000000	59.027496
1830.000000	59.026587
1829.000000	59.018107
1828.000000	58.975764
1827.000000	58.910903
1826.000000	58.835593
1825.000000	58.754798
1824.000000	58.683776
1823.000000	58.625869
1822.000000	58.558955
1821.000000	58.472120
1820.000000	58.381707
1819.000000	58.310433
1818.000000	58.262176
1817.000000	58.211304
1816.000000	58.143106
1815.000000	58.060391
1814.000000	57.975223
1813.000000	57.904139
1812.000000	57.840495
1811.000000	57.774684
1810.000000	57.715934
1809.000000	57.670573
1808.000000	57.634762
1807.000000	57.600791
1806.000000	57.567031
1805.000000	57.525528
1804.000000	57.489332
1803.000000	57.473132
1802.000000	57.452424
1801.000000	57.391984
1800.000000	57.299576
1799.000000	57.228998
1798.000000	57.217480
1797.000000	57.239699
1796.000000	57.244185
1795.000000	57.202949
1794.000000	57.143587
1793.000000	57.096400
1792.000000	57.063786
1791.000000	57.047190
1790.000000	57.034397
1789.000000	57.000526
1788.000000	56.934834
1787.000000	56.848508
1786.000000	56.756836
1785.000000	56.633966
1784.000000	56.479978
1783.000000	56.343541
1782.000000	56.249410
1781.000000	56.179675
1780.000000	56.114223
1779.000000	56.056439
1778.000000	55.982654
1777.000000	55.861721
1776.000000	55.722134
1775.000000	55.643912
1774.000000	55.659381
1773.000000	55.674192
1772.000000	55.596463
1771.000000	55.442990
1770.000000	55.286745
1769.000000	55.171928
1768.000000	55.104722
1767.000000	55.069644
1766.000000	55.033507
1765.000000	54.960349
1764.000000	54.859944
1763.000000	54.755074
1762.000000	54.657803
1761.000000	54.562889
1760.000000	54.456464
1759.000000	54.365855
1758.000000	54.282955
1757.000000	54.159435
1756.000000	53.985888
1755.000000	53.800135
1754.000000	53.629550
1753.000000	53.477869
1752.000000	53.344826
1751.000000	53.243133
1750.000000	53.165780
1749.000000	53.058274
1748.000000	52.916184
1747.000000	52.785411
1746.000000	52.704001
1745.000000	52.680064
1744.000000	52.677355
1743.000000	52.629748
1742.000000	52.511812
1741.000000	52.358090
1740.000000	52.193818
1739.000000	51.996850
1738.000000	51.733321
1737.000000	51.385996
1736.000000	51.031080
1735.000000	50.776799
1734.000000	50.662551
1733.000000	50.604452
1732.000000	50.491355
1731.000000	50.335412
1730.000000	50.163668
1729.000000	49.959893
1728.000000	49.733914
1727.000000	49.502970
1726.000000	49.281608
1725.000000	49.100660
1724.000000	48.967526
1723.000000	48.818446
1722.000000	48.525113
1721.000000	48.020531
1720.000000	47.471949
1719.000000	47.119691
1718.000000	46.981963
1717.000000	46.910961
1716.000000	46.763111
1715.000000	46.511838
1714.000000	46.232099
1713.000000	45.961608
1712.000000	45.725796
1711.000000	45.511351
1710.000000	45.347856
1709.000000	44.883045
1708.000000	44.493961
1707.000000	44.157650
1706.000000	43.821822
1705.000000	43.534286
1704.000000	43.231853
1703.000000	42.889908
1702.000000	42.509267
1701.000000	42.150086
1700.000000	41.882863
1699.000000	41.665885
1698.000000	41.429540
1697.000000	41.126012
1696.000000	40.989014
1695.000000	40.812533
1694.000000	40.517293
1693.000000	40.177578
1692.000000	39.831698
1691.000000	39.501571
1690.000000	39.131020
1689.000000	38.723877
1688.000000	38.377794
1687.000000	38.154514
1686.000000	38.089256
1685.000000	37.980250
1684.000000	37.669783
1683.000000	37.315775
1682.000000	37.042142
1681.000000	36.868054
1680.000000	36.755954
1679.000000	36.656433
1678.000000	36.513661
1677.000000	36.261150
1676.000000	35.922631
1675.000000	35.600881
1674.000000	35.335015
1673.000000	35.081883
1672.000000	34.813200
1671.000000	34.528941
1670.000000	34.223171
1669.000000	33.920959
1668.000000	33.667117
1667.000000	33.463786
1666.000000	33.266626
1665.000000	33.028658
1664.000000	32.746374
1663.000000	32.455085
1662.000000	32.183850
1661.000000	31.939865
1660.000000	31.737290
1659.000000	31.552479
1658.000000	31.320512
1657.000000	30.998727
1656.000000	30.631474
1655.000000	30.340266
1654.000000	30.094064
1653.000000	29.955452
1652.000000	29.926503
1651.000000	29.778976
1650.000000	29.491736
1649.000000	29.213786
1648.000000	28.987709
1647.000000	28.756968
1646.000000	28.550517
1645.000000	28.360896
1644.000000	28.149171
1643.000000	27.950653
1642.000000	27.783870
1641.000000	27.612838
1640.000000	27.410799
1639.000000	27.210223
1638.000000	27.071946
1637.000000	26.938541
1636.000000	26.720533
1635.000000	26.479696
1634.000000	26.276440
1633.000000	26.098542
1632.000000	25.935850
1631.000000	25.778451
1630.000000	25.625127
1629.000000	25.473533
1628.000000	25.323254
1627.000000	25.178026
1626.000000	25.024784
1625.000000	24.855947
1624.000000	24.683811
1623.000000	24.530275
1622.000000	24.379489
1621.000000	24.189967
1620.000000	23.978778
1619.000000	23.829452
1618.000000	23.789941
1617.000000	23.809083
1616.000000	23.813354
1615.000000	23.772318
1614.000000	23.700322
1613.000000	23.617792
1612.000000	23.533089
1611.000000	23.462132
1610.000000	23.420418
1609.000000	23.395805
1608.000000	23.368410
1607.000000	23.342307
1606.000000	23.320954
1605.000000	23.298657
1604.000000	23.279267
1603.000000	23.274628
1602.000000	23.283099
1601.000000	23.285793
1600.000000	23.274624
1599.000000	23.260864
1598.000000	23.255126
1597.000000	23.256502
1596.000000	23.262801
1595.000000	23.277695
1594.000000	23.299393
1593.000000	23.317150
1592.000000	23.328082
1591.000000	23.343360
1590.000000	23.366072
1589.000000	23.385180
1588.000000	23.391642
1587.000000	23.397132
1586.000000	23.410782
1585.000000	23.418487
1584.000000	23.418532
1583.000000	23.425964
1582.000000	23.421632
1581.000000	23.348284
1580.000000	23.196783
1579.000000	23.054204
1578.000000	23.032839
1577.000000	23.135438
1576.000000	23.280922
1575.000000	23.399331
1574.000000	23.453519
1573.000000	23.448665
1572.000000	23.405870
1571.000000	23.359889
1570.000000	23.327115
1569.000000	23.300857
1568.000000	23.273757
1567.000000	23.255521
1566.000000	23.252119
1565.000000	23.259633
1564.000000	23.276246
1563.000000	23.369420
1562.000000	23.424725
1561.000000	23.448035
1560.000000	23.569207
1559.000000	23.678012
1558.000000	23.772827
1557.000000	23.818874
1556.000000	23.844752
1555.000000	23.929859
1554.000000	24.052677
1553.000000	24.170080
1552.000000	24.282949
1551.000000	24.434978
1550.000000	24.632553
1549.000000	24.833314
1548.000000	24.989168
1547.000000	25.107970
1546.000000	25.247695
1545.000000	25.419815
1544.000000	25.546771
1543.000000	25.570719
1542.000000	25.644304
1541.000000	25.891378
1540.000000	26.267018
1539.000000	26.711809
1538.000000	27.091883
1537.000000	27.325317
1536.000000	27.465445
1535.000000	27.620011
1534.000000	27.845971
1533.000000	28.123617
1532.000000	28.409943
1531.000000	28.673262
1530.000000	28.918368
1529.000000	29.179304
1528.000000	29.494926
1527.000000	29.864648
1526.000000	30.224124
1525.000000	30.495571
1524.000000	30.720051
1523.000000	31.065298
1522.000000	31.602065
1521.000000	32.203222
1520.000000	32.672463
1519.000000	32.994992
1518.000000	33.341858
1517.000000	33.783917
1516.000000	34.255471
1515.000000	34.688988
1514.000000	35.076197
1513.000000	35.446727
1512.000000	35.766865
1511.000000	35.978214
1510.000000	36.080930
1509.000000	36.391034
1508.000000	37.049216
1507.000000	37.754085
1506.000000	38.457255
1505.000000	39.072636
1504.000000	39.506160
1503.000000	39.887997
1502.000000	40.297650
1501.000000	40.678438
1500.000000	40.966250
1499.000000	41.224296
1498.000000	41.582008
1497.000000	42.091181
1496.000000	42.681442
1495.000000	43.232300
1494.000000	43.656320
1493.000000	43.924863
1492.000000	44.123729
1491.000000	44.412557
1490.000000	44.820244
1489.000000	45.248227
1488.000000	45.606201
1487.000000	45.898641
1486.000000	46.167175
1485.000000	46.395839
1484.000000	46.583123
1483.000000	46.781578
1482.000000	47.036246
1481.000000	47.320513
1480.000000	47.573077
1479.000000	47.752977
1478.000000	47.851342
1477.000000	47.875700
1476.000000	47.842041
1475.000000	47.822887
1474.000000	47.860819
1473.000000	47.859545
1472.000000	47.755999
1471.000000	47.608661
1470.000000	47.455990
1469.000000	47.274631
1468.000000	47.012317
1467.000000	46.646285
1466.000000	46.151099
1465.000000	45.506162
1464.000000	44.808916
1463.000000	44.172677
1462.000000	43.561608
1461.000000	42.855625
1460.000000	42.048631
1459.000000	41.257554
1458.000000	40.408621
1457.000000	39.366038
1456.000000	38.288259
1455.000000	37.313813
1454.000000	36.373391
1453.000000	35.355329
1452.000000	34.220944
1451.000000	33.000215
1450.000000	31.687134
1449.000000	30.220240
1448.000000	28.605950
1447.000000	26.973741
1446.000000	25.390411
1445.000000	23.808801
1444.000000	22.203282
1443.000000	20.600526
1442.000000	19.009452
1441.000000	17.443388
1440.000000	15.962312
1439.000000	14.565922
1438.000000	13.120551
1437.000000	11.543796
1436.000000	10.053795
1435.000000	8.925383
1434.000000	8.114266
1433.000000	7.435055
1432.000000	6.837957
1431.000000	6.365540
1430.000000	6.004597
1429.000000	5.710151
1428.000000	5.514640
1427.000000	5.465611
1426.000000	5.532590
1425.000000	5.676821
1424.000000	5.928234
1423.000000	6.303824
1422.000000	6.740595
1421.000000	7.211545
1420.000000	7.821787
1419.000000	8.637779
1418.000000	9.519104
1417.000000	10.329260
1416.000000	11.120997
1415.000000	11.979060
1414.000000	12.891437
1413.000000	13.829830
1412.000000	14.828270
1411.000000	15.910857
1410.000000	17.024574
1409.000000	18.116683
1408.000000	19.205209
1407.000000	20.337654
1406.000000	21.528128
1405.000000	22.764932
1404.000000	24.025071
1403.000000	25.247961
1402.000000	26.380334
1401.000000	27.467883
1400.000000	28.618453
1399.000000	29.840692
1398.000000	31.036386
1397.000000	32.178045
1396.000000	33.346923
1395.000000	34.587128
1394.000000	35.833705
1393.000000	37.007182
1392.000000	38.092968
1391.000000	39.107073
1390.000000	40.071375
1389.000000	41.047638
1388.000000	42.091328
1387.000000	43.152144
1386.000000	44.111316
1385.000000	44.913886
1384.000000	45.584111
1383.000000	46.134798
1382.000000	46.548991
1381.000000	46.816886
1380.000000	46.929314
1379.000000	46.843335
1378.000000	46.501808
1377.000000	45.879557
1376.000000	44.971537
1375.000000	43.739191
1374.000000	42.157225
1373.000000	40.327736
1372.000000	38.425962
1371.000000	36.603660
1370.000000	35.004337
1369.000000	33.798197
1368.000000	33.143074
1367.000000	33.091612
1366.000000	33.585842
1365.000000	34.556422
1364.000000	35.961225
1363.000000	37.691486
1362.000000	39.527149
1361.000000	41.250976
1360.000000	42.748756
1359.000000	43.985533
1358.000000	44.945288
1357.000000	45.609961
1356.000000	45.956074
1355.000000	45.951288
1354.000000	45.571671
1353.000000	44.821195
1352.000000	43.723630
1351.000000	42.309884
1350.000000	40.609946
1349.000000	38.661133
1348.000000	36.509294
1347.000000	34.203719
1346.000000	31.790932
1345.000000	29.314855
1344.000000	26.830647
1343.000000	24.404521
1342.000000	22.098392
1341.000000	19.962150
1340.000000	18.050085
1339.000000	16.436989
1338.000000	15.186700
1337.000000	14.298734
1336.000000	13.711495
1335.000000	13.333347
1334.000000	13.048481
1333.000000	12.730327
1332.000000	12.274587
1331.000000	11.625863
1330.000000	10.782260
1329.000000	9.785861
1328.000000	8.711969
1327.000000	7.649602
1326.000000	6.669938
1325.000000	5.812211
1324.000000	5.098742
1323.000000	4.544894
1322.000000	4.145768
1321.000000	3.874219
1320.000000	3.703174
1319.000000	3.610777
1318.000000	3.566522
1317.000000	3.534648
1316.000000	3.496017
1315.000000	3.451861
1314.000000	3.401699
1313.000000	3.338232
1312.000000	3.264981
1311.000000	3.197153
1310.000000	3.142537
1309.000000	3.099146
1308.000000	3.073279
1307.000000	3.080686
1306.000000	3.127362
1305.000000	3.208134
1304.000000	3.323945
1303.000000	3.482318
1302.000000	3.680326
1301.000000	3.904225
1300.000000	4.148642
1299.000000	4.417552
1298.000000	4.707810
1297.000000	5.009738
1296.000000	5.322240
1295.000000	5.651906
1294.000000	5.996767
1293.000000	6.346839
1292.000000	6.699152
1291.000000	7.056548
1290.000000	7.412657
1289.000000	7.751958
1288.000000	8.061291
1287.000000	8.327060
1286.000000	8.526898
1285.000000	8.640837
1284.000000	8.674310
1283.000000	8.661410
1282.000000	8.647041
1281.000000	8.674297
1280.000000	8.781197
1279.000000	8.988873
1278.000000	9.288582
1277.000000	9.652601
1276.000000	10.056824
1275.000000	10.486155
1274.000000	10.926033
1273.000000	11.363831
1272.000000	11.797616
1271.000000	12.229993
1270.000000	12.656358
1269.000000	13.069593
1268.000000	13.471758
1267.000000	13.869811
1266.000000	14.263414
1265.000000	14.647511
1264.000000	15.023180
1263.000000	15.396210
1262.000000	15.767322
1261.000000	16.133133
1260.000000	16.493606
1259.000000	16.849687
1258.000000	17.198034
1257.000000	17.536006
1256.000000	17.868053
1255.000000	18.199866
1254.000000	18.530665
1253.000000	18.857678
1252.000000	19.182808
1251.000000	19.508555
1250.000000	19.832037
1249.000000	20.149002
1248.000000	20.460100
1247.000000	20.767395
1246.000000	21.069151
1245.000000	21.363672
1244.000000	21.653600
1243.000000	21.941749
1242.000000	22.226758
1241.000000	22.507511
1240.000000	22.787127
1239.000000	23.067795
1238.000000	23.346548
1237.000000	23.620063
1236.000000	23.889061
1235.000000	24.154394
1234.000000	24.413306
1233.000000	24.664012
1232.000000	24.909548
1231.000000	25.153345
1230.000000	25.395411
1229.000000	25.636003
1228.000000	25.878878
1227.000000	26.127272
1226.000000	26.380137
1225.000000	26.634907
1224.000000	26.890113
1223.000000	27.143525
1222.000000	27.392026
1221.000000	27.635302
1220.000000	27.876291
1219.000000	28.116498
1218.000000	28.354659
1217.000000	28.590869
1216.000000	28.827746
1215.000000	29.067037
1214.000000	29.308498
1213.000000	29.552455
1212.000000	29.799009
1211.000000	30.044426
1210.000000	30.283382
1209.000000	30.514773
1208.000000	30.741332
1207.000000	30.964411
1206.000000	31.183952
1205.000000	31.402756
1204.000000	31.624949
1203.000000	31.850586
1202.000000	32.076614
1201.000000	32.301619
1200.000000	32.525275
1199.000000	32.743791
1198.000000	32.950701
1197.000000	33.142035
1196.000000	33.314569
1195.000000	33.461982
1194.000000	33.576055
1193.000000	33.649766
1192.000000	33.676895
1191.000000	33.649855
1190.000000	33.566904
1189.000000	33.440959
1188.000000	33.298567
1187.000000	33.172186
1186.000000	33.093526
1185.000000	33.087904
1184.000000	33.166943
1183.000000	33.325217
1182.000000	33.544819
1181.000000	33.806168
1180.000000	34.091499
1179.000000	34.383755
1178.000000	34.671584
1177.000000	34.952558
1176.000000	35.228062
1175.000000	35.496064
1174.000000	35.752835
1173.000000	35.998467
1172.000000	36.235603
1171.000000	36.464987
1170.000000	36.686881
1169.000000	36.904211
1168.000000	37.119303
1167.000000	37.331212
1166.000000	37.539643
1165.000000	37.747937
1164.000000	37.958345
1163.000000	38.168140
1162.000000	38.375229
1161.000000	38.582554
1160.000000	38.792474
1159.000000	39.001985
1158.000000	39.207707
1157.000000	39.410782
1156.000000	39.611918
1155.000000	39.807035
1154.000000	39.993199
1153.000000	40.173198
1152.000000	40.350037
1151.000000	40.522316
1150.000000	40.689668
1149.000000	40.857159
1148.000000	41.028844
1147.000000	41.202813
1146.000000	41.376881
1145.000000	41.552598
1144.000000	41.729335
1143.000000	41.900622
1142.000000	42.061472
1141.000000	42.213408
1140.000000	42.358266
1139.000000	42.494658
1138.000000	42.624270
1137.000000	42.754510
1136.000000	42.890453
1135.000000	43.030763
1134.000000	43.175284
1133.000000	43.328096
1132.000000	43.488591
1131.000000	43.647769
1130.000000	43.798405
1129.000000	43.941646
1128.000000	44.079487
1127.000000	44.209552
1126.000000	44.332619
1125.000000	44.456359
1124.000000	44.586471
1123.000000	44.721949
1122.000000	44.863117
1121.000000	45.014967
1120.000000	45.176996
1119.000000	45.338882
1118.000000	45.491536
1117.000000	45.634264
1116.000000	45.767100
1115.000000	45.886387
1114.000000	45.993824
1113.000000	46.100173
1112.000000	46.213413
1111.000000	46.333185
1110.000000	46.459631
1109.000000	46.597693
1108.000000	46.747433
1107.000000	46.898546
1106.000000	47.041317
1105.000000	47.172941
1104.000000	47.289823
1103.000000	47.384222
1102.000000	47.455928
1101.000000	47.515303
1100.000000	47.572337
1099.000000	47.630974
1098.000000	47.696619
1097.000000	47.779802
1096.000000	47.884207
1095.000000	48.002277
1094.000000	48.126399
1093.000000	48.254456
1092.000000	48.380776
1091.000000	48.494146
1090.000000	48.590875
1089.000000	48.679415
1088.000000	48.767470
1087.000000	48.855960
1086.000000	48.948996
1085.000000	49.056964
1084.000000	49.183892
1083.000000	49.322502
1082.000000	49.466145
1081.000000	49.613900
1080.000000	49.759802
1079.000000	49.890191
1078.000000	49.998353
1077.000000	50.090019
1076.000000	50.170548
1075.000000	50.239073
1074.000000	50.298860
1073.000000	50.360486
1072.000000	50.427421
1071.000000	50.490347
1070.000000	50.539003
1069.000000	50.566088
1068.000000	50.557869
1067.000000	50.493203
1066.000000	50.361085
1065.000000	50.170549
1064.000000	49.941197
1063.000000	49.698821
1062.000000	49.481681
1061.000000	49.334241
1060.000000	49.284291
1059.000000	49.334022
1058.000000	49.471154
1057.000000	49.679691
1056.000000	49.936654
1055.000000	50.211682
1054.000000	50.482785
1053.000000	50.741592
1052.000000	50.981924
1051.000000	51.195390
1050.000000	51.383021
1049.000000	51.558155
1048.000000	51.730994
1047.000000	51.902399
1046.000000	52.075713
1045.000000	52.260072
1044.000000	52.456045
1043.000000	52.651542
1042.000000	52.836441
1041.000000	53.009286
1040.000000	53.166727
1039.000000	53.300499
1038.000000	53.411116
1037.000000	53.511775
1036.000000	53.613477
1035.000000	53.718928
1034.000000	53.833587
1033.000000	53.968118
1032.000000	54.124171
1031.000000	54.290175
1030.000000	54.455772
1029.000000	54.617849
1028.000000	54.769630
1027.000000	54.899097
1026.000000	55.004279
1025.000000	55.097057
1024.000000	55.187408
1023.000000	55.277019
1022.000000	55.371575
1021.000000	55.483407
1020.000000	55.616356
1019.000000	55.760939
1018.000000	55.908654
1017.000000	56.057734
1016.000000	56.201456
1015.000000	56.326684
1014.000000	56.429720
1013.000000	56.520430
1012.000000	56.606630
1011.000000	56.688498
1010.000000	56.771216
1009.000000	56.867353
1008.000000	56.981441
1007.000000	57.105695
1006.000000	57.234596
1005.000000	57.369600
1004.000000	57.506079
1003.000000	57.630660
1002.000000	57.737111
1001.000000	57.831774
1000.000000	57.919915
999.000000	58.000389
998.000000	58.077399
997.000000	58.162702
996.000000	58.261060
995.000000	58.366222
994.000000	58.474840
993.000000	58.590746
992.000000	58.711879
991.000000	58.827478
990.000000	58.932787
989.000000	59.033420
988.000000	59.131344
987.000000	59.220939
986.000000	59.302429
985.000000	59.384971
984.000000	59.472218
983.000000	59.558700
982.000000	59.644105
981.000000	59.736526
980.000000	59.837520
979.000000	59.938361
978.000000	60.035111
977.000000	60.132952
976.000000	60.231622
975.000000	60.321246
974.000000	60.397614
973.000000	60.466968
972.000000	60.532260
971.000000	60.589271
970.000000	60.640459
969.000000	60.697714
968.000000	60.766575
967.000000	60.841590
966.000000	60.920632
965.000000	61.009041
964.000000	61.105383
963.000000	61.198091
962.000000	61.280627
961.000000	61.356021
960.000000	61.422987
959.000000	61.473764
958.000000	61.509869
957.000000	61.545125
956.000000	61.588554
955.000000	61.638471
954.000000	61.696403
953.000000	61.770087
952.000000	61.857958
951.000000	61.945881
950.000000	62.024220
949.000000	62.093783
948.000000	62.152073
947.000000	62.190407
946.000000	62.209801
945.000000	62.223706
944.000000	62.240963
943.000000	62.260530
942.000000	62.285735
941.000000	62.326900
940.000000	62.384574
939.000000	62.445738
938.000000	62.500556
937.000000	62.548258
936.000000	62.583871
935.000000	62.596535
934.000000	62.586361
933.000000	62.567249
932.000000	62.548377
931.000000	62.528568
930.000000	62.510853
929.000000	62.505184
928.000000	62.511782
927.000000	62.517396
926.000000	62.513042
925.000000	62.499427
924.000000	62.472716
923.000000	62.422133
922.000000	62.346038
921.000000	62.254973
920.000000	62.153945
919.000000	62.038007
918.000000	61.908500
917.000000	61.775635
916.000000	61.641966
915.000000	61.498162
914.000000	61.338948
913.000000	61.167591
912.000000	60.980076
911.000000	60.763683
910.000000	60.514319
909.000000	60.239893
908.000000	59.943233
907.000000	59.616133
906.000000	59.255903
905.000000	58.869921
904.000000	58.460230
903.000000	58.020603
902.000000	57.550239
901.000000	57.056888
900.000000	56.541593
899.000000	55.994100
898.000000	55.408558
897.000000	54.786703
896.000000	54.125240
895.000000	53.413633
894.000000	52.647145
893.000000	51.831636
892.000000	50.969981
891.000000	50.059789
890.000000	49.105551
889.000000	48.118635
888.000000	47.104515
887.000000	46.057599
886.000000	44.972297
885.000000	43.848486
884.000000	42.683443
883.000000	41.471499
882.000000	40.212496
881.000000	38.914261
880.000000	37.585376
879.000000	36.232745
878.000000	34.867902
877.000000	33.507349
876.000000	32.165011
875.000000	30.848299
874.000000	29.563390
873.000000	28.317667
872.000000	27.117352
871.000000	25.966029
870.000000	24.865757
869.000000	23.821715
868.000000	22.839991
867.000000	21.924749
866.000000	21.078674
865.000000	20.303013
864.000000	19.599681
863.000000	18.967144
862.000000	18.399151
861.000000	17.889026
860.000000	17.430007
859.000000	17.014975
858.000000	16.635072
857.000000	16.283410
856.000000	15.958813
855.000000	15.661339
854.000000	15.390898
853.000000	15.149771
852.000000	14.944263
851.000000	14.781449
850.000000	14.663253
849.000000	14.588953
848.000000	14.558441
847.000000	14.570813
846.000000	14.624505
845.000000	14.719000
844.000000	14.858055
843.000000	15.046905
842.000000	15.287912
841.000000	15.583988
840.000000	15.940052
839.000000	16.362623
838.000000	16.855976
837.000000	17.420896
836.000000	18.056063
835.000000	18.756993
834.000000	19.511178
833.000000	20.288268
832.000000	21.020710
831.000000	21.557637
830.000000	21.629103
829.000000	20.887916
828.000000	19.108484
827.000000	16.466048
826.000000	13.617928
825.000000	11.414977
824.000000	10.420699
823.000000	10.643819
822.000000	11.685435
821.000000	13.093322
820.000000	14.569426
819.000000	15.968627
818.000000	17.239249
817.000000	18.383307
816.000000	19.430550
815.000000	20.403399
814.000000	21.311249
813.000000	22.167406
812.000000	22.987416
811.000000	23.772752
810.000000	24.515223
809.000000	25.215775
808.000000	25.880165
807.000000	26.506061
806.000000	27.089673
805.000000	27.641036
804.000000	28.174727
803.000000	28.691338
802.000000	29.186566
801.000000	29.669324
800.000000	30.154600
799.000000	30.645799
798.000000	31.139874
797.000000	31.641497
796.000000	32.154387
795.000000	32.667232
794.000000	33.164865
793.000000	33.645475
792.000000	34.112822
791.000000	34.561889
790.000000	34.988058
789.000000	35.400845
788.000000	35.813625
787.000000	36.229339
786.000000	36.649068
785.000000	37.082799
784.000000	37.536676
783.000000	37.999244
782.000000	38.453649
781.000000	38.893519
780.000000	39.315112
779.000000	39.707225
778.000000	40.063619
777.000000	40.395239
776.000000	40.717513
775.000000	41.036595
774.000000	41.358841
773.000000	41.698698
772.000000	42.063148
771.000000	42.439905
770.000000	42.812792
769.000000	43.176495
768.000000	43.524883
767.000000	43.841201
766.000000	44.115253
765.000000	44.357312
764.000000	44.582896
763.000000	44.797349
762.000000	45.007628
761.000000	45.232733
760.000000	45.486730
759.000000	45.763791
758.000000	46.051784
757.000000	46.346380
756.000000	46.639684
755.000000	46.911530
754.000000	47.147819
753.000000	47.354595
752.000000	47.543114
751.000000	47.717024
750.000000	47.885449
749.000000	48.070676
748.000000	48.287995
747.000000	48.532397
746.000000	48.795660
745.000000	49.078316
744.000000	49.371956
743.000000	49.649355
742.000000	49.888094
741.000000	50.088630
740.000000	50.257491
739.000000	50.393081
738.000000	50.502452
737.000000	50.611206
736.000000	50.739757
735.000000	50.885445
734.000000	51.040378
733.000000	51.206175
732.000000	51.376578
731.000000	51.526325
730.000000	51.634235
729.000000	51.700385
728.000000	51.729591
727.000000	51.719466
726.000000	51.679813
725.000000	51.644150
724.000000	51.644156
723.000000	51.688485
722.000000	51.778939
721.000000	51.925750
720.000000	52.129020
719.000000	52.364861
718.000000	52.608395
717.000000	52.853092
716.000000	53.093901
715.000000	53.315366
714.000000	53.513962
713.000000	53.710424
712.000000	53.923228
711.000000	54.150279
710.000000	54.391408
709.000000	54.662549
708.000000	54.970220
707.000000	55.294855
706.000000	55.614505
705.000000	55.923645
704.000000	56.213230
703.000000	56.458055
702.000000	56.646717
701.000000	56.801161
700.000000	56.947541
699.000000	57.093411
698.000000	57.247449
697.000000	57.433587
696.000000	57.662597
695.000000	57.912615
694.000000	58.160555
693.000000	58.404929
692.000000	58.639243
691.000000	58.837858
690.000000	58.990333
689.000000	59.122201
688.000000	59.256891
687.000000	59.386480
686.000000	59.508310
685.000000	59.651626
684.000000	59.837451
683.000000	60.048984
682.000000	60.268691
681.000000	60.505788
680.000000	60.757892
679.000000	60.987534
678.000000	61.172135
677.000000	61.328359
676.000000	61.469707
675.000000	61.591446
674.000000	61.703319
673.000000	61.844467
672.000000	62.046410
671.000000	62.308827
670.000000	62.623764
669.000000	62.964413
668.000000	63.228546
667.000000	63.368454
666.000000	63.461436
665.000000	63.555152
664.000000	63.661087
663.000000	63.775619
662.000000	63.890396
661.000000	64.011504
660.000000	64.150424
659.000000	64.310276
658.000000	64.492010
657.000000	64.695056
656.000000	64.911517
655.000000	65.135785
654.000000	65.362719
653.000000	65.582308
652.000000	65.783677
651.000000	65.958220
650.000000	66.102345
649.000000	66.219478
648.000000	66.319630
647.000000	66.417858
646.000000	66.532699
645.000000	66.682009
644.000000	66.870056
643.000000	67.083514
642.000000	67.309019
641.000000	67.541920
640.000000	67.771954
639.000000	67.975369
638.000000	68.133057
637.000000	68.249962
636.000000	68.347016
635.000000	68.442665
634.000000	68.553283
633.000000	68.696549
632.000000	68.880847
631.000000	69.099751
630.000000	69.343361
629.000000	69.603222
628.000000	69.862103
627.000000	70.095571
626.000000	70.291087
625.000000	70.452638
624.000000	70.578570
623.000000	70.660877
622.000000	70.717470
621.000000	70.794572
620.000000	70.924469
619.000000	71.105068
618.000000	71.328739
617.000000	71.600562
616.000000	71.908642
615.000000	72.205740
614.000000	72.443913
613.000000	72.606980
612.000000	72.693846
611.000000	72.698897
610.000000	72.625588
609.000000	72.489826
608.000000	72.290134
607.000000	71.981236
606.000000	71.486453
605.000000	70.689983
604.000000	69.393572
603.000000	67.319919
602.000000	64.171965
601.000000	59.753346
600.000000	54.131090
599.000000	47.801536
598.000000	41.665031
597.000000	36.708979
596.000000	33.633736
595.000000	32.651405
594.000000	33.492022
593.000000	35.585367
592.000000	38.343240
591.000000	41.302874
590.000000	44.152673
589.000000	46.755415
588.000000	49.099504
587.000000	51.214895
586.000000	53.122081
585.000000	54.833869
584.000000	56.361947
583.000000	57.726193
582.000000	58.969697
581.000000	60.148147
580.000000	61.278845
579.000000	62.318789
578.000000	63.232717
577.000000	64.039921
576.000000	64.768637
575.000000	65.403954
574.000000	65.921756
573.000000	66.343487
572.000000	66.710909
571.000000	67.047031
570.000000	67.375364
569.000000	67.735841
568.000000	68.147275
567.000000	68.580936
566.000000	68.999638
565.000000	69.396900
564.000000	69.767458
563.000000	70.081594
562.000000	70.322211
561.000000	70.512688
560.000000	70.679536
559.000000	70.823114
558.000000	70.953548
557.000000	71.112683
556.000000	71.329197
555.000000	71.584916
554.000000	71.853311
553.000000	72.132910
552.000000	72.415079
551.000000	72.659473
550.000000	72.838353
549.000000	72.969358
548.000000	73.076558
547.000000	73.162604
546.000000	73.243800
545.000000	73.363617
544.000000	73.540958
543.000000	73.750473
542.000000	73.975257
541.000000	74.231874
540.000000	74.514753
539.000000	74.769591
538.000000	74.956076
537.000000	75.092439
536.000000	75.202931
535.000000	75.273729
534.000000	75.302334
533.000000	75.336465
532.000000	75.423829
531.000000	75.566146
530.000000	75.752689
529.000000	75.987811
528.000000	76.249786
527.000000	76.475993
526.000000	76.624160
525.000000	76.694702
524.000000	76.675641
523.000000	76.519005
522.000000	76.199843
521.000000	75.748784
520.000000	75.197117
519.000000	74.541398
518.000000	73.802897
517.000000	73.072889
516.000000	72.452843
515.000000	71.996080
514.000000	71.729631
513.000000	71.671823
512.000000	71.782680
511.000000	71.942008
510.000000	72.017582
509.000000	71.924495
508.000000	71.587205
507.000000	70.911467
506.000000	69.839693
505.000000	68.379028
504.000000	66.560212
503.000000	64.483559
502.000000	62.446529
501.000000	60.870430
500.000000	60.029435
499.000000	59.931087
498.000000	60.439188
497.000000	61.367143
496.000000	62.475888
495.000000	63.514341
494.000000	64.327198
493.000000	64.922967
492.000000	65.402111
491.000000	65.862198
490.000000	66.384364
489.000000	67.030298
488.000000	67.796872
487.000000	68.615696
486.000000	69.432408
485.000000	70.251265
484.000000	71.074386
483.000000	71.858536
482.000000	72.581263
481.000000	73.278402
480.000000	73.965973
479.000000	74.598589
478.000000	75.146410
477.000000	75.640608
476.000000	76.090702
475.000000	76.429037
474.000000	76.618321
473.000000	76.749446
472.000000	76.900412
471.000000	77.016212
470.000000	77.068793
469.000000	77.151851
468.000000	77.351632
467.000000	77.628474
466.000000	77.884467
465.000000	78.084893
464.000000	78.222340
463.000000	78.270587
462.000000	78.254009
461.000000	78.259560
460.000000	78.292438
459.000000	78.233493
458.000000	78.047720
457.000000	77.864574
456.000000	77.776532
455.000000	77.746800
454.000000	77.726862
453.000000	77.747193
452.000000	77.807781
451.000000	77.768167
450.000000	77.479938
449.000000	76.932154
448.000000	76.189520
447.000000	75.262687
446.000000	74.127798
445.000000	72.776922
444.000000	71.164404
443.000000	69.192561
442.000000	66.808855
441.000000	64.079653
440.000000	61.125094
439.000000	58.061246
438.000000	55.062406
437.000000	52.450620
436.000000	50.599439
435.000000	49.715173
434.000000	49.754806
433.000000	50.572963
432.000000	52.059794
431.000000	54.050987
430.000000	56.298649
429.000000	58.613525
428.000000	60.888789
427.000000	62.996419
426.000000	64.838590
425.000000	66.474088
424.000000	67.997111
423.000000	69.345192
422.000000	70.432961
421.000000	71.338543
420.000000	72.210093
419.000000	73.212620
418.000000	74.276476
417.000000	75.206431
416.000000	76.002243
415.000000	76.609668
414.000000	76.965279
413.000000	77.198100
412.000000	77.446278
411.000000	77.640754
410.000000	77.719531
409.000000	77.873778
408.000000	78.257177
407.000000	78.674833
406.000000	78.962089
405.000000	79.230227
404.000000	79.598641
403.000000	79.851406
402.000000	79.750564
401.000000	79.430317
400.000000	79.106064
