PE IR       SUBTECH     SPECTRUM    ASCII       PEDS        4.00        
   -1
23ms123_nitrito.asc
24/09/05
17:22:17.00
24/09/05
17:22:17.00
Administrator
Sample 1118 By Administrator Date Thursday, September 05 2024
400.000000
#HDR
-1
-1
#GR
cm-1
%T
1.0
0.0
4000.000000
-1.000000
3601
8
87.830498
2.564981
#DATA
4000.000000	59.650732
3999.000000	59.707091
3998.000000	59.762482
3997.000000	59.817565
3996.000000	59.872573
3995.000000	59.927335
3994.000000	59.982017
3993.000000	60.037422
3992.000000	60.094334
3991.000000	60.152648
3990.000000	60.211342
3989.000000	60.269544
3988.000000	60.327387
3987.000000	60.385567
3986.000000	60.444481
3985.000000	60.503707
3984.000000	60.562159
3983.000000	60.618379
3982.000000	60.671028
3981.000000	60.719854
3980.000000	60.766275
3979.000000	60.813102
3978.000000	60.863189
3977.000000	60.917610
3976.000000	60.975124
3975.000000	61.033231
3974.000000	61.090061
3973.000000	61.145614
3972.000000	61.200865
3971.000000	61.256391
3970.000000	61.311373
3969.000000	61.363937
3968.000000	61.412745
3967.000000	61.457873
3966.000000	61.500769
3965.000000	61.543606
3964.000000	61.588302
3963.000000	61.635279
3962.000000	61.683764
3961.000000	61.732983
3960.000000	61.782985
3959.000000	61.834776
3958.000000	61.888781
3957.000000	61.944155
3956.000000	61.999808
3955.000000	62.054916
3954.000000	62.109141
3953.000000	62.162068
3952.000000	62.213025
3951.000000	62.261570
3950.000000	62.307059
3949.000000	62.348538
3948.000000	62.386609
3947.000000	62.425497
3946.000000	62.472141
3945.000000	62.531681
3944.000000	62.601983
3943.000000	62.672916
3942.000000	62.735058
3941.000000	62.788328
3940.000000	62.838802
3939.000000	62.890888
3938.000000	62.943045
3937.000000	62.991337
3936.000000	63.036299
3935.000000	63.082744
3934.000000	63.135766
3933.000000	63.195198
3932.000000	63.255792
3931.000000	63.312400
3930.000000	63.362926
3929.000000	63.411492
3928.000000	63.465628
3927.000000	63.530761
3926.000000	63.604336
3925.000000	63.674748
3924.000000	63.732048
3923.000000	63.777194
3922.000000	63.817442
3921.000000	63.858408
3920.000000	63.902840
3919.000000	63.952575
3918.000000	64.007471
3917.000000	64.063648
3916.000000	64.116865
3915.000000	64.166808
3914.000000	64.217084
3913.000000	64.270643
3912.000000	64.326557
3911.000000	64.382740
3910.000000	64.438175
3909.000000	64.493849
3908.000000	64.553737
3907.000000	64.618868
3906.000000	64.683605
3905.000000	64.736056
3904.000000	64.769682
3903.000000	64.796280
3902.000000	64.836275
3901.000000	64.897539
3900.000000	64.968423
3899.000000	65.030946
3898.000000	65.078497
3897.000000	65.118476
3896.000000	65.160551
3895.000000	65.212916
3894.000000	65.280253
3893.000000	65.359082
3892.000000	65.432819
3891.000000	65.484237
3890.000000	65.515649
3889.000000	65.544126
3888.000000	65.585637
3887.000000	65.644476
3886.000000	65.708948
3885.000000	65.765019
3884.000000	65.814669
3883.000000	65.871018
3882.000000	65.937896
3881.000000	66.002810
3880.000000	66.050125
3879.000000	66.081699
3878.000000	66.115156
3877.000000	66.163609
3876.000000	66.226151
3875.000000	66.289872
3874.000000	66.341136
3873.000000	66.382097
3872.000000	66.428016
3871.000000	66.484514
3870.000000	66.538309
3869.000000	66.580724
3868.000000	66.622871
3867.000000	66.677030
3866.000000	66.741984
3865.000000	66.807345
3864.000000	66.865118
3863.000000	66.916512
3862.000000	66.964289
3861.000000	67.008715
3860.000000	67.052880
3859.000000	67.103085
3858.000000	67.166363
3857.000000	67.245332
3856.000000	67.337925
3855.000000	67.435151
3854.000000	67.515142
3853.000000	67.567440
3852.000000	67.612285
3851.000000	67.660618
3850.000000	67.699569
3849.000000	67.723325
3848.000000	67.740792
3847.000000	67.767559
3846.000000	67.811875
3845.000000	67.870053
3844.000000	67.932450
3843.000000	67.992399
3842.000000	68.051088
3841.000000	68.115732
3840.000000	68.187235
3839.000000	68.256443
3838.000000	68.318594
3837.000000	68.377641
3836.000000	68.438027
3835.000000	68.497228
3834.000000	68.550629
3833.000000	68.598200
3832.000000	68.643050
3831.000000	68.689662
3830.000000	68.743827
3829.000000	68.808116
3828.000000	68.876824
3827.000000	68.938536
3826.000000	68.985118
3825.000000	69.023108
3824.000000	69.069097
3823.000000	69.135323
3822.000000	69.215121
3821.000000	69.284666
3820.000000	69.339098
3819.000000	69.397713
3818.000000	69.469496
3817.000000	69.543153
3816.000000	69.604141
3815.000000	69.655538
3814.000000	69.713053
3813.000000	69.776804
3812.000000	69.831617
3811.000000	69.872632
3810.000000	69.912405
3809.000000	69.964363
3808.000000	70.025244
3807.000000	70.080007
3806.000000	70.126624
3805.000000	70.182378
3804.000000	70.258056
3803.000000	70.347987
3802.000000	70.430475
3801.000000	70.490329
3800.000000	70.543810
3799.000000	70.610069
3798.000000	70.682402
3797.000000	70.743092
3796.000000	70.786811
3795.000000	70.825857
3794.000000	70.873567
3793.000000	70.929556
3792.000000	70.985208
3791.000000	71.037442
3790.000000	71.089408
3789.000000	71.144495
3788.000000	71.204747
3787.000000	71.271331
3786.000000	71.342198
3785.000000	71.411275
3784.000000	71.474245
3783.000000	71.535031
3782.000000	71.601379
3781.000000	71.674980
3780.000000	71.747650
3779.000000	71.810013
3778.000000	71.862870
3777.000000	71.912895
3776.000000	71.961544
3775.000000	72.006285
3774.000000	72.049522
3773.000000	72.099355
3772.000000	72.161441
3771.000000	72.232261
3770.000000	72.302854
3769.000000	72.371726
3768.000000	72.445469
3767.000000	72.524150
3766.000000	72.597624
3765.000000	72.655593
3764.000000	72.700233
3763.000000	72.744284
3762.000000	72.796261
3761.000000	72.855386
3760.000000	72.915939
3759.000000	72.974781
3758.000000	73.033860
3757.000000	73.094832
3756.000000	73.159306
3755.000000	73.228363
3754.000000	73.301489
3753.000000	73.377681
3752.000000	73.455271
3751.000000	73.530785
3750.000000	73.601486
3749.000000	73.668805
3748.000000	73.738699
3747.000000	73.815784
3746.000000	73.895891
3745.000000	73.959841
3744.000000	73.999258
3743.000000	74.044575
3742.000000	74.115589
3741.000000	74.191147
3740.000000	74.248568
3739.000000	74.291997
3738.000000	74.345508
3737.000000	74.422046
3736.000000	74.511459
3735.000000	74.594507
3734.000000	74.663644
3733.000000	74.722988
3732.000000	74.774955
3731.000000	74.824243
3730.000000	74.877740
3729.000000	74.936909
3728.000000	74.999231
3727.000000	75.061984
3726.000000	75.126661
3725.000000	75.198239
3724.000000	75.278555
3723.000000	75.362265
3722.000000	75.440813
3721.000000	75.512810
3720.000000	75.580744
3719.000000	75.644750
3718.000000	75.702836
3717.000000	75.754850
3716.000000	75.807129
3715.000000	75.866198
3714.000000	75.933072
3713.000000	76.005537
3712.000000	76.080957
3711.000000	76.159435
3710.000000	76.242955
3709.000000	76.328589
3708.000000	76.408257
3707.000000	76.476334
3706.000000	76.533992
3705.000000	76.586021
3704.000000	76.636968
3703.000000	76.688005
3702.000000	76.737215
3701.000000	76.784865
3700.000000	76.836381
3699.000000	76.895426
3698.000000	76.958617
3697.000000	77.018518
3696.000000	77.071975
3695.000000	77.123805
3694.000000	77.179223
3693.000000	77.240649
3692.000000	77.308341
3691.000000	77.379273
3690.000000	77.443168
3689.000000	77.492754
3688.000000	77.536316
3687.000000	77.583800
3686.000000	77.631231
3685.000000	77.666114
3684.000000	77.682055
3683.000000	77.686109
3682.000000	77.693687
3681.000000	77.712160
3680.000000	77.738330
3679.000000	77.767113
3678.000000	77.796337
3677.000000	77.822874
3676.000000	77.834348
3675.000000	77.833982
3674.000000	77.848512
3673.000000	77.885154
3672.000000	77.916705
3671.000000	77.918867
3670.000000	77.890930
3669.000000	77.856846
3668.000000	77.842793
3667.000000	77.845693
3666.000000	77.842145
3665.000000	77.819700
3664.000000	77.782432
3663.000000	77.741335
3662.000000	77.703911
3661.000000	77.669250
3660.000000	77.634038
3659.000000	77.592574
3658.000000	77.535399
3657.000000	77.454786
3656.000000	77.358403
3655.000000	77.272311
3654.000000	77.211389
3653.000000	77.162355
3652.000000	77.099572
3651.000000	77.005432
3650.000000	76.877025
3649.000000	76.730157
3648.000000	76.595883
3647.000000	76.491351
3646.000000	76.406537
3645.000000	76.322557
3644.000000	76.227094
3643.000000	76.116839
3642.000000	75.993868
3641.000000	75.861903
3640.000000	75.725387
3639.000000	75.586895
3638.000000	75.446204
3637.000000	75.301712
3636.000000	75.151819
3635.000000	74.996955
3634.000000	74.840737
3633.000000	74.690113
3632.000000	74.546294
3631.000000	74.396714
3630.000000	74.222404
3629.000000	74.021564
3628.000000	73.830048
3627.000000	73.685341
3626.000000	73.573370
3625.000000	73.453929
3624.000000	73.308944
3623.000000	73.146521
3622.000000	72.977753
3621.000000	72.800975
3620.000000	72.608481
3619.000000	72.405184
3618.000000	72.212561
3617.000000	72.046308
3616.000000	71.900171
3615.000000	71.755741
3614.000000	71.597757
3613.000000	71.425011
3612.000000	71.249896
3611.000000	71.082652
3610.000000	70.920243
3609.000000	70.755517
3608.000000	70.587713
3607.000000	70.422777
3606.000000	70.264541
3605.000000	70.108709
3604.000000	69.949913
3603.000000	69.785936
3602.000000	69.616785
3601.000000	69.445146
3600.000000	69.277607
3599.000000	69.119748
3598.000000	68.970179
3597.000000	68.821347
3596.000000	68.667507
3595.000000	68.508040
3594.000000	68.344182
3593.000000	68.179850
3592.000000	68.018747
3591.000000	67.860333
3590.000000	67.700504
3589.000000	67.538365
3588.000000	67.379270
3587.000000	67.232509
3586.000000	67.104701
3585.000000	66.991805
3584.000000	66.881232
3583.000000	66.761539
3582.000000	66.628080
3581.000000	66.481843
3580.000000	66.327006
3579.000000	66.167916
3578.000000	66.006335
3577.000000	65.842956
3576.000000	65.679304
3575.000000	65.517901
3574.000000	65.359963
3573.000000	65.206313
3572.000000	65.058855
3571.000000	64.917500
3570.000000	64.777300
3569.000000	64.632702
3568.000000	64.482693
3567.000000	64.331436
3566.000000	64.185037
3565.000000	64.046556
3564.000000	63.912026
3563.000000	63.774659
3562.000000	63.629069
3561.000000	63.473901
3560.000000	63.312345
3559.000000	63.149890
3558.000000	62.990973
3557.000000	62.837914
3556.000000	62.691880
3555.000000	62.551888
3554.000000	62.413661
3553.000000	62.271738
3552.000000	62.124428
3551.000000	61.973708
3550.000000	61.819932
3549.000000	61.661885
3548.000000	61.501133
3547.000000	61.342634
3546.000000	61.189349
3545.000000	61.040297
3544.000000	60.893797
3543.000000	60.749096
3542.000000	60.604810
3541.000000	60.459675
3540.000000	60.315343
3539.000000	60.174916
3538.000000	60.039284
3537.000000	59.905763
3536.000000	59.771317
3535.000000	59.634703
3534.000000	59.496002
3533.000000	59.356855
3532.000000	59.219996
3531.000000	59.087325
3530.000000	58.957363
3529.000000	58.828050
3528.000000	58.701051
3527.000000	58.581059
3526.000000	58.471123
3525.000000	58.370439
3524.000000	58.275041
3523.000000	58.178885
3522.000000	58.076565
3521.000000	57.967261
3520.000000	57.855039
3519.000000	57.743125
3518.000000	57.630630
3517.000000	57.516158
3516.000000	57.401781
3515.000000	57.290455
3514.000000	57.181517
3513.000000	57.072125
3512.000000	56.960912
3511.000000	56.847597
3510.000000	56.731027
3509.000000	56.611371
3508.000000	56.491902
3507.000000	56.375614
3506.000000	56.261750
3505.000000	56.148495
3504.000000	56.036284
3503.000000	55.925482
3502.000000	55.813150
3501.000000	55.695970
3500.000000	55.575217
3499.000000	55.454831
3498.000000	55.336153
3497.000000	55.217255
3496.000000	55.096655
3495.000000	54.974582
3494.000000	54.851248
3493.000000	54.726764
3492.000000	54.602240
3491.000000	54.478603
3490.000000	54.355230
3489.000000	54.231937
3488.000000	54.110462
3487.000000	53.991559
3486.000000	53.872507
3485.000000	53.749817
3484.000000	53.623132
3483.000000	53.494587
3482.000000	53.365733
3481.000000	53.237530
3480.000000	53.110744
3479.000000	52.984048
3478.000000	52.853850
3477.000000	52.718758
3476.000000	52.582267
3475.000000	52.448461
3474.000000	52.317495
3473.000000	52.187700
3472.000000	52.059890
3471.000000	51.936243
3470.000000	51.816263
3469.000000	51.696771
3468.000000	51.574502
3467.000000	51.446675
3466.000000	51.311225
3465.000000	51.168927
3464.000000	51.024160
3463.000000	50.881507
3462.000000	50.742705
3461.000000	50.607930
3460.000000	50.477310
3459.000000	50.349457
3458.000000	50.221171
3457.000000	50.090570
3456.000000	49.958987
3455.000000	49.827625
3454.000000	49.694964
3453.000000	49.559376
3452.000000	49.421834
3451.000000	49.284081
3450.000000	49.145700
3449.000000	49.005460
3448.000000	48.864054
3447.000000	48.723353
3446.000000	48.584332
3445.000000	48.447319
3444.000000	48.312407
3443.000000	48.178109
3442.000000	48.041490
3441.000000	47.901364
3440.000000	47.759842
3439.000000	47.619034
3438.000000	47.478127
3437.000000	47.334956
3436.000000	47.188564
3435.000000	47.038250
3434.000000	46.882620
3433.000000	46.722198
3432.000000	46.560827
3431.000000	46.402460
3430.000000	46.247191
3429.000000	46.092258
3428.000000	45.935404
3427.000000	45.775222
3426.000000	45.610210
3425.000000	45.439745
3424.000000	45.264950
3423.000000	45.086833
3422.000000	44.904791
3421.000000	44.718536
3420.000000	44.529741
3419.000000	44.339785
3418.000000	44.147831
3417.000000	43.953046
3416.000000	43.756866
3415.000000	43.561001
3414.000000	43.364395
3413.000000	43.164214
3412.000000	42.958377
3411.000000	42.745797
3410.000000	42.525647
3409.000000	42.297925
3408.000000	42.063619
3407.000000	41.822813
3406.000000	41.574584
3405.000000	41.319934
3404.000000	41.062707
3403.000000	40.806089
3402.000000	40.549547
3401.000000	40.290044
3400.000000	40.024069
3399.000000	39.747803
3398.000000	39.458615
3397.000000	39.158044
3396.000000	38.850620
3395.000000	38.538674
3394.000000	38.220501
3393.000000	37.894493
3392.000000	37.561441
3391.000000	37.221136
3390.000000	36.871111
3389.000000	36.510356
3388.000000	36.141503
3387.000000	35.767126
3386.000000	35.386561
3385.000000	34.998572
3384.000000	34.603579
3383.000000	34.201813
3382.000000	33.791985
3381.000000	33.373396
3380.000000	32.946900
3379.000000	32.512191
3378.000000	32.067358
3377.000000	31.612536
3376.000000	31.150434
3375.000000	30.682302
3374.000000	30.206480
3373.000000	29.722337
3372.000000	29.232410
3371.000000	28.738511
3370.000000	28.239679
3369.000000	27.734917
3368.000000	27.224772
3367.000000	26.709070
3366.000000	26.186323
3365.000000	25.656992
3364.000000	25.123813
3363.000000	24.588106
3362.000000	24.049321
3361.000000	23.508566
3360.000000	22.968689
3359.000000	22.429913
3358.000000	21.889390
3357.000000	21.346296
3356.000000	20.803098
3355.000000	20.261180
3354.000000	19.719654
3353.000000	19.179551
3352.000000	18.644805
3351.000000	18.117660
3350.000000	17.596759
3349.000000	17.080816
3348.000000	16.570451
3347.000000	16.065357
3346.000000	15.564240
3345.000000	15.068351
3344.000000	14.581069
3343.000000	14.103241
3342.000000	13.632591
3341.000000	13.168848
3340.000000	12.715225
3339.000000	12.273961
3338.000000	11.844554
3337.000000	11.426479
3336.000000	11.020195
3335.000000	10.624794
3334.000000	10.238494
3333.000000	9.862347
3332.000000	9.498983
3331.000000	9.148099
3330.000000	8.806875
3329.000000	8.474568
3328.000000	8.153524
3327.000000	7.845062
3326.000000	7.548922
3325.000000	7.266196
3324.000000	6.998062
3323.000000	6.742515
3322.000000	6.495961
3321.000000	6.258075
3320.000000	6.031323
3319.000000	5.815548
3318.000000	5.608416
3317.000000	5.409822
3316.000000	5.221686
3315.000000	5.043785
3314.000000	4.873576
3313.000000	4.710230
3312.000000	4.554360
3311.000000	4.404475
3310.000000	4.258605
3309.000000	4.118479
3308.000000	3.988458
3307.000000	3.870487
3306.000000	3.763753
3305.000000	3.668361
3304.000000	3.584003
3303.000000	3.506702
3302.000000	3.431326
3301.000000	3.356781
3300.000000	3.285060
3299.000000	3.216186
3298.000000	3.148878
3297.000000	3.084875
3296.000000	3.027334
3295.000000	2.976019
3294.000000	2.928499
3293.000000	2.885389
3292.000000	2.849564
3291.000000	2.820421
3290.000000	2.794097
3289.000000	2.768557
3288.000000	2.744435
3287.000000	2.721677
3286.000000	2.699507
3285.000000	2.679318
3284.000000	2.663061
3283.000000	2.649596
3282.000000	2.636505
3281.000000	2.624299
3280.000000	2.614908
3279.000000	2.607171
3278.000000	2.598376
3277.000000	2.589126
3276.000000	2.582101
3275.000000	2.577085
3274.000000	2.571718
3273.000000	2.566567
3272.000000	2.564981
3271.000000	2.568349
3270.000000	2.575426
3269.000000	2.585367
3268.000000	2.597501
3267.000000	2.609226
3266.000000	2.618146
3265.000000	2.625540
3264.000000	2.634160
3263.000000	2.643681
3262.000000	2.652088
3261.000000	2.659851
3260.000000	2.668753
3259.000000	2.678145
3258.000000	2.686488
3257.000000	2.695279
3256.000000	2.707164
3255.000000	2.721430
3254.000000	2.735272
3253.000000	2.748235
3252.000000	2.761349
3251.000000	2.773501
3250.000000	2.783015
3249.000000	2.791664
3248.000000	2.802921
3247.000000	2.817165
3246.000000	2.832333
3245.000000	2.847893
3244.000000	2.864356
3243.000000	2.880259
3242.000000	2.893821
3241.000000	2.906343
3240.000000	2.920194
3239.000000	2.934530
3238.000000	2.946738
3237.000000	2.956744
3236.000000	2.966465
3235.000000	2.976562
3234.000000	2.987250
3233.000000	3.000465
3232.000000	3.017263
3231.000000	3.034676
3230.000000	3.049015
3229.000000	3.060688
3228.000000	3.072189
3227.000000	3.083363
3226.000000	3.092602
3225.000000	3.100842
3224.000000	3.110074
3223.000000	3.119498
3222.000000	3.127123
3221.000000	3.133666
3220.000000	3.140932
3219.000000	3.147910
3218.000000	3.152489
3217.000000	3.155504
3216.000000	3.159199
3215.000000	3.163207
3214.000000	3.165762
3213.000000	3.167344
3212.000000	3.169294
3211.000000	3.170464
3210.000000	3.169073
3209.000000	3.166256
3208.000000	3.164162
3207.000000	3.162122
3206.000000	3.158241
3205.000000	3.153107
3204.000000	3.148209
3203.000000	3.142584
3202.000000	3.134661
3201.000000	3.125663
3200.000000	3.117561
3199.000000	3.109396
3198.000000	3.099256
3197.000000	3.087965
3196.000000	3.077159
3195.000000	3.065693
3194.000000	3.051679
3193.000000	3.036237
3192.000000	3.021621
3191.000000	3.007467
3190.000000	2.992511
3189.000000	2.977923
3188.000000	2.965227
3187.000000	2.952861
3186.000000	2.938498
3185.000000	2.922945
3184.000000	2.908153
3183.000000	2.893417
3182.000000	2.877195
3181.000000	2.860680
3180.000000	2.845874
3179.000000	2.832052
3178.000000	2.817683
3177.000000	2.803842
3176.000000	2.792094
3175.000000	2.781081
3174.000000	2.768842
3173.000000	2.756458
3172.000000	2.745875
3171.000000	2.736224
3170.000000	2.725819
3169.000000	2.715652
3168.000000	2.707348
3167.000000	2.699732
3166.000000	2.691066
3165.000000	2.682564
3164.000000	2.676188
3163.000000	2.671128
3162.000000	2.665846
3161.000000	2.661410
3160.000000	2.659285
3159.000000	2.658058
3158.000000	2.655793
3157.000000	2.653288
3156.000000	2.651795
3155.000000	2.650166
3154.000000	2.647896
3153.000000	2.648352
3152.000000	2.654819
3151.000000	2.665580
3150.000000	2.676578
3149.000000	2.686812
3148.000000	2.697561
3147.000000	2.708620
3146.000000	2.719207
3145.000000	2.730454
3144.000000	2.743258
3143.000000	2.755776
3142.000000	2.766571
3141.000000	2.778235
3140.000000	2.794355
3139.000000	2.814761
3138.000000	2.837085
3137.000000	2.860672
3136.000000	2.885619
3135.000000	2.910324
3134.000000	2.933501
3133.000000	2.956808
3132.000000	2.982250
3131.000000	3.009166
3130.000000	3.036710
3129.000000	3.066599
3128.000000	3.100180
3127.000000	3.135248
3126.000000	3.169079
3125.000000	3.202150
3124.000000	3.235741
3123.000000	3.268770
3122.000000	3.300501
3121.000000	3.333625
3120.000000	3.371015
3119.000000	3.411731
3118.000000	3.453805
3117.000000	3.498385
3116.000000	3.547458
3115.000000	3.599832
3114.000000	3.652765
3113.000000	3.705474
3112.000000	3.757910
3111.000000	3.808837
3110.000000	3.858531
3109.000000	3.910702
3108.000000	3.968143
3107.000000	4.028694
3106.000000	4.088685
3105.000000	4.147854
3104.000000	4.207613
3103.000000	4.267445
3102.000000	4.326789
3101.000000	4.387955
3100.000000	4.453439
3099.000000	4.522154
3098.000000	4.591774
3097.000000	4.662521
3096.000000	4.735264
3095.000000	4.808254
3094.000000	4.879280
3093.000000	4.949262
3092.000000	5.020596
3091.000000	5.093791
3090.000000	5.168485
3089.000000	5.245455
3088.000000	5.324771
3087.000000	5.404333
3086.000000	5.483065
3085.000000	5.563292
3084.000000	5.647056
3083.000000	5.732651
3082.000000	5.817833
3081.000000	5.903789
3080.000000	5.992948
3079.000000	6.085176
3078.000000	6.179208
3077.000000	6.275353
3076.000000	6.373609
3075.000000	6.471588
3074.000000	6.567428
3073.000000	6.662489
3072.000000	6.758389
3071.000000	6.853905
3070.000000	6.947981
3069.000000	7.043282
3068.000000	7.143266
3067.000000	7.247758
3066.000000	7.354318
3065.000000	7.461997
3064.000000	7.570717
3063.000000	7.679096
3062.000000	7.786019
3061.000000	7.892585
3060.000000	7.999954
3059.000000	8.107234
3058.000000	8.213851
3057.000000	8.321685
3056.000000	8.432121
3055.000000	8.543269
3054.000000	8.652946
3053.000000	8.762354
3052.000000	8.874159
3051.000000	8.988839
3050.000000	9.105275
3049.000000	9.222813
3048.000000	9.340307
3047.000000	9.455386
3046.000000	9.567281
3045.000000	9.678469
3044.000000	9.791465
3043.000000	9.906141
3042.000000	10.022073
3041.000000	10.140593
3040.000000	10.261867
3039.000000	10.382685
3038.000000	10.500142
3037.000000	10.615493
3036.000000	10.731885
3035.000000	10.850396
3034.000000	10.970645
3033.000000	11.092877
3032.000000	11.216683
3031.000000	11.339747
3030.000000	11.460445
3029.000000	11.579775
3028.000000	11.698761
3027.000000	11.816410
3026.000000	11.932468
3025.000000	12.049498
3024.000000	12.169552
3023.000000	12.291099
3022.000000	12.411754
3021.000000	12.531764
3020.000000	12.652285
3019.000000	12.772562
3018.000000	12.891530
3017.000000	13.010142
3016.000000	13.129584
3015.000000	13.249165
3014.000000	13.368432
3013.000000	13.489322
3012.000000	13.613608
3011.000000	13.740003
3010.000000	13.865972
3009.000000	13.990728
3008.000000	14.114485
3007.000000	14.236901
3006.000000	14.358374
3005.000000	14.480843
3004.000000	14.605166
3003.000000	14.729376
3002.000000	14.851360
3001.000000	14.971427
3000.000000	15.090794
2999.000000	15.209730
2998.000000	15.328719
2997.000000	15.448968
2996.000000	15.570033
2995.000000	15.689557
2994.000000	15.807346
2993.000000	15.927030
2992.000000	16.051460
2991.000000	16.178977
2990.000000	16.306344
2989.000000	16.432764
2988.000000	16.558522
2987.000000	16.682330
2986.000000	16.802876
2985.000000	16.921116
2984.000000	17.038560
2983.000000	17.155175
2982.000000	17.271222
2981.000000	17.388950
2980.000000	17.509866
2979.000000	17.632148
2978.000000	17.753247
2977.000000	17.873412
2976.000000	17.994436
2975.000000	18.116652
2974.000000	18.239410
2973.000000	18.362726
2972.000000	18.486251
2971.000000	18.608254
2970.000000	18.727767
2969.000000	18.846212
2968.000000	18.964965
2967.000000	19.083174
2966.000000	19.199895
2965.000000	19.316478
2964.000000	19.434717
2963.000000	19.554453
2962.000000	19.675012
2961.000000	19.796975
2960.000000	19.920446
2959.000000	20.043575
2958.000000	20.164745
2957.000000	20.284295
2956.000000	20.402417
2955.000000	20.517864
2954.000000	20.630703
2953.000000	20.743530
2952.000000	20.857599
2951.000000	20.970202
2950.000000	21.078527
2949.000000	21.183823
2948.000000	21.289301
2947.000000	21.396239
2946.000000	21.504708
2945.000000	21.615921
2944.000000	21.730705
2943.000000	21.847079
2942.000000	21.962075
2941.000000	22.074877
2940.000000	22.186060
2939.000000	22.295353
2938.000000	22.402478
2937.000000	22.508725
2936.000000	22.615310
2935.000000	22.721365
2934.000000	22.825785
2933.000000	22.929846
2932.000000	23.035921
2931.000000	23.144748
2930.000000	23.255691
2929.000000	23.368251
2928.000000	23.481488
2927.000000	23.593574
2926.000000	23.703757
2925.000000	23.813273
2924.000000	23.922772
2923.000000	24.030672
2922.000000	24.135783
2921.000000	24.239453
2920.000000	24.343281
2919.000000	24.446738
2918.000000	24.548900
2917.000000	24.650564
2916.000000	24.752561
2915.000000	24.853704
2914.000000	24.952387
2913.000000	25.048743
2912.000000	25.143620
2911.000000	25.236935
2910.000000	25.328702
2909.000000	25.420162
2908.000000	25.512265
2907.000000	25.604366
2906.000000	25.695754
2905.000000	25.786868
2904.000000	25.877811
2903.000000	25.967098
2902.000000	26.054326
2901.000000	26.141315
2900.000000	26.230075
2899.000000	26.320768
2898.000000	26.412568
2897.000000	26.505127
2896.000000	26.597428
2895.000000	26.687220
2894.000000	26.773336
2893.000000	26.857151
2892.000000	26.940169
2891.000000	27.021742
2890.000000	27.100635
2889.000000	27.177178
2888.000000	27.252134
2887.000000	27.324972
2886.000000	27.394966
2885.000000	27.462649
2884.000000	27.528581
2883.000000	27.592067
2882.000000	27.652622
2881.000000	27.711254
2880.000000	27.768667
2879.000000	27.823667
2878.000000	27.875128
2877.000000	27.924273
2876.000000	27.973254
2875.000000	28.022470
2874.000000	28.070913
2873.000000	28.118139
2872.000000	28.164645
2871.000000	28.211739
2870.000000	28.262407
2869.000000	28.321066
2868.000000	28.390705
2867.000000	28.471160
2866.000000	28.561237
2865.000000	28.660782
2864.000000	28.769485
2863.000000	28.885461
2862.000000	29.006686
2861.000000	29.132268
2860.000000	29.260825
2859.000000	29.389348
2858.000000	29.515646
2857.000000	29.640532
2856.000000	29.765807
2855.000000	29.891532
2854.000000	30.016916
2853.000000	30.142348
2852.000000	30.268651
2851.000000	30.395429
2850.000000	30.521831
2849.000000	30.647738
2848.000000	30.772590
2847.000000	30.894326
2846.000000	31.011190
2845.000000	31.123592
2844.000000	31.232708
2843.000000	31.338448
2842.000000	31.440496
2841.000000	31.540166
2840.000000	31.639250
2839.000000	31.737745
2838.000000	31.834465
2837.000000	31.929441
2836.000000	32.024238
2835.000000	32.120331
2834.000000	32.218399
2833.000000	32.318515
2832.000000	32.419712
2831.000000	32.519822
2830.000000	32.616954
2829.000000	32.710791
2828.000000	32.801689
2827.000000	32.889426
2826.000000	32.973973
2825.000000	33.056603
2824.000000	33.138984
2823.000000	33.221810
2822.000000	33.305404
2821.000000	33.390803
2820.000000	33.478900
2819.000000	33.569168
2818.000000	33.660469
2817.000000	33.752455
2816.000000	33.844962
2815.000000	33.936692
2814.000000	34.025910
2813.000000	34.112036
2812.000000	34.195541
2811.000000	34.276791
2810.000000	34.356174
2809.000000	34.434866
2808.000000	34.514257
2807.000000	34.594922
2806.000000	34.677084
2805.000000	34.761518
2804.000000	34.848823
2803.000000	34.938181
2802.000000	35.027902
2801.000000	35.116908
2800.000000	35.204878
2799.000000	35.291384
2798.000000	35.375771
2797.000000	35.457619
2796.000000	35.536604
2795.000000	35.612421
2794.000000	35.685636
2793.000000	35.758123
2792.000000	35.831851
2791.000000	35.907636
2790.000000	35.985548
2789.000000	36.065579
2788.000000	36.147026
2787.000000	36.228080
2786.000000	36.307190
2785.000000	36.384272
2784.000000	36.459744
2783.000000	36.533117
2782.000000	36.603627
2781.000000	36.671568
2780.000000	36.737825
2779.000000	36.802750
2778.000000	36.866774
2777.000000	36.931524
2776.000000	36.998834
2775.000000	37.068783
2774.000000	37.139789
2773.000000	37.210495
2772.000000	37.280521
2771.000000	37.349669
2770.000000	37.417529
2769.000000	37.483914
2768.000000	37.548805
2767.000000	37.611935
2766.000000	37.673163
2765.000000	37.733061
2764.000000	37.792458
2763.000000	37.851742
2762.000000	37.911269
2761.000000	37.971950
2760.000000	38.034497
2759.000000	38.098406
2758.000000	38.162534
2757.000000	38.226320
2756.000000	38.289654
2755.000000	38.351961
2754.000000	38.412403
2753.000000	38.470755
2752.000000	38.527250
2751.000000	38.581960
2750.000000	38.635220
2749.000000	38.688214
2748.000000	38.742121
2747.000000	38.796868
2746.000000	38.851645
2745.000000	38.906335
2744.000000	38.961446
2743.000000	39.016924
2742.000000	39.072079
2741.000000	39.126536
2740.000000	39.180314
2739.000000	39.233098
2738.000000	39.284378
2737.000000	39.334178
2736.000000	39.382787
2735.000000	39.429994
2734.000000	39.475465
2733.000000	39.519746
2732.000000	39.563917
2731.000000	39.608365
2730.000000	39.652856
2729.000000	39.697594
2728.000000	39.743124
2727.000000	39.789128
2726.000000	39.834325
2725.000000	39.877849
2724.000000	39.919973
2723.000000	39.961404
2722.000000	40.002554
2721.000000	40.043504
2720.000000	40.084064
2719.000000	40.123839
2718.000000	40.162830
2717.000000	40.201824
2716.000000	40.241489
2715.000000	40.281311
2714.000000	40.320123
2713.000000	40.357525
2712.000000	40.394043
2711.000000	40.430077
2710.000000	40.465558
2709.000000	40.500413
2708.000000	40.534508
2707.000000	40.567259
2706.000000	40.598099
2705.000000	40.627288
2704.000000	40.655345
2703.000000	40.681829
2702.000000	40.705601
2701.000000	40.726146
2700.000000	40.743869
2699.000000	40.759160
2698.000000	40.772125
2697.000000	40.783316
2696.000000	40.793605
2695.000000	40.803338
2694.000000	40.812360
2693.000000	40.820839
2692.000000	40.829262
2691.000000	40.837495
2690.000000	40.844733
2689.000000	40.850333
2688.000000	40.853884
2687.000000	40.854677
2686.000000	40.852038
2685.000000	40.846331
2684.000000	40.838757
2683.000000	40.830061
2682.000000	40.820387
2681.000000	40.810247
2680.000000	40.800647
2679.000000	40.792164
2678.000000	40.784783
2677.000000	40.778766
2676.000000	40.774800
2675.000000	40.773125
2674.000000	40.773318
2673.000000	40.775101
2672.000000	40.778555
2671.000000	40.783689
2670.000000	40.790662
2669.000000	40.800453
2668.000000	40.814753
2667.000000	40.834901
2666.000000	40.861841
2665.000000	40.896880
2664.000000	40.941198
2663.000000	40.994764
2662.000000	41.056144
2661.000000	41.123696
2660.000000	41.196283
2659.000000	41.272483
2658.000000	41.350383
2657.000000	41.428279
2656.000000	41.505116
2655.000000	41.580233
2654.000000	41.653167
2653.000000	41.724032
2652.000000	41.793469
2651.000000	41.862039
2650.000000	41.930166
2649.000000	41.998639
2648.000000	42.068428
2647.000000	42.139746
2646.000000	42.211787
2645.000000	42.283369
2644.000000	42.353323
2643.000000	42.420184
2642.000000	42.482410
2641.000000	42.539204
2640.000000	42.590476
2639.000000	42.636119
2638.000000	42.675977
2637.000000	42.710882
2636.000000	42.743021
2635.000000	42.774587
2634.000000	42.806746
2633.000000	42.839915
2632.000000	42.874275
2631.000000	42.909672
2630.000000	42.945412
2629.000000	42.980632
2628.000000	43.014352
2627.000000	43.045065
2626.000000	43.071104
2625.000000	43.091755
2624.000000	43.107694
2623.000000	43.120028
2622.000000	43.129487
2621.000000	43.136899
2620.000000	43.143514
2619.000000	43.150479
2618.000000	43.158371
2617.000000	43.167465
2616.000000	43.177966
2615.000000	43.189480
2614.000000	43.200768
2613.000000	43.210319
2612.000000	43.216825
2611.000000	43.219149
2610.000000	43.216333
2609.000000	43.208073
2608.000000	43.194766
2607.000000	43.176725
2606.000000	43.154052
2605.000000	43.127125
2604.000000	43.096745
2603.000000	43.063723
2602.000000	43.028568
2601.000000	42.991885
2600.000000	42.954283
2599.000000	42.915899
2598.000000	42.876788
2597.000000	42.837831
2596.000000	42.800720
2595.000000	42.767110
2594.000000	42.738514
2593.000000	42.716854
2592.000000	42.704560
2591.000000	42.703445
2590.000000	42.714349
2589.000000	42.737893
2588.000000	42.774282
2587.000000	42.822944
2586.000000	42.882428
2585.000000	42.951188
2584.000000	43.028168
2583.000000	43.111910
2582.000000	43.200529
2581.000000	43.292327
2580.000000	43.386172
2579.000000	43.481352
2578.000000	43.577201
2577.000000	43.673544
2576.000000	43.770788
2575.000000	43.869393
2574.000000	43.969700
2573.000000	44.072098
2572.000000	44.177051
2571.000000	44.284629
2570.000000	44.394495
2569.000000	44.506566
2568.000000	44.620919
2567.000000	44.737016
2566.000000	44.853547
2565.000000	44.969369
2564.000000	45.084137
2563.000000	45.197718
2562.000000	45.309650
2561.000000	45.419563
2560.000000	45.527476
2559.000000	45.633076
2558.000000	45.735421
2557.000000	45.833826
2556.000000	45.928562
2555.000000	46.020238
2554.000000	46.108810
2553.000000	46.194068
2552.000000	46.276472
2551.000000	46.356763
2550.000000	46.435341
2549.000000	46.512373
2548.000000	46.588263
2547.000000	46.663165
2546.000000	46.736314
2545.000000	46.806665
2544.000000	46.873547
2543.000000	46.936428
2542.000000	46.994537
2541.000000	47.047333
2540.000000	47.095187
2539.000000	47.138512
2538.000000	47.176972
2537.000000	47.210090
2536.000000	47.237752
2535.000000	47.259820
2534.000000	47.275139
2533.000000	47.282066
2532.000000	47.279487
2531.000000	47.266227
2530.000000	47.240961
2529.000000	47.203040
2528.000000	47.153533
2527.000000	47.095001
2526.000000	47.030539
2525.000000	46.964335
2524.000000	46.902081
2523.000000	46.849771
2522.000000	46.812116
2521.000000	46.792626
2520.000000	46.793675
2519.000000	46.815952
2518.000000	46.858191
2517.000000	46.917638
2516.000000	46.991610
2515.000000	47.077060
2514.000000	47.170274
2513.000000	47.268077
2512.000000	47.368403
2511.000000	47.470062
2510.000000	47.571780
2509.000000	47.672645
2508.000000	47.772947
2507.000000	47.873325
2506.000000	47.973703
2505.000000	48.073626
2504.000000	48.173052
2503.000000	48.271633
2502.000000	48.367754
2501.000000	48.459243
2500.000000	48.544900
2499.000000	48.624408
2498.000000	48.697106
2497.000000	48.762528
2496.000000	48.821574
2495.000000	48.876270
2494.000000	48.928530
2493.000000	48.979796
2492.000000	49.031716
2491.000000	49.085643
2490.000000	49.141678
2489.000000	49.199060
2488.000000	49.256948
2487.000000	49.314070
2486.000000	49.368107
2485.000000	49.416746
2484.000000	49.459249
2483.000000	49.495910
2482.000000	49.526879
2481.000000	49.552635
2480.000000	49.575165
2479.000000	49.597397
2478.000000	49.621503
2477.000000	49.648855
2476.000000	49.680793
2475.000000	49.717961
2474.000000	49.759149
2473.000000	49.802024
2472.000000	49.844694
2471.000000	49.885526
2470.000000	49.922129
2469.000000	49.952198
2468.000000	49.975197
2467.000000	49.992215
2466.000000	50.004590
2465.000000	50.013931
2464.000000	50.023100
2463.000000	50.035455
2462.000000	50.053184
2461.000000	50.077256
2460.000000	50.108268
2459.000000	50.145768
2458.000000	50.187135
2457.000000	50.228567
2456.000000	50.267187
2455.000000	50.301300
2454.000000	50.329274
2453.000000	50.349837
2452.000000	50.363377
2451.000000	50.371747
2450.000000	50.377005
2449.000000	50.381625
2448.000000	50.389168
2447.000000	50.403023
2446.000000	50.424486
2445.000000	50.453087
2444.000000	50.488099
2443.000000	50.528384
2442.000000	50.571224
2441.000000	50.612913
2440.000000	50.650591
2439.000000	50.682468
2438.000000	50.706981
2437.000000	50.723365
2436.000000	50.732939
2435.000000	50.738355
2434.000000	50.742051
2433.000000	50.746503
2432.000000	50.755064
2431.000000	50.770703
2430.000000	50.794120
2429.000000	50.824367
2428.000000	50.860784
2427.000000	50.902749
2426.000000	50.947839
2425.000000	50.992259
2424.000000	51.032930
2423.000000	51.067991
2422.000000	51.095929
2421.000000	51.116175
2420.000000	51.130482
2419.000000	51.142112
2418.000000	51.153730
2417.000000	51.167300
2416.000000	51.185320
2415.000000	51.210096
2414.000000	51.241812
2413.000000	51.278842
2412.000000	51.319754
2411.000000	51.363357
2410.000000	51.407229
2409.000000	51.448107
2408.000000	51.483931
2407.000000	51.514254
2406.000000	51.539049
2405.000000	51.558831
2404.000000	51.575691
2403.000000	51.592488
2402.000000	51.610936
2401.000000	51.631869
2400.000000	51.656819
2399.000000	51.687556
2398.000000	51.724148
2397.000000	51.765179
2396.000000	51.809515
2395.000000	51.856358
2394.000000	51.903939
2393.000000	51.949951
2392.000000	51.993439
2391.000000	52.034706
2390.000000	52.073735
2389.000000	52.110461
2388.000000	52.146141
2387.000000	52.182817
2386.000000	52.221548
2385.000000	52.262777
2384.000000	52.308225
2383.000000	52.359972
2382.000000	52.418349
2381.000000	52.482272
2380.000000	52.551333
2379.000000	52.625987
2378.000000	52.704919
2377.000000	52.785143
2376.000000	52.864846
2375.000000	52.943851
2374.000000	53.021241
2373.000000	53.094594
2372.000000	53.162736
2371.000000	53.226894
2370.000000	53.288279
2369.000000	53.346473
2368.000000	53.402664
2367.000000	53.460973
2366.000000	53.523972
2365.000000	53.590500
2364.000000	53.660032
2363.000000	53.735529
2362.000000	53.817013
2361.000000	53.900431
2360.000000	53.983225
2359.000000	54.064535
2358.000000	54.143963
2357.000000	54.217383
2356.000000	54.281303
2355.000000	54.335853
2354.000000	54.378209
2353.000000	54.407616
2352.000000	54.436749
2351.000000	54.491901
2350.000000	54.586468
2349.000000	54.706147
2348.000000	54.826604
2347.000000	54.928155
2346.000000	55.007892
2345.000000	55.078078
2344.000000	55.156073
2343.000000	55.246546
2342.000000	55.335932
2341.000000	55.414680
2340.000000	55.482771
2339.000000	55.544889
2338.000000	55.603256
2337.000000	55.659871
2336.000000	55.720124
2335.000000	55.790494
2334.000000	55.871061
2333.000000	55.957143
2332.000000	56.044666
2331.000000	56.134341
2330.000000	56.225971
2329.000000	56.316599
2328.000000	56.407427
2327.000000	56.497634
2326.000000	56.583750
2325.000000	56.658710
2324.000000	56.721305
2323.000000	56.777390
2322.000000	56.831097
2321.000000	56.885781
2320.000000	56.943985
2319.000000	57.010660
2318.000000	57.086808
2317.000000	57.170138
2316.000000	57.257373
2315.000000	57.345445
2314.000000	57.430257
2313.000000	57.507842
2312.000000	57.577778
2311.000000	57.641106
2310.000000	57.697636
2309.000000	57.746493
2308.000000	57.790735
2307.000000	57.835829
2306.000000	57.885514
2305.000000	57.941192
2304.000000	58.004640
2303.000000	58.077822
2302.000000	58.159368
2301.000000	58.245639
2300.000000	58.334053
2299.000000	58.422407
2298.000000	58.506222
2297.000000	58.580005
2296.000000	58.642257
2295.000000	58.694834
2294.000000	58.739715
2293.000000	58.778582
2292.000000	58.816224
2291.000000	58.859022
2290.000000	58.910574
2289.000000	58.971328
2288.000000	59.042017
2287.000000	59.123322
2286.000000	59.212204
2285.000000	59.302554
2284.000000	59.389264
2283.000000	59.468883
2282.000000	59.536990
2281.000000	59.589941
2280.000000	59.629094
2279.000000	59.660014
2278.000000	59.687280
2277.000000	59.713868
2276.000000	59.744415
2275.000000	59.784656
2274.000000	59.837200
2273.000000	59.901077
2272.000000	59.975156
2271.000000	60.057690
2270.000000	60.142953
2269.000000	60.222556
2268.000000	60.290806
2267.000000	60.345703
2266.000000	60.385684
2265.000000	60.409939
2264.000000	60.422158
2263.000000	60.429364
2262.000000	60.437023
2261.000000	60.448471
2260.000000	60.468286
2259.000000	60.501481
2258.000000	60.548715
2257.000000	60.606350
2256.000000	60.670500
2255.000000	60.737360
2254.000000	60.799889
2253.000000	60.849602
2252.000000	60.881985
2251.000000	60.897446
2250.000000	60.896363
2249.000000	60.880109
2248.000000	60.854132
2247.000000	60.826327
2246.000000	60.802946
2245.000000	60.786995
2244.000000	60.782025
2243.000000	60.791153
2242.000000	60.812684
2241.000000	60.840459
2240.000000	60.868786
2239.000000	60.893290
2238.000000	60.907828
2237.000000	60.905657
2236.000000	60.884529
2235.000000	60.846849
2234.000000	60.795242
2233.000000	60.732332
2232.000000	60.664200
2231.000000	60.599261
2230.000000	60.542927
2229.000000	60.497110
2228.000000	60.463850
2227.000000	60.444753
2226.000000	60.436778
2225.000000	60.433018
2224.000000	60.428042
2223.000000	60.418752
2222.000000	60.400827
2221.000000	60.369365
2220.000000	60.323667
2219.000000	60.267262
2218.000000	60.203410
2217.000000	60.134704
2216.000000	60.066684
2215.000000	60.006748
2214.000000	59.958999
2213.000000	59.923733
2212.000000	59.901499
2211.000000	59.893186
2210.000000	59.896073
2209.000000	59.904304
2208.000000	59.913537
2207.000000	59.921583
2206.000000	59.924883
2205.000000	59.919242
2204.000000	59.904362
2203.000000	59.883620
2202.000000	59.859459
2201.000000	59.833072
2200.000000	59.808159
2199.000000	59.790222
2198.000000	59.781798
2197.000000	59.782294
2196.000000	59.792252
2195.000000	59.813198
2194.000000	59.843334
2193.000000	59.877686
2192.000000	59.912756
2191.000000	59.946969
2190.000000	59.977063
2189.000000	59.998757
2188.000000	60.011239
2187.000000	60.016760
2186.000000	60.015896
2185.000000	60.007857
2184.000000	59.995104
2183.000000	59.982892
2182.000000	59.973982
2181.000000	59.968323
2180.000000	59.967537
2179.000000	59.974753
2178.000000	59.989771
2177.000000	60.008879
2176.000000	60.029651
2175.000000	60.051416
2174.000000	60.071034
2173.000000	60.083296
2172.000000	60.086074
2171.000000	60.080593
2170.000000	60.066906
2169.000000	60.043905
2168.000000	60.014043
2167.000000	59.983219
2166.000000	59.955684
2165.000000	59.933294
2164.000000	59.919363
2163.000000	59.918042
2162.000000	59.929210
2161.000000	59.948536
2160.000000	59.972768
2159.000000	60.000488
2158.000000	60.027691
2157.000000	60.047967
2156.000000	60.057780
2155.000000	60.057240
2154.000000	60.045815
2153.000000	60.022411
2152.000000	59.990063
2151.000000	59.955732
2150.000000	59.924876
2149.000000	59.900197
2148.000000	59.885376
2147.000000	59.884586
2146.000000	59.897277
2145.000000	59.918095
2144.000000	59.942527
2143.000000	59.967738
2142.000000	59.988462
2141.000000	59.997847
2140.000000	59.993378
2139.000000	59.977303
2138.000000	59.951083
2137.000000	59.914740
2136.000000	59.872046
2135.000000	59.830747
2134.000000	59.796711
2133.000000	59.772644
2132.000000	59.761996
2131.000000	59.768443
2130.000000	59.790521
2129.000000	59.821524
2128.000000	59.855532
2127.000000	59.889136
2126.000000	59.917226
2125.000000	59.932897
2124.000000	59.933361
2123.000000	59.921161
2122.000000	59.898944
2121.000000	59.868346
2120.000000	59.834807
2119.000000	59.807888
2118.000000	59.795273
2117.000000	59.800217
2116.000000	59.824514
2115.000000	59.868626
2114.000000	59.927762
2113.000000	59.992739
2112.000000	60.056324
2111.000000	60.114921
2110.000000	60.164445
2109.000000	60.200479
2108.000000	60.223444
2107.000000	60.238577
2106.000000	60.250484
2105.000000	60.262434
2104.000000	60.280691
2103.000000	60.313992
2102.000000	60.366826
2101.000000	60.438214
2100.000000	60.526472
2099.000000	60.630073
2098.000000	60.743514
2097.000000	60.856519
2096.000000	60.959912
2095.000000	61.049004
2094.000000	61.121827
2093.000000	61.179295
2092.000000	61.227419
2091.000000	61.274061
2090.000000	61.322806
2089.000000	61.373955
2088.000000	61.430544
2087.000000	61.497748
2086.000000	61.576167
2085.000000	61.661360
2084.000000	61.749623
2083.000000	61.838745
2082.000000	61.922661
2081.000000	61.992263
2080.000000	62.042269
2079.000000	62.072378
2078.000000	62.083191
2077.000000	62.075097
2076.000000	62.053318
2075.000000	62.026771
2074.000000	62.001024
2073.000000	61.978491
2072.000000	61.961625
2071.000000	61.950841
2070.000000	61.942118
2069.000000	61.933659
2068.000000	61.932447
2067.000000	61.945643
2066.000000	61.967171
2065.000000	61.982137
2064.000000	61.983132
2063.000000	61.973452
2062.000000	61.956652
2061.000000	61.933211
2060.000000	61.908241
2059.000000	61.892237
2058.000000	61.891620
2057.000000	61.905710
2056.000000	61.934703
2055.000000	61.981307
2054.000000	62.043007
2053.000000	62.111926
2052.000000	62.182751
2051.000000	62.253751
2050.000000	62.321223
2049.000000	62.380529
2048.000000	62.431157
2047.000000	62.475829
2046.000000	62.517049
2045.000000	62.560527
2044.000000	62.619362
2043.000000	62.705959
2042.000000	62.820194
2041.000000	62.952574
2040.000000	63.096707
2039.000000	63.251297
2038.000000	63.412209
2037.000000	63.571768
2036.000000	63.726816
2035.000000	63.879280
2034.000000	64.028228
2033.000000	64.169008
2032.000000	64.302538
2031.000000	64.435101
2030.000000	64.569948
2029.000000	64.705876
2028.000000	64.844787
2027.000000	64.992553
2026.000000	65.149870
2025.000000	65.312263
2024.000000	65.474143
2023.000000	65.628396
2022.000000	65.767425
2021.000000	65.893699
2020.000000	66.026009
2019.000000	66.182905
2018.000000	66.361165
2017.000000	66.541612
2016.000000	66.712224
2015.000000	66.872900
2014.000000	67.023054
2013.000000	67.158832
2012.000000	67.283510
2011.000000	67.407357
2010.000000	67.535508
2009.000000	67.664193
2008.000000	67.790940
2007.000000	67.918877
2006.000000	68.046082
2005.000000	68.167303
2004.000000	68.282024
2003.000000	68.396436
2002.000000	68.512737
2001.000000	68.625512
2000.000000	68.735265
1999.000000	68.840824
1998.000000	68.923512
1997.000000	68.963986
1996.000000	68.976043
1995.000000	69.000942
1994.000000	69.061665
1993.000000	69.142426
1992.000000	69.225879
1991.000000	69.320822
1990.000000	69.437671
1989.000000	69.566717
1988.000000	69.692765
1987.000000	69.813509
1986.000000	69.930638
1985.000000	70.039281
1984.000000	70.134372
1983.000000	70.219197
1982.000000	70.294564
1981.000000	70.351877
1980.000000	70.390999
1979.000000	70.423445
1978.000000	70.455402
1977.000000	70.483654
1976.000000	70.513347
1975.000000	70.558497
1974.000000	70.617889
1973.000000	70.670502
1972.000000	70.704047
1971.000000	70.732597
1970.000000	70.780779
1969.000000	70.860574
1968.000000	70.964066
1967.000000	71.071581
1966.000000	71.160840
1965.000000	71.215971
1964.000000	71.239708
1963.000000	71.249273
1962.000000	71.255811
1961.000000	71.260656
1960.000000	71.270166
1959.000000	71.297880
1958.000000	71.351421
1957.000000	71.426563
1956.000000	71.518827
1955.000000	71.624213
1954.000000	71.729038
1953.000000	71.813796
1952.000000	71.863936
1951.000000	71.879785
1950.000000	71.866727
1949.000000	71.820985
1948.000000	71.739727
1947.000000	71.639144
1946.000000	71.556642
1945.000000	71.534526
1944.000000	71.589607
1943.000000	71.700680
1942.000000	71.836041
1941.000000	71.975157
1940.000000	72.107046
1939.000000	72.221168
1938.000000	72.301203
1937.000000	72.338039
1936.000000	72.344720
1935.000000	72.338346
1934.000000	72.320954
1933.000000	72.290961
1932.000000	72.251785
1931.000000	72.221117
1930.000000	72.207171
1929.000000	72.192433
1928.000000	72.156168
1927.000000	72.100468
1926.000000	72.066102
1925.000000	72.090307
1924.000000	72.157581
1923.000000	72.227298
1922.000000	72.287864
1921.000000	72.354712
1920.000000	72.426814
1919.000000	72.461505
1918.000000	72.431561
1917.000000	72.369087
1916.000000	72.315815
1915.000000	72.274787
1914.000000	72.225387
1913.000000	72.168653
1912.000000	72.136262
1911.000000	72.158909
1910.000000	72.225406
1909.000000	72.299874
1908.000000	72.360918
1907.000000	72.397875
1906.000000	72.408570
1905.000000	72.391888
1904.000000	72.351278
1903.000000	72.305207
1902.000000	72.263748
1901.000000	72.217657
1900.000000	72.160935
1899.000000	72.105431
1898.000000	72.081240
1897.000000	72.106178
1896.000000	72.158052
1895.000000	72.196044
1894.000000	72.201290
1893.000000	72.190533
1892.000000	72.200564
1891.000000	72.240554
1890.000000	72.274720
1889.000000	72.280735
1888.000000	72.278548
1887.000000	72.293999
1886.000000	72.328666
1885.000000	72.364872
1884.000000	72.393217
1883.000000	72.424985
1882.000000	72.465328
1881.000000	72.502326
1880.000000	72.531145
1879.000000	72.553805
1878.000000	72.566139
1877.000000	72.559606
1876.000000	72.521087
1875.000000	72.437764
1874.000000	72.309409
1873.000000	72.157096
1872.000000	72.024239
1871.000000	71.959994
1870.000000	71.976021
1869.000000	72.044133
1868.000000	72.145273
1867.000000	72.265134
1866.000000	72.367894
1865.000000	72.416944
1864.000000	72.408022
1863.000000	72.368207
1862.000000	72.322566
1861.000000	72.279501
1860.000000	72.244733
1859.000000	72.227142
1858.000000	72.222617
1857.000000	72.219659
1856.000000	72.215255
1855.000000	72.217231
1854.000000	72.215106
1853.000000	72.173997
1852.000000	72.089446
1851.000000	71.978328
1850.000000	71.844283
1849.000000	71.700234
1848.000000	71.609948
1847.000000	71.648186
1846.000000	71.775420
1845.000000	71.838175
1844.000000	71.779405
1843.000000	71.693983
1842.000000	71.643555
1841.000000	71.612568
1840.000000	71.578506
1839.000000	71.544076
1838.000000	71.526539
1837.000000	71.509714
1836.000000	71.452924
1835.000000	71.346676
1834.000000	71.213200
1833.000000	71.089149
1832.000000	71.022487
1831.000000	70.987392
1830.000000	70.907532
1829.000000	70.791950
1828.000000	70.714437
1827.000000	70.710441
1826.000000	70.726694
1825.000000	70.704079
1824.000000	70.667483
1823.000000	70.652742
1822.000000	70.630940
1821.000000	70.562943
1820.000000	70.464014
1819.000000	70.372417
1818.000000	70.295993
1817.000000	70.203488
1816.000000	70.076739
1815.000000	69.934916
1814.000000	69.804501
1813.000000	69.713081
1812.000000	69.663320
1811.000000	69.629939
1810.000000	69.596288
1809.000000	69.553518
1808.000000	69.488279
1807.000000	69.378132
1806.000000	69.210421
1805.000000	69.001394
1804.000000	68.809781
1803.000000	68.702501
1802.000000	68.675846
1801.000000	68.672992
1800.000000	68.644322
1799.000000	68.573991
1798.000000	68.474421
1797.000000	68.369795
1796.000000	68.300565
1795.000000	68.295259
1794.000000	68.318292
1793.000000	68.290582
1792.000000	68.191526
1791.000000	68.082295
1790.000000	67.997050
1789.000000	67.920777
1788.000000	67.848848
1787.000000	67.785875
1786.000000	67.723604
1785.000000	67.637961
1784.000000	67.542300
1783.000000	67.492536
1782.000000	67.484893
1781.000000	67.457067
1780.000000	67.370069
1779.000000	67.233077
1778.000000	67.041286
1777.000000	66.788282
1776.000000	66.563811
1775.000000	66.503847
1774.000000	66.595247
1773.000000	66.648261
1772.000000	66.578613
1771.000000	66.491174
1770.000000	66.476847
1769.000000	66.506928
1768.000000	66.497767
1767.000000	66.425128
1766.000000	66.321171
1765.000000	66.223817
1764.000000	66.149832
1763.000000	66.042989
1762.000000	65.834569
1761.000000	65.568324
1760.000000	65.348459
1759.000000	65.254425
1758.000000	65.232562
1757.000000	65.139153
1756.000000	64.953250
1755.000000	64.759136
1754.000000	64.604284
1753.000000	64.457208
1752.000000	64.275535
1751.000000	64.099954
1750.000000	63.993083
1749.000000	63.900482
1748.000000	63.753339
1747.000000	63.571952
1746.000000	63.393154
1745.000000	63.241247
1744.000000	63.146835
1743.000000	63.139548
1742.000000	63.197809
1741.000000	63.210581
1740.000000	63.063872
1739.000000	62.786989
1738.000000	62.510035
1737.000000	62.365110
1736.000000	62.357794
1735.000000	62.243232
1734.000000	61.918246
1733.000000	61.584083
1732.000000	61.342518
1731.000000	61.182908
1730.000000	61.048661
1729.000000	60.858633
1728.000000	60.623753
1727.000000	60.392860
1726.000000	60.173747
1725.000000	59.948045
1724.000000	59.695576
1723.000000	59.401736
1722.000000	59.048680
1721.000000	58.636622
1720.000000	58.248815
1719.000000	57.947233
1718.000000	57.686617
1717.000000	57.449243
1716.000000	57.228436
1715.000000	56.975444
1714.000000	56.679657
1713.000000	56.360034
1712.000000	56.032608
1711.000000	55.708535
1710.000000	55.380624
1709.000000	55.037536
1708.000000	54.706872
1707.000000	54.389438
1706.000000	54.012340
1705.000000	53.585435
1704.000000	53.274877
1703.000000	53.220241
1702.000000	53.162925
1701.000000	52.623519
1700.000000	51.717510
1699.000000	50.989367
1698.000000	50.710749
1697.000000	50.670172
1696.000000	50.448634
1695.000000	50.010465
1694.000000	49.518484
1693.000000	49.025084
1692.000000	48.540373
1691.000000	48.033759
1690.000000	47.464888
1689.000000	46.847170
1688.000000	46.311557
1687.000000	45.993303
1686.000000	45.877677
1685.000000	45.623890
1684.000000	45.038521
1683.000000	44.429727
1682.000000	43.961071
1681.000000	43.559322
1680.000000	43.177512
1679.000000	42.836213
1678.000000	42.572505
1677.000000	42.286208
1676.000000	41.825200
1675.000000	41.222910
1674.000000	40.640021
1673.000000	40.148691
1672.000000	39.753099
1671.000000	39.409922
1670.000000	39.016776
1669.000000	38.529316
1668.000000	38.018549
1667.000000	37.563080
1666.000000	37.174356
1665.000000	36.807948
1664.000000	36.402710
1663.000000	35.950975
1662.000000	35.495162
1661.000000	35.044971
1660.000000	34.592849
1659.000000	34.125803
1658.000000	33.628539
1657.000000	33.132820
1656.000000	32.786176
1655.000000	32.719326
1654.000000	32.577287
1653.000000	32.099466
1652.000000	31.570622
1651.000000	31.081917
1650.000000	30.625527
1649.000000	30.288128
1648.000000	30.043954
1647.000000	29.788509
1646.000000	29.501870
1645.000000	29.205882
1644.000000	28.883245
1643.000000	28.565684
1642.000000	28.257456
1641.000000	27.920239
1640.000000	27.560430
1639.000000	27.257629
1638.000000	27.100891
1637.000000	27.022068
1636.000000	26.844950
1635.000000	26.575325
1634.000000	26.304775
1633.000000	26.038905
1632.000000	25.785214
1631.000000	25.565088
1630.000000	25.379007
1629.000000	25.198142
1628.000000	25.006037
1627.000000	24.831658
1626.000000	24.694876
1625.000000	24.575755
1624.000000	24.440269
1623.000000	24.287177
1622.000000	24.128584
1621.000000	23.956039
1620.000000	23.800594
1619.000000	23.737008
1618.000000	23.772614
1617.000000	23.816174
1616.000000	23.809771
1615.000000	23.770983
1614.000000	23.724135
1613.000000	23.675498
1612.000000	23.626572
1611.000000	23.599332
1610.000000	23.610901
1609.000000	23.640765
1608.000000	23.664461
1607.000000	23.690732
1606.000000	23.727263
1605.000000	23.762175
1604.000000	23.799590
1603.000000	23.862278
1602.000000	23.953207
1601.000000	24.044158
1600.000000	24.118716
1599.000000	24.190825
1598.000000	24.272359
1597.000000	24.356878
1596.000000	24.440380
1595.000000	24.531404
1594.000000	24.628234
1593.000000	24.712542
1592.000000	24.779515
1591.000000	24.848561
1590.000000	24.929965
1589.000000	25.010376
1588.000000	25.081246
1587.000000	25.157381
1586.000000	25.250081
1585.000000	25.342827
1584.000000	25.426464
1583.000000	25.510929
1582.000000	25.580232
1581.000000	25.592939
1580.000000	25.555335
1579.000000	25.557282
1578.000000	25.685945
1577.000000	25.893160
1576.000000	26.063489
1575.000000	26.156709
1574.000000	26.178158
1573.000000	26.169790
1572.000000	26.194269
1571.000000	26.284090
1570.000000	26.418259
1569.000000	26.540058
1568.000000	26.626386
1567.000000	26.700389
1566.000000	26.774465
1565.000000	26.820867
1564.000000	26.812393
1563.000000	26.805233
1562.000000	26.839822
1561.000000	26.961368
1560.000000	27.220238
1559.000000	27.489182
1558.000000	27.697949
1557.000000	27.805642
1556.000000	27.852370
1555.000000	27.951356
1554.000000	28.073278
1553.000000	28.184456
1552.000000	28.301827
1551.000000	28.483031
1550.000000	28.722582
1549.000000	28.947831
1548.000000	29.095246
1547.000000	29.173606
1546.000000	29.247195
1545.000000	29.364912
1544.000000	29.528775
1543.000000	29.731263
1542.000000	30.076889
1541.000000	30.641444
1540.000000	31.284978
1539.000000	31.846380
1538.000000	32.223578
1537.000000	32.432631
1536.000000	32.630694
1535.000000	32.954492
1534.000000	33.417149
1533.000000	33.917397
1532.000000	34.348828
1531.000000	34.677652
1530.000000	34.947924
1529.000000	35.226971
1528.000000	35.571423
1527.000000	35.990832
1526.000000	36.425527
1525.000000	36.806566
1524.000000	37.179451
1523.000000	37.695605
1522.000000	38.386009
1521.000000	39.090227
1520.000000	39.639460
1519.000000	40.051622
1518.000000	40.495454
1517.000000	41.027786
1516.000000	41.561667
1515.000000	42.018213
1514.000000	42.360608
1513.000000	42.584261
1512.000000	42.678513
1511.000000	42.670580
1510.000000	42.656640
1509.000000	42.962045
1508.000000	43.864226
1507.000000	45.036716
1506.000000	46.060346
1505.000000	46.738039
1504.000000	47.082782
1503.000000	47.345045
1502.000000	47.671938
1501.000000	48.055346
1500.000000	48.463203
1499.000000	48.943324
1498.000000	49.546815
1497.000000	50.220521
1496.000000	50.844563
1495.000000	51.326164
1494.000000	51.632865
1493.000000	51.798870
1492.000000	51.943348
1491.000000	52.236840
1490.000000	52.743698
1489.000000	53.364116
1488.000000	53.956095
1487.000000	54.447372
1486.000000	54.824743
1485.000000	55.069100
1484.000000	55.217707
1483.000000	55.349177
1482.000000	55.475604
1481.000000	55.538161
1480.000000	55.498782
1479.000000	55.362474
1478.000000	55.109765
1477.000000	54.725503
1476.000000	54.272848
1475.000000	53.873652
1474.000000	53.503462
1473.000000	52.918026
1472.000000	52.012692
1471.000000	50.928724
1470.000000	49.724953
1469.000000	48.354013
1468.000000	46.795016
1467.000000	45.008401
1466.000000	42.816279
1465.000000	40.061079
1464.000000	36.977558
1463.000000	33.962886
1462.000000	31.107670
1461.000000	28.315456
1460.000000	25.579649
1459.000000	22.915700
1458.000000	20.096337
1457.000000	17.099234
1456.000000	14.597173
1455.000000	13.000834
1454.000000	12.006035
1453.000000	11.305620
1452.000000	10.859976
1451.000000	10.715325
1450.000000	10.847182
1449.000000	11.231511
1448.000000	11.902775
1447.000000	12.827961
1446.000000	13.873589
1445.000000	14.969928
1444.000000	16.163705
1443.000000	17.476195
1442.000000	18.830798
1441.000000	20.142298
1440.000000	21.412783
1439.000000	22.724859
1438.000000	24.195991
1437.000000	25.894043
1436.000000	27.675978
1435.000000	29.256960
1434.000000	30.558238
1433.000000	31.735140
1432.000000	32.921776
1431.000000	34.119078
1430.000000	35.243112
1429.000000	36.218123
1428.000000	37.001870
1427.000000	37.608003
1426.000000	38.120043
1425.000000	38.636313
1424.000000	39.186149
1423.000000	39.719691
1422.000000	40.213272
1421.000000	40.732915
1420.000000	41.395296
1419.000000	42.226098
1418.000000	43.115379
1417.000000	43.978678
1416.000000	44.821934
1415.000000	45.659471
1414.000000	46.490204
1413.000000	47.343004
1412.000000	48.252733
1411.000000	49.196434
1410.000000	50.113244
1409.000000	50.971684
1408.000000	51.769648
1407.000000	52.534988
1406.000000	53.319927
1405.000000	54.138035
1404.000000	54.921810
1403.000000	55.572624
1402.000000	56.074872
1401.000000	56.508487
1400.000000	56.945139
1399.000000	57.384230
1398.000000	57.823210
1397.000000	58.322223
1396.000000	58.919595
1395.000000	59.548245
1394.000000	60.095430
1393.000000	60.496821
1392.000000	60.731779
1391.000000	60.801600
1390.000000	60.739434
1389.000000	60.584040
1388.000000	60.320041
1387.000000	59.920896
1386.000000	59.477574
1385.000000	59.164937
1384.000000	59.098147
1383.000000	59.273356
1382.000000	59.601975
1381.000000	59.959064
1380.000000	60.218427
1379.000000	60.302468
1378.000000	60.220989
1377.000000	60.050930
1376.000000	59.883833
1375.000000	59.782581
1374.000000	59.750473
1373.000000	59.746615
1372.000000	59.713977
1371.000000	59.633832
1370.000000	59.547024
1369.000000	59.478045
1368.000000	59.386841
1367.000000	59.205997
1366.000000	58.914522
1365.000000	58.560798
1364.000000	58.214943
1363.000000	57.895308
1362.000000	57.567689
1361.000000	57.186074
1360.000000	56.707164
1359.000000	56.125710
1358.000000	55.504277
1357.000000	54.940492
1356.000000	54.516481
1355.000000	54.281887
1354.000000	54.256536
1353.000000	54.418887
1352.000000	54.692564
1351.000000	54.984844
1350.000000	55.219371
1349.000000	55.317931
1348.000000	55.196319
1347.000000	54.793008
1346.000000	54.086782
1345.000000	53.068623
1344.000000	51.733117
1343.000000	50.103900
1342.000000	48.255647
1341.000000	46.278020
1340.000000	44.224869
1339.000000	42.119304
1338.000000	39.962437
1337.000000	37.714356
1336.000000	35.312016
1335.000000	32.728265
1334.000000	29.994280
1333.000000	27.166773
1332.000000	24.316057
1331.000000	21.545858
1330.000000	18.973399
1329.000000	16.673906
1328.000000	14.672174
1327.000000	12.970667
1326.000000	11.548872
1325.000000	10.355209
1324.000000	9.333050
1323.000000	8.455400
1322.000000	7.710459
1321.000000	7.075037
1320.000000	6.537299
1319.000000	6.118122
1318.000000	5.849090
1317.000000	5.740311
1316.000000	5.788603
1315.000000	6.002103
1314.000000	6.382454
1313.000000	6.904302
1312.000000	7.533118
1311.000000	8.248179
1310.000000	9.039490
1309.000000	9.891812
1308.000000	10.790156
1307.000000	11.728708
1306.000000	12.698602
1305.000000	13.680151
1304.000000	14.656708
1303.000000	15.629098
1302.000000	16.610295
1301.000000	17.613068
1300.000000	18.650707
1299.000000	19.736624
1298.000000	20.871532
1297.000000	22.034888
1296.000000	23.196786
1295.000000	24.340029
1294.000000	25.466955
1293.000000	26.590679
1292.000000	27.727528
1291.000000	28.895827
1290.000000	30.114293
1289.000000	31.393238
1288.000000	32.725900
1287.000000	34.090777
1286.000000	35.461708
1285.000000	36.814101
1284.000000	38.125216
1283.000000	39.376726
1282.000000	40.558967
1281.000000	41.668110
1280.000000	42.698629
1279.000000	43.648971
1278.000000	44.533462
1277.000000	45.375431
1276.000000	46.191789
1275.000000	46.993783
1274.000000	47.797924
1273.000000	48.622165
1272.000000	49.468516
1271.000000	50.324456
1270.000000	51.180789
1269.000000	52.034940
1268.000000	52.880591
1267.000000	53.708666
1266.000000	54.517963
1265.000000	55.309708
1264.000000	56.073687
1263.000000	56.797846
1262.000000	57.487102
1261.000000	58.153104
1260.000000	58.787129
1259.000000	59.364855
1258.000000	59.877312
1257.000000	60.333376
1256.000000	60.737549
1255.000000	61.088775
1254.000000	61.396154
1253.000000	61.676080
1252.000000	61.930344
1251.000000	62.148737
1250.000000	62.328963
1249.000000	62.471360
1248.000000	62.562358
1247.000000	62.581873
1246.000000	62.525706
1245.000000	62.402883
1244.000000	62.212363
1243.000000	61.947675
1242.000000	61.617169
1241.000000	61.240532
1240.000000	60.830078
1239.000000	60.390909
1238.000000	59.937544
1237.000000	59.489471
1236.000000	59.054360
1235.000000	58.632765
1234.000000	58.234420
1233.000000	57.873834
1232.000000	57.555871
1231.000000	57.281001
1230.000000	57.058170
1229.000000	56.902068
1228.000000	56.818672
1227.000000	56.808480
1226.000000	56.879159
1225.000000	57.036573
1224.000000	57.271987
1223.000000	57.567905
1222.000000	57.915100
1221.000000	58.311955
1220.000000	58.747406
1219.000000	59.203437
1218.000000	59.669310
1217.000000	60.139580
1216.000000	60.602384
1215.000000	61.045146
1214.000000	61.470928
1213.000000	61.892527
1212.000000	62.312167
1211.000000	62.721915
1210.000000	63.122247
1209.000000	63.521698
1208.000000	63.919631
1207.000000	64.306774
1206.000000	64.681368
1205.000000	65.048560
1204.000000	65.403912
1203.000000	65.736031
1202.000000	66.045753
1201.000000	66.344895
1200.000000	66.638483
1199.000000	66.925300
1198.000000	67.213139
1197.000000	67.515295
1196.000000	67.831702
1195.000000	68.151264
1194.000000	68.470541
1193.000000	68.791078
1192.000000	69.101230
1191.000000	69.380276
1190.000000	69.621846
1189.000000	69.834579
1188.000000	70.021613
1187.000000	70.181216
1186.000000	70.326042
1185.000000	70.481224
1184.000000	70.658762
1183.000000	70.848339
1182.000000	71.034753
1181.000000	71.209809
1180.000000	71.370359
1179.000000	71.521570
1178.000000	71.678717
1177.000000	71.848836
1176.000000	72.012636
1175.000000	72.140837
1174.000000	72.224161
1173.000000	72.270877
1172.000000	72.285936
1171.000000	72.273482
1170.000000	72.254108
1169.000000	72.255778
1168.000000	72.288792
1167.000000	72.348373
1166.000000	72.435646
1165.000000	72.554412
1164.000000	72.691023
1163.000000	72.819437
1162.000000	72.924852
1161.000000	73.003068
1160.000000	73.041912
1159.000000	73.027924
1158.000000	72.968607
1157.000000	72.887979
1156.000000	72.802427
1155.000000	72.720362
1154.000000	72.659044
1153.000000	72.636523
1152.000000	72.649509
1151.000000	72.680203
1150.000000	72.722152
1149.000000	72.777902
1148.000000	72.835426
1147.000000	72.870310
1146.000000	72.870636
1145.000000	72.838808
1144.000000	72.772749
1143.000000	72.667501
1142.000000	72.534259
1141.000000	72.396034
1140.000000	72.264965
1139.000000	72.143627
1138.000000	72.043075
1137.000000	71.977932
1136.000000	71.945322
1135.000000	71.928290
1134.000000	71.917081
1133.000000	71.908744
1132.000000	71.889949
1131.000000	71.841996
1130.000000	71.761656
1129.000000	71.658579
1128.000000	71.534454
1127.000000	71.383895
1126.000000	71.212824
1125.000000	71.033263
1124.000000	70.844009
1123.000000	70.634642
1122.000000	70.405183
1121.000000	70.163608
1120.000000	69.906114
1119.000000	69.621170
1118.000000	69.309030
1117.000000	68.977998
1116.000000	68.626066
1115.000000	68.242175
1114.000000	67.823750
1113.000000	67.373355
1112.000000	66.879182
1111.000000	66.321479
1110.000000	65.689970
1109.000000	64.981877
1108.000000	64.188827
1107.000000	63.299000
1106.000000	62.315766
1105.000000	61.251236
1104.000000	60.110397
1103.000000	58.894471
1102.000000	57.608510
1101.000000	56.256132
1100.000000	54.824780
1099.000000	53.293118
1098.000000	51.645306
1097.000000	49.865992
1096.000000	47.937743
1095.000000	45.848372
1094.000000	43.599179
1093.000000	41.204205
1092.000000	38.681877
1091.000000	36.061884
1090.000000	33.383702
1089.000000	30.686535
1088.000000	28.008940
1087.000000	25.394444
1086.000000	22.884931
1085.000000	20.511922
1084.000000	18.303641
1083.000000	16.284277
1082.000000	14.468802
1081.000000	12.855783
1080.000000	11.439165
1079.000000	10.218837
1078.000000	9.179706
1077.000000	8.294702
1076.000000	7.541271
1075.000000	6.905881
1074.000000	6.374020
1073.000000	5.921846
1072.000000	5.535683
1071.000000	5.214484
1070.000000	4.951081
1069.000000	4.731726
1068.000000	4.550207
1067.000000	4.411630
1066.000000	4.315123
1065.000000	4.249913
1064.000000	4.214799
1063.000000	4.218977
1062.000000	4.264677
1061.000000	4.344130
1060.000000	4.455602
1059.000000	4.607836
1058.000000	4.802417
1057.000000	5.032188
1056.000000	5.298517
1055.000000	5.611816
1054.000000	5.976177
1053.000000	6.385679
1052.000000	6.840717
1051.000000	7.351072
1050.000000	7.916888
1049.000000	8.527943
1048.000000	9.179284
1047.000000	9.874751
1046.000000	10.614587
1045.000000	11.391947
1044.000000	12.206850
1043.000000	13.065678
1042.000000	13.968662
1041.000000	14.910737
1040.000000	15.890855
1039.000000	16.913307
1038.000000	17.976983
1037.000000	19.074478
1036.000000	20.202176
1035.000000	21.358113
1034.000000	22.533691
1033.000000	23.714867
1032.000000	24.892366
1031.000000	26.064499
1030.000000	27.230091
1029.000000	28.385855
1028.000000	29.530163
1027.000000	30.664794
1026.000000	31.791848
1025.000000	32.912799
1024.000000	34.029103
1023.000000	35.141492
1022.000000	36.248822
1021.000000	37.346826
1020.000000	38.429089
1019.000000	39.488148
1018.000000	40.516836
1017.000000	41.509322
1016.000000	42.459208
1015.000000	43.362342
1014.000000	44.220570
1013.000000	45.040370
1012.000000	45.829781
1011.000000	46.597441
1010.000000	47.355038
1009.000000	48.113506
1008.000000	48.876020
1007.000000	49.639886
1006.000000	50.401993
1005.000000	51.157791
1004.000000	51.896210
1003.000000	52.602943
1002.000000	53.270418
1001.000000	53.896392
1000.000000	54.477069
999.000000	55.010673
998.000000	55.506327
997.000000	55.982131
996.000000	56.452886
995.000000	56.928246
994.000000	57.419432
993.000000	57.935577
992.000000	58.473923
991.000000	59.021644
990.000000	59.566815
989.000000	60.099196
988.000000	60.602236
987.000000	61.058716
986.000000	61.464201
985.000000	61.826312
984.000000	62.153254
983.000000	62.452925
982.000000	62.742447
981.000000	63.043698
980.000000	63.369294
979.000000	63.722813
978.000000	64.108588
977.000000	64.527771
976.000000	64.965739
975.000000	65.396371
974.000000	65.800042
973.000000	66.165800
972.000000	66.481329
971.000000	66.736466
970.000000	66.936947
969.000000	67.102488
968.000000	67.250004
967.000000	67.392617
966.000000	67.550380
965.000000	67.745209
964.000000	67.984477
963.000000	68.261290
962.000000	68.567917
961.000000	68.895260
960.000000	69.221095
959.000000	69.515829
958.000000	69.761066
957.000000	69.951810
956.000000	70.084488
955.000000	70.158598
954.000000	70.191101
953.000000	70.210535
952.000000	70.237101
951.000000	70.280922
950.000000	70.355262
949.000000	70.474203
948.000000	70.637036
947.000000	70.828897
946.000000	71.035980
945.000000	71.246529
944.000000	71.439816
943.000000	71.591842
942.000000	71.693321
941.000000	71.749424
940.000000	71.763081
939.000000	71.736314
938.000000	71.684142
937.000000	71.629845
936.000000	71.587075
935.000000	71.559581
934.000000	71.555156
933.000000	71.582786
932.000000	71.637366
931.000000	71.702789
930.000000	71.769005
929.000000	71.831592
928.000000	71.877766
927.000000	71.889506
926.000000	71.861096
925.000000	71.797090
924.000000	71.696437
923.000000	71.554496
922.000000	71.377768
921.000000	71.181959
920.000000	70.975367
919.000000	70.760070
918.000000	70.546275
917.000000	70.348440
916.000000	70.169259
915.000000	70.000845
914.000000	69.839041
913.000000	69.681942
912.000000	69.515795
911.000000	69.318942
910.000000	69.077736
909.000000	68.785614
908.000000	68.431576
907.000000	68.003948
906.000000	67.506970
905.000000	66.957486
904.000000	66.368813
903.000000	65.752923
902.000000	65.130938
901.000000	64.526845
900.000000	63.950119
899.000000	63.395217
898.000000	62.854040
897.000000	62.314423
896.000000	61.750655
895.000000	61.130122
894.000000	60.429109
893.000000	59.635687
892.000000	58.739760
891.000000	57.737615
890.000000	56.643147
889.000000	55.481202
888.000000	54.275458
887.000000	53.045999
886.000000	51.813688
885.000000	50.593600
884.000000	49.384445
883.000000	48.172848
882.000000	46.942147
881.000000	45.672844
880.000000	44.341683
879.000000	42.929291
878.000000	41.430551
877.000000	39.852463
876.000000	38.208037
875.000000	36.516649
874.000000	34.803141
873.000000	33.093044
872.000000	31.408277
871.000000	29.766552
870.000000	28.178395
869.000000	26.645951
868.000000	25.166315
867.000000	23.735527
866.000000	22.347906
865.000000	20.995128
864.000000	19.673851
863.000000	18.387417
862.000000	17.140091
861.000000	15.936128
860.000000	14.783844
859.000000	13.698293
858.000000	12.693411
857.000000	11.780892
856.000000	10.980637
855.000000	10.316462
854.000000	9.805093
853.000000	9.447682
852.000000	9.231683
851.000000	9.133585
850.000000	9.114365
849.000000	9.131989
848.000000	9.157920
847.000000	9.179925
846.000000	9.194578
845.000000	9.203386
844.000000	9.217603
843.000000	9.254131
842.000000	9.325304
841.000000	9.439607
840.000000	9.606962
839.000000	9.836512
838.000000	10.130005
837.000000	10.484105
836.000000	10.899411
835.000000	11.376429
834.000000	11.908566
833.000000	12.486062
832.000000	13.103838
831.000000	13.761203
830.000000	14.454506
829.000000	15.179183
828.000000	15.936078
827.000000	16.728899
826.000000	17.560247
825.000000	18.432908
824.000000	19.351840
823.000000	20.318653
822.000000	21.325717
821.000000	22.360410
820.000000	23.409615
819.000000	24.459092
818.000000	25.493820
817.000000	26.502118
816.000000	27.476761
815.000000	28.412604
814.000000	29.307999
813.000000	30.167890
812.000000	31.002411
811.000000	31.821619
810.000000	32.634917
809.000000	33.452401
808.000000	34.281298
807.000000	35.122373
806.000000	35.972154
805.000000	36.826816
804.000000	37.680540
803.000000	38.523707
802.000000	39.347853
801.000000	40.149442
800.000000	40.926656
799.000000	41.677626
798.000000	42.404622
797.000000	43.115962
796.000000	43.820124
795.000000	44.522977
794.000000	45.231642
793.000000	45.953181
792.000000	46.686531
791.000000	47.421123
790.000000	48.144997
789.000000	48.848297
788.000000	49.518664
787.000000	50.143414
786.000000	50.718957
785.000000	51.250698
784.000000	51.744088
783.000000	52.204184
782.000000	52.644623
781.000000	53.085325
780.000000	53.539250
779.000000	54.009702
778.000000	54.499304
777.000000	55.010337
776.000000	55.534325
775.000000	56.051773
774.000000	56.545082
773.000000	57.002994
772.000000	57.414002
771.000000	57.769361
770.000000	58.075077
769.000000	58.351065
768.000000	58.615877
767.000000	58.882107
766.000000	59.164584
765.000000	59.479134
764.000000	59.830424
763.000000	60.210628
762.000000	60.610433
761.000000	61.020197
760.000000	61.420152
759.000000	61.783284
758.000000	62.091424
757.000000	62.339529
756.000000	62.526835
755.000000	62.657001
754.000000	62.748009
753.000000	62.826754
752.000000	62.912199
751.000000	63.013711
750.000000	63.142401
749.000000	63.309033
748.000000	63.509429
747.000000	63.725534
746.000000	63.941154
745.000000	64.144189
744.000000	64.314950
743.000000	64.429616
742.000000	64.478770
741.000000	64.471338
740.000000	64.419801
739.000000	64.335917
738.000000	64.240577
737.000000	64.161780
736.000000	64.118527
735.000000	64.117132
734.000000	64.163732
733.000000	64.265927
732.000000	64.420765
731.000000	64.613179
730.000000	64.828831
729.000000	65.057521
728.000000	65.284635
727.000000	65.493696
726.000000	65.681070
725.000000	65.856592
724.000000	66.028938
723.000000	66.203468
722.000000	66.392988
721.000000	66.615071
720.000000	66.875813
719.000000	67.168195
718.000000	67.486252
717.000000	67.827636
716.000000	68.182671
715.000000	68.536297
714.000000	68.880655
713.000000	69.212551
712.000000	69.520350
711.000000	69.789258
710.000000	70.019269
709.000000	70.222987
708.000000	70.408739
707.000000	70.580794
706.000000	70.752239
705.000000	70.938877
704.000000	71.140111
703.000000	71.342409
702.000000	71.540100
701.000000	71.737609
700.000000	71.936411
699.000000	72.135097
698.000000	72.339081
697.000000	72.553644
696.000000	72.768807
695.000000	72.969604
694.000000	73.154494
693.000000	73.326133
692.000000	73.474401
691.000000	73.588303
690.000000	73.679300
689.000000	73.771317
688.000000	73.869363
687.000000	73.960841
686.000000	74.042883
685.000000	74.127779
684.000000	74.226868
683.000000	74.346383
682.000000	74.494314
681.000000	74.673105
680.000000	74.868025
679.000000	75.057705
678.000000	75.230215
677.000000	75.375371
676.000000	75.479826
675.000000	75.531516
674.000000	75.530876
673.000000	75.496250
672.000000	75.455155
671.000000	75.436711
670.000000	75.469453
669.000000	75.555840
668.000000	75.670711
667.000000	75.803344
666.000000	75.936418
665.000000	76.072211
664.000000	76.234512
663.000000	76.400678
662.000000	76.530400
661.000000	76.608099
660.000000	76.637060
659.000000	76.614773
658.000000	76.546391
657.000000	76.456794
656.000000	76.374809
655.000000	76.313868
654.000000	76.286773
653.000000	76.319856
652.000000	76.424787
651.000000	76.580501
650.000000	76.756593
649.000000	76.933045
648.000000	77.082261
647.000000	77.164269
646.000000	77.163060
645.000000	77.098530
644.000000	76.987347
643.000000	76.826135
642.000000	76.626996
641.000000	76.433756
640.000000	76.283180
639.000000	76.177325
638.000000	76.108600
637.000000	76.084744
636.000000	76.110286
635.000000	76.166277
634.000000	76.223779
633.000000	76.258675
632.000000	76.245938
631.000000	76.161277
630.000000	76.001978
629.000000	75.789561
628.000000	75.547348
627.000000	75.298918
626.000000	75.086552
625.000000	74.953895
624.000000	74.902602
623.000000	74.896025
622.000000	74.909838
621.000000	74.945090
620.000000	74.990070
619.000000	75.007845
618.000000	74.974665
617.000000	74.902470
616.000000	74.807937
615.000000	74.689767
614.000000	74.551575
613.000000	74.417126
612.000000	74.309540
611.000000	74.237987
610.000000	74.213026
609.000000	74.248543
608.000000	74.333422
607.000000	74.427984
606.000000	74.500138
605.000000	74.538568
604.000000	74.524863
603.000000	74.428738
602.000000	74.248358
601.000000	74.025059
600.000000	73.795499
599.000000	73.559456
598.000000	73.311772
597.000000	73.073637
596.000000	72.876496
595.000000	72.742852
594.000000	72.701900
593.000000	72.793659
592.000000	73.029674
591.000000	73.356160
590.000000	73.679957
589.000000	73.926424
588.000000	74.061033
587.000000	74.089576
586.000000	74.057001
585.000000	74.020995
584.000000	74.008501
583.000000	74.020423
582.000000	74.076381
581.000000	74.214091
580.000000	74.429844
579.000000	74.663781
578.000000	74.871398
577.000000	75.067231
576.000000	75.273424
575.000000	75.454598
574.000000	75.542627
573.000000	75.506506
572.000000	75.365772
571.000000	75.167084
570.000000	74.971380
569.000000	74.835766
568.000000	74.786146
567.000000	74.815249
566.000000	74.907872
565.000000	75.055197
564.000000	75.239973
563.000000	75.430496
562.000000	75.598736
561.000000	75.729031
560.000000	75.804819
559.000000	75.807525
558.000000	75.739075
557.000000	75.627371
556.000000	75.503147
555.000000	75.386723
554.000000	75.298482
553.000000	75.259525
552.000000	75.278624
551.000000	75.354428
550.000000	75.487042
549.000000	75.671013
548.000000	75.881050
547.000000	76.085670
546.000000	76.273051
545.000000	76.440561
544.000000	76.564983
543.000000	76.616726
542.000000	76.603434
541.000000	76.568005
540.000000	76.539020
539.000000	76.516217
538.000000	76.506676
537.000000	76.540523
536.000000	76.638976
535.000000	76.791684
534.000000	76.975098
533.000000	77.174137
532.000000	77.372220
531.000000	77.539191
530.000000	77.648751
529.000000	77.696682
528.000000	77.698333
527.000000	77.693567
526.000000	77.746787
525.000000	77.882671
524.000000	78.037022
523.000000	78.113094
522.000000	78.071863
521.000000	77.947139
520.000000	77.790914
519.000000	77.639825
518.000000	77.529848
517.000000	77.490089
516.000000	77.497768
515.000000	77.481035
514.000000	77.384170
513.000000	77.205355
512.000000	76.964544
511.000000	76.665778
510.000000	76.303493
509.000000	75.882839
508.000000	75.409582
507.000000	74.880223
506.000000	74.292692
505.000000	73.649993
504.000000	72.966508
503.000000	72.302428
502.000000	71.763133
501.000000	71.407439
500.000000	71.185824
499.000000	71.018799
498.000000	70.907915
497.000000	70.918542
496.000000	71.080084
495.000000	71.351581
494.000000	71.685569
493.000000	72.077424
492.000000	72.517006
491.000000	72.946402
490.000000	73.301855
489.000000	73.570110
488.000000	73.788523
487.000000	74.022619
486.000000	74.355206
485.000000	74.845994
484.000000	75.467782
483.000000	76.115115
482.000000	76.699041
481.000000	77.188955
480.000000	77.558676
479.000000	77.770497
478.000000	77.828242
477.000000	77.783606
476.000000	77.664464
475.000000	77.461471
474.000000	77.227850
473.000000	77.126035
472.000000	77.267183
471.000000	77.568604
470.000000	77.909968
469.000000	78.298401
468.000000	78.802856
467.000000	79.407991
466.000000	79.991900
465.000000	80.447940
464.000000	80.746431
463.000000	80.903886
462.000000	80.959398
461.000000	80.943437
460.000000	80.839655
459.000000	80.644157
458.000000	80.481830
457.000000	80.504590
456.000000	80.669218
455.000000	80.836339
454.000000	81.001948
453.000000	81.305803
452.000000	81.816341
451.000000	82.369276
450.000000	82.737150
449.000000	82.865306
448.000000	82.856701
447.000000	82.801928
446.000000	82.711492
445.000000	82.594784
444.000000	82.511259
443.000000	82.539928
442.000000	82.724646
441.000000	83.032759
440.000000	83.365244
439.000000	83.626922
438.000000	83.815749
437.000000	84.043477
436.000000	84.399450
435.000000	84.818523
434.000000	85.164201
433.000000	85.386269
432.000000	85.508116
431.000000	85.545675
430.000000	85.518861
429.000000	85.470654
428.000000	85.398209
427.000000	85.248182
426.000000	85.048964
425.000000	84.958069
424.000000	85.091100
423.000000	85.346590
422.000000	85.493748
421.000000	85.373410
420.000000	85.027069
419.000000	84.904014
418.000000	85.385070
417.000000	86.186119
416.000000	86.873096
415.000000	87.236635
414.000000	87.306515
413.000000	87.310195
412.000000	87.414667
411.000000	87.541843
410.000000	87.566054
409.000000	87.539039
408.000000	87.565745
407.000000	87.636291
406.000000	87.669897
405.000000	87.735563
404.000000	87.830498
403.000000	87.796223
402.000000	87.509813
401.000000	87.058595
400.000000	86.573067
