PE IR       SUBTECH     SPECTRUM    ASCII       PEDS        4.00        
   -1
23ms261_nitro.asc
24/09/09
16:34:09.00
24/09/09
16:34:09.00
Administrator
Sample 1143 By Administrator Date Monday, September 09 2024
400.000000
#HDR
-1
-1
#GR
cm-1
%T
1.0
0.0
4000.000000
-1.000000
3601
8
98.600017
27.589694
#DATA
4000.000000	84.967991
3999.000000	84.988115
3998.000000	85.008144
3997.000000	85.027557
3996.000000	85.045186
3995.000000	85.059573
3994.000000	85.070378
3993.000000	85.079671
3992.000000	85.091242
3991.000000	85.108364
3990.000000	85.131848
3989.000000	85.159945
3988.000000	85.189809
3987.000000	85.218703
3986.000000	85.244426
3985.000000	85.265264
3984.000000	85.280339
3983.000000	85.290140
3982.000000	85.296388
3981.000000	85.301411
3980.000000	85.307744
3979.000000	85.317791
3978.000000	85.333147
3977.000000	85.353977
3976.000000	85.378718
3975.000000	85.404713
3974.000000	85.429433
3973.000000	85.451645
3972.000000	85.471635
3971.000000	85.490309
3970.000000	85.508401
3969.000000	85.525624
3968.000000	85.540517
3967.000000	85.551433
3966.000000	85.557800
3965.000000	85.561064
3964.000000	85.564437
3963.000000	85.571203
3962.000000	85.583063
3961.000000	85.600122
3960.000000	85.622103
3959.000000	85.648373
3958.000000	85.677538
3957.000000	85.706673
3956.000000	85.731600
3955.000000	85.748825
3954.000000	85.757208
3953.000000	85.758844
3952.000000	85.757760
3951.000000	85.758469
3950.000000	85.764644
3949.000000	85.776365
3948.000000	85.790001
3947.000000	85.802158
3946.000000	85.814147
3945.000000	85.831939
3944.000000	85.859925
3943.000000	85.895439
3942.000000	85.929314
3941.000000	85.953856
3940.000000	85.969873
3939.000000	85.982955
3938.000000	85.995963
3937.000000	86.006193
3936.000000	86.009346
3935.000000	86.005836
3934.000000	86.002054
3933.000000	86.006376
3932.000000	86.022239
3931.000000	86.046069
3930.000000	86.071877
3929.000000	86.095923
3928.000000	86.119054
3927.000000	86.144844
3926.000000	86.173362
3925.000000	86.198214
3924.000000	86.210477
3923.000000	86.207069
3922.000000	86.194526
3921.000000	86.183163
3920.000000	86.181295
3919.000000	86.192598
3918.000000	86.215563
3917.000000	86.245109
3916.000000	86.275372
3915.000000	86.304086
3914.000000	86.333140
3913.000000	86.364325
3912.000000	86.398173
3911.000000	86.430819
3910.000000	86.455888
3909.000000	86.467943
3908.000000	86.465496
3907.000000	86.452282
3906.000000	86.432698
3905.000000	86.408300
3904.000000	86.378168
3903.000000	86.344414
3902.000000	86.319621
3901.000000	86.320614
3900.000000	86.353055
3899.000000	86.407751
3898.000000	86.466395
3897.000000	86.514378
3896.000000	86.547693
3895.000000	86.568720
3894.000000	86.584242
3893.000000	86.601795
3892.000000	86.623749
3891.000000	86.641947
3890.000000	86.645581
3889.000000	86.635490
3888.000000	86.622494
3887.000000	86.619694
3886.000000	86.635468
3885.000000	86.660170
3884.000000	86.674910
3883.000000	86.677567
3882.000000	86.685297
3881.000000	86.715132
3880.000000	86.761341
3879.000000	86.797947
3878.000000	86.809174
3877.000000	86.802851
3876.000000	86.797369
3875.000000	86.804379
3874.000000	86.816410
3873.000000	86.817912
3872.000000	86.806867
3871.000000	86.799448
3870.000000	86.812359
3869.000000	86.838866
3868.000000	86.861669
3867.000000	86.875375
3866.000000	86.884121
3865.000000	86.898647
3864.000000	86.926010
3863.000000	86.955475
3862.000000	86.974951
3861.000000	86.984547
3860.000000	86.995632
3859.000000	87.018379
3858.000000	87.050872
3857.000000	87.079583
3856.000000	87.086479
3855.000000	87.067758
3854.000000	87.045611
3853.000000	87.031787
3852.000000	87.019950
3851.000000	87.021095
3850.000000	87.049654
3849.000000	87.100261
3848.000000	87.161341
3847.000000	87.219188
3846.000000	87.259971
3845.000000	87.278682
3844.000000	87.279785
3843.000000	87.269442
3842.000000	87.255415
3841.000000	87.243178
3840.000000	87.236426
3839.000000	87.238179
3838.000000	87.248266
3837.000000	87.264597
3836.000000	87.283736
3835.000000	87.302834
3834.000000	87.322512
3833.000000	87.346432
3832.000000	87.378521
3831.000000	87.416166
3830.000000	87.450490
3829.000000	87.478549
3828.000000	87.507121
3827.000000	87.538832
3826.000000	87.565853
3825.000000	87.576459
3824.000000	87.566013
3823.000000	87.544096
3822.000000	87.533853
3821.000000	87.546630
3820.000000	87.562554
3819.000000	87.563360
3818.000000	87.553918
3817.000000	87.552550
3816.000000	87.576009
3815.000000	87.619021
3814.000000	87.661544
3813.000000	87.694803
3812.000000	87.724398
3811.000000	87.757331
3810.000000	87.793025
3809.000000	87.825820
3808.000000	87.850872
3807.000000	87.864958
3806.000000	87.864686
3805.000000	87.847650
3804.000000	87.819534
3803.000000	87.790830
3802.000000	87.778860
3801.000000	87.789898
3800.000000	87.806844
3799.000000	87.819491
3798.000000	87.835885
3797.000000	87.868765
3796.000000	87.919868
3795.000000	87.976912
3794.000000	88.025674
3793.000000	88.063144
3792.000000	88.096286
3791.000000	88.131295
3790.000000	88.165595
3789.000000	88.192011
3788.000000	88.206610
3787.000000	88.211924
3786.000000	88.213591
3785.000000	88.213860
3784.000000	88.210959
3783.000000	88.203581
3782.000000	88.196180
3781.000000	88.198780
3780.000000	88.220213
3779.000000	88.255994
3778.000000	88.291995
3777.000000	88.319812
3776.000000	88.340955
3775.000000	88.357659
3774.000000	88.368299
3773.000000	88.371230
3772.000000	88.367613
3771.000000	88.360914
3770.000000	88.355244
3769.000000	88.351870
3768.000000	88.351469
3767.000000	88.359151
3766.000000	88.379702
3765.000000	88.410667
3764.000000	88.441234
3763.000000	88.460471
3762.000000	88.467839
3761.000000	88.471426
3760.000000	88.482149
3759.000000	88.498459
3758.000000	88.506987
3757.000000	88.501569
3756.000000	88.486862
3755.000000	88.468310
3754.000000	88.445184
3753.000000	88.416852
3752.000000	88.392703
3751.000000	88.381605
3750.000000	88.377788
3749.000000	88.372800
3748.000000	88.371111
3747.000000	88.379854
3746.000000	88.398326
3745.000000	88.433112
3744.000000	88.481813
3743.000000	88.518369
3742.000000	88.535835
3741.000000	88.544343
3740.000000	88.548725
3739.000000	88.550965
3738.000000	88.552046
3737.000000	88.558055
3736.000000	88.576451
3735.000000	88.608676
3734.000000	88.646028
3733.000000	88.680449
3732.000000	88.715347
3731.000000	88.755903
3730.000000	88.798949
3729.000000	88.835680
3728.000000	88.861180
3727.000000	88.881144
3726.000000	88.901040
3725.000000	88.917593
3724.000000	88.927397
3723.000000	88.937368
3722.000000	88.959132
3721.000000	88.992454
3720.000000	89.030033
3719.000000	89.066369
3718.000000	89.097305
3717.000000	89.120076
3716.000000	89.132121
3715.000000	89.131369
3714.000000	89.116470
3713.000000	89.091914
3712.000000	89.071463
3711.000000	89.064803
3710.000000	89.071538
3709.000000	89.089459
3708.000000	89.118492
3707.000000	89.157857
3706.000000	89.202474
3705.000000	89.245865
3704.000000	89.285769
3703.000000	89.325043
3702.000000	89.364578
3701.000000	89.395783
3700.000000	89.409998
3699.000000	89.410983
3698.000000	89.408072
3697.000000	89.406516
3696.000000	89.406487
3695.000000	89.404610
3694.000000	89.397549
3693.000000	89.386184
3692.000000	89.377383
3691.000000	89.377367
3690.000000	89.384948
3689.000000	89.393760
3688.000000	89.400462
3687.000000	89.410737
3686.000000	89.432104
3685.000000	89.463241
3684.000000	89.496929
3683.000000	89.527823
3682.000000	89.552759
3681.000000	89.568896
3680.000000	89.569039
3679.000000	89.547210
3678.000000	89.502806
3677.000000	89.446503
3676.000000	89.406304
3675.000000	89.393124
3674.000000	89.386484
3673.000000	89.374935
3672.000000	89.366732
3671.000000	89.381301
3670.000000	89.433769
3669.000000	89.502370
3668.000000	89.550173
3667.000000	89.572475
3666.000000	89.589444
3665.000000	89.615989
3664.000000	89.652996
3663.000000	89.693193
3662.000000	89.729113
3661.000000	89.755846
3660.000000	89.767052
3659.000000	89.759987
3658.000000	89.739620
3657.000000	89.716059
3656.000000	89.692058
3655.000000	89.660816
3654.000000	89.620835
3653.000000	89.577405
3652.000000	89.533982
3651.000000	89.494874
3650.000000	89.465204
3649.000000	89.441715
3648.000000	89.421968
3647.000000	89.415077
3646.000000	89.431525
3645.000000	89.469838
3644.000000	89.523140
3643.000000	89.584748
3642.000000	89.647386
3641.000000	89.700274
3640.000000	89.731708
3639.000000	89.737911
3638.000000	89.722492
3637.000000	89.692522
3636.000000	89.655707
3635.000000	89.619974
3634.000000	89.590027
3633.000000	89.561750
3632.000000	89.527070
3631.000000	89.483906
3630.000000	89.448202
3629.000000	89.437754
3628.000000	89.438329
3627.000000	89.428993
3626.000000	89.416938
3625.000000	89.416360
3624.000000	89.428802
3623.000000	89.446965
3622.000000	89.460125
3621.000000	89.460382
3620.000000	89.447877
3619.000000	89.424637
3618.000000	89.386506
3617.000000	89.334892
3616.000000	89.283450
3615.000000	89.249604
3614.000000	89.242257
3613.000000	89.253128
3612.000000	89.263525
3611.000000	89.262542
3610.000000	89.254664
3609.000000	89.251231
3608.000000	89.256845
3607.000000	89.263839
3606.000000	89.263050
3605.000000	89.254608
3604.000000	89.245729
3603.000000	89.245061
3602.000000	89.254476
3601.000000	89.266775
3600.000000	89.272280
3599.000000	89.265972
3598.000000	89.246993
3597.000000	89.220038
3596.000000	89.193337
3595.000000	89.173627
3594.000000	89.160223
3593.000000	89.144755
3592.000000	89.120425
3591.000000	89.087741
3590.000000	89.053462
3589.000000	89.027874
3588.000000	89.018039
3587.000000	89.017212
3586.000000	89.012261
3585.000000	89.002176
3584.000000	88.998629
3583.000000	89.012290
3582.000000	89.042370
3581.000000	89.077249
3580.000000	89.102838
3579.000000	89.111177
3578.000000	89.101425
3577.000000	89.076708
3576.000000	89.043627
3575.000000	89.009670
3574.000000	88.980017
3573.000000	88.954517
3572.000000	88.929151
3571.000000	88.900358
3570.000000	88.867726
3569.000000	88.836232
3568.000000	88.814538
3567.000000	88.805201
3566.000000	88.798999
3565.000000	88.788811
3564.000000	88.779426
3563.000000	88.780657
3562.000000	88.796252
3561.000000	88.819611
3560.000000	88.838920
3559.000000	88.845691
3558.000000	88.838758
3557.000000	88.821376
3556.000000	88.799185
3555.000000	88.779311
3554.000000	88.767969
3553.000000	88.766536
3552.000000	88.769611
3551.000000	88.768941
3550.000000	88.759370
3549.000000	88.741391
3548.000000	88.720202
3547.000000	88.701488
3546.000000	88.686185
3545.000000	88.670808
3544.000000	88.654849
3543.000000	88.643578
3542.000000	88.642382
3541.000000	88.650381
3540.000000	88.662332
3539.000000	88.674092
3538.000000	88.683226
3537.000000	88.686772
3536.000000	88.680569
3535.000000	88.663468
3534.000000	88.638788
3533.000000	88.612174
3532.000000	88.588238
3531.000000	88.568944
3530.000000	88.553290
3529.000000	88.538356
3528.000000	88.522033
3527.000000	88.505281
3526.000000	88.491691
3525.000000	88.484914
3524.000000	88.486621
3523.000000	88.494887
3522.000000	88.504656
3521.000000	88.511078
3520.000000	88.512697
3519.000000	88.510218
3518.000000	88.502428
3517.000000	88.486441
3516.000000	88.461918
3515.000000	88.433032
3514.000000	88.404847
3513.000000	88.380113
3512.000000	88.360650
3511.000000	88.349077
3510.000000	88.345613
3509.000000	88.344934
3508.000000	88.339379
3507.000000	88.325599
3506.000000	88.306330
3505.000000	88.286856
3504.000000	88.270754
3503.000000	88.257381
3502.000000	88.242627
3501.000000	88.222938
3500.000000	88.199571
3499.000000	88.177595
3498.000000	88.160676
3497.000000	88.147821
3496.000000	88.135679
3495.000000	88.122461
3494.000000	88.108398
3493.000000	88.093732
3492.000000	88.077949
3491.000000	88.060414
3490.000000	88.040574
3489.000000	88.017737
3488.000000	87.991447
3487.000000	87.961553
3486.000000	87.927995
3485.000000	87.892054
3484.000000	87.857645
3483.000000	87.829855
3482.000000	87.810459
3481.000000	87.795988
3480.000000	87.780960
3479.000000	87.762006
3478.000000	87.738690
3477.000000	87.711980
3476.000000	87.683288
3475.000000	87.653566
3474.000000	87.622457
3473.000000	87.589247
3472.000000	87.554578
3471.000000	87.519931
3470.000000	87.485403
3469.000000	87.449582
3468.000000	87.412085
3467.000000	87.374435
3466.000000	87.338259
3465.000000	87.304346
3464.000000	87.273466
3463.000000	87.245996
3462.000000	87.219745
3461.000000	87.190133
3460.000000	87.153777
3459.000000	87.110826
3458.000000	87.063571
3457.000000	87.014426
3456.000000	86.965350
3455.000000	86.918086
3454.000000	86.873126
3453.000000	86.829268
3452.000000	86.784650
3451.000000	86.738097
3450.000000	86.689858
3449.000000	86.641568
3448.000000	86.595327
3447.000000	86.551528
3446.000000	86.507881
3445.000000	86.461981
3444.000000	86.414048
3443.000000	86.365671
3442.000000	86.316499
3441.000000	86.264080
3440.000000	86.207349
3439.000000	86.148519
3438.000000	86.090766
3437.000000	86.035402
3436.000000	85.981644
3435.000000	85.928322
3434.000000	85.874330
3433.000000	85.818377
3432.000000	85.758905
3431.000000	85.694173
3430.000000	85.622592
3429.000000	85.543603
3428.000000	85.459094
3427.000000	85.372845
3426.000000	85.288121
3425.000000	85.206075
3424.000000	85.126350
3423.000000	85.048177
3422.000000	84.969977
3421.000000	84.889078
3420.000000	84.803140
3419.000000	84.712066
3418.000000	84.618183
3417.000000	84.524717
3416.000000	84.433939
3415.000000	84.345517
3414.000000	84.255882
3413.000000	84.159971
3412.000000	84.054269
3411.000000	83.938373
3410.000000	83.814012
3409.000000	83.683685
3408.000000	83.550916
3407.000000	83.420217
3406.000000	83.295357
3405.000000	83.177507
3404.000000	83.064597
3403.000000	82.951713
3402.000000	82.831599
3401.000000	82.696861
3400.000000	82.543811
3399.000000	82.374579
3398.000000	82.195456
3397.000000	82.013262
3396.000000	81.832990
3395.000000	81.657277
3394.000000	81.485708
3393.000000	81.314153
3392.000000	81.135803
3391.000000	80.944278
3390.000000	80.737512
3389.000000	80.518970
3388.000000	80.295152
3387.000000	80.071278
3386.000000	79.848633
3385.000000	79.625562
3384.000000	79.399066
3383.000000	79.165402
3382.000000	78.920413
3381.000000	78.661172
3380.000000	78.387921
3379.000000	78.103672
3378.000000	77.812526
3377.000000	77.518592
3376.000000	77.225029
3375.000000	76.932656
3374.000000	76.639109
3373.000000	76.339874
3372.000000	76.030069
3371.000000	75.704814
3370.000000	75.360457
3369.000000	74.996750
3368.000000	74.617770
3367.000000	74.229947
3366.000000	73.838696
3365.000000	73.447127
3364.000000	73.055589
3363.000000	72.661110
3362.000000	72.258408
3361.000000	71.842515
3360.000000	71.411144
3359.000000	70.964815
3358.000000	70.505940
3357.000000	70.038605
3356.000000	69.566780
3355.000000	69.091877
3354.000000	68.612081
3353.000000	68.124034
3352.000000	67.624554
3351.000000	67.110631
3350.000000	66.580521
3349.000000	66.035947
3348.000000	65.481620
3347.000000	64.922579
3346.000000	64.362012
3345.000000	63.801435
3344.000000	63.240260
3343.000000	62.674285
3342.000000	62.097307
3341.000000	61.504993
3340.000000	60.896904
3339.000000	60.275434
3338.000000	59.644547
3337.000000	59.009784
3336.000000	58.376091
3335.000000	57.744612
3334.000000	57.113061
3333.000000	56.478766
3332.000000	55.839862
3331.000000	55.193972
3330.000000	54.538794
3329.000000	53.874937
3328.000000	53.206122
3327.000000	52.536729
3326.000000	51.870517
3325.000000	51.210731
3324.000000	50.558474
3323.000000	49.910922
3322.000000	49.263627
3321.000000	48.614642
3320.000000	47.964761
3319.000000	47.315059
3318.000000	46.667499
3317.000000	46.026794
3316.000000	45.398368
3315.000000	44.784394
3314.000000	44.183700
3313.000000	43.594712
3312.000000	43.015549
3311.000000	42.442895
3310.000000	41.875249
3309.000000	41.316386
3308.000000	40.773828
3307.000000	40.254224
3306.000000	39.762365
3305.000000	39.302660
3304.000000	38.875467
3303.000000	38.474533
3302.000000	38.091286
3301.000000	37.721366
3300.000000	37.365173
3299.000000	37.023486
3298.000000	36.697859
3297.000000	36.393330
3296.000000	36.115135
3295.000000	35.864287
3294.000000	35.638534
3293.000000	35.437128
3292.000000	35.260544
3291.000000	35.105516
3290.000000	34.966478
3289.000000	34.839883
3288.000000	34.725236
3287.000000	34.623057
3286.000000	34.534443
3285.000000	34.462343
3284.000000	34.408049
3283.000000	34.368003
3282.000000	34.336939
3281.000000	34.312365
3280.000000	34.293683
3279.000000	34.278656
3278.000000	34.265337
3277.000000	34.256164
3276.000000	34.255536
3275.000000	34.264376
3274.000000	34.280245
3273.000000	34.301984
3272.000000	34.330817
3271.000000	34.367125
3270.000000	34.409507
3269.000000	34.456201
3268.000000	34.505032
3267.000000	34.553621
3266.000000	34.601852
3265.000000	34.652960
3264.000000	34.709579
3263.000000	34.770037
3262.000000	34.831111
3261.000000	34.891850
3260.000000	34.952170
3259.000000	35.010323
3258.000000	35.065519
3257.000000	35.121507
3256.000000	35.183627
3255.000000	35.253439
3254.000000	35.328664
3253.000000	35.406585
3252.000000	35.484385
3251.000000	35.558023
3250.000000	35.624898
3249.000000	35.687184
3248.000000	35.749930
3247.000000	35.816678
3246.000000	35.888662
3245.000000	35.966117
3244.000000	36.047520
3243.000000	36.129053
3242.000000	36.207622
3241.000000	36.283231
3240.000000	36.356577
3239.000000	36.426230
3238.000000	36.490684
3237.000000	36.551283
3236.000000	36.610867
3235.000000	36.671463
3234.000000	36.735152
3233.000000	36.804462
3232.000000	36.878734
3231.000000	36.952361
3230.000000	37.019870
3229.000000	37.080938
3228.000000	37.138141
3227.000000	37.192322
3226.000000	37.243190
3225.000000	37.292248
3224.000000	37.341280
3223.000000	37.389452
3222.000000	37.434813
3221.000000	37.477276
3220.000000	37.517492
3219.000000	37.554297
3218.000000	37.586379
3217.000000	37.614982
3216.000000	37.642244
3215.000000	37.668198
3214.000000	37.691490
3213.000000	37.711721
3212.000000	37.728576
3211.000000	37.740356
3210.000000	37.745995
3209.000000	37.746729
3208.000000	37.744067
3207.000000	37.737817
3206.000000	37.728025
3205.000000	37.716785
3204.000000	37.705373
3203.000000	37.691776
3202.000000	37.673425
3201.000000	37.650370
3200.000000	37.623817
3199.000000	37.593514
3198.000000	37.559137
3197.000000	37.522062
3196.000000	37.483251
3195.000000	37.441637
3194.000000	37.396522
3193.000000	37.349473
3192.000000	37.301666
3191.000000	37.251714
3190.000000	37.198687
3189.000000	37.144580
3188.000000	37.091407
3187.000000	37.038301
3186.000000	36.984004
3185.000000	36.929656
3184.000000	36.876330
3183.000000	36.822399
3182.000000	36.766207
3181.000000	36.709194
3180.000000	36.653710
3179.000000	36.600121
3178.000000	36.548573
3177.000000	36.500984
3176.000000	36.458524
3175.000000	36.419356
3174.000000	36.381607
3173.000000	36.346187
3172.000000	36.314173
3171.000000	36.284265
3170.000000	36.255432
3169.000000	36.229621
3168.000000	36.209166
3167.000000	36.193666
3166.000000	36.182232
3165.000000	36.175910
3164.000000	36.175215
3163.000000	36.178080
3162.000000	36.182905
3161.000000	36.191516
3160.000000	36.206230
3159.000000	36.226554
3158.000000	36.251370
3157.000000	36.281185
3156.000000	36.315940
3155.000000	36.353553
3154.000000	36.393692
3153.000000	36.440299
3152.000000	36.496724
3151.000000	36.561242
3150.000000	36.630145
3149.000000	36.702745
3148.000000	36.780620
3147.000000	36.864174
3146.000000	36.953278
3145.000000	37.048721
3144.000000	37.149811
3143.000000	37.253098
3142.000000	37.356216
3141.000000	37.461580
3140.000000	37.573695
3139.000000	37.694525
3138.000000	37.823867
3137.000000	37.961425
3136.000000	38.105966
3135.000000	38.254473
3134.000000	38.404458
3133.000000	38.556041
3132.000000	38.709920
3131.000000	38.865940
3130.000000	39.025496
3129.000000	39.192213
3128.000000	39.368087
3127.000000	39.550869
3126.000000	39.737234
3125.000000	39.925820
3124.000000	40.115209
3123.000000	40.302561
3122.000000	40.487067
3121.000000	40.672323
3120.000000	40.862896
3119.000000	41.060576
3118.000000	41.266261
3117.000000	41.482191
3116.000000	41.709152
3115.000000	41.943643
3114.000000	42.180125
3113.000000	42.414828
3112.000000	42.645853
3111.000000	42.872659
3110.000000	43.098057
3109.000000	43.327981
3108.000000	43.566511
3107.000000	43.812444
3106.000000	44.062238
3105.000000	44.313829
3104.000000	44.565741
3103.000000	44.815629
3102.000000	45.062519
3101.000000	45.308520
3100.000000	45.556358
3099.000000	45.807015
3098.000000	46.061419
3097.000000	46.321627
3096.000000	46.587753
3095.000000	46.855849
3094.000000	47.121052
3093.000000	47.381421
3092.000000	47.637260
3091.000000	47.889127
3090.000000	48.138521
3089.000000	48.388514
3088.000000	48.641527
3087.000000	48.897789
3086.000000	49.157122
3085.000000	49.419927
3084.000000	49.684767
3083.000000	49.947311
3082.000000	50.203957
3081.000000	50.455175
3080.000000	50.704038
3079.000000	50.953282
3078.000000	51.205061
3077.000000	51.461127
3076.000000	51.720996
3075.000000	51.981274
3074.000000	52.238390
3073.000000	52.490659
3072.000000	52.736865
3071.000000	52.975399
3070.000000	53.206900
3069.000000	53.436033
3068.000000	53.668580
3067.000000	53.907391
3066.000000	54.151864
3065.000000	54.399423
3064.000000	54.645977
3063.000000	54.886782
3062.000000	55.118785
3061.000000	55.341938
3060.000000	55.557870
3059.000000	55.769029
3058.000000	55.979541
3057.000000	56.194353
3056.000000	56.415582
3055.000000	56.640642
3054.000000	56.865069
3053.000000	57.086016
3052.000000	57.302326
3051.000000	57.513315
3050.000000	57.719172
3049.000000	57.921426
3048.000000	58.121922
3047.000000	58.321973
3046.000000	58.522853
3045.000000	58.725516
3044.000000	58.928896
3043.000000	59.129954
3042.000000	59.326277
3041.000000	59.517610
3040.000000	59.704581
3039.000000	59.887777
3038.000000	60.069065
3037.000000	60.251999
3036.000000	60.439304
3035.000000	60.630734
3034.000000	60.823878
3033.000000	61.015816
3032.000000	61.203273
3031.000000	61.382954
3030.000000	61.553638
3029.000000	61.717440
3028.000000	61.878406
3027.000000	62.040427
3026.000000	62.206465
3025.000000	62.377927
3024.000000	62.553338
3023.000000	62.728788
3022.000000	62.900729
3021.000000	63.067763
3020.000000	63.229725
3019.000000	63.386580
3018.000000	63.539301
3017.000000	63.690396
3016.000000	63.842333
3015.000000	63.996108
3014.000000	64.151679
3013.000000	64.308733
3012.000000	64.466146
3011.000000	64.621813
3010.000000	64.774012
3009.000000	64.922556
3008.000000	65.068459
3007.000000	65.213450
3006.000000	65.359911
3005.000000	65.509715
3004.000000	65.662126
3003.000000	65.813639
3002.000000	65.960579
3001.000000	66.101128
3000.000000	66.235052
2999.000000	66.363039
2998.000000	66.487210
2997.000000	66.611053
2996.000000	66.737652
2995.000000	66.868485
2994.000000	67.003948
2993.000000	67.143813
2992.000000	67.286328
2991.000000	67.428040
2990.000000	67.565668
2989.000000	67.697781
2988.000000	67.824486
2987.000000	67.946583
2986.000000	68.065709
2985.000000	68.184227
2984.000000	68.303803
2983.000000	68.424401
2982.000000	68.545259
2981.000000	68.666046
2980.000000	68.786439
2979.000000	68.905403
2978.000000	69.022077
2977.000000	69.137146
2976.000000	69.252585
2975.000000	69.370173
2974.000000	69.490508
2973.000000	69.612728
2972.000000	69.734562
2971.000000	69.853085
2970.000000	69.966217
2969.000000	70.073616
2968.000000	70.176061
2967.000000	70.274789
2966.000000	70.371839
2965.000000	70.470428
2964.000000	70.573846
2963.000000	70.683652
2962.000000	70.798966
2961.000000	70.916993
2960.000000	71.033949
2959.000000	71.146161
2958.000000	71.251161
2957.000000	71.348246
2956.000000	71.438390
2955.000000	71.524194
2954.000000	71.609682
2953.000000	71.698675
2952.000000	71.792463
2951.000000	71.889260
2950.000000	71.986292
2949.000000	72.081887
2948.000000	72.175495
2947.000000	72.266878
2946.000000	72.356312
2945.000000	72.445158
2944.000000	72.535301
2943.000000	72.627852
2942.000000	72.722577
2941.000000	72.818113
2940.000000	72.912125
2939.000000	73.001768
2938.000000	73.084974
2937.000000	73.161763
2936.000000	73.234392
2935.000000	73.306524
2934.000000	73.382324
2933.000000	73.465354
2932.000000	73.557031
2931.000000	73.655607
2930.000000	73.756695
2929.000000	73.854923
2928.000000	73.945396
2927.000000	74.024949
2926.000000	74.093374
2925.000000	74.153842
2924.000000	74.211670
2923.000000	74.272113
2922.000000	74.338826
2921.000000	74.413178
2920.000000	74.493858
2919.000000	74.577050
2918.000000	74.658003
2917.000000	74.733312
2916.000000	74.802095
2915.000000	74.865548
2914.000000	74.925910
2913.000000	74.985819
2912.000000	75.047692
2911.000000	75.112820
2910.000000	75.180483
2909.000000	75.247983
2908.000000	75.311803
2907.000000	75.369421
2906.000000	75.420854
2905.000000	75.469141
2904.000000	75.519349
2903.000000	75.576622
2902.000000	75.643954
2901.000000	75.721363
2900.000000	75.805904
2899.000000	75.891939
2898.000000	75.973022
2897.000000	76.043246
2896.000000	76.099438
2895.000000	76.142799
2894.000000	76.179054
2893.000000	76.216284
2892.000000	76.261403
2891.000000	76.317551
2890.000000	76.383497
2889.000000	76.454793
2888.000000	76.525564
2887.000000	76.590394
2886.000000	76.646251
2885.000000	76.693578
2884.000000	76.735973
2883.000000	76.778620
2882.000000	76.826150
2881.000000	76.880790
2880.000000	76.941406
2879.000000	77.004258
2878.000000	77.065483
2877.000000	77.123351
2876.000000	77.178215
2875.000000	77.230565
2874.000000	77.280283
2873.000000	77.328587
2872.000000	77.379975
2871.000000	77.440487
2870.000000	77.512983
2869.000000	77.593920
2868.000000	77.674700
2867.000000	77.746205
2866.000000	77.802900
2865.000000	77.845001
2864.000000	77.878684
2863.000000	77.913635
2862.000000	77.958285
2861.000000	78.015544
2860.000000	78.082436
2859.000000	78.153379
2858.000000	78.223399
2857.000000	78.288929
2856.000000	78.347644
2855.000000	78.399145
2854.000000	78.445963
2853.000000	78.493175
2852.000000	78.546248
2851.000000	78.608188
2850.000000	78.677409
2849.000000	78.747563
2848.000000	78.810236
2847.000000	78.859612
2846.000000	78.895689
2845.000000	78.923854
2844.000000	78.952370
2843.000000	78.990078
2842.000000	79.044078
2841.000000	79.116245
2840.000000	79.200576
2839.000000	79.285171
2838.000000	79.358816
2837.000000	79.416411
2836.000000	79.458811
2835.000000	79.489409
2834.000000	79.512485
2833.000000	79.534107
2832.000000	79.562057
2831.000000	79.602900
2830.000000	79.658718
2829.000000	79.726381
2828.000000	79.799296
2827.000000	79.869902
2826.000000	79.932148
2825.000000	79.983603
2824.000000	80.026239
2823.000000	80.065155
2822.000000	80.106152
2821.000000	80.153489
2820.000000	80.208316
2819.000000	80.268024
2818.000000	80.327123
2817.000000	80.379810
2816.000000	80.422835
2815.000000	80.456943
2814.000000	80.486551
2813.000000	80.518287
2812.000000	80.558608
2811.000000	80.610966
2810.000000	80.674089
2809.000000	80.742615
2808.000000	80.809282
2807.000000	80.867107
2806.000000	80.911152
2805.000000	80.940178
2804.000000	80.957570
2803.000000	80.970438
2802.000000	80.987088
2801.000000	81.014223
2800.000000	81.054664
2799.000000	81.106210
2798.000000	81.162505
2797.000000	81.216009
2796.000000	81.261343
2795.000000	81.296915
2794.000000	81.324576
2793.000000	81.348566
2792.000000	81.374137
2791.000000	81.405514
2790.000000	81.443949
2789.000000	81.487333
2788.000000	81.531451
2787.000000	81.571688
2786.000000	81.604659
2785.000000	81.629730
2784.000000	81.649648
2783.000000	81.669563
2782.000000	81.694927
2781.000000	81.729608
2780.000000	81.774572
2779.000000	81.827025
2778.000000	81.880677
2777.000000	81.927838
2776.000000	81.962553
2775.000000	81.982665
2774.000000	81.990195
2773.000000	81.990610
2772.000000	81.990961
2771.000000	81.997072
2770.000000	82.011246
2769.000000	82.032049
2768.000000	82.055791
2767.000000	82.077907
2766.000000	82.094046
2765.000000	82.101521
2764.000000	82.100534
2763.000000	82.093863
2762.000000	82.085125
2761.000000	82.077337
2760.000000	82.072260
2759.000000	82.069855
2758.000000	82.068166
2757.000000	82.064339
2756.000000	82.056272
2755.000000	82.043573
2754.000000	82.027534
2753.000000	82.010916
2752.000000	81.997271
2751.000000	81.989254
2750.000000	81.986817
2749.000000	81.986960
2748.000000	81.985139
2747.000000	81.976682
2746.000000	81.957724
2745.000000	81.926295
2744.000000	81.883212
2743.000000	81.832005
2742.000000	81.777855
2741.000000	81.726324
2740.000000	81.682254
2739.000000	81.648609
2738.000000	81.625955
2737.000000	81.613467
2736.000000	81.610325
2735.000000	81.616095
2734.000000	81.630651
2733.000000	81.654091
2732.000000	81.686751
2731.000000	81.728676
2730.000000	81.778765
2729.000000	81.835199
2728.000000	81.896321
2727.000000	81.960743
2726.000000	82.027120
2725.000000	82.094460
2724.000000	82.162979
2723.000000	82.233809
2722.000000	82.307515
2721.000000	82.383279
2720.000000	82.459333
2719.000000	82.533603
2718.000000	82.603977
2717.000000	82.668625
2716.000000	82.726367
2715.000000	82.776642
2714.000000	82.819103
2713.000000	82.853865
2712.000000	82.882117
2711.000000	82.905583
2710.000000	82.925633
2709.000000	82.943205
2708.000000	82.959453
2707.000000	82.975852
2706.000000	82.993361
2705.000000	83.012098
2704.000000	83.031487
2703.000000	83.049979
2702.000000	83.064801
2701.000000	83.072742
2700.000000	83.071869
2699.000000	83.062338
2698.000000	83.046058
2697.000000	83.026456
2696.000000	83.008034
2695.000000	82.994914
2694.000000	82.989019
2693.000000	82.989615
2692.000000	82.994346
2691.000000	83.000146
2690.000000	83.003649
2689.000000	83.002073
2688.000000	82.994562
2687.000000	82.982557
2686.000000	82.968820
2685.000000	82.956160
2684.000000	82.946369
2683.000000	82.939274
2682.000000	82.932532
2681.000000	82.922938
2680.000000	82.908461
2679.000000	82.889443
2678.000000	82.868635
2677.000000	82.850657
2676.000000	82.840806
2675.000000	82.842793
2674.000000	82.856701
2673.000000	82.878981
2672.000000	82.904009
2671.000000	82.925738
2670.000000	82.939215
2669.000000	82.942397
2668.000000	82.937531
2667.000000	82.930353
2666.000000	82.927608
2665.000000	82.934800
2664.000000	82.954652
2663.000000	82.985925
2662.000000	83.023220
2661.000000	83.058787
2660.000000	83.085578
2659.000000	83.099578
2658.000000	83.100858
2657.000000	83.093821
2656.000000	83.085982
2655.000000	83.084741
2654.000000	83.093961
2653.000000	83.112904
2652.000000	83.137499
2651.000000	83.162052
2650.000000	83.181078
2649.000000	83.191939
2648.000000	83.197207
2647.000000	83.204067
2646.000000	83.221016
2645.000000	83.254714
2644.000000	83.307818
2643.000000	83.377723
2642.000000	83.456447
2641.000000	83.532849
2640.000000	83.596789
2639.000000	83.642542
2638.000000	83.670315
2637.000000	83.686293
2636.000000	83.700924
2635.000000	83.724786
2634.000000	83.763931
2633.000000	83.817691
2632.000000	83.879659
2631.000000	83.940065
2630.000000	83.988520
2629.000000	84.017817
2628.000000	84.027300
2627.000000	84.023051
2626.000000	84.014911
2625.000000	84.012731
2624.000000	84.023456
2623.000000	84.048519
2622.000000	84.082492
2621.000000	84.115183
2620.000000	84.136253
2619.000000	84.139396
2618.000000	84.124213
2617.000000	84.096415
2616.000000	84.066542
2615.000000	84.046052
2614.000000	84.042161
2613.000000	84.054758
2612.000000	84.076804
2611.000000	84.097037
2610.000000	84.103499
2609.000000	84.087926
2608.000000	84.049768
2607.000000	83.996975
2606.000000	83.942942
2605.000000	83.901778
2604.000000	83.883846
2603.000000	83.892336
2602.000000	83.922152
2601.000000	83.962044
2600.000000	83.999393
2599.000000	84.024906
2598.000000	84.035417
2597.000000	84.035205
2596.000000	84.034592
2595.000000	84.045631
2594.000000	84.076706
2593.000000	84.128997
2592.000000	84.196430
2591.000000	84.267719
2590.000000	84.329912
2589.000000	84.373329
2588.000000	84.395988
2587.000000	84.404649
2586.000000	84.411822
2585.000000	84.431175
2584.000000	84.473164
2583.000000	84.541080
2582.000000	84.629090
2581.000000	84.724037
2580.000000	84.810530
2579.000000	84.876488
2578.000000	84.916959
2577.000000	84.935888
2576.000000	84.945022
2575.000000	84.959271
2574.000000	84.990564
2573.000000	85.043730
2572.000000	85.115530
2571.000000	85.195938
2570.000000	85.271404
2569.000000	85.330034
2568.000000	85.366592
2567.000000	85.383939
2566.000000	85.390853
2565.000000	85.398640
2564.000000	85.417268
2563.000000	85.450995
2562.000000	85.495189
2561.000000	85.537846
2560.000000	85.565340
2559.000000	85.567780
2558.000000	85.542280
2557.000000	85.494358
2556.000000	85.437425
2555.000000	85.388951
2554.000000	85.364240
2553.000000	85.371356
2552.000000	85.409017
2551.000000	85.467305
2550.000000	85.530825
2549.000000	85.584808
2548.000000	85.620986
2547.000000	85.639870
2546.000000	85.649223
2545.000000	85.660645
2544.000000	85.686029
2543.000000	85.732771
2542.000000	85.799748
2541.000000	85.877656
2540.000000	85.953503
2539.000000	86.015721
2538.000000	86.057424
2537.000000	86.078469
2536.000000	86.085816
2535.000000	86.090696
2534.000000	86.103294
2533.000000	86.128644
2532.000000	86.165547
2531.000000	86.207240
2530.000000	86.243813
2529.000000	86.266329
2528.000000	86.271307
2527.000000	86.262500
2526.000000	86.249232
2525.000000	86.243358
2524.000000	86.255761
2523.000000	86.292075
2522.000000	86.349333
2521.000000	86.416637
2520.000000	86.479528
2519.000000	86.525107
2518.000000	86.545932
2517.000000	86.542616
2516.000000	86.524007
2515.000000	86.503760
2514.000000	86.494856
2513.000000	86.505436
2512.000000	86.537005
2511.000000	86.584023
2510.000000	86.635554
2509.000000	86.679837
2508.000000	86.709489
2507.000000	86.723512
2506.000000	86.726083
2505.000000	86.724733
2504.000000	86.728109
2503.000000	86.742154
2502.000000	86.766786
2501.000000	86.796240
2500.000000	86.822602
2499.000000	86.839090
2498.000000	86.841986
2497.000000	86.832649
2496.000000	86.818331
2495.000000	86.809338
2494.000000	86.814040
2493.000000	86.835791
2492.000000	86.872596
2491.000000	86.917476
2490.000000	86.959587
2489.000000	86.987982
2488.000000	86.996536
2487.000000	86.986130
2486.000000	86.963237
2485.000000	86.937588
2484.000000	86.919624
2483.000000	86.916822
2482.000000	86.930551
2481.000000	86.956288
2480.000000	86.986691
2479.000000	87.014290
2478.000000	87.033101
2477.000000	87.040611
2476.000000	87.039372
2475.000000	87.035448
2474.000000	87.034561
2473.000000	87.039584
2472.000000	87.050387
2471.000000	87.064156
2470.000000	87.076015
2469.000000	87.081434
2468.000000	87.078989
2467.000000	87.070894
2466.000000	87.061580
2465.000000	87.056519
2464.000000	87.060997
2463.000000	87.077463
2462.000000	87.103363
2461.000000	87.132306
2460.000000	87.157457
2459.000000	87.173553
2458.000000	87.177344
2457.000000	87.168896
2456.000000	87.152783
2455.000000	87.136313
2454.000000	87.125880
2453.000000	87.124882
2452.000000	87.133749
2451.000000	87.150007
2450.000000	87.168777
2449.000000	87.185187
2448.000000	87.197087
2447.000000	87.205103
2446.000000	87.210873
2445.000000	87.216475
2444.000000	87.224352
2443.000000	87.235527
2442.000000	87.247801
2441.000000	87.257189
2440.000000	87.261042
2439.000000	87.259038
2438.000000	87.252296
2437.000000	87.243490
2436.000000	87.237320
2435.000000	87.238627
2434.000000	87.249391
2433.000000	87.268269
2432.000000	87.292180
2431.000000	87.316808
2430.000000	87.336748
2429.000000	87.347835
2428.000000	87.350001
2427.000000	87.346701
2426.000000	87.341848
2425.000000	87.338458
2424.000000	87.339089
2423.000000	87.344934
2422.000000	87.354299
2421.000000	87.363848
2420.000000	87.371636
2419.000000	87.377945
2418.000000	87.383857
2417.000000	87.390903
2416.000000	87.401527
2415.000000	87.417610
2414.000000	87.437978
2413.000000	87.458586
2412.000000	87.475144
2411.000000	87.484641
2410.000000	87.485383
2409.000000	87.478002
2408.000000	87.466632
2407.000000	87.457337
2406.000000	87.454979
2405.000000	87.462070
2404.000000	87.479230
2403.000000	87.504474
2402.000000	87.532485
2401.000000	87.556833
2400.000000	87.573685
2399.000000	87.582840
2398.000000	87.586193
2397.000000	87.586961
2396.000000	87.589427
2395.000000	87.596747
2394.000000	87.608474
2393.000000	87.621590
2392.000000	87.633424
2391.000000	87.642575
2390.000000	87.648418
2389.000000	87.651935
2388.000000	87.657426
2387.000000	87.670582
2386.000000	87.694886
2385.000000	87.730518
2384.000000	87.774374
2383.000000	87.820702
2382.000000	87.861047
2381.000000	87.887958
2380.000000	87.899720
2379.000000	87.899494
2378.000000	87.892917
2377.000000	87.886473
2376.000000	87.887217
2375.000000	87.900193
2374.000000	87.925843
2373.000000	87.960736
2372.000000	87.999669
2371.000000	88.036660
2370.000000	88.065660
2369.000000	88.085353
2368.000000	88.099549
2367.000000	88.113096
2366.000000	88.129142
2365.000000	88.148704
2364.000000	88.172857
2363.000000	88.197509
2362.000000	88.214548
2361.000000	88.222541
2360.000000	88.223750
2359.000000	88.223126
2358.000000	88.224907
2357.000000	88.233561
2356.000000	88.256863
2355.000000	88.294814
2354.000000	88.344611
2353.000000	88.399903
2352.000000	88.450746
2351.000000	88.487313
2350.000000	88.499819
2349.000000	88.491348
2348.000000	88.476191
2347.000000	88.477211
2346.000000	88.507028
2345.000000	88.552678
2344.000000	88.597449
2343.000000	88.633718
2342.000000	88.667303
2341.000000	88.699935
2340.000000	88.726399
2339.000000	88.744780
2338.000000	88.757362
2337.000000	88.768859
2336.000000	88.782292
2335.000000	88.799545
2334.000000	88.821922
2333.000000	88.848169
2332.000000	88.872030
2331.000000	88.890061
2330.000000	88.899194
2329.000000	88.905057
2328.000000	88.913424
2327.000000	88.931700
2326.000000	88.966139
2325.000000	89.014564
2324.000000	89.072497
2323.000000	89.127127
2322.000000	89.167728
2321.000000	89.185659
2320.000000	89.181718
2319.000000	89.165043
2318.000000	89.146529
2317.000000	89.137352
2316.000000	89.145427
2315.000000	89.176733
2314.000000	89.228198
2313.000000	89.290183
2312.000000	89.350306
2311.000000	89.400607
2310.000000	89.437104
2309.000000	89.458921
2308.000000	89.469337
2307.000000	89.474423
2306.000000	89.480066
2305.000000	89.487821
2304.000000	89.497613
2303.000000	89.508436
2302.000000	89.518542
2301.000000	89.525536
2300.000000	89.529385
2299.000000	89.534442
2298.000000	89.546079
2297.000000	89.568063
2296.000000	89.601319
2295.000000	89.643386
2294.000000	89.687405
2293.000000	89.723290
2292.000000	89.743326
2291.000000	89.744807
2290.000000	89.730239
2289.000000	89.705591
2288.000000	89.680695
2287.000000	89.666148
2286.000000	89.668888
2285.000000	89.689435
2284.000000	89.724203
2283.000000	89.767206
2282.000000	89.810403
2281.000000	89.845330
2280.000000	89.867230
2279.000000	89.876894
2278.000000	89.878156
2277.000000	89.875569
2276.000000	89.873637
2275.000000	89.875786
2274.000000	89.881993
2273.000000	89.889380
2272.000000	89.895511
2271.000000	89.900245
2270.000000	89.904855
2269.000000	89.911513
2268.000000	89.923865
2267.000000	89.945194
2266.000000	89.974798
2265.000000	90.007614
2264.000000	90.037248
2263.000000	90.058002
2262.000000	90.064877
2261.000000	90.055220
2260.000000	90.032226
2259.000000	90.004396
2258.000000	89.980994
2257.000000	89.968467
2256.000000	89.970234
2255.000000	89.986230
2254.000000	90.011318
2253.000000	90.036926
2252.000000	90.055360
2251.000000	90.062506
2250.000000	90.056593
2249.000000	90.038317
2248.000000	90.011525
2247.000000	89.981843
2246.000000	89.953066
2245.000000	89.925129
2244.000000	89.896877
2243.000000	89.867429
2242.000000	89.835600
2241.000000	89.800554
2240.000000	89.764164
2239.000000	89.730729
2238.000000	89.703621
2237.000000	89.683581
2236.000000	89.669867
2235.000000	89.660509
2234.000000	89.651148
2233.000000	89.636336
2232.000000	89.613402
2231.000000	89.583949
2230.000000	89.551924
2229.000000	89.522352
2228.000000	89.501382
2227.000000	89.494176
2226.000000	89.500976
2225.000000	89.516642
2224.000000	89.534426
2223.000000	89.548865
2222.000000	89.555749
2221.000000	89.552669
2220.000000	89.541083
2219.000000	89.525949
2218.000000	89.512207
2217.000000	89.502384
2216.000000	89.497024
2215.000000	89.495079
2214.000000	89.493616
2213.000000	89.489453
2212.000000	89.482060
2211.000000	89.473691
2210.000000	89.466925
2209.000000	89.463882
2208.000000	89.467098
2207.000000	89.478100
2206.000000	89.494276
2205.000000	89.509260
2204.000000	89.517138
2203.000000	89.515150
2202.000000	89.503165
2201.000000	89.483550
2200.000000	89.462026
2199.000000	89.445950
2198.000000	89.440289
2197.000000	89.445770
2196.000000	89.460005
2195.000000	89.478084
2194.000000	89.492698
2193.000000	89.497182
2192.000000	89.489990
2191.000000	89.474966
2190.000000	89.457480
2189.000000	89.442017
2188.000000	89.432432
2187.000000	89.430804
2186.000000	89.434889
2185.000000	89.438939
2184.000000	89.438024
2183.000000	89.430494
2182.000000	89.416996
2181.000000	89.400080
2180.000000	89.385083
2179.000000	89.378487
2178.000000	89.383870
2177.000000	89.400224
2176.000000	89.423614
2175.000000	89.448524
2174.000000	89.468343
2173.000000	89.477990
2172.000000	89.477426
2171.000000	89.471286
2170.000000	89.465281
2169.000000	89.464437
2168.000000	89.473347
2167.000000	89.494153
2166.000000	89.523226
2165.000000	89.552290
2164.000000	89.573949
2163.000000	89.585172
2162.000000	89.586609
2161.000000	89.581965
2160.000000	89.578268
2159.000000	89.583311
2158.000000	89.600907
2157.000000	89.629256
2156.000000	89.663111
2155.000000	89.695480
2154.000000	89.718390
2153.000000	89.726201
2152.000000	89.719959
2151.000000	89.707027
2150.000000	89.696232
2149.000000	89.694520
2148.000000	89.706430
2147.000000	89.732493
2146.000000	89.767032
2145.000000	89.800308
2144.000000	89.824352
2143.000000	89.835984
2142.000000	89.835834
2141.000000	89.827847
2140.000000	89.819746
2139.000000	89.820349
2138.000000	89.834302
2137.000000	89.860067
2136.000000	89.892084
2135.000000	89.922821
2134.000000	89.944159
2133.000000	89.951156
2132.000000	89.946086
2131.000000	89.937169
2130.000000	89.933061
2129.000000	89.939942
2128.000000	89.961453
2127.000000	89.996802
2126.000000	90.038150
2125.000000	90.073260
2124.000000	90.092592
2123.000000	90.093163
2122.000000	90.077478
2121.000000	90.052561
2120.000000	90.029730
2119.000000	90.020781
2118.000000	90.031928
2117.000000	90.061820
2116.000000	90.104050
2115.000000	90.148979
2114.000000	90.184752
2113.000000	90.202058
2112.000000	90.200223
2111.000000	90.186893
2110.000000	90.171827
2109.000000	90.163033
2108.000000	90.166598
2107.000000	90.184672
2106.000000	90.212197
2105.000000	90.238880
2104.000000	90.255918
2103.000000	90.259834
2102.000000	90.251205
2101.000000	90.234216
2100.000000	90.217682
2099.000000	90.211877
2098.000000	90.221960
2097.000000	90.245135
2096.000000	90.273824
2095.000000	90.298538
2094.000000	90.309061
2093.000000	90.298683
2092.000000	90.269592
2091.000000	90.232056
2090.000000	90.197965
2089.000000	90.176765
2088.000000	90.175381
2087.000000	90.196449
2086.000000	90.234595
2085.000000	90.277607
2084.000000	90.313223
2083.000000	90.334009
2082.000000	90.337275
2081.000000	90.325441
2080.000000	90.307545
2079.000000	90.296112
2078.000000	90.299897
2077.000000	90.320026
2076.000000	90.352587
2075.000000	90.391060
2074.000000	90.426571
2073.000000	90.451042
2072.000000	90.462366
2071.000000	90.465801
2070.000000	90.469468
2069.000000	90.480526
2068.000000	90.504889
2067.000000	90.545268
2066.000000	90.596951
2065.000000	90.647840
2064.000000	90.685338
2063.000000	90.703205
2062.000000	90.703050
2061.000000	90.692777
2060.000000	90.684322
2059.000000	90.689009
2058.000000	90.712539
2057.000000	90.754415
2056.000000	90.810487
2055.000000	90.873253
2054.000000	90.931195
2053.000000	90.973031
2052.000000	90.994367
2051.000000	90.999092
2050.000000	90.994993
2049.000000	90.990730
2048.000000	90.995624
2047.000000	91.016668
2046.000000	91.053472
2045.000000	91.099056
2044.000000	91.146260
2043.000000	91.190289
2042.000000	91.226374
2041.000000	91.250670
2040.000000	91.265193
2039.000000	91.278131
2038.000000	91.297693
2037.000000	91.327540
2036.000000	91.367294
2035.000000	91.413294
2034.000000	91.458421
2033.000000	91.495198
2032.000000	91.521085
2031.000000	91.538830
2030.000000	91.552975
2029.000000	91.568864
2028.000000	91.593353
2027.000000	91.631769
2026.000000	91.682398
2025.000000	91.737986
2024.000000	91.791268
2023.000000	91.837027
2022.000000	91.870562
2021.000000	91.889250
2020.000000	91.897537
2019.000000	91.905288
2018.000000	91.920125
2017.000000	91.943504
2016.000000	91.973851
2015.000000	92.009665
2014.000000	92.049049
2013.000000	92.089589
2012.000000	92.129516
2011.000000	92.166632
2010.000000	92.197413
2009.000000	92.220423
2008.000000	92.239593
2007.000000	92.260873
2006.000000	92.286166
2005.000000	92.314864
2004.000000	92.347286
2003.000000	92.383484
2002.000000	92.419709
2001.000000	92.450454
2000.000000	92.475377
1999.000000	92.497299
1998.000000	92.517892
1997.000000	92.537903
1996.000000	92.559810
1995.000000	92.587954
1994.000000	92.625134
1993.000000	92.670600
1992.000000	92.718524
1991.000000	92.757660
1990.000000	92.777209
1989.000000	92.777089
1988.000000	92.769163
1987.000000	92.765257
1986.000000	92.767234
1985.000000	92.773436
1984.000000	92.788130
1983.000000	92.816754
1982.000000	92.854857
1981.000000	92.890472
1980.000000	92.916847
1979.000000	92.933360
1978.000000	92.939153
1977.000000	92.933428
1976.000000	92.921787
1975.000000	92.914903
1974.000000	92.918948
1973.000000	92.933609
1972.000000	92.957586
1971.000000	92.989191
1970.000000	93.022027
1969.000000	93.048220
1968.000000	93.065674
1967.000000	93.075309
1966.000000	93.073452
1965.000000	93.057602
1964.000000	93.038686
1963.000000	93.035791
1962.000000	93.056178
1961.000000	93.088869
1960.000000	93.118625
1959.000000	93.137310
1958.000000	93.141312
1957.000000	93.129026
1956.000000	93.106706
1955.000000	93.087298
1954.000000	93.079642
1953.000000	93.085340
1952.000000	93.104935
1951.000000	93.139345
1950.000000	93.179917
1949.000000	93.209797
1948.000000	93.219922
1947.000000	93.212634
1946.000000	93.192668
1945.000000	93.165978
1944.000000	93.148004
1943.000000	93.157771
1942.000000	93.195009
1941.000000	93.236155
1940.000000	93.261226
1939.000000	93.270398
1938.000000	93.269381
1937.000000	93.254731
1936.000000	93.222550
1935.000000	93.181389
1934.000000	93.148113
1933.000000	93.135290
1932.000000	93.146674
1931.000000	93.181398
1930.000000	93.228916
1929.000000	93.270890
1928.000000	93.292659
1927.000000	93.287425
1926.000000	93.258247
1925.000000	93.215586
1924.000000	93.181484
1923.000000	93.177161
1922.000000	93.198763
1921.000000	93.225593
1920.000000	93.249723
1919.000000	93.282489
1918.000000	93.324949
1917.000000	93.346649
1916.000000	93.316478
1915.000000	93.242897
1914.000000	93.165806
1913.000000	93.120811
1912.000000	93.119840
1911.000000	93.158092
1910.000000	93.220576
1909.000000	93.284000
1908.000000	93.321730
1907.000000	93.316187
1906.000000	93.271010
1905.000000	93.203554
1904.000000	93.138121
1903.000000	93.097986
1902.000000	93.094140
1901.000000	93.125988
1900.000000	93.182834
1899.000000	93.244714
1898.000000	93.289023
1897.000000	93.298056
1896.000000	93.269008
1895.000000	93.214124
1894.000000	93.149104
1893.000000	93.089959
1892.000000	93.057186
1891.000000	93.072510
1890.000000	93.139574
1889.000000	93.227048
1888.000000	93.285456
1887.000000	93.286470
1886.000000	93.237425
1885.000000	93.164267
1884.000000	93.091929
1883.000000	93.037611
1882.000000	93.012389
1881.000000	93.023473
1880.000000	93.068054
1879.000000	93.126404
1878.000000	93.171010
1877.000000	93.179874
1876.000000	93.145703
1875.000000	93.080186
1874.000000	93.005820
1873.000000	92.945751
1872.000000	92.920406
1871.000000	92.945721
1870.000000	93.027485
1869.000000	93.146334
1868.000000	93.248946
1867.000000	93.278278
1866.000000	93.218882
1865.000000	93.101396
1864.000000	92.974012
1863.000000	92.875002
1862.000000	92.822367
1861.000000	92.820503
1860.000000	92.864367
1859.000000	92.934740
1858.000000	93.000092
1857.000000	93.031830
1856.000000	93.016867
1855.000000	92.960223
1854.000000	92.878102
1853.000000	92.794401
1852.000000	92.736763
1851.000000	92.719369
1850.000000	92.744600
1849.000000	92.802906
1848.000000	92.866984
1847.000000	92.903229
1846.000000	92.894139
1845.000000	92.855534
1844.000000	92.817852
1843.000000	92.782443
1842.000000	92.727700
1841.000000	92.664581
1840.000000	92.634723
1839.000000	92.660258
1838.000000	92.715206
1837.000000	92.743502
1836.000000	92.712634
1835.000000	92.631561
1834.000000	92.522839
1833.000000	92.408819
1832.000000	92.321369
1831.000000	92.301854
1830.000000	92.370847
1829.000000	92.482923
1828.000000	92.561261
1827.000000	92.576560
1826.000000	92.547964
1825.000000	92.495963
1824.000000	92.417182
1823.000000	92.306219
1822.000000	92.184095
1821.000000	92.091648
1820.000000	92.057764
1819.000000	92.077196
1818.000000	92.117335
1817.000000	92.139984
1816.000000	92.125581
1815.000000	92.072927
1814.000000	91.990356
1813.000000	91.901099
1812.000000	91.837555
1811.000000	91.823046
1810.000000	91.850130
1809.000000	91.889952
1808.000000	91.920349
1807.000000	91.924837
1806.000000	91.887959
1805.000000	91.807405
1804.000000	91.705093
1803.000000	91.611287
1802.000000	91.545765
1801.000000	91.523304
1800.000000	91.547574
1799.000000	91.605385
1798.000000	91.670293
1797.000000	91.715311
1796.000000	91.724642
1795.000000	91.689522
1794.000000	91.612009
1793.000000	91.521072
1792.000000	91.457259
1791.000000	91.422477
1790.000000	91.383955
1789.000000	91.334894
1788.000000	91.301030
1787.000000	91.297439
1786.000000	91.308299
1785.000000	91.301072
1784.000000	91.257989
1783.000000	91.182331
1782.000000	91.094055
1781.000000	91.031427
1780.000000	91.012684
1779.000000	91.019726
1778.000000	91.021054
1777.000000	91.003152
1776.000000	90.970981
1775.000000	90.919355
1774.000000	90.840974
1773.000000	90.758585
1772.000000	90.713724
1771.000000	90.702537
1770.000000	90.689408
1769.000000	90.672780
1768.000000	90.679996
1767.000000	90.706370
1766.000000	90.699196
1765.000000	90.623047
1764.000000	90.500253
1763.000000	90.382629
1762.000000	90.300598
1761.000000	90.240885
1760.000000	90.181118
1759.000000	90.133239
1758.000000	90.119319
1757.000000	90.141722
1756.000000	90.170469
1755.000000	90.158321
1754.000000	90.087246
1753.000000	89.981102
1752.000000	89.890027
1751.000000	89.855255
1750.000000	89.861535
1749.000000	89.853538
1748.000000	89.817720
1747.000000	89.770511
1746.000000	89.709097
1745.000000	89.622848
1744.000000	89.517435
1743.000000	89.413992
1742.000000	89.318238
1741.000000	89.228479
1740.000000	89.174242
1739.000000	89.183106
1738.000000	89.210626
1737.000000	89.195883
1736.000000	89.136795
1735.000000	89.081500
1734.000000	89.064700
1733.000000	89.009118
1732.000000	88.828913
1731.000000	88.582826
1730.000000	88.374525
1729.000000	88.239971
1728.000000	88.158876
1727.000000	88.097997
1726.000000	88.039109
1725.000000	87.969500
1724.000000	87.877380
1723.000000	87.767973
1722.000000	87.646890
1721.000000	87.516057
1720.000000	87.393783
1719.000000	87.313638
1718.000000	87.291849
1717.000000	87.277817
1716.000000	87.194994
1715.000000	87.028822
1714.000000	86.815051
1713.000000	86.584742
1712.000000	86.362198
1711.000000	86.171375
1710.000000	86.022236
1709.000000	85.909141
1708.000000	85.818738
1707.000000	85.738063
1706.000000	85.661624
1705.000000	85.578620
1704.000000	85.465915
1703.000000	85.308720
1702.000000	85.106669
1701.000000	84.910291
1700.000000	84.807550
1699.000000	84.746179
1698.000000	84.607243
1697.000000	84.418114
1696.000000	84.272974
1695.000000	84.172417
1694.000000	84.008795
1693.000000	83.737731
1692.000000	83.431626
1691.000000	83.167492
1690.000000	82.967855
1689.000000	82.811726
1688.000000	82.673616
1687.000000	82.540965
1686.000000	82.412221
1685.000000	82.304295
1684.000000	82.241932
1683.000000	82.148624
1682.000000	81.928077
1681.000000	81.628626
1680.000000	81.349775
1679.000000	81.135911
1678.000000	80.970522
1677.000000	80.818649
1676.000000	80.677005
1675.000000	80.555711
1674.000000	80.416921
1673.000000	80.208404
1672.000000	79.945137
1671.000000	79.695738
1670.000000	79.507377
1669.000000	79.361678
1668.000000	79.208018
1667.000000	79.029615
1666.000000	78.844437
1665.000000	78.664013
1664.000000	78.497021
1663.000000	78.357047
1662.000000	78.221114
1661.000000	78.039463
1660.000000	77.800145
1659.000000	77.546927
1658.000000	77.333621
1657.000000	77.175848
1656.000000	77.057012
1655.000000	76.961823
1654.000000	76.919421
1653.000000	76.946045
1652.000000	76.898563
1651.000000	76.654831
1650.000000	76.308476
1649.000000	75.986499
1648.000000	75.752187
1647.000000	75.624517
1646.000000	75.545568
1645.000000	75.409759
1644.000000	75.185735
1643.000000	74.927982
1642.000000	74.681388
1641.000000	74.460996
1640.000000	74.266942
1639.000000	74.100494
1638.000000	73.963653
1637.000000	73.857969
1636.000000	73.800075
1635.000000	73.772741
1634.000000	73.696325
1633.000000	73.521072
1632.000000	73.290083
1631.000000	73.067815
1630.000000	72.879908
1629.000000	72.720406
1628.000000	72.581103
1627.000000	72.461147
1626.000000	72.354354
1625.000000	72.257283
1624.000000	72.182333
1623.000000	72.143596
1622.000000	72.114238
1621.000000	72.048039
1620.000000	71.942784
1619.000000	71.840985
1618.000000	71.788426
1617.000000	71.800761
1616.000000	71.837017
1615.000000	71.826934
1614.000000	71.752516
1613.000000	71.651271
1612.000000	71.564590
1611.000000	71.512303
1610.000000	71.487100
1609.000000	71.469550
1608.000000	71.452704
1607.000000	71.448298
1606.000000	71.466125
1605.000000	71.504810
1604.000000	71.557637
1603.000000	71.621911
1602.000000	71.690550
1601.000000	71.741161
1600.000000	71.758330
1599.000000	71.752071
1598.000000	71.742835
1597.000000	71.740027
1596.000000	71.747998
1595.000000	71.778795
1594.000000	71.838066
1593.000000	71.911474
1592.000000	71.981293
1591.000000	72.045073
1590.000000	72.104690
1589.000000	72.151660
1588.000000	72.178470
1587.000000	72.196160
1586.000000	72.221224
1585.000000	72.255522
1584.000000	72.292149
1583.000000	72.327043
1582.000000	72.362451
1581.000000	72.391579
1580.000000	72.400797
1579.000000	72.394492
1578.000000	72.402700
1577.000000	72.457994
1576.000000	72.560640
1575.000000	72.653594
1574.000000	72.674821
1573.000000	72.635252
1572.000000	72.590343
1571.000000	72.592430
1570.000000	72.658883
1569.000000	72.733354
1568.000000	72.735373
1567.000000	72.664336
1566.000000	72.594846
1565.000000	72.583350
1564.000000	72.632125
1563.000000	72.709789
1562.000000	72.804049
1561.000000	72.930266
1560.000000	73.151587
1559.000000	73.540956
1558.000000	73.916981
1557.000000	74.036785
1556.000000	73.980217
1555.000000	73.940688
1554.000000	73.996053
1553.000000	74.109331
1552.000000	74.219462
1551.000000	74.336680
1550.000000	74.490898
1549.000000	74.652399
1548.000000	74.774269
1547.000000	74.870873
1546.000000	75.009155
1545.000000	75.232126
1544.000000	75.510266
1543.000000	75.792696
1542.000000	76.083195
1541.000000	76.426497
1540.000000	76.821139
1539.000000	77.143626
1538.000000	77.271910
1537.000000	77.239806
1536.000000	77.179136
1535.000000	77.216724
1534.000000	77.436830
1533.000000	77.804370
1532.000000	78.162756
1531.000000	78.426841
1530.000000	78.643736
1529.000000	78.875099
1528.000000	79.140910
1527.000000	79.428926
1526.000000	79.711477
1525.000000	79.959589
1524.000000	80.175589
1523.000000	80.423050
1522.000000	80.786072
1521.000000	81.231439
1520.000000	81.590665
1519.000000	81.789307
1518.000000	81.932817
1517.000000	82.134740
1516.000000	82.392178
1515.000000	82.634077
1514.000000	82.844488
1513.000000	83.070980
1512.000000	83.342697
1511.000000	83.637004
1510.000000	83.908732
1509.000000	84.146227
1508.000000	84.390841
1507.000000	84.698163
1506.000000	85.002019
1505.000000	85.162895
1504.000000	85.186830
1503.000000	85.205785
1502.000000	85.318343
1501.000000	85.536238
1500.000000	85.817289
1499.000000	86.113212
1498.000000	86.387287
1497.000000	86.603373
1496.000000	86.737569
1495.000000	86.793437
1494.000000	86.793313
1493.000000	86.783035
1492.000000	86.827750
1491.000000	86.982855
1490.000000	87.227827
1489.000000	87.454473
1488.000000	87.586607
1487.000000	87.649202
1486.000000	87.686734
1485.000000	87.714461
1484.000000	87.747839
1483.000000	87.810663
1482.000000	87.913175
1481.000000	88.019965
1480.000000	88.082608
1479.000000	88.087456
1478.000000	88.048856
1477.000000	87.981273
1476.000000	87.899899
1475.000000	87.822643
1474.000000	87.757763
1473.000000	87.709392
1472.000000	87.657110
1471.000000	87.542187
1470.000000	87.310734
1469.000000	86.957582
1468.000000	86.506089
1467.000000	85.956462
1466.000000	85.255766
1465.000000	84.366090
1464.000000	83.351927
1463.000000	82.329113
1462.000000	81.356643
1461.000000	80.446183
1460.000000	79.623959
1459.000000	78.912008
1458.000000	78.292473
1457.000000	77.759212
1456.000000	77.361720
1455.000000	77.111692
1454.000000	76.974819
1453.000000	76.940021
1452.000000	77.000370
1451.000000	77.107878
1450.000000	77.160037
1449.000000	77.055273
1448.000000	76.756690
1447.000000	76.269980
1446.000000	75.582976
1445.000000	74.683147
1444.000000	73.588877
1443.000000	72.324084
1442.000000	70.872837
1441.000000	69.221983
1440.000000	67.404630
1439.000000	65.380175
1438.000000	62.907256
1437.000000	59.774684
1436.000000	56.286084
1435.000000	53.023257
1434.000000	50.136544
1433.000000	47.452373
1432.000000	44.945147
1431.000000	42.759366
1430.000000	40.995893
1429.000000	39.699490
1428.000000	38.982990
1427.000000	38.921721
1426.000000	39.454944
1425.000000	40.528513
1424.000000	42.123788
1423.000000	44.073490
1422.000000	46.133860
1421.000000	48.303097
1420.000000	50.820553
1419.000000	53.688597
1418.000000	56.438429
1417.000000	58.719464
1416.000000	60.670342
1415.000000	62.533220
1414.000000	64.373240
1413.000000	66.170789
1412.000000	67.934671
1411.000000	69.660206
1410.000000	71.283188
1409.000000	72.750410
1408.000000	74.076627
1407.000000	75.300107
1406.000000	76.438372
1405.000000	77.502072
1404.000000	78.482803
1403.000000	79.347839
1402.000000	80.101156
1401.000000	80.819508
1400.000000	81.585006
1399.000000	82.377903
1398.000000	83.099036
1397.000000	83.713955
1396.000000	84.288301
1395.000000	84.874751
1394.000000	85.441673
1393.000000	85.932514
1392.000000	86.339966
1391.000000	86.697118
1390.000000	87.038920
1389.000000	87.385967
1388.000000	87.729436
1387.000000	88.022716
1386.000000	88.218067
1385.000000	88.323017
1384.000000	88.386781
1383.000000	88.446687
1382.000000	88.510207
1381.000000	88.561594
1380.000000	88.569185
1379.000000	88.491023
1378.000000	88.294654
1377.000000	87.967464
1376.000000	87.497712
1375.000000	86.865583
1374.000000	86.069024
1373.000000	85.142207
1372.000000	84.138459
1371.000000	83.121202
1370.000000	82.179315
1369.000000	81.426758
1368.000000	80.961038
1367.000000	80.820708
1366.000000	80.990396
1365.000000	81.432286
1364.000000	82.093453
1363.000000	82.888349
1362.000000	83.698513
1361.000000	84.420784
1360.000000	85.012364
1359.000000	85.479473
1358.000000	85.844798
1357.000000	86.126114
1356.000000	86.326454
1355.000000	86.441457
1354.000000	86.472333
1353.000000	86.421031
1352.000000	86.277974
1351.000000	86.018624
1350.000000	85.612149
1349.000000	85.029281
1348.000000	84.238168
1347.000000	83.216223
1346.000000	81.959484
1345.000000	80.477809
1344.000000	78.791637
1343.000000	76.924202
1342.000000	74.892112
1341.000000	72.712993
1340.000000	70.452214
1339.000000	68.267268
1338.000000	66.363165
1337.000000	64.885876
1336.000000	63.866725
1335.000000	63.226097
1334.000000	62.788341
1333.000000	62.317201
1332.000000	61.577419
1331.000000	60.383170
1330.000000	58.612424
1329.000000	56.209538
1328.000000	53.191993
1327.000000	49.663340
1326.000000	45.803764
1325.000000	41.844771
1324.000000	38.065070
1323.000000	34.761723
1322.000000	32.156220
1321.000000	30.319921
1320.000000	29.190710
1319.000000	28.611379
1318.000000	28.365650
1317.000000	28.244877
1316.000000	28.124467
1315.000000	27.981447
1314.000000	27.830833
1313.000000	27.688492
1312.000000	27.589694
1311.000000	27.589952
1310.000000	27.739822
1309.000000	28.077598
1308.000000	28.654479
1307.000000	29.529356
1306.000000	30.724851
1305.000000	32.222490
1304.000000	33.987250
1303.000000	35.970555
1302.000000	38.096194
1301.000000	40.270525
1300.000000	42.419377
1299.000000	44.495892
1298.000000	46.464612
1297.000000	48.302765
1296.000000	50.012410
1295.000000	51.612764
1294.000000	53.122439
1293.000000	54.554629
1292.000000	55.917364
1291.000000	57.208755
1290.000000	58.404376
1289.000000	59.460744
1288.000000	60.330193
1287.000000	60.970018
1286.000000	61.360716
1285.000000	61.527639
1284.000000	61.556828
1283.000000	61.588179
1282.000000	61.775494
1281.000000	62.232587
1280.000000	62.994674
1279.000000	64.010934
1278.000000	65.172147
1277.000000	66.363953
1276.000000	67.506923
1275.000000	68.565285
1274.000000	69.537422
1273.000000	70.440471
1272.000000	71.292579
1271.000000	72.100095
1270.000000	72.856722
1269.000000	73.551045
1268.000000	74.174390
1267.000000	74.723386
1266.000000	75.205763
1265.000000	75.642071
1264.000000	76.058512
1263.000000	76.480281
1262.000000	76.925955
1261.000000	77.401528
1260.000000	77.893479
1259.000000	78.371406
1258.000000	78.804958
1257.000000	79.176822
1256.000000	79.483755
1255.000000	79.735495
1254.000000	79.955742
1253.000000	80.176543
1252.000000	80.423606
1251.000000	80.707368
1250.000000	81.024444
1249.000000	81.359434
1248.000000	81.686399
1247.000000	81.978458
1246.000000	82.223071
1245.000000	82.426617
1244.000000	82.605438
1243.000000	82.778437
1242.000000	82.965011
1241.000000	83.178357
1240.000000	83.415030
1239.000000	83.654813
1238.000000	83.874392
1237.000000	84.057970
1236.000000	84.198593
1235.000000	84.301331
1234.000000	84.388223
1233.000000	84.491454
1232.000000	84.636298
1231.000000	84.831442
1230.000000	85.070575
1229.000000	85.333714
1228.000000	85.587698
1227.000000	85.796846
1226.000000	85.941084
1225.000000	86.023742
1224.000000	86.064725
1223.000000	86.094233
1222.000000	86.149268
1221.000000	86.260825
1220.000000	86.436451
1219.000000	86.657464
1218.000000	86.892905
1217.000000	87.111611
1216.000000	87.286297
1215.000000	87.401900
1214.000000	87.466515
1213.000000	87.507646
1212.000000	87.554995
1211.000000	87.629320
1210.000000	87.741982
1209.000000	87.891405
1208.000000	88.057077
1207.000000	88.206782
1206.000000	88.315894
1205.000000	88.378712
1204.000000	88.405308
1203.000000	88.418130
1202.000000	88.450225
1201.000000	88.532087
1200.000000	88.672257
1199.000000	88.852573
1198.000000	89.039835
1197.000000	89.196556
1196.000000	89.285702
1195.000000	89.283483
1194.000000	89.195033
1193.000000	89.051988
1192.000000	88.893860
1191.000000	88.754259
1190.000000	88.658991
1189.000000	88.621335
1188.000000	88.634124
1187.000000	88.674349
1186.000000	88.720642
1185.000000	88.762651
1184.000000	88.796063
1183.000000	88.819673
1182.000000	88.840310
1181.000000	88.875984
1180.000000	88.948522
1179.000000	89.072738
1178.000000	89.247665
1177.000000	89.449160
1176.000000	89.633605
1175.000000	89.760445
1174.000000	89.818181
1173.000000	89.827901
1172.000000	89.825725
1171.000000	89.848437
1170.000000	89.926670
1169.000000	90.072614
1168.000000	90.267042
1167.000000	90.465993
1166.000000	90.623827
1165.000000	90.709967
1164.000000	90.713932
1163.000000	90.651300
1162.000000	90.566313
1161.000000	90.514863
1160.000000	90.537125
1159.000000	90.645205
1158.000000	90.826990
1157.000000	91.049298
1156.000000	91.260852
1155.000000	91.410568
1154.000000	91.473846
1153.000000	91.459906
1152.000000	91.398449
1151.000000	91.329284
1150.000000	91.297409
1149.000000	91.336714
1148.000000	91.448342
1147.000000	91.600013
1146.000000	91.746783
1145.000000	91.848717
1144.000000	91.878791
1143.000000	91.834407
1142.000000	91.747356
1141.000000	91.671056
1140.000000	91.651117
1139.000000	91.707662
1138.000000	91.835082
1137.000000	92.003086
1136.000000	92.158788
1135.000000	92.245655
1134.000000	92.233944
1133.000000	92.132960
1132.000000	91.979711
1131.000000	91.825632
1130.000000	91.726620
1129.000000	91.723634
1128.000000	91.821346
1127.000000	91.986892
1126.000000	92.168525
1125.000000	92.312857
1124.000000	92.375595
1123.000000	92.338107
1122.000000	92.222507
1121.000000	92.081864
1120.000000	91.971333
1119.000000	91.928708
1118.000000	91.969604
1117.000000	92.081753
1116.000000	92.221613
1115.000000	92.330991
1114.000000	92.368242
1113.000000	92.325274
1112.000000	92.223076
1111.000000	92.103619
1110.000000	92.021395
1109.000000	92.021308
1108.000000	92.113070
1107.000000	92.266764
1106.000000	92.430540
1105.000000	92.547937
1104.000000	92.570513
1103.000000	92.477439
1102.000000	92.293195
1101.000000	92.077116
1100.000000	91.894769
1099.000000	91.794092
1098.000000	91.797633
1097.000000	91.893633
1096.000000	92.030585
1095.000000	92.135118
1094.000000	92.146235
1093.000000	92.036790
1092.000000	91.812305
1091.000000	91.507815
1090.000000	91.181454
1089.000000	90.889870
1088.000000	90.658570
1087.000000	90.471023
1086.000000	90.283303
1085.000000	90.039807
1084.000000	89.684077
1083.000000	89.179870
1082.000000	88.529214
1081.000000	87.771784
1080.000000	86.964408
1079.000000	86.159349
1078.000000	85.391269
1077.000000	84.662214
1076.000000	83.939664
1075.000000	83.175988
1074.000000	82.336797
1073.000000	81.418334
1072.000000	80.449848
1071.000000	79.488860
1070.000000	78.606995
1069.000000	77.868698
1068.000000	77.308496
1067.000000	76.926354
1066.000000	76.694991
1065.000000	76.572456
1064.000000	76.525079
1063.000000	76.539629
1062.000000	76.632872
1061.000000	76.845931
1060.000000	77.222214
1059.000000	77.792314
1058.000000	78.557221
1057.000000	79.483998
1056.000000	80.509274
1055.000000	81.550472
1054.000000	82.529798
1053.000000	83.392940
1052.000000	84.118346
1051.000000	84.720850
1050.000000	85.249251
1049.000000	85.763088
1048.000000	86.301861
1047.000000	86.868811
1046.000000	87.435342
1045.000000	87.956082
1044.000000	88.379475
1043.000000	88.670049
1042.000000	88.832895
1041.000000	88.915135
1040.000000	88.984964
1039.000000	89.108342
1038.000000	89.333251
1037.000000	89.673274
1036.000000	90.096487
1035.000000	90.537785
1034.000000	90.927667
1033.000000	91.215258
1032.000000	91.378377
1031.000000	91.431704
1030.000000	91.428770
1029.000000	91.439518
1028.000000	91.515397
1027.000000	91.672469
1026.000000	91.895536
1025.000000	92.146184
1024.000000	92.370217
1023.000000	92.519602
1022.000000	92.580599
1021.000000	92.578760
1020.000000	92.559698
1019.000000	92.571077
1018.000000	92.651113
1017.000000	92.812004
1016.000000	93.025365
1015.000000	93.232981
1014.000000	93.376699
1013.000000	93.420332
1012.000000	93.356400
1011.000000	93.211759
1010.000000	93.048237
1009.000000	92.940146
1008.000000	92.939445
1007.000000	93.058633
1006.000000	93.275129
1005.000000	93.537878
1004.000000	93.775905
1003.000000	93.923260
1002.000000	93.950282
1001.000000	93.871950
1000.000000	93.732435
999.000000	93.588896
998.000000	93.498398
997.000000	93.497448
996.000000	93.583065
995.000000	93.717799
994.000000	93.854349
993.000000	93.953750
992.000000	93.991187
991.000000	93.965982
990.000000	93.909922
989.000000	93.872268
988.000000	93.889631
987.000000	93.970974
986.000000	94.101161
985.000000	94.245083
984.000000	94.352590
983.000000	94.378719
982.000000	94.311027
981.000000	94.175806
980.000000	94.021446
979.000000	93.902239
978.000000	93.868542
977.000000	93.948649
976.000000	94.129884
975.000000	94.361894
974.000000	94.581446
973.000000	94.733083
972.000000	94.778941
971.000000	94.711528
970.000000	94.563299
969.000000	94.392575
968.000000	94.254139
967.000000	94.183244
966.000000	94.194330
965.000000	94.277137
964.000000	94.394218
963.000000	94.497677
962.000000	94.556866
961.000000	94.568361
960.000000	94.545507
959.000000	94.510370
958.000000	94.492228
957.000000	94.514452
956.000000	94.575449
955.000000	94.647976
954.000000	94.698215
953.000000	94.699146
952.000000	94.634965
951.000000	94.510537
950.000000	94.359807
949.000000	94.233000
948.000000	94.171603
947.000000	94.196052
946.000000	94.306445
945.000000	94.479036
944.000000	94.663105
943.000000	94.798204
942.000000	94.843602
941.000000	94.789674
940.000000	94.649000
939.000000	94.453233
938.000000	94.253667
937.000000	94.103955
936.000000	94.033568
935.000000	94.041109
934.000000	94.107190
933.000000	94.202909
932.000000	94.291813
931.000000	94.341741
930.000000	94.342197
929.000000	94.303610
928.000000	94.242218
927.000000	94.173703
926.000000	94.114954
925.000000	94.074001
924.000000	94.037875
923.000000	93.982400
922.000000	93.895019
921.000000	93.780141
920.000000	93.647942
919.000000	93.513125
918.000000	93.401802
917.000000	93.342655
916.000000	93.345860
915.000000	93.397301
914.000000	93.468850
913.000000	93.524574
912.000000	93.521896
911.000000	93.426659
910.000000	93.233348
909.000000	92.965356
908.000000	92.659380
907.000000	92.357924
906.000000	92.107411
905.000000	91.941198
904.000000	91.859079
903.000000	91.831330
902.000000	91.819962
901.000000	91.787825
900.000000	91.697265
899.000000	91.521172
898.000000	91.260954
897.000000	90.942093
896.000000	90.594084
895.000000	90.241466
894.000000	89.904518
893.000000	89.592308
892.000000	89.292217
891.000000	88.979220
890.000000	88.635364
889.000000	88.253794
888.000000	87.832874
887.000000	87.380042
886.000000	86.916462
885.000000	86.461516
884.000000	86.010360
883.000000	85.537284
882.000000	85.012659
881.000000	84.408311
880.000000	83.696854
879.000000	82.864386
878.000000	81.930002
877.000000	80.939386
876.000000	79.941712
875.000000	78.977011
874.000000	78.071274
873.000000	77.226969
872.000000	76.416310
871.000000	75.594647
870.000000	74.723484
869.000000	73.780930
868.000000	72.764616
867.000000	71.698575
866.000000	70.632778
865.000000	69.621929
864.000000	68.703528
863.000000	67.892411
862.000000	67.184584
861.000000	66.559280
860.000000	65.983210
859.000000	65.429935
858.000000	64.895105
857.000000	64.395023
856.000000	63.957636
855.000000	63.612674
854.000000	63.384079
853.000000	63.274098
852.000000	63.255963
851.000000	63.288928
850.000000	63.335775
849.000000	63.371974
848.000000	63.390505
847.000000	63.412840
846.000000	63.492249
845.000000	63.687900
844.000000	64.039677
843.000000	64.563144
842.000000	65.251162
841.000000	66.067455
840.000000	66.943157
839.000000	67.805579
838.000000	68.612530
837.000000	69.355761
836.000000	70.048189
835.000000	70.724321
834.000000	71.433050
833.000000	72.194099
832.000000	72.960862
831.000000	73.592773
830.000000	73.808521
829.000000	73.138606
828.000000	71.115156
827.000000	67.784553
826.000000	64.089388
825.000000	61.523855
824.000000	61.179540
823.000000	63.039702
822.000000	66.182480
821.000000	69.567722
820.000000	72.564307
819.000000	74.950580
818.000000	76.723584
817.000000	77.990177
816.000000	78.926573
815.000000	79.706275
814.000000	80.451775
813.000000	81.235695
812.000000	82.089323
811.000000	82.979109
810.000000	83.814818
809.000000	84.503512
808.000000	84.990838
807.000000	85.270532
806.000000	85.387674
805.000000	85.440348
804.000000	85.544245
803.000000	85.774830
802.000000	86.144962
801.000000	86.621368
800.000000	87.140192
799.000000	87.615876
798.000000	87.973442
797.000000	88.191690
796.000000	88.309998
795.000000	88.398584
794.000000	88.530523
793.000000	88.762551
792.000000	89.108618
791.000000	89.521667
790.000000	89.914238
789.000000	90.204048
788.000000	90.342957
787.000000	90.328655
786.000000	90.215239
785.000000	90.106543
784.000000	90.112562
783.000000	90.297911
782.000000	90.662078
781.000000	91.148228
780.000000	91.655738
779.000000	92.063023
778.000000	92.274713
777.000000	92.266740
776.000000	92.091199
775.000000	91.848221
774.000000	91.653870
773.000000	91.606618
772.000000	91.749454
771.000000	92.050553
770.000000	92.423453
769.000000	92.767186
768.000000	92.996317
767.000000	93.065709
766.000000	92.995598
765.000000	92.868691
764.000000	92.784309
763.000000	92.807908
762.000000	92.953649
761.000000	93.190486
760.000000	93.447515
759.000000	93.631620
758.000000	93.670524
757.000000	93.553357
756.000000	93.332875
755.000000	93.101276
754.000000	92.963247
753.000000	93.003126
752.000000	93.244036
751.000000	93.629886
750.000000	94.050918
749.000000	94.388392
748.000000	94.547042
747.000000	94.482486
746.000000	94.227858
745.000000	93.889682
744.000000	93.598302
743.000000	93.452250
742.000000	93.494462
741.000000	93.710001
740.000000	94.025793
739.000000	94.330011
738.000000	94.522652
737.000000	94.560570
736.000000	94.461716
735.000000	94.286614
734.000000	94.120547
733.000000	94.045320
732.000000	94.096836
731.000000	94.245056
730.000000	94.418289
729.000000	94.539858
728.000000	94.547999
727.000000	94.415530
726.000000	94.175771
725.000000	93.921914
724.000000	93.761419
723.000000	93.765727
722.000000	93.953279
721.000000	94.290093
720.000000	94.687238
719.000000	95.020982
718.000000	95.189948
717.000000	95.161921
716.000000	94.972086
715.000000	94.699442
714.000000	94.449731
713.000000	94.326765
712.000000	94.384966
711.000000	94.603695
710.000000	94.911976
709.000000	95.226987
708.000000	95.470816
707.000000	95.587542
706.000000	95.573109
705.000000	95.482758
704.000000	95.393826
703.000000	95.361661
702.000000	95.410024
701.000000	95.534990
700.000000	95.693823
699.000000	95.812638
698.000000	95.831891
697.000000	95.745351
696.000000	95.592300
695.000000	95.430209
694.000000	95.329427
693.000000	95.360734
692.000000	95.548338
691.000000	95.843966
690.000000	96.159866
689.000000	96.414483
688.000000	96.542010
687.000000	96.497615
686.000000	96.295609
685.000000	96.022560
684.000000	95.781867
683.000000	95.636844
682.000000	95.616089
681.000000	95.732186
680.000000	95.956045
679.000000	96.204710
678.000000	96.399548
677.000000	96.511248
676.000000	96.534962
675.000000	96.487916
674.000000	96.415866
673.000000	96.373216
672.000000	96.388573
671.000000	96.456732
670.000000	96.559946
669.000000	96.676050
668.000000	96.731928
667.000000	96.647622
666.000000	96.479748
665.000000	96.329742
664.000000	96.263079
663.000000	96.312949
662.000000	96.473129
661.000000	96.701283
660.000000	96.934107
659.000000	97.105436
658.000000	97.166990
657.000000	97.104260
656.000000	96.935707
655.000000	96.722233
654.000000	96.536957
653.000000	96.424096
652.000000	96.403886
651.000000	96.485400
650.000000	96.652983
649.000000	96.857058
648.000000	97.041748
647.000000	97.174518
646.000000	97.244502
645.000000	97.253324
644.000000	97.214835
643.000000	97.152331
642.000000	97.087261
641.000000	97.027366
640.000000	96.970418
639.000000	96.915881
638.000000	96.866407
637.000000	96.826802
636.000000	96.810294
635.000000	96.836578
634.000000	96.915769
633.000000	97.038183
632.000000	97.180869
631.000000	97.317341
630.000000	97.420079
629.000000	97.463610
628.000000	97.434473
627.000000	97.340121
626.000000	97.204849
625.000000	97.060121
624.000000	96.936473
623.000000	96.859124
622.000000	96.843461
621.000000	96.889566
620.000000	96.984590
619.000000	97.109483
618.000000	97.242750
617.000000	97.361568
616.000000	97.444260
615.000000	97.476041
614.000000	97.451602
613.000000	97.371915
612.000000	97.241166
611.000000	97.071422
610.000000	96.886780
609.000000	96.713750
608.000000	96.566123
607.000000	96.440866
606.000000	96.320804
605.000000	96.172753
604.000000	95.936233
603.000000	95.518546
602.000000	94.794376
601.000000	93.629315
600.000000	91.946261
599.000000	89.838052
598.000000	87.629177
597.000000	85.787865
596.000000	84.729935
595.000000	84.640260
594.000000	85.408945
593.000000	86.719826
592.000000	88.231952
591.000000	89.694224
590.000000	90.975201
589.000000	92.054644
588.000000	92.969909
587.000000	93.756190
586.000000	94.419935
585.000000	94.955115
584.000000	95.358267
583.000000	95.635546
582.000000	95.800342
581.000000	95.876098
580.000000	95.899856
579.000000	95.918767
578.000000	95.980216
577.000000	96.113574
576.000000	96.317095
575.000000	96.559941
574.000000	96.801083
573.000000	97.007092
572.000000	97.151845
571.000000	97.214336
570.000000	97.192828
569.000000	97.112394
568.000000	97.011098
567.000000	96.921585
566.000000	96.864619
565.000000	96.850510
564.000000	96.875408
563.000000	96.923063
562.000000	96.975581
561.000000	97.027081
560.000000	97.084176
559.000000	97.155811
558.000000	97.245533
557.000000	97.349998
556.000000	97.454495
555.000000	97.532013
554.000000	97.555664
553.000000	97.513666
552.000000	97.411036
551.000000	97.266609
550.000000	97.115834
549.000000	97.005113
548.000000	96.973302
547.000000	97.036177
546.000000	97.183404
545.000000	97.381982
544.000000	97.582986
543.000000	97.734488
542.000000	97.801378
541.000000	97.778249
540.000000	97.682453
539.000000	97.543416
538.000000	97.398111
537.000000	97.283944
536.000000	97.221715
535.000000	97.211383
534.000000	97.240592
533.000000	97.298326
532.000000	97.370417
531.000000	97.436206
530.000000	97.484570
529.000000	97.524696
528.000000	97.566836
527.000000	97.604237
526.000000	97.620131
525.000000	97.601339
524.000000	97.542330
523.000000	97.436907
522.000000	97.281813
521.000000	97.087772
520.000000	96.878092
519.000000	96.678864
518.000000	96.514687
517.000000	96.406915
516.000000	96.368082
515.000000	96.395134
514.000000	96.467885
513.000000	96.552526
512.000000	96.600091
511.000000	96.560848
510.000000	96.415592
509.000000	96.187755
508.000000	95.907071
507.000000	95.587704
506.000000	95.241978
505.000000	94.886443
504.000000	94.530686
503.000000	94.181328
502.000000	93.869208
501.000000	93.652948
500.000000	93.577702
499.000000	93.646035
498.000000	93.829596
497.000000	94.083816
496.000000	94.355418
495.000000	94.595431
494.000000	94.777484
493.000000	94.901910
492.000000	94.976513
491.000000	95.016445
490.000000	95.055306
489.000000	95.140300
488.000000	95.299775
487.000000	95.529369
486.000000	95.813955
485.000000	96.139561
484.000000	96.474934
483.000000	96.765335
482.000000	96.963238
481.000000	97.052210
480.000000	97.039317
479.000000	96.951435
478.000000	96.835055
477.000000	96.744086
476.000000	96.716599
475.000000	96.769347
474.000000	96.902426
473.000000	97.091667
472.000000	97.276112
471.000000	97.394874
470.000000	97.434078
469.000000	97.419157
468.000000	97.374694
467.000000	97.315952
466.000000	97.264448
465.000000	97.250412
464.000000	97.279346
463.000000	97.311321
462.000000	97.300090
461.000000	97.239081
460.000000	97.159351
459.000000	97.092366
458.000000	97.055614
457.000000	97.068981
456.000000	97.153374
455.000000	97.309446
454.000000	97.507534
453.000000	97.682306
452.000000	97.741797
451.000000	97.627051
450.000000	97.355673
449.000000	97.001031
448.000000	96.641394
447.000000	96.337050
446.000000	96.126552
445.000000	96.015549
444.000000	95.945399
443.000000	95.786662
442.000000	95.411981
441.000000	94.790217
440.000000	93.989927
439.000000	93.115274
438.000000	92.278145
437.000000	91.608592
436.000000	91.230726
435.000000	91.195925
434.000000	91.452074
433.000000	91.895813
432.000000	92.431256
431.000000	92.968192
430.000000	93.459443
429.000000	93.941466
428.000000	94.482433
427.000000	95.101246
426.000000	95.764732
425.000000	96.426472
424.000000	97.007879
423.000000	97.403494
422.000000	97.571740
421.000000	97.576205
420.000000	97.492498
419.000000	97.368085
418.000000	97.282643
417.000000	97.314236
416.000000	97.483832
415.000000	97.758883
414.000000	98.075522
413.000000	98.369768
412.000000	98.571860
411.000000	98.600017
410.000000	98.462169
409.000000	98.291745
408.000000	98.216125
407.000000	98.220063
406.000000	98.286539
405.000000	98.383803
404.000000	98.446200
403.000000	98.331185
402.000000	97.946479
401.000000	97.364917
400.000000	96.728725
