PE IR       SUBTECH     SPECTRUM    ASCII       PEDS        4.00        
   -1
23MS195_NITRO.asc
24/09/06
15:25:39.00
24/09/06
15:25:39.00
Administrator
Sample 1119 By Administrator Date Friday, September 06 2024
400.000000
#HDR
-1
-1
#GR
cm-1
%T
1.0
0.0
4000.000000
-1.000000
3601
8
93.223850
22.712303
#DATA
4000.000000	71.583095
3999.000000	71.604726
3998.000000	71.625344
3997.000000	71.645025
3996.000000	71.664770
3995.000000	71.685654
3994.000000	71.707873
3993.000000	71.730842
3992.000000	71.753995
3991.000000	71.777077
3990.000000	71.800142
3989.000000	71.823503
3988.000000	71.847576
3987.000000	71.872451
3986.000000	71.897521
3985.000000	71.921824
3984.000000	71.944771
3983.000000	71.966443
3982.000000	71.987291
3981.000000	72.007515
3980.000000	72.027005
3979.000000	72.045893
3978.000000	72.064672
3977.000000	72.083782
3976.000000	72.103368
3975.000000	72.123379
3974.000000	72.143696
3973.000000	72.163981
3972.000000	72.184111
3971.000000	72.204458
3970.000000	72.225290
3969.000000	72.246381
3968.000000	72.266838
3967.000000	72.285658
3966.000000	72.302404
3965.000000	72.317602
3964.000000	72.332682
3963.000000	72.349301
3962.000000	72.367983
3961.000000	72.387375
3960.000000	72.406096
3959.000000	72.424486
3958.000000	72.443834
3957.000000	72.465360
3956.000000	72.489178
3955.000000	72.514603
3954.000000	72.540296
3953.000000	72.564503
3952.000000	72.585813
3951.000000	72.603409
3950.000000	72.618195
3949.000000	72.632705
3948.000000	72.648176
3947.000000	72.662492
3946.000000	72.673775
3945.000000	72.685006
3944.000000	72.702093
3943.000000	72.727833
3942.000000	72.758167
3941.000000	72.785290
3940.000000	72.806759
3939.000000	72.827916
3938.000000	72.853613
3937.000000	72.882611
3936.000000	72.908866
3935.000000	72.927983
3934.000000	72.939952
3933.000000	72.947785
3932.000000	72.956098
3931.000000	72.968090
3930.000000	72.984684
3929.000000	73.004024
3928.000000	73.023106
3927.000000	73.043587
3926.000000	73.070883
3925.000000	73.105985
3924.000000	73.141284
3923.000000	73.167608
3922.000000	73.184327
3921.000000	73.196435
3920.000000	73.205874
3919.000000	73.212750
3918.000000	73.220326
3917.000000	73.233035
3916.000000	73.250051
3915.000000	73.267379
3914.000000	73.285600
3913.000000	73.308964
3912.000000	73.339944
3911.000000	73.378521
3910.000000	73.420835
3909.000000	73.462220
3908.000000	73.497234
3907.000000	73.523158
3906.000000	73.541472
3905.000000	73.555045
3904.000000	73.563082
3903.000000	73.558683
3902.000000	73.538153
3901.000000	73.513404
3900.000000	73.503372
3899.000000	73.515504
3898.000000	73.542876
3897.000000	73.575309
3896.000000	73.609392
3895.000000	73.644281
3894.000000	73.675278
3893.000000	73.701502
3892.000000	73.732255
3891.000000	73.774762
3890.000000	73.811550
3889.000000	73.823253
3888.000000	73.816215
3887.000000	73.811045
3886.000000	73.825851
3885.000000	73.858810
3884.000000	73.883312
3883.000000	73.884412
3882.000000	73.877043
3881.000000	73.885934
3880.000000	73.921467
3879.000000	73.965254
3878.000000	73.990695
3877.000000	73.998250
3876.000000	74.010135
3875.000000	74.045030
3874.000000	74.095977
3873.000000	74.132483
3872.000000	74.136644
3871.000000	74.125035
3870.000000	74.128002
3869.000000	74.146105
3868.000000	74.150789
3867.000000	74.139326
3866.000000	74.134905
3865.000000	74.148884
3864.000000	74.179457
3863.000000	74.217792
3862.000000	74.252685
3861.000000	74.283009
3860.000000	74.315783
3859.000000	74.361938
3858.000000	74.423905
3857.000000	74.490161
3856.000000	74.533762
3855.000000	74.527316
3854.000000	74.490234
3853.000000	74.479759
3852.000000	74.482953
3851.000000	74.457428
3850.000000	74.428441
3849.000000	74.430253
3848.000000	74.465524
3847.000000	74.522651
3846.000000	74.586845
3845.000000	74.647070
3844.000000	74.701161
3843.000000	74.746730
3842.000000	74.774941
3841.000000	74.782262
3840.000000	74.772593
3839.000000	74.757267
3838.000000	74.749248
3837.000000	74.753615
3836.000000	74.762531
3835.000000	74.767653
3834.000000	74.772673
3833.000000	74.789671
3832.000000	74.825465
3831.000000	74.873551
3830.000000	74.917488
3829.000000	74.947445
3828.000000	74.973318
3827.000000	75.012016
3826.000000	75.061570
3825.000000	75.101053
3824.000000	75.113935
3823.000000	75.103942
3822.000000	75.097205
3821.000000	75.124859
3820.000000	75.166197
3819.000000	75.173359
3818.000000	75.149214
3817.000000	75.131648
3816.000000	75.150900
3815.000000	75.199344
3814.000000	75.242097
3813.000000	75.270283
3812.000000	75.301381
3811.000000	75.341294
3810.000000	75.378482
3809.000000	75.402917
3808.000000	75.423460
3807.000000	75.457194
3806.000000	75.495855
3805.000000	75.508868
3804.000000	75.491254
3803.000000	75.466239
3802.000000	75.463931
3801.000000	75.499188
3800.000000	75.538711
3799.000000	75.549259
3798.000000	75.546521
3797.000000	75.559771
3796.000000	75.597963
3795.000000	75.647237
3794.000000	75.690993
3793.000000	75.726054
3792.000000	75.757650
3791.000000	75.789776
3790.000000	75.822425
3789.000000	75.852048
3788.000000	75.874963
3787.000000	75.890993
3786.000000	75.906972
3785.000000	75.930640
3784.000000	75.960246
3783.000000	75.985832
3782.000000	76.002467
3781.000000	76.016159
3780.000000	76.037698
3779.000000	76.070072
3778.000000	76.100869
3777.000000	76.119563
3776.000000	76.132767
3775.000000	76.151839
3774.000000	76.175348
3773.000000	76.194716
3772.000000	76.208928
3771.000000	76.226206
3770.000000	76.252515
3769.000000	76.281686
3768.000000	76.300644
3767.000000	76.311294
3766.000000	76.329948
3765.000000	76.364463
3764.000000	76.403431
3763.000000	76.431090
3762.000000	76.447165
3761.000000	76.459590
3760.000000	76.472868
3759.000000	76.492278
3758.000000	76.519100
3757.000000	76.549182
3756.000000	76.578913
3755.000000	76.610090
3754.000000	76.643547
3753.000000	76.668239
3752.000000	76.672397
3751.000000	76.670243
3750.000000	76.686904
3749.000000	76.712974
3748.000000	76.718106
3747.000000	76.699812
3746.000000	76.675546
3745.000000	76.674165
3744.000000	76.729513
3743.000000	76.802165
3742.000000	76.837084
3741.000000	76.856342
3740.000000	76.889534
3739.000000	76.935354
3738.000000	76.980659
3737.000000	77.017983
3736.000000	77.046477
3735.000000	77.062196
3734.000000	77.063898
3733.000000	77.064011
3732.000000	77.081167
3731.000000	77.117380
3730.000000	77.158362
3729.000000	77.196586
3728.000000	77.236118
3727.000000	77.281350
3726.000000	77.329109
3725.000000	77.368669
3724.000000	77.395671
3723.000000	77.415313
3722.000000	77.436723
3721.000000	77.462847
3720.000000	77.489831
3719.000000	77.521038
3718.000000	77.562486
3717.000000	77.611262
3716.000000	77.657475
3715.000000	77.693576
3714.000000	77.715527
3713.000000	77.721540
3712.000000	77.720524
3711.000000	77.727200
3710.000000	77.741176
3709.000000	77.754858
3708.000000	77.770783
3707.000000	77.796042
3706.000000	77.831658
3705.000000	77.872071
3704.000000	77.912310
3703.000000	77.953335
3702.000000	78.000097
3701.000000	78.051092
3700.000000	78.092552
3699.000000	78.117341
3698.000000	78.136230
3697.000000	78.160891
3696.000000	78.192111
3695.000000	78.224986
3694.000000	78.256597
3693.000000	78.285090
3692.000000	78.306580
3691.000000	78.318266
3690.000000	78.324461
3689.000000	78.339720
3688.000000	78.370096
3687.000000	78.400166
3686.000000	78.420328
3685.000000	78.441357
3684.000000	78.471680
3683.000000	78.507575
3682.000000	78.544069
3681.000000	78.584869
3680.000000	78.632185
3679.000000	78.670999
3678.000000	78.683090
3677.000000	78.667284
3676.000000	78.659946
3675.000000	78.697185
3674.000000	78.740747
3673.000000	78.743612
3672.000000	78.722392
3671.000000	78.711550
3670.000000	78.737814
3669.000000	78.799188
3668.000000	78.856732
3667.000000	78.890083
3666.000000	78.915594
3665.000000	78.951222
3664.000000	78.999679
3663.000000	79.057606
3662.000000	79.121493
3661.000000	79.185721
3660.000000	79.238734
3659.000000	79.268895
3658.000000	79.278232
3657.000000	79.284991
3656.000000	79.307967
3655.000000	79.338735
3654.000000	79.359002
3653.000000	79.370109
3652.000000	79.376388
3651.000000	79.370341
3650.000000	79.353507
3649.000000	79.344202
3648.000000	79.353677
3647.000000	79.374973
3646.000000	79.398862
3645.000000	79.423489
3644.000000	79.451735
3643.000000	79.487543
3642.000000	79.529833
3641.000000	79.572841
3640.000000	79.610977
3639.000000	79.644737
3638.000000	79.676150
3637.000000	79.702640
3636.000000	79.724594
3635.000000	79.750804
3634.000000	79.788613
3633.000000	79.828505
3632.000000	79.850368
3631.000000	79.839533
3630.000000	79.802651
3629.000000	79.781244
3628.000000	79.797318
3627.000000	79.814240
3626.000000	79.812942
3625.000000	79.816286
3624.000000	79.839327
3623.000000	79.875859
3622.000000	79.911637
3621.000000	79.935886
3620.000000	79.949365
3619.000000	79.963765
3618.000000	79.979572
3617.000000	79.982664
3616.000000	79.970789
3615.000000	79.958497
3614.000000	79.960195
3613.000000	79.976583
3612.000000	79.994040
3611.000000	79.999413
3610.000000	79.994749
3609.000000	79.994148
3608.000000	80.010190
3607.000000	80.041266
3606.000000	80.073903
3605.000000	80.098884
3604.000000	80.115670
3603.000000	80.128107
3602.000000	80.141112
3601.000000	80.156196
3600.000000	80.170112
3599.000000	80.180198
3598.000000	80.186500
3597.000000	80.189404
3596.000000	80.193261
3595.000000	80.204560
3594.000000	80.226433
3593.000000	80.252838
3592.000000	80.273484
3591.000000	80.281723
3590.000000	80.276177
3589.000000	80.260646
3588.000000	80.248821
3587.000000	80.253832
3586.000000	80.269848
3585.000000	80.283480
3584.000000	80.293927
3583.000000	80.308458
3582.000000	80.330456
3581.000000	80.356650
3580.000000	80.382201
3579.000000	80.404245
3578.000000	80.421851
3577.000000	80.433342
3576.000000	80.438978
3575.000000	80.443111
3574.000000	80.451195
3573.000000	80.466327
3572.000000	80.486861
3571.000000	80.507067
3570.000000	80.519438
3569.000000	80.519477
3568.000000	80.513161
3567.000000	80.515766
3566.000000	80.532478
3565.000000	80.552819
3564.000000	80.569165
3563.000000	80.583602
3562.000000	80.599565
3561.000000	80.617146
3560.000000	80.634977
3559.000000	80.652966
3558.000000	80.672232
3557.000000	80.693342
3556.000000	80.715852
3555.000000	80.740405
3554.000000	80.768513
3553.000000	80.800667
3552.000000	80.834222
3551.000000	80.863568
3550.000000	80.884160
3549.000000	80.895834
3548.000000	80.902051
3547.000000	80.907756
3546.000000	80.916737
3545.000000	80.928924
3544.000000	80.942632
3543.000000	80.958553
3542.000000	80.979145
3541.000000	81.005658
3540.000000	81.037049
3539.000000	81.071781
3538.000000	81.107172
3537.000000	81.138837
3536.000000	81.162893
3535.000000	81.178464
3534.000000	81.187881
3533.000000	81.194150
3532.000000	81.200242
3531.000000	81.208917
3530.000000	81.222511
3529.000000	81.242132
3528.000000	81.267632
3527.000000	81.297550
3526.000000	81.329014
3525.000000	81.358494
3524.000000	81.384025
3523.000000	81.406052
3522.000000	81.424845
3521.000000	81.439331
3520.000000	81.449686
3519.000000	81.459236
3518.000000	81.471483
3517.000000	81.486809
3516.000000	81.504199
3515.000000	81.523282
3514.000000	81.542841
3513.000000	81.559472
3512.000000	81.570851
3511.000000	81.579006
3510.000000	81.588305
3509.000000	81.600431
3508.000000	81.613416
3507.000000	81.625438
3506.000000	81.637098
3505.000000	81.649500
3504.000000	81.662937
3503.000000	81.676999
3502.000000	81.690321
3501.000000	81.700995
3500.000000	81.708674
3499.000000	81.714953
3498.000000	81.720641
3497.000000	81.724290
3496.000000	81.724392
3495.000000	81.721671
3494.000000	81.717747
3493.000000	81.713357
3492.000000	81.709423
3491.000000	81.707851
3490.000000	81.709841
3489.000000	81.714435
3488.000000	81.719626
3487.000000	81.723481
3486.000000	81.723166
3485.000000	81.715518
3484.000000	81.700560
3483.000000	81.682624
3482.000000	81.665992
3481.000000	81.650415
3480.000000	81.633139
3479.000000	81.613837
3478.000000	81.595405
3477.000000	81.580850
3476.000000	81.571420
3475.000000	81.567005
3474.000000	81.566009
3473.000000	81.565611
3472.000000	81.563421
3471.000000	81.557588
3470.000000	81.544719
3469.000000	81.520223
3468.000000	81.482381
3467.000000	81.434749
3466.000000	81.383447
3465.000000	81.334132
3464.000000	81.292177
3463.000000	81.262223
3462.000000	81.244451
3461.000000	81.232623
3460.000000	81.218212
3459.000000	81.195921
3458.000000	81.164242
3457.000000	81.123453
3456.000000	81.074843
3455.000000	81.020452
3454.000000	80.962570
3453.000000	80.903376
3452.000000	80.845660
3451.000000	80.792090
3450.000000	80.743508
3449.000000	80.699084
3448.000000	80.658303
3447.000000	80.620980
3446.000000	80.584433
3445.000000	80.543302
3444.000000	80.493530
3443.000000	80.434991
3442.000000	80.369918
3441.000000	80.300576
3440.000000	80.229125
3439.000000	80.157901
3438.000000	80.088049
3437.000000	80.018865
3436.000000	79.949240
3435.000000	79.878998
3434.000000	79.808743
3433.000000	79.738458
3432.000000	79.666601
3431.000000	79.589799
3430.000000	79.503800
3429.000000	79.405846
3428.000000	79.296846
3427.000000	79.180704
3426.000000	79.061496
3425.000000	78.941946
3424.000000	78.823926
3423.000000	78.709017
3422.000000	78.597562
3421.000000	78.488119
3420.000000	78.378368
3419.000000	78.265885
3418.000000	78.148444
3417.000000	78.024417
3416.000000	77.893172
3415.000000	77.754238
3414.000000	77.606300
3413.000000	77.448680
3412.000000	77.283618
3411.000000	77.115640
3410.000000	76.948020
3409.000000	76.780662
3408.000000	76.611944
3407.000000	76.441165
3406.000000	76.268433
3405.000000	76.093463
3404.000000	75.914893
3403.000000	75.729805
3402.000000	75.533175
3401.000000	75.319599
3400.000000	75.087831
3399.000000	74.843068
3398.000000	74.594120
3397.000000	74.348142
3396.000000	74.107692
3395.000000	73.871298
3394.000000	73.634772
3393.000000	73.392529
3392.000000	73.139102
3391.000000	72.870487
3390.000000	72.585466
3389.000000	72.285988
3388.000000	71.976158
3387.000000	71.659871
3386.000000	71.339105
3385.000000	71.015185
3384.000000	70.690186
3383.000000	70.365868
3382.000000	70.041568
3381.000000	69.714255
3380.000000	69.381072
3379.000000	69.040255
3378.000000	68.690137
3377.000000	68.329033
3376.000000	67.956545
3375.000000	67.574554
3374.000000	67.186315
3373.000000	66.794956
3372.000000	66.402255
3371.000000	66.007364
3370.000000	65.607469
3369.000000	65.200373
3368.000000	64.786208
3367.000000	64.366307
3366.000000	63.941057
3365.000000	63.510142
3364.000000	63.073515
3363.000000	62.630961
3362.000000	62.181745
3361.000000	61.725666
3360.000000	61.264191
3359.000000	60.799475
3358.000000	60.332972
3357.000000	59.865977
3356.000000	59.400189
3355.000000	58.936683
3354.000000	58.474684
3353.000000	58.011832
3352.000000	57.545257
3351.000000	57.072321
3350.000000	56.592017
3349.000000	56.106427
3348.000000	55.619478
3347.000000	55.133848
3346.000000	54.649888
3345.000000	54.167531
3344.000000	53.687648
3343.000000	53.210944
3342.000000	52.737092
3341.000000	52.265332
3340.000000	51.794647
3339.000000	51.323237
3338.000000	50.849439
3337.000000	50.373501
3336.000000	49.897069
3335.000000	49.421090
3334.000000	48.945999
3333.000000	48.473682
3332.000000	48.006926
3331.000000	47.546902
3330.000000	47.092887
3329.000000	46.644158
3328.000000	46.200186
3327.000000	45.759246
3326.000000	45.319400
3325.000000	44.880790
3324.000000	44.444807
3323.000000	44.011577
3322.000000	43.580335
3321.000000	43.152004
3320.000000	42.728991
3319.000000	42.312520
3318.000000	41.902907
3317.000000	41.501549
3316.000000	41.110158
3315.000000	40.728460
3314.000000	40.354706
3313.000000	39.988273
3312.000000	39.628935
3311.000000	39.274483
3310.000000	38.922595
3309.000000	38.574252
3308.000000	38.233248
3307.000000	37.902588
3306.000000	37.583998
3305.000000	37.280271
3304.000000	36.993725
3303.000000	36.723337
3302.000000	36.465901
3301.000000	36.219652
3300.000000	35.984632
3299.000000	35.759716
3298.000000	35.543160
3297.000000	35.335418
3296.000000	35.138168
3295.000000	34.951740
3294.000000	34.775517
3293.000000	34.610762
3292.000000	34.460027
3291.000000	34.323504
3290.000000	34.199587
3289.000000	34.087376
3288.000000	33.986720
3287.000000	33.896554
3286.000000	33.815287
3285.000000	33.742804
3284.000000	33.678818
3283.000000	33.620935
3282.000000	33.566827
3281.000000	33.517016
3280.000000	33.473458
3279.000000	33.436059
3278.000000	33.403451
3277.000000	33.375934
3276.000000	33.354457
3275.000000	33.337945
3274.000000	33.324238
3273.000000	33.313130
3272.000000	33.306229
3271.000000	33.304353
3270.000000	33.307424
3269.000000	33.315466
3268.000000	33.327278
3267.000000	33.339711
3266.000000	33.350498
3265.000000	33.360980
3264.000000	33.374051
3263.000000	33.390643
3262.000000	33.410329
3261.000000	33.433238
3260.000000	33.458823
3259.000000	33.484365
3258.000000	33.507546
3257.000000	33.529652
3256.000000	33.553608
3255.000000	33.580230
3254.000000	33.608571
3253.000000	33.638351
3252.000000	33.669615
3251.000000	33.701229
3250.000000	33.732440
3249.000000	33.764865
3248.000000	33.800599
3247.000000	33.839517
3246.000000	33.880166
3245.000000	33.921709
3244.000000	33.963011
3243.000000	34.001561
3242.000000	34.035946
3241.000000	34.068079
3240.000000	34.100803
3239.000000	34.134618
3238.000000	34.168676
3237.000000	34.203239
3236.000000	34.238777
3235.000000	34.274445
3234.000000	34.309873
3233.000000	34.346799
3232.000000	34.386440
3231.000000	34.426624
3230.000000	34.463969
3229.000000	34.497498
3228.000000	34.527927
3227.000000	34.555185
3226.000000	34.579234
3225.000000	34.601884
3224.000000	34.625138
3223.000000	34.648835
3222.000000	34.671932
3221.000000	34.694734
3220.000000	34.717749
3219.000000	34.739719
3218.000000	34.759119
3217.000000	34.776267
3216.000000	34.791810
3215.000000	34.804607
3214.000000	34.813252
3213.000000	34.818466
3212.000000	34.821746
3211.000000	34.823030
3210.000000	34.821862
3209.000000	34.819094
3208.000000	34.815434
3207.000000	34.809748
3206.000000	34.800953
3205.000000	34.790242
3204.000000	34.779064
3203.000000	34.766509
3202.000000	34.750756
3201.000000	34.731638
3200.000000	34.709807
3199.000000	34.684749
3198.000000	34.655966
3197.000000	34.624740
3196.000000	34.592517
3195.000000	34.558991
3194.000000	34.523453
3193.000000	34.486524
3192.000000	34.448691
3191.000000	34.408734
3190.000000	34.365848
3189.000000	34.321561
3188.000000	34.277652
3187.000000	34.233795
3186.000000	34.189131
3185.000000	34.144600
3184.000000	34.101479
3183.000000	34.059288
3182.000000	34.017100
3181.000000	33.975303
3180.000000	33.934171
3179.000000	33.892448
3178.000000	33.849368
3177.000000	33.806316
3176.000000	33.764638
3175.000000	33.723694
3174.000000	33.682951
3173.000000	33.643937
3172.000000	33.608132
3171.000000	33.575081
3170.000000	33.544466
3169.000000	33.517892
3168.000000	33.496478
3167.000000	33.478539
3166.000000	33.461913
3165.000000	33.446504
3164.000000	33.432547
3163.000000	33.418774
3162.000000	33.404553
3161.000000	33.391888
3160.000000	33.382861
3159.000000	33.377025
3158.000000	33.373579
3157.000000	33.373724
3156.000000	33.378717
3155.000000	33.387662
3154.000000	33.399667
3153.000000	33.416260
3152.000000	33.438860
3151.000000	33.465786
3150.000000	33.493969
3149.000000	33.521949
3148.000000	33.549436
3147.000000	33.575903
3146.000000	33.602027
3145.000000	33.630568
3144.000000	33.663451
3143.000000	33.699747
3142.000000	33.738143
3141.000000	33.779579
3140.000000	33.825617
3139.000000	33.876051
3138.000000	33.930119
3137.000000	33.987795
3136.000000	34.048132
3135.000000	34.108388
3134.000000	34.166662
3133.000000	34.223900
3132.000000	34.281684
3131.000000	34.340307
3130.000000	34.400601
3129.000000	34.464929
3128.000000	34.534321
3127.000000	34.606619
3126.000000	34.679607
3125.000000	34.753868
3124.000000	34.830471
3123.000000	34.908479
3122.000000	34.986891
3121.000000	35.066816
3120.000000	35.149509
3119.000000	35.234091
3118.000000	35.319449
3117.000000	35.406397
3116.000000	35.495929
3115.000000	35.587338
3114.000000	35.679872
3113.000000	35.774340
3112.000000	35.871052
3111.000000	35.968197
3110.000000	36.064422
3109.000000	36.161063
3108.000000	36.260004
3107.000000	36.361149
3106.000000	36.463915
3105.000000	36.569132
3104.000000	36.677214
3103.000000	36.786591
3102.000000	36.895918
3101.000000	37.006021
3100.000000	37.117913
3099.000000	37.230720
3098.000000	37.343287
3097.000000	37.455846
3096.000000	37.568411
3095.000000	37.679784
3094.000000	37.789929
3093.000000	37.901341
3092.000000	38.016269
3091.000000	38.134320
3090.000000	38.254368
3089.000000	38.376596
3088.000000	38.500988
3087.000000	38.625969
3086.000000	38.750377
3085.000000	38.874998
3084.000000	39.000246
3083.000000	39.124254
3082.000000	39.244958
3081.000000	39.362486
3080.000000	39.478125
3079.000000	39.592893
3078.000000	39.708488
3077.000000	39.827547
3076.000000	39.951136
3075.000000	40.077527
3074.000000	40.204870
3073.000000	40.333150
3072.000000	40.462306
3071.000000	40.590574
3070.000000	40.716391
3069.000000	40.840052
3068.000000	40.962001
3067.000000	41.081331
3066.000000	41.197542
3065.000000	41.311949
3064.000000	41.425988
3063.000000	41.540076
3062.000000	41.655196
3061.000000	41.773339
3060.000000	41.894839
3059.000000	42.017314
3058.000000	42.138741
3057.000000	42.259669
3056.000000	42.381010
3055.000000	42.501663
3054.000000	42.619963
3053.000000	42.735626
3052.000000	42.848744
3051.000000	42.958812
3050.000000	43.066335
3049.000000	43.173672
3048.000000	43.282832
3047.000000	43.393812
3046.000000	43.506124
3045.000000	43.619982
3044.000000	43.734784
3043.000000	43.848473
3042.000000	43.959900
3041.000000	44.070176
3040.000000	44.180392
3039.000000	44.289703
3038.000000	44.396997
3037.000000	44.502640
3036.000000	44.607268
3035.000000	44.710638
3034.000000	44.813002
3033.000000	44.916023
3032.000000	45.020779
3031.000000	45.126250
3030.000000	45.231009
3029.000000	45.334932
3028.000000	45.438107
3027.000000	45.539605
3026.000000	45.638860
3025.000000	45.737010
3024.000000	45.835618
3023.000000	45.935174
3022.000000	46.035675
3021.000000	46.137189
3020.000000	46.238829
3019.000000	46.338644
3018.000000	46.435627
3017.000000	46.530444
3016.000000	46.623555
3015.000000	46.714357
3014.000000	46.803067
3013.000000	46.891710
3012.000000	46.982105
3011.000000	47.074421
3010.000000	47.168509
3009.000000	47.264840
3008.000000	47.363082
3007.000000	47.461500
3006.000000	47.558915
3005.000000	47.655763
3004.000000	47.752166
3003.000000	47.846476
3002.000000	47.936888
3001.000000	48.023032
3000.000000	48.105267
2999.000000	48.184051
2998.000000	48.261021
2997.000000	48.339131
2996.000000	48.420480
2995.000000	48.505206
2994.000000	48.593089
2993.000000	48.684525
2992.000000	48.778951
2991.000000	48.874003
2990.000000	48.967408
2989.000000	49.058374
2988.000000	49.146320
2987.000000	49.229963
2986.000000	49.308741
2985.000000	49.383849
2984.000000	49.456872
2983.000000	49.528785
2982.000000	49.601146
2981.000000	49.676628
2980.000000	49.757011
2979.000000	49.841624
2978.000000	49.928646
2977.000000	50.016713
2976.000000	50.104538
2975.000000	50.190468
2974.000000	50.273585
2973.000000	50.354029
2972.000000	50.431565
2971.000000	50.505223
2970.000000	50.575226
2969.000000	50.643831
2968.000000	50.713275
2967.000000	50.784273
2966.000000	50.857182
2965.000000	50.932941
2964.000000	51.011579
2963.000000	51.091218
2962.000000	51.169898
2961.000000	51.247273
2960.000000	51.323627
2959.000000	51.398676
2958.000000	51.472241
2957.000000	51.544643
2956.000000	51.615384
2955.000000	51.683054
2954.000000	51.747780
2953.000000	51.812304
2952.000000	51.879268
2951.000000	51.948525
2950.000000	52.018271
2949.000000	52.087505
2948.000000	52.156275
2947.000000	52.224791
2946.000000	52.293638
2945.000000	52.363939
2944.000000	52.436140
2943.000000	52.509315
2942.000000	52.582331
2941.000000	52.654717
2940.000000	52.725749
2939.000000	52.794092
2938.000000	52.859381
2937.000000	52.923046
2936.000000	52.986560
2935.000000	53.049775
2934.000000	53.111820
2933.000000	53.172510
2932.000000	53.232122
2931.000000	53.291042
2930.000000	53.350550
2929.000000	53.412633
2928.000000	53.477744
2927.000000	53.543700
2926.000000	53.607747
2925.000000	53.668700
2924.000000	53.726531
2923.000000	53.781360
2922.000000	53.834014
2921.000000	53.886235
2920.000000	53.939058
2919.000000	53.991925
2918.000000	54.044243
2917.000000	54.096874
2916.000000	54.151269
2915.000000	54.208267
2914.000000	54.268390
2913.000000	54.332048
2912.000000	54.398403
2911.000000	54.464993
2910.000000	54.529307
2909.000000	54.590143
2908.000000	54.647213
2907.000000	54.700602
2906.000000	54.751238
2905.000000	54.800765
2904.000000	54.850189
2903.000000	54.899432
2902.000000	54.948802
2901.000000	54.999786
2900.000000	55.054115
2899.000000	55.112441
2898.000000	55.174409
2897.000000	55.238730
2896.000000	55.302582
2895.000000	55.362654
2894.000000	55.417580
2893.000000	55.468601
2892.000000	55.517343
2891.000000	55.564189
2890.000000	55.609380
2889.000000	55.654231
2888.000000	55.700181
2887.000000	55.747647
2886.000000	55.796688
2885.000000	55.847881
2884.000000	55.901647
2883.000000	55.957457
2882.000000	56.014454
2881.000000	56.072051
2880.000000	56.129322
2879.000000	56.184884
2878.000000	56.238425
2877.000000	56.291449
2876.000000	56.345252
2875.000000	56.398518
2874.000000	56.447947
2873.000000	56.491312
2872.000000	56.529550
2871.000000	56.566223
2870.000000	56.605291
2869.000000	56.648929
2868.000000	56.696602
2867.000000	56.746101
2866.000000	56.795506
2865.000000	56.844139
2864.000000	56.892224
2863.000000	56.940328
2862.000000	56.988855
2861.000000	57.037042
2860.000000	57.082696
2859.000000	57.124044
2858.000000	57.161975
2857.000000	57.199444
2856.000000	57.238677
2855.000000	57.279973
2854.000000	57.323096
2853.000000	57.368314
2852.000000	57.415778
2851.000000	57.465164
2850.000000	57.516169
2849.000000	57.568255
2848.000000	57.619909
2847.000000	57.669589
2846.000000	57.717679
2845.000000	57.766276
2844.000000	57.816970
2843.000000	57.870066
2842.000000	57.925632
2841.000000	57.983063
2840.000000	58.039200
2839.000000	58.089267
2838.000000	58.131285
2837.000000	58.168312
2836.000000	58.205295
2835.000000	58.244890
2834.000000	58.287147
2833.000000	58.331674
2832.000000	58.378394
2831.000000	58.426914
2830.000000	58.476638
2829.000000	58.527259
2828.000000	58.578302
2827.000000	58.628613
2826.000000	58.677063
2825.000000	58.723391
2824.000000	58.767840
2823.000000	58.810572
2822.000000	58.852123
2821.000000	58.893811
2820.000000	58.936934
2819.000000	58.981943
2818.000000	59.028864
2817.000000	59.077893
2816.000000	59.128991
2815.000000	59.181482
2814.000000	59.234552
2813.000000	59.287535
2812.000000	59.339182
2811.000000	59.387349
2810.000000	59.430261
2809.000000	59.467915
2808.000000	59.501861
2807.000000	59.534056
2806.000000	59.566251
2805.000000	59.599747
2804.000000	59.635145
2803.000000	59.672711
2802.000000	59.713149
2801.000000	59.757318
2800.000000	59.804715
2799.000000	59.852954
2798.000000	59.899315
2797.000000	59.942342
2796.000000	59.981624
2795.000000	60.016985
2794.000000	60.048733
2793.000000	60.078105
2792.000000	60.106627
2791.000000	60.135299
2790.000000	60.164902
2789.000000	60.196557
2788.000000	60.231326
2787.000000	60.269560
2786.000000	60.311099
2785.000000	60.355705
2784.000000	60.402676
2783.000000	60.450292
2782.000000	60.496213
2781.000000	60.538338
2780.000000	60.575218
2779.000000	60.606326
2778.000000	60.632411
2777.000000	60.655194
2776.000000	60.676319
2775.000000	60.696823
2774.000000	60.717712
2773.000000	60.740346
2772.000000	60.765586
2771.000000	60.792958
2770.000000	60.820996
2769.000000	60.847962
2768.000000	60.871962
2767.000000	60.891029
2766.000000	60.903935
2765.000000	60.910704
2764.000000	60.912059
2763.000000	60.908836
2762.000000	60.902184
2761.000000	60.893833
2760.000000	60.885625
2759.000000	60.878941
2758.000000	60.874863
2757.000000	60.874142
2756.000000	60.876414
2755.000000	60.879932
2754.000000	60.882569
2753.000000	60.882838
2752.000000	60.879680
2751.000000	60.872047
2750.000000	60.859322
2749.000000	60.841698
2748.000000	60.819719
2747.000000	60.793791
2746.000000	60.764603
2745.000000	60.733470
2744.000000	60.701465
2743.000000	60.668630
2742.000000	60.634521
2741.000000	60.599150
2740.000000	60.563160
2739.000000	60.527684
2738.000000	60.494583
2737.000000	60.466385
2736.000000	60.445234
2735.000000	60.432147
2734.000000	60.427829
2733.000000	60.433433
2732.000000	60.450120
2731.000000	60.478246
2730.000000	60.517029
2729.000000	60.564795
2728.000000	60.618918
2727.000000	60.676442
2726.000000	60.735739
2725.000000	60.797065
2724.000000	60.861474
2723.000000	60.929488
2722.000000	61.000965
2721.000000	61.075555
2720.000000	61.152344
2719.000000	61.229565
2718.000000	61.305221
2717.000000	61.377639
2716.000000	61.445083
2715.000000	61.505492
2714.000000	61.557242
2713.000000	61.600177
2712.000000	61.635559
2711.000000	61.665170
2710.000000	61.691142
2709.000000	61.715991
2708.000000	61.741926
2707.000000	61.769988
2706.000000	61.799836
2705.000000	61.830296
2704.000000	61.859744
2703.000000	61.886279
2702.000000	61.908183
2701.000000	61.924120
2700.000000	61.933080
2699.000000	61.934555
2698.000000	61.929280
2697.000000	61.919672
2696.000000	61.908879
2695.000000	61.899628
2694.000000	61.893981
2693.000000	61.893406
2692.000000	61.898290
2691.000000	61.907449
2690.000000	61.918618
2689.000000	61.929413
2688.000000	61.937723
2687.000000	61.941737
2686.000000	61.940283
2685.000000	61.933245
2684.000000	61.921448
2683.000000	61.906411
2682.000000	61.890482
2681.000000	61.876592
2680.000000	61.867122
2679.000000	61.863021
2678.000000	61.864153
2677.000000	61.869981
2676.000000	61.879493
2675.000000	61.890817
2674.000000	61.901661
2673.000000	61.910442
2672.000000	61.916858
2671.000000	61.921755
2670.000000	61.926737
2669.000000	61.933518
2668.000000	61.943197
2667.000000	61.956017
2666.000000	61.971815
2665.000000	61.990293
2664.000000	62.010656
2663.000000	62.031519
2662.000000	62.051431
2661.000000	62.069127
2660.000000	62.083218
2659.000000	62.092395
2658.000000	62.096546
2657.000000	62.097380
2656.000000	62.097418
2655.000000	62.098515
2654.000000	62.101597
2653.000000	62.107116
2652.000000	62.115085
2651.000000	62.124943
2650.000000	62.135969
2649.000000	62.147773
2648.000000	62.160273
2647.000000	62.173581
2646.000000	62.188363
2645.000000	62.206064
2644.000000	62.228142
2643.000000	62.255538
2642.000000	62.289025
2641.000000	62.329426
2640.000000	62.376928
2639.000000	62.430118
2638.000000	62.486463
2637.000000	62.543491
2636.000000	62.599006
2635.000000	62.650611
2634.000000	62.695852
2633.000000	62.733214
2632.000000	62.762840
2631.000000	62.786421
2630.000000	62.806546
2629.000000	62.826173
2628.000000	62.847866
2627.000000	62.872974
2626.000000	62.901521
2625.000000	62.932522
2624.000000	62.964347
2623.000000	62.994957
2622.000000	63.022307
2621.000000	63.044847
2620.000000	63.061421
2619.000000	63.071001
2618.000000	63.072892
2617.000000	63.067453
2616.000000	63.056706
2615.000000	63.043821
2614.000000	63.031992
2613.000000	63.023427
2612.000000	63.018777
2611.000000	63.017319
2610.000000	63.017454
2609.000000	63.017180
2608.000000	63.014512
2607.000000	63.008036
2606.000000	62.997484
2605.000000	62.983721
2604.000000	62.968225
2603.000000	62.952812
2602.000000	62.939911
2601.000000	62.932474
2600.000000	62.933274
2599.000000	62.944142
2598.000000	62.965616
2597.000000	62.997043
2596.000000	63.036375
2595.000000	63.080539
2594.000000	63.126548
2593.000000	63.172256
2592.000000	63.216633
2591.000000	63.259448
2590.000000	63.301012
2589.000000	63.341957
2588.000000	63.382848
2587.000000	63.424221
2586.000000	63.466920
2585.000000	63.512144
2584.000000	63.560821
2583.000000	63.612854
2582.000000	63.667006
2581.000000	63.721367
2580.000000	63.774115
2579.000000	63.824363
2578.000000	63.872561
2577.000000	63.920074
2576.000000	63.968233
2575.000000	64.017723
2574.000000	64.068607
2573.000000	64.120456
2572.000000	64.172298
2571.000000	64.222837
2570.000000	64.270990
2569.000000	64.315998
2568.000000	64.357097
2567.000000	64.393224
2566.000000	64.423420
2565.000000	64.447543
2564.000000	64.466278
2563.000000	64.480965
2562.000000	64.493333
2561.000000	64.505128
2560.000000	64.517447
2559.000000	64.529921
2558.000000	64.540898
2557.000000	64.548309
2556.000000	64.550601
2555.000000	64.547426
2554.000000	64.539768
2553.000000	64.529760
2552.000000	64.520211
2551.000000	64.514234
2550.000000	64.515007
2549.000000	64.525450
2548.000000	64.547436
2547.000000	64.581469
2546.000000	64.627193
2545.000000	64.683423
2544.000000	64.747944
2543.000000	64.817178
2542.000000	64.886716
2541.000000	64.952486
2540.000000	65.011354
2539.000000	65.061425
2538.000000	65.102374
2537.000000	65.135684
2536.000000	65.164147
2535.000000	65.191019
2534.000000	65.219383
2533.000000	65.251941
2532.000000	65.290628
2531.000000	65.335907
2530.000000	65.386498
2529.000000	65.439827
2528.000000	65.492722
2527.000000	65.541969
2526.000000	65.584788
2525.000000	65.619464
2524.000000	65.645716
2523.000000	65.664666
2522.000000	65.678660
2521.000000	65.690782
2520.000000	65.704246
2519.000000	65.721612
2518.000000	65.744378
2517.000000	65.773002
2516.000000	65.806874
2515.000000	65.844226
2514.000000	65.882478
2513.000000	65.918976
2512.000000	65.951401
2511.000000	65.977859
2510.000000	65.997355
2509.000000	66.010706
2508.000000	66.020663
2507.000000	66.030753
2506.000000	66.043687
2505.000000	66.060808
2504.000000	66.082283
2503.000000	66.107309
2502.000000	66.134279
2501.000000	66.161349
2500.000000	66.187056
2499.000000	66.210402
2498.000000	66.230583
2497.000000	66.247095
2496.000000	66.260164
2495.000000	66.270888
2494.000000	66.280889
2493.000000	66.291813
2492.000000	66.305038
2491.000000	66.321455
2490.000000	66.341275
2489.000000	66.363856
2488.000000	66.387538
2487.000000	66.409745
2486.000000	66.427730
2485.000000	66.439757
2484.000000	66.445947
2483.000000	66.448117
2482.000000	66.449048
2481.000000	66.451717
2480.000000	66.458572
2479.000000	66.470932
2478.000000	66.488871
2477.000000	66.511507
2476.000000	66.537212
2475.000000	66.563669
2474.000000	66.588145
2473.000000	66.608094
2472.000000	66.621571
2471.000000	66.627440
2470.000000	66.625862
2469.000000	66.619055
2468.000000	66.610983
2467.000000	66.605855
2466.000000	66.606772
2465.000000	66.615547
2464.000000	66.632861
2463.000000	66.657885
2462.000000	66.687896
2461.000000	66.718843
2460.000000	66.746606
2459.000000	66.767817
2458.000000	66.780192
2457.000000	66.782964
2456.000000	66.777326
2455.000000	66.766210
2454.000000	66.753729
2453.000000	66.744358
2452.000000	66.741965
2451.000000	66.748743
2450.000000	66.764909
2449.000000	66.789106
2448.000000	66.818810
2447.000000	66.850379
2446.000000	66.879498
2445.000000	66.902576
2444.000000	66.917763
2443.000000	66.924784
2442.000000	66.924306
2441.000000	66.918111
2440.000000	66.909318
2439.000000	66.901789
2438.000000	66.899005
2437.000000	66.903442
2436.000000	66.916212
2435.000000	66.936571
2434.000000	66.961763
2433.000000	66.988002
2432.000000	67.011944
2431.000000	67.031315
2430.000000	67.044963
2429.000000	67.053083
2428.000000	67.057284
2427.000000	67.059665
2426.000000	67.061747
2425.000000	67.064446
2424.000000	67.068854
2423.000000	67.076294
2422.000000	67.087489
2421.000000	67.102003
2420.000000	67.118453
2419.000000	67.134935
2418.000000	67.149475
2417.000000	67.160884
2416.000000	67.169503
2415.000000	67.177029
2414.000000	67.185476
2413.000000	67.196323
2412.000000	67.210309
2411.000000	67.227351
2410.000000	67.246418
2409.000000	67.265729
2408.000000	67.283323
2407.000000	67.297561
2406.000000	67.307499
2405.000000	67.313153
2404.000000	67.315462
2403.000000	67.315936
2402.000000	67.316455
2401.000000	67.319430
2400.000000	67.327563
2399.000000	67.342933
2398.000000	67.366113
2397.000000	67.396192
2396.000000	67.430855
2395.000000	67.466250
2394.000000	67.497492
2393.000000	67.520440
2392.000000	67.533389
2391.000000	67.537008
2390.000000	67.533295
2389.000000	67.525169
2388.000000	67.516843
2387.000000	67.513269
2386.000000	67.518758
2385.000000	67.535932
2384.000000	67.565677
2383.000000	67.607117
2382.000000	67.657591
2381.000000	67.712950
2380.000000	67.768364
2379.000000	67.819192
2378.000000	67.861822
2377.000000	67.894654
2376.000000	67.918627
2375.000000	67.936521
2374.000000	67.951617
2373.000000	67.967337
2372.000000	67.987053
2371.000000	68.013505
2370.000000	68.047869
2369.000000	68.090142
2368.000000	68.139764
2367.000000	68.194626
2366.000000	68.249665
2365.000000	68.298519
2364.000000	68.337149
2363.000000	68.363761
2362.000000	68.377607
2361.000000	68.381526
2360.000000	68.380962
2359.000000	68.381277
2358.000000	68.386903
2357.000000	68.400030
2356.000000	68.424442
2355.000000	68.462150
2354.000000	68.510125
2353.000000	68.563666
2352.000000	68.616980
2351.000000	68.664145
2350.000000	68.697836
2349.000000	68.720166
2348.000000	68.745405
2347.000000	68.785830
2346.000000	68.843433
2345.000000	68.904412
2344.000000	68.950513
2343.000000	68.972710
2342.000000	68.977407
2341.000000	68.980778
2340.000000	68.990755
2339.000000	69.009267
2338.000000	69.033962
2337.000000	69.062887
2336.000000	69.095165
2335.000000	69.129942
2334.000000	69.165252
2333.000000	69.199091
2332.000000	69.230763
2331.000000	69.260558
2330.000000	69.287012
2329.000000	69.308119
2328.000000	69.325750
2327.000000	69.340725
2326.000000	69.357542
2325.000000	69.377581
2324.000000	69.404178
2323.000000	69.437421
2322.000000	69.474909
2321.000000	69.515062
2320.000000	69.556488
2319.000000	69.600061
2318.000000	69.643918
2317.000000	69.685930
2316.000000	69.724009
2315.000000	69.757096
2314.000000	69.784583
2313.000000	69.805348
2312.000000	69.820365
2311.000000	69.830867
2310.000000	69.839631
2309.000000	69.848470
2308.000000	69.861145
2307.000000	69.880454
2306.000000	69.908771
2305.000000	69.945727
2304.000000	69.990375
2303.000000	70.040264
2302.000000	70.092048
2301.000000	70.141374
2300.000000	70.184718
2299.000000	70.219190
2298.000000	70.243400
2297.000000	70.257273
2296.000000	70.263724
2295.000000	70.266674
2294.000000	70.270534
2293.000000	70.278471
2292.000000	70.293668
2291.000000	70.317837
2290.000000	70.351193
2289.000000	70.392361
2288.000000	70.439680
2287.000000	70.490482
2286.000000	70.540462
2285.000000	70.584756
2284.000000	70.620033
2283.000000	70.645215
2282.000000	70.660571
2281.000000	70.667911
2280.000000	70.670707
2279.000000	70.673239
2278.000000	70.678660
2277.000000	70.689167
2276.000000	70.706795
2275.000000	70.733235
2274.000000	70.768388
2273.000000	70.810352
2272.000000	70.856679
2271.000000	70.904525
2270.000000	70.950235
2269.000000	70.989922
2268.000000	71.021204
2267.000000	71.043401
2266.000000	71.056695
2265.000000	71.062112
2264.000000	71.062321
2263.000000	71.060897
2262.000000	71.060969
2261.000000	71.064989
2260.000000	71.075498
2259.000000	71.094470
2258.000000	71.121783
2257.000000	71.155397
2256.000000	71.192388
2255.000000	71.229366
2254.000000	71.262034
2253.000000	71.286442
2252.000000	71.300508
2251.000000	71.303888
2250.000000	71.296609
2249.000000	71.279163
2248.000000	71.253641
2247.000000	71.223183
2246.000000	71.191014
2245.000000	71.160242
2244.000000	71.134267
2243.000000	71.115342
2242.000000	71.102996
2241.000000	71.094695
2240.000000	71.087689
2239.000000	71.079280
2238.000000	71.066338
2237.000000	71.046400
2236.000000	71.019229
2235.000000	70.986205
2234.000000	70.948748
2233.000000	70.908719
2232.000000	70.869659
2231.000000	70.835946
2230.000000	70.810640
2229.000000	70.795325
2228.000000	70.791123
2227.000000	70.798421
2226.000000	70.815456
2225.000000	70.838709
2224.000000	70.864524
2223.000000	70.889402
2222.000000	70.909419
2221.000000	70.921135
2220.000000	70.923444
2219.000000	70.917200
2218.000000	70.903555
2217.000000	70.883951
2216.000000	70.861591
2215.000000	70.841029
2214.000000	70.826100
2213.000000	70.818929
2212.000000	70.820408
2211.000000	70.830129
2210.000000	70.845884
2209.000000	70.864738
2208.000000	70.884627
2207.000000	70.904155
2206.000000	70.921177
2205.000000	70.933206
2204.000000	70.939009
2203.000000	70.938709
2202.000000	70.932611
2201.000000	70.921420
2200.000000	70.907407
2199.000000	70.893867
2198.000000	70.883387
2197.000000	70.877435
2196.000000	70.877125
2195.000000	70.882741
2194.000000	70.892863
2193.000000	70.905276
2192.000000	70.918691
2191.000000	70.932294
2190.000000	70.944118
2189.000000	70.951367
2188.000000	70.952313
2187.000000	70.946675
2186.000000	70.934480
2185.000000	70.916293
2184.000000	70.894384
2183.000000	70.872293
2182.000000	70.853098
2181.000000	70.839254
2180.000000	70.833292
2179.000000	70.837032
2178.000000	70.850074
2177.000000	70.870334
2176.000000	70.895901
2175.000000	70.925009
2174.000000	70.954699
2173.000000	70.981232
2172.000000	71.002214
2171.000000	71.017001
2170.000000	71.025528
2169.000000	71.028329
2168.000000	71.027722
2167.000000	71.027298
2166.000000	71.030063
2165.000000	71.038082
2164.000000	71.053372
2163.000000	71.077419
2162.000000	71.109576
2161.000000	71.147364
2160.000000	71.188201
2159.000000	71.229704
2158.000000	71.268599
2157.000000	71.301378
2156.000000	71.326242
2155.000000	71.343343
2154.000000	71.353475
2153.000000	71.358095
2152.000000	71.360347
2151.000000	71.364162
2150.000000	71.372109
2149.000000	71.385101
2148.000000	71.403843
2147.000000	71.428745
2146.000000	71.458750
2145.000000	71.491853
2144.000000	71.526739
2143.000000	71.562298
2142.000000	71.596203
2141.000000	71.625866
2140.000000	71.650703
2139.000000	71.671776
2138.000000	71.689506
2137.000000	71.703799
2136.000000	71.716200
2135.000000	71.729770
2134.000000	71.746436
2133.000000	71.766236
2132.000000	71.788967
2131.000000	71.814839
2130.000000	71.843465
2129.000000	71.874036
2128.000000	71.906653
2127.000000	71.941808
2126.000000	71.978433
2125.000000	72.013967
2124.000000	72.046412
2123.000000	72.074734
2122.000000	72.097805
2121.000000	72.115031
2120.000000	72.127824
2119.000000	72.138471
2118.000000	72.147767
2117.000000	72.155711
2116.000000	72.164351
2115.000000	72.177755
2114.000000	72.198890
2113.000000	72.228221
2112.000000	72.265039
2111.000000	72.307961
2110.000000	72.353970
2109.000000	72.399031
2108.000000	72.439997
2107.000000	72.474463
2106.000000	72.499347
2105.000000	72.511925
2104.000000	72.512484
2103.000000	72.504324
2102.000000	72.491227
2101.000000	72.476955
2100.000000	72.466561
2099.000000	72.465108
2098.000000	72.474684
2097.000000	72.493916
2096.000000	72.520428
2095.000000	72.551530
2094.000000	72.582678
2093.000000	72.607945
2092.000000	72.622855
2091.000000	72.625504
2090.000000	72.615334
2089.000000	72.593118
2088.000000	72.562435
2087.000000	72.529125
2086.000000	72.499044
2085.000000	72.477659
2084.000000	72.470702
2083.000000	72.482346
2082.000000	72.512318
2081.000000	72.556069
2080.000000	72.607804
2079.000000	72.661969
2078.000000	72.712701
2077.000000	72.754433
2076.000000	72.784386
2075.000000	72.802908
2074.000000	72.811445
2073.000000	72.812553
2072.000000	72.810842
2071.000000	72.812187
2070.000000	72.821512
2069.000000	72.842219
2068.000000	72.876701
2067.000000	72.925333
2066.000000	72.985149
2065.000000	73.051093
2064.000000	73.118677
2063.000000	73.183944
2062.000000	73.242123
2061.000000	73.289550
2060.000000	73.326943
2059.000000	73.358169
2058.000000	73.386125
2057.000000	73.412248
2056.000000	73.439023
2055.000000	73.469919
2054.000000	73.506664
2053.000000	73.549249
2052.000000	73.597775
2051.000000	73.651793
2050.000000	73.708273
2049.000000	73.763141
2048.000000	73.814890
2047.000000	73.864616
2046.000000	73.912620
2045.000000	73.957651
2044.000000	73.999500
2043.000000	74.039517
2042.000000	74.078497
2041.000000	74.116484
2040.000000	74.154525
2039.000000	74.193840
2038.000000	74.233523
2037.000000	74.271882
2036.000000	74.309767
2035.000000	74.349911
2034.000000	74.393663
2033.000000	74.441285
2032.000000	74.494566
2031.000000	74.555613
2030.000000	74.623096
2029.000000	74.693003
2028.000000	74.762264
2027.000000	74.829191
2026.000000	74.890182
2025.000000	74.941089
2024.000000	74.981070
2023.000000	75.012857
2022.000000	75.039479
2021.000000	75.063294
2020.000000	75.088008
2019.000000	75.118237
2018.000000	75.157214
2017.000000	75.207340
2016.000000	75.271980
2015.000000	75.352411
2014.000000	75.443104
2013.000000	75.534248
2012.000000	75.618507
2011.000000	75.692168
2010.000000	75.751480
2009.000000	75.793570
2008.000000	75.820870
2007.000000	75.840634
2006.000000	75.859280
2005.000000	75.881997
2004.000000	75.915636
2003.000000	75.967094
2002.000000	76.038209
2001.000000	76.125047
2000.000000	76.223468
1999.000000	76.328171
1998.000000	76.430320
1997.000000	76.520919
1996.000000	76.595293
1995.000000	76.650662
1994.000000	76.682890
1993.000000	76.691925
1992.000000	76.689046
1991.000000	76.691694
1990.000000	76.709819
1989.000000	76.743266
1988.000000	76.791723
1987.000000	76.858106
1986.000000	76.940730
1985.000000	77.030835
1984.000000	77.119806
1983.000000	77.202673
1982.000000	77.273881
1981.000000	77.326332
1980.000000	77.358795
1979.000000	77.376506
1978.000000	77.385289
1977.000000	77.389618
1976.000000	77.396616
1975.000000	77.414935
1974.000000	77.448024
1973.000000	77.493597
1972.000000	77.549702
1971.000000	77.615200
1970.000000	77.683975
1969.000000	77.745712
1968.000000	77.794494
1967.000000	77.831883
1966.000000	77.861047
1965.000000	77.883237
1964.000000	77.900787
1963.000000	77.918669
1962.000000	77.940215
1961.000000	77.965210
1960.000000	77.994010
1959.000000	78.028985
1958.000000	78.069791
1957.000000	78.111648
1956.000000	78.150720
1955.000000	78.186768
1954.000000	78.219050
1953.000000	78.245923
1952.000000	78.268917
1951.000000	78.294401
1950.000000	78.326690
1949.000000	78.364922
1948.000000	78.409388
1947.000000	78.461966
1946.000000	78.517545
1945.000000	78.562503
1944.000000	78.586694
1943.000000	78.592830
1942.000000	78.590980
1941.000000	78.589642
1940.000000	78.592052
1939.000000	78.597472
1938.000000	78.605841
1937.000000	78.620533
1936.000000	78.646955
1935.000000	78.688841
1934.000000	78.744588
1933.000000	78.807881
1932.000000	78.870962
1931.000000	78.927920
1930.000000	78.971434
1929.000000	78.994231
1928.000000	78.998263
1927.000000	78.992063
1926.000000	78.982988
1925.000000	78.970105
1924.000000	78.955384
1923.000000	78.951934
1922.000000	78.972101
1921.000000	79.013400
1920.000000	79.061417
1919.000000	79.107524
1918.000000	79.156767
1917.000000	79.214290
1916.000000	79.273821
1915.000000	79.319411
1914.000000	79.338603
1913.000000	79.333659
1912.000000	79.316436
1911.000000	79.297033
1910.000000	79.279635
1909.000000	79.269404
1908.000000	79.276435
1907.000000	79.306442
1906.000000	79.357376
1905.000000	79.420154
1904.000000	79.486539
1903.000000	79.550447
1902.000000	79.602560
1901.000000	79.634901
1900.000000	79.648636
1899.000000	79.649336
1898.000000	79.640900
1897.000000	79.624749
1896.000000	79.606239
1895.000000	79.596098
1894.000000	79.602578
1893.000000	79.625802
1892.000000	79.658420
1891.000000	79.691724
1890.000000	79.720580
1889.000000	79.745278
1888.000000	79.770911
1887.000000	79.797351
1886.000000	79.814214
1885.000000	79.815161
1884.000000	79.807503
1883.000000	79.802423
1882.000000	79.802600
1881.000000	79.806844
1880.000000	79.818550
1879.000000	79.839317
1878.000000	79.863745
1877.000000	79.884799
1876.000000	79.900265
1875.000000	79.913631
1874.000000	79.928552
1873.000000	79.944660
1872.000000	79.958490
1871.000000	79.966554
1870.000000	79.971475
1869.000000	79.982988
1868.000000	80.008243
1867.000000	80.044420
1866.000000	80.078788
1865.000000	80.098854
1864.000000	80.104856
1863.000000	80.102812
1862.000000	80.090314
1861.000000	80.062970
1860.000000	80.028247
1859.000000	79.999127
1858.000000	79.980619
1857.000000	79.973773
1856.000000	79.984251
1855.000000	80.016234
1854.000000	80.063082
1853.000000	80.113423
1852.000000	80.164039
1851.000000	80.207876
1850.000000	80.233110
1849.000000	80.237793
1848.000000	80.229720
1847.000000	80.204193
1846.000000	80.136426
1845.000000	80.020402
1844.000000	79.905327
1843.000000	79.858685
1842.000000	79.890648
1841.000000	79.957784
1840.000000	80.026000
1839.000000	80.091430
1838.000000	80.154753
1837.000000	80.199968
1836.000000	80.214368
1835.000000	80.205385
1834.000000	80.183442
1833.000000	80.145157
1832.000000	80.082916
1831.000000	80.000894
1830.000000	79.920033
1829.000000	79.861756
1828.000000	79.834931
1827.000000	79.828189
1826.000000	79.826090
1825.000000	79.835243
1824.000000	79.870675
1823.000000	79.925894
1822.000000	79.968797
1821.000000	79.972122
1820.000000	79.935830
1819.000000	79.874124
1818.000000	79.797441
1817.000000	79.714519
1816.000000	79.644576
1815.000000	79.604306
1814.000000	79.588335
1813.000000	79.584094
1812.000000	79.588303
1811.000000	79.602643
1810.000000	79.618739
1809.000000	79.623631
1808.000000	79.618365
1807.000000	79.610187
1806.000000	79.594509
1805.000000	79.559005
1804.000000	79.503240
1803.000000	79.441543
1802.000000	79.387028
1801.000000	79.350562
1800.000000	79.338450
1799.000000	79.348721
1798.000000	79.370444
1797.000000	79.395039
1796.000000	79.422393
1795.000000	79.441481
1794.000000	79.421574
1793.000000	79.348011
1792.000000	79.252356
1791.000000	79.187323
1790.000000	79.172922
1789.000000	79.185410
1788.000000	79.192425
1787.000000	79.179352
1786.000000	79.148501
1785.000000	79.115926
1784.000000	79.105084
1783.000000	79.117212
1782.000000	79.115541
1781.000000	79.073301
1780.000000	79.001563
1779.000000	78.931489
1778.000000	78.876999
1777.000000	78.837090
1776.000000	78.822158
1775.000000	78.831914
1774.000000	78.836360
1773.000000	78.808472
1772.000000	78.755135
1771.000000	78.695788
1770.000000	78.629421
1769.000000	78.536673
1768.000000	78.429790
1767.000000	78.360435
1766.000000	78.343354
1765.000000	78.331080
1764.000000	78.274513
1763.000000	78.177149
1762.000000	78.082525
1761.000000	78.031523
1760.000000	78.031601
1759.000000	78.056004
1758.000000	78.062446
1757.000000	78.039094
1756.000000	78.021522
1755.000000	78.034641
1754.000000	78.040962
1753.000000	77.978996
1752.000000	77.844418
1751.000000	77.705410
1750.000000	77.619019
1749.000000	77.563633
1748.000000	77.507298
1747.000000	77.457992
1746.000000	77.424618
1745.000000	77.397193
1744.000000	77.369120
1743.000000	77.349824
1742.000000	77.329351
1741.000000	77.266720
1740.000000	77.151128
1739.000000	77.043235
1738.000000	76.990243
1737.000000	76.947373
1736.000000	76.826127
1735.000000	76.596218
1734.000000	76.344076
1733.000000	76.184064
1732.000000	76.124295
1731.000000	76.089201
1730.000000	76.024535
1729.000000	75.929615
1728.000000	75.831896
1727.000000	75.744274
1726.000000	75.647645
1725.000000	75.520278
1724.000000	75.366770
1723.000000	75.223939
1722.000000	75.115641
1721.000000	75.022359
1720.000000	74.910601
1719.000000	74.766550
1718.000000	74.591126
1717.000000	74.381656
1716.000000	74.161504
1715.000000	73.962571
1714.000000	73.788080
1713.000000	73.630179
1712.000000	73.485372
1711.000000	73.348706
1710.000000	73.210755
1709.000000	73.070218
1708.000000	72.930632
1707.000000	72.779222
1706.000000	72.600825
1705.000000	72.418416
1704.000000	72.281433
1703.000000	72.170734
1702.000000	71.970642
1701.000000	71.611555
1700.000000	71.251006
1699.000000	71.086609
1698.000000	71.035734
1697.000000	70.885667
1696.000000	70.572325
1695.000000	70.249829
1694.000000	70.065657
1693.000000	69.974666
1692.000000	69.879188
1691.000000	69.747284
1690.000000	69.588083
1689.000000	69.429030
1688.000000	69.301394
1687.000000	69.192233
1686.000000	69.016464
1685.000000	68.681700
1684.000000	68.226451
1683.000000	67.833724
1682.000000	67.603535
1681.000000	67.458183
1680.000000	67.324971
1679.000000	67.211033
1678.000000	67.109090
1677.000000	66.962627
1676.000000	66.735128
1675.000000	66.485871
1674.000000	66.300759
1673.000000	66.170673
1672.000000	66.013670
1671.000000	65.776283
1670.000000	65.459865
1669.000000	65.113392
1668.000000	64.823213
1667.000000	64.640240
1666.000000	64.532182
1665.000000	64.427902
1664.000000	64.282294
1663.000000	64.103785
1662.000000	63.918610
1661.000000	63.739632
1660.000000	63.562136
1659.000000	63.382212
1658.000000	63.212509
1657.000000	63.069231
1656.000000	62.940092
1655.000000	62.766177
1654.000000	62.465506
1653.000000	62.025960
1652.000000	61.669853
1651.000000	61.560991
1650.000000	61.558146
1649.000000	61.515606
1648.000000	61.384067
1647.000000	61.144686
1646.000000	60.840976
1645.000000	60.562106
1644.000000	60.348024
1643.000000	60.168430
1642.000000	59.989565
1641.000000	59.804731
1640.000000	59.638898
1639.000000	59.516673
1638.000000	59.416084
1637.000000	59.264425
1636.000000	59.006985
1635.000000	58.700201
1634.000000	58.472228
1633.000000	58.339250
1632.000000	58.231979
1631.000000	58.115144
1630.000000	57.981849
1629.000000	57.830085
1628.000000	57.670325
1627.000000	57.529726
1626.000000	57.418320
1625.000000	57.309737
1624.000000	57.175308
1623.000000	57.024439
1622.000000	56.895121
1621.000000	56.811186
1620.000000	56.761086
1619.000000	56.714938
1618.000000	56.639001
1617.000000	56.507999
1616.000000	56.345911
1615.000000	56.220855
1614.000000	56.160143
1613.000000	56.132948
1612.000000	56.112209
1611.000000	56.098027
1610.000000	56.091464
1609.000000	56.076157
1608.000000	56.038348
1607.000000	55.987267
1606.000000	55.936438
1605.000000	55.886406
1604.000000	55.834295
1603.000000	55.788602
1602.000000	55.761907
1601.000000	55.754051
1600.000000	55.761390
1599.000000	55.789006
1598.000000	55.839348
1597.000000	55.898667
1596.000000	55.947810
1595.000000	55.979647
1594.000000	55.994380
1593.000000	55.988496
1592.000000	55.960704
1591.000000	55.921607
1590.000000	55.884929
1589.000000	55.855667
1588.000000	55.835873
1587.000000	55.834806
1586.000000	55.859232
1585.000000	55.901981
1584.000000	55.952273
1583.000000	56.003315
1582.000000	56.052744
1581.000000	56.099500
1580.000000	56.144054
1579.000000	56.184015
1578.000000	56.203634
1577.000000	56.169039
1576.000000	56.063618
1575.000000	55.944958
1574.000000	55.884667
1573.000000	55.879108
1572.000000	55.886758
1571.000000	55.888739
1570.000000	55.888790
1569.000000	55.887768
1568.000000	55.892635
1567.000000	55.912948
1566.000000	55.939635
1565.000000	55.959480
1564.000000	55.979876
1563.000000	56.013786
1562.000000	56.058669
1561.000000	56.079244
1560.000000	56.079771
1559.000000	56.091913
1558.000000	56.093310
1557.000000	56.144777
1556.000000	56.250349
1555.000000	56.348206
1554.000000	56.446626
1553.000000	56.555253
1552.000000	56.665074
1551.000000	56.766804
1550.000000	56.878918
1549.000000	57.010163
1548.000000	57.150205
1547.000000	57.287560
1546.000000	57.432524
1545.000000	57.610808
1544.000000	57.824277
1543.000000	58.053806
1542.000000	58.291882
1541.000000	58.528004
1540.000000	58.701255
1539.000000	58.790477
1538.000000	58.888288
1537.000000	59.026163
1536.000000	59.168584
1535.000000	59.321786
1534.000000	59.516820
1533.000000	59.757775
1532.000000	60.013491
1531.000000	60.274855
1530.000000	60.542696
1529.000000	60.806783
1528.000000	61.061057
1527.000000	61.312235
1526.000000	61.573024
1525.000000	61.844961
1524.000000	62.113580
1523.000000	62.374286
1522.000000	62.643155
1521.000000	62.921652
1520.000000	63.207044
1519.000000	63.510987
1518.000000	63.840103
1517.000000	64.185423
1516.000000	64.522259
1515.000000	64.843262
1514.000000	65.153679
1513.000000	65.447906
1512.000000	65.729823
1511.000000	66.014364
1510.000000	66.307507
1509.000000	66.601909
1508.000000	66.916580
1507.000000	67.252384
1506.000000	67.553856
1505.000000	67.855216
1504.000000	68.183957
1503.000000	68.506627
1502.000000	68.829606
1501.000000	69.154987
1500.000000	69.476628
1499.000000	69.793347
1498.000000	70.103453
1497.000000	70.382614
1496.000000	70.616377
1495.000000	70.837608
1494.000000	71.063988
1493.000000	71.269428
1492.000000	71.444148
1491.000000	71.633413
1490.000000	71.876731
1489.000000	72.139696
1488.000000	72.379846
1487.000000	72.607857
1486.000000	72.834727
1485.000000	73.043063
1484.000000	73.221191
1483.000000	73.373790
1482.000000	73.506995
1481.000000	73.612249
1480.000000	73.684055
1479.000000	73.729719
1478.000000	73.751828
1477.000000	73.749857
1476.000000	73.737992
1475.000000	73.731456
1474.000000	73.705463
1473.000000	73.612953
1472.000000	73.462922
1471.000000	73.332718
1470.000000	73.242671
1469.000000	73.126983
1468.000000	72.937247
1467.000000	72.665646
1466.000000	72.288537
1465.000000	71.782118
1464.000000	71.209996
1463.000000	70.687897
1462.000000	70.237507
1461.000000	69.792558
1460.000000	69.304627
1459.000000	68.741354
1458.000000	68.010776
1457.000000	67.055510
1456.000000	66.103129
1455.000000	65.387134
1454.000000	64.783656
1453.000000	64.084386
1452.000000	63.249828
1451.000000	62.346315
1450.000000	61.380441
1449.000000	60.272587
1448.000000	59.023377
1447.000000	57.751133
1446.000000	56.518521
1445.000000	55.276348
1444.000000	53.976159
1443.000000	52.616486
1442.000000	51.196726
1441.000000	49.728571
1440.000000	48.255552
1439.000000	46.739959
1438.000000	44.969563
1437.000000	42.782816
1436.000000	40.473874
1435.000000	38.517606
1434.000000	36.940972
1433.000000	35.498051
1432.000000	34.113221
1431.000000	32.880251
1430.000000	31.863081
1429.000000	31.081407
1428.000000	30.623957
1427.000000	30.556705
1426.000000	30.815937
1425.000000	31.328885
1424.000000	32.097896
1423.000000	33.072902
1422.000000	34.115562
1421.000000	35.179916
1420.000000	36.389249
1419.000000	37.795096
1418.000000	39.186619
1417.000000	40.386540
1416.000000	41.467158
1415.000000	42.537667
1414.000000	43.599215
1413.000000	44.626828
1412.000000	45.650614
1411.000000	46.700876
1410.000000	47.747395
1409.000000	48.756431
1408.000000	49.750160
1407.000000	50.766313
1406.000000	51.807128
1405.000000	52.860184
1404.000000	53.911996
1403.000000	54.926362
1402.000000	55.870440
1401.000000	56.771191
1400.000000	57.698981
1399.000000	58.664053
1398.000000	59.596258
1397.000000	60.464020
1396.000000	61.324862
1395.000000	62.232179
1394.000000	63.164629
1393.000000	64.079684
1392.000000	64.964930
1391.000000	65.817613
1390.000000	66.639207
1389.000000	67.454622
1388.000000	68.292408
1387.000000	69.129439
1386.000000	69.899879
1385.000000	70.571217
1384.000000	71.153164
1383.000000	71.653523
1382.000000	72.068816
1381.000000	72.393963
1380.000000	72.622678
1379.000000	72.741679
1378.000000	72.739726
1377.000000	72.607391
1376.000000	72.311569
1375.000000	71.798030
1374.000000	71.050760
1373.000000	70.135846
1372.000000	69.146014
1371.000000	68.132761
1370.000000	67.140318
1369.000000	66.267853
1368.000000	65.645969
1367.000000	65.357052
1366.000000	65.405248
1365.000000	65.755705
1364.000000	66.372009
1363.000000	67.201876
1362.000000	68.153405
1361.000000	69.127400
1360.000000	70.057093
1359.000000	70.901271
1358.000000	71.629636
1357.000000	72.217648
1356.000000	72.636825
1355.000000	72.852694
1354.000000	72.839295
1353.000000	72.584953
1352.000000	72.084879
1351.000000	71.332366
1350.000000	70.324853
1349.000000	69.079859
1348.000000	67.626403
1347.000000	65.993949
1346.000000	64.211982
1345.000000	62.316464
1344.000000	60.355092
1343.000000	58.368500
1342.000000	56.368547
1341.000000	54.353212
1340.000000	52.359720
1339.000000	50.492298
1338.000000	48.867369
1337.000000	47.533474
1336.000000	46.465329
1335.000000	45.602559
1334.000000	44.862955
1333.000000	44.149869
1332.000000	43.376235
1331.000000	42.480571
1330.000000	41.419516
1329.000000	40.161421
1328.000000	38.700487
1327.000000	37.068714
1326.000000	35.322275
1325.000000	33.527686
1324.000000	31.771242
1323.000000	30.154822
1322.000000	28.753256
1321.000000	27.585942
1320.000000	26.638599
1319.000000	25.883149
1318.000000	25.272430
1317.000000	24.749083
1316.000000	24.279371
1315.000000	23.865161
1314.000000	23.511672
1313.000000	23.213635
1312.000000	22.975390
1311.000000	22.811351
1310.000000	22.725338
1309.000000	22.712303
1308.000000	22.788754
1307.000000	22.992672
1306.000000	23.344494
1305.000000	23.837532
1304.000000	24.460597
1303.000000	25.202212
1302.000000	26.031916
1301.000000	26.903058
1300.000000	27.783868
1299.000000	28.662805
1298.000000	29.527542
1297.000000	30.362952
1296.000000	31.166858
1295.000000	31.946486
1294.000000	32.698666
1293.000000	33.410330
1292.000000	34.075232
1291.000000	34.694501
1290.000000	35.258867
1289.000000	35.748854
1288.000000	36.151889
1287.000000	36.463679
1286.000000	36.680051
1285.000000	36.801719
1284.000000	36.851450
1283.000000	36.874661
1282.000000	36.918534
1281.000000	37.019875
1280.000000	37.207282
1279.000000	37.495230
1278.000000	37.872253
1277.000000	38.309810
1276.000000	38.783901
1275.000000	39.280132
1274.000000	39.783567
1273.000000	40.278528
1272.000000	40.758927
1271.000000	41.225583
1270.000000	41.674406
1269.000000	42.098141
1268.000000	42.497644
1267.000000	42.880307
1266.000000	43.249617
1265.000000	43.605715
1264.000000	43.954211
1263.000000	44.305310
1262.000000	44.663687
1261.000000	45.027965
1260.000000	45.397863
1259.000000	45.772738
1258.000000	46.145601
1257.000000	46.505988
1256.000000	46.847634
1255.000000	47.167257
1254.000000	47.459450
1253.000000	47.720874
1252.000000	47.957220
1251.000000	48.180911
1250.000000	48.403790
1249.000000	48.635994
1248.000000	48.888353
1247.000000	49.168653
1246.000000	49.475949
1245.000000	49.802653
1244.000000	50.139904
1243.000000	50.476746
1242.000000	50.797722
1241.000000	51.087738
1240.000000	51.338951
1239.000000	51.550551
1238.000000	51.726156
1237.000000	51.874885
1236.000000	52.012838
1235.000000	52.159280
1234.000000	52.330009
1233.000000	52.535021
1232.000000	52.778838
1231.000000	53.058323
1230.000000	53.361044
1229.000000	53.669411
1228.000000	53.966301
1227.000000	54.236898
1226.000000	54.469992
1225.000000	54.661621
1224.000000	54.816270
1223.000000	54.944347
1222.000000	55.059691
1221.000000	55.178632
1220.000000	55.317886
1219.000000	55.489751
1218.000000	55.698976
1217.000000	55.943386
1216.000000	56.214511
1215.000000	56.497079
1214.000000	56.772244
1213.000000	57.024200
1212.000000	57.243734
1211.000000	57.427799
1210.000000	57.579848
1209.000000	57.709994
1208.000000	57.831935
1207.000000	57.958672
1206.000000	58.100669
1205.000000	58.266003
1204.000000	58.458344
1203.000000	58.674097
1202.000000	58.903544
1201.000000	59.135054
1200.000000	59.357439
1199.000000	59.560854
1198.000000	59.739656
1197.000000	59.894682
1196.000000	60.030279
1195.000000	60.150876
1194.000000	60.260269
1193.000000	60.360607
1192.000000	60.449738
1191.000000	60.519301
1190.000000	60.559592
1189.000000	60.565235
1188.000000	60.536529
1187.000000	60.480753
1186.000000	60.413640
1185.000000	60.356783
1184.000000	60.329941
1183.000000	60.345794
1182.000000	60.410643
1181.000000	60.527948
1180.000000	60.697095
1179.000000	60.910568
1178.000000	61.156316
1177.000000	61.419851
1176.000000	61.683771
1175.000000	61.928281
1174.000000	62.136966
1173.000000	62.302394
1172.000000	62.425686
1171.000000	62.514579
1170.000000	62.584431
1169.000000	62.656920
1168.000000	62.752830
1167.000000	62.886226
1166.000000	63.064385
1165.000000	63.287672
1164.000000	63.545995
1163.000000	63.818831
1162.000000	64.082473
1161.000000	64.316703
1160.000000	64.505700
1159.000000	64.640143
1158.000000	64.722626
1157.000000	64.768450
1156.000000	64.798422
1155.000000	64.833562
1154.000000	64.895587
1153.000000	65.003738
1152.000000	65.166372
1151.000000	65.377887
1150.000000	65.624500
1149.000000	65.888379
1148.000000	66.146016
1147.000000	66.370785
1146.000000	66.543444
1145.000000	66.658230
1144.000000	66.719527
1143.000000	66.738758
1142.000000	66.736674
1141.000000	66.740337
1140.000000	66.772034
1139.000000	66.843957
1138.000000	66.961855
1137.000000	67.125796
1136.000000	67.324400
1135.000000	67.535242
1134.000000	67.735443
1133.000000	67.909183
1132.000000	68.045494
1131.000000	68.137796
1130.000000	68.190018
1129.000000	68.217548
1128.000000	68.238328
1127.000000	68.267174
1126.000000	68.318190
1125.000000	68.403216
1124.000000	68.524136
1123.000000	68.671452
1122.000000	68.832191
1121.000000	68.994070
1120.000000	69.142575
1119.000000	69.263524
1118.000000	69.353234
1117.000000	69.420756
1116.000000	69.478523
1115.000000	69.537170
1114.000000	69.609138
1113.000000	69.707153
1112.000000	69.834556
1111.000000	69.982870
1110.000000	70.140142
1109.000000	70.295336
1108.000000	70.434324
1107.000000	70.541801
1106.000000	70.612349
1105.000000	70.653289
1104.000000	70.676114
1103.000000	70.692859
1102.000000	70.720752
1101.000000	70.778983
1100.000000	70.877470
1099.000000	71.013113
1098.000000	71.177087
1097.000000	71.357564
1096.000000	71.533724
1095.000000	71.678868
1094.000000	71.774539
1093.000000	71.816536
1092.000000	71.807659
1091.000000	71.757020
1090.000000	71.687053
1089.000000	71.629597
1088.000000	71.610876
1087.000000	71.645837
1086.000000	71.743457
1085.000000	71.905290
1084.000000	72.115518
1083.000000	72.341729
1082.000000	72.550212
1081.000000	72.714833
1080.000000	72.813745
1079.000000	72.832910
1078.000000	72.779355
1077.000000	72.680057
1076.000000	72.566201
1075.000000	72.465739
1074.000000	72.407265
1073.000000	72.415736
1072.000000	72.498586
1071.000000	72.642578
1070.000000	72.825269
1069.000000	73.021388
1068.000000	73.198352
1067.000000	73.320430
1066.000000	73.365678
1065.000000	73.333142
1064.000000	73.234039
1063.000000	73.089031
1062.000000	72.933640
1061.000000	72.811779
1060.000000	72.756782
1059.000000	72.783471
1058.000000	72.894490
1057.000000	73.083069
1056.000000	73.326808
1055.000000	73.589757
1054.000000	73.838940
1053.000000	74.052110
1052.000000	74.212066
1051.000000	74.308302
1050.000000	74.349730
1049.000000	74.363577
1048.000000	74.377243
1047.000000	74.408998
1046.000000	74.473887
1045.000000	74.583699
1044.000000	74.736146
1043.000000	74.914010
1042.000000	75.098216
1041.000000	75.274107
1040.000000	75.425412
1039.000000	75.536420
1038.000000	75.605367
1037.000000	75.646384
1036.000000	75.676280
1035.000000	75.709410
1034.000000	75.763875
1033.000000	75.857755
1032.000000	75.994278
1031.000000	76.159538
1030.000000	76.336098
1029.000000	76.508551
1028.000000	76.656802
1027.000000	76.759463
1026.000000	76.809916
1025.000000	76.819974
1024.000000	76.806876
1023.000000	76.788446
1022.000000	76.790095
1021.000000	76.840145
1020.000000	76.952098
1019.000000	77.119856
1018.000000	77.329487
1017.000000	77.563188
1016.000000	77.791208
1015.000000	77.976011
1014.000000	78.091895
1013.000000	78.133473
1012.000000	78.106692
1011.000000	78.026064
1010.000000	77.923000
1009.000000	77.840945
1008.000000	77.815700
1007.000000	77.866706
1006.000000	78.003757
1005.000000	78.225254
1004.000000	78.506886
1003.000000	78.804720
1002.000000	79.074548
1001.000000	79.282354
1000.000000	79.401049
999.000000	79.415805
998.000000	79.338519
997.000000	79.206088
996.000000	79.060306
995.000000	78.938510
994.000000	78.878556
993.000000	78.913301
992.000000	79.052528
991.000000	79.279253
990.000000	79.563565
989.000000	79.869970
988.000000	80.153454
987.000000	80.366415
986.000000	80.480011
985.000000	80.492920
984.000000	80.420619
983.000000	80.289372
982.000000	80.141628
981.000000	80.028134
980.000000	79.986167
979.000000	80.031100
978.000000	80.165155
977.000000	80.378343
976.000000	80.639602
975.000000	80.902480
974.000000	81.126837
973.000000	81.288695
972.000000	81.372494
971.000000	81.372140
970.000000	81.304274
969.000000	81.206370
968.000000	81.115736
967.000000	81.059536
966.000000	81.060782
965.000000	81.135355
964.000000	81.277439
963.000000	81.459363
962.000000	81.649320
961.000000	81.820982
960.000000	81.948771
959.000000	82.012233
958.000000	82.011960
957.000000	81.970166
956.000000	81.913139
955.000000	81.863888
954.000000	81.849046
953.000000	81.893487
952.000000	82.001801
951.000000	82.155526
950.000000	82.329675
949.000000	82.499868
948.000000	82.635266
947.000000	82.704706
946.000000	82.698083
945.000000	82.630391
944.000000	82.525305
943.000000	82.408754
942.000000	82.316665
941.000000	82.288582
940.000000	82.345899
939.000000	82.484298
938.000000	82.685733
937.000000	82.923557
936.000000	83.155806
935.000000	83.332532
934.000000	83.419399
933.000000	83.406394
932.000000	83.296405
931.000000	83.105063
930.000000	82.872409
929.000000	82.656620
928.000000	82.508367
927.000000	82.458177
926.000000	82.522120
925.000000	82.699368
924.000000	82.958335
923.000000	83.240760
922.000000	83.487669
921.000000	83.653942
920.000000	83.703097
919.000000	83.612468
918.000000	83.392117
917.000000	83.083406
916.000000	82.737960
915.000000	82.406963
914.000000	82.144347
913.000000	81.996413
912.000000	81.978776
911.000000	82.071820
910.000000	82.237602
909.000000	82.428892
908.000000	82.585170
907.000000	82.642886
906.000000	82.562422
905.000000	82.337081
904.000000	81.979458
903.000000	81.518400
902.000000	81.005516
901.000000	80.505075
900.000000	80.066905
899.000000	79.714317
898.000000	79.453902
897.000000	79.277164
896.000000	79.150934
895.000000	79.022542
894.000000	78.841446
893.000000	78.570506
892.000000	78.180414
891.000000	77.655303
890.000000	77.007769
889.000000	76.273264
888.000000	75.490434
887.000000	74.692107
886.000000	73.910029
885.000000	73.168726
884.000000	72.469401
883.000000	71.792000
882.000000	71.110802
881.000000	70.401065
880.000000	69.635398
879.000000	68.789309
878.000000	67.856556
877.000000	66.849847
876.000000	65.788830
875.000000	64.695788
874.000000	63.597933
873.000000	62.522818
872.000000	61.488085
871.000000	60.499454
870.000000	59.554840
869.000000	58.645886
868.000000	57.758392
867.000000	56.879857
866.000000	56.008223
865.000000	55.150064
864.000000	54.315991
863.000000	53.518412
862.000000	52.771225
861.000000	52.086462
860.000000	51.468300
859.000000	50.913875
858.000000	50.414459
857.000000	49.955985
856.000000	49.521886
855.000000	49.096395
854.000000	48.669992
853.000000	48.241438
852.000000	47.818950
851.000000	47.422176
850.000000	47.077031
849.000000	46.809201
848.000000	46.638204
847.000000	46.574503
846.000000	46.620276
845.000000	46.766538
844.000000	46.995729
843.000000	47.286328
842.000000	47.616344
841.000000	47.967827
840.000000	48.328283
839.000000	48.696884
838.000000	49.085990
837.000000	49.515237
836.000000	50.005747
835.000000	50.578184
834.000000	51.245216
833.000000	51.990675
832.000000	52.746094
831.000000	53.357162
830.000000	53.555102
829.000000	52.972080
828.000000	51.301299
827.000000	48.588675
826.000000	45.390599
825.000000	42.564060
824.000000	40.799412
823.000000	40.297875
822.000000	40.832924
821.000000	42.036619
820.000000	43.585303
819.000000	45.228333
818.000000	46.794928
817.000000	48.210993
816.000000	49.484716
815.000000	50.640095
814.000000	51.680710
813.000000	52.605109
812.000000	53.419657
811.000000	54.129280
810.000000	54.740263
809.000000	55.278354
808.000000	55.782659
807.000000	56.284384
806.000000	56.800769
805.000000	57.345872
804.000000	57.926106
803.000000	58.524711
802.000000	59.109662
801.000000	59.656093
800.000000	60.150923
799.000000	60.584254
798.000000	60.954757
797.000000	61.281107
796.000000	61.591881
795.000000	61.907798
794.000000	62.243659
793.000000	62.616428
792.000000	63.034879
791.000000	63.485724
790.000000	63.943293
789.000000	64.387558
788.000000	64.802278
787.000000	65.167417
786.000000	65.470960
785.000000	65.723620
784.000000	65.950127
783.000000	66.172456
782.000000	66.410935
781.000000	66.689733
780.000000	67.025368
779.000000	67.413402
778.000000	67.834668
777.000000	68.266623
776.000000	68.680174
775.000000	69.037925
774.000000	69.312406
773.000000	69.502276
772.000000	69.624502
771.000000	69.701693
770.000000	69.765398
769.000000	69.857849
768.000000	70.014429
767.000000	70.248431
766.000000	70.557259
765.000000	70.930721
764.000000	71.342543
763.000000	71.746195
762.000000	72.094526
761.000000	72.359705
760.000000	72.529443
759.000000	72.600490
758.000000	72.588741
757.000000	72.534423
756.000000	72.485040
755.000000	72.479358
754.000000	72.550585
753.000000	72.726187
752.000000	73.009657
751.000000	73.370748
750.000000	73.763714
749.000000	74.146571
748.000000	74.478825
747.000000	74.720647
746.000000	74.852455
745.000000	74.887146
744.000000	74.854612
743.000000	74.785798
742.000000	74.717653
741.000000	74.694830
740.000000	74.749942
739.000000	74.889123
738.000000	75.102583
737.000000	75.375070
736.000000	75.676774
735.000000	75.960721
734.000000	76.185461
733.000000	76.333157
732.000000	76.400161
731.000000	76.387849
730.000000	76.313897
729.000000	76.216127
728.000000	76.131276
727.000000	76.079543
726.000000	76.074655
725.000000	76.130808
724.000000	76.247592
723.000000	76.402084
722.000000	76.568140
721.000000	76.731995
720.000000	76.881986
719.000000	77.002369
718.000000	77.091145
717.000000	77.169130
716.000000	77.259654
715.000000	77.372473
714.000000	77.514054
713.000000	77.694243
712.000000	77.909879
711.000000	78.136965
710.000000	78.351230
709.000000	78.542641
708.000000	78.702435
707.000000	78.816611
706.000000	78.886278
705.000000	78.937653
704.000000	79.000116
703.000000	79.088955
702.000000	79.217074
701.000000	79.401937
700.000000	79.645076
699.000000	79.920651
698.000000	80.196174
697.000000	80.448480
696.000000	80.651594
695.000000	80.773357
694.000000	80.801260
693.000000	80.757243
692.000000	80.675692
691.000000	80.585047
690.000000	80.520172
689.000000	80.527898
688.000000	80.639405
687.000000	80.849590
686.000000	81.136374
685.000000	81.477787
684.000000	81.835151
683.000000	82.147797
682.000000	82.366822
681.000000	82.478059
680.000000	82.485065
679.000000	82.395458
678.000000	82.237103
677.000000	82.066939
676.000000	81.940373
675.000000	81.890046
674.000000	81.941052
673.000000	82.112543
672.000000	82.389976
671.000000	82.732000
670.000000	83.118550
669.000000	83.550410
668.000000	83.952769
667.000000	84.151799
666.000000	84.100544
665.000000	83.933605
664.000000	83.753980
663.000000	83.583569
662.000000	83.440983
661.000000	83.365421
660.000000	83.389484
659.000000	83.516888
658.000000	83.735081
657.000000	84.029073
656.000000	84.367172
655.000000	84.695862
654.000000	84.968813
653.000000	85.165930
652.000000	85.277658
651.000000	85.295420
650.000000	85.233748
649.000000	85.137241
648.000000	85.047884
647.000000	84.986192
646.000000	84.970143
645.000000	85.023687
644.000000	85.151559
643.000000	85.328221
642.000000	85.526514
641.000000	85.737800
640.000000	85.951263
639.000000	86.138954
638.000000	86.280430
637.000000	86.380556
636.000000	86.448175
635.000000	86.481104
634.000000	86.487800
633.000000	86.496385
632.000000	86.524459
631.000000	86.563172
630.000000	86.604121
629.000000	86.656670
628.000000	86.726187
627.000000	86.802258
626.000000	86.883372
625.000000	86.986420
624.000000	87.115564
623.000000	87.248602
622.000000	87.369100
621.000000	87.485268
620.000000	87.601691
619.000000	87.701615
618.000000	87.773282
617.000000	87.825286
616.000000	87.858904
615.000000	87.855538
614.000000	87.810107
613.000000	87.748580
612.000000	87.696467
611.000000	87.659488
610.000000	87.646789
609.000000	87.677056
608.000000	87.742247
607.000000	87.786114
606.000000	87.735735
605.000000	87.516577
604.000000	87.018046
603.000000	86.082572
602.000000	84.540479
601.000000	82.266236
600.000000	79.241914
599.000000	75.653723
598.000000	71.940546
597.000000	68.680786
596.000000	66.386322
595.000000	65.340850
594.000000	65.536743
593.000000	66.720160
592.000000	68.527069
591.000000	70.588957
590.000000	72.609685
589.000000	74.431239
588.000000	76.004543
587.000000	77.321801
586.000000	78.395847
585.000000	79.270438
584.000000	79.997991
583.000000	80.617962
582.000000	81.173360
581.000000	81.720665
580.000000	82.295125
579.000000	82.883799
578.000000	83.464133
577.000000	84.034852
576.000000	84.583072
575.000000	85.060414
574.000000	85.429085
573.000000	85.701747
572.000000	85.901813
571.000000	86.026474
570.000000	86.079543
569.000000	86.099808
568.000000	86.127853
567.000000	86.177829
566.000000	86.263952
565.000000	86.416066
564.000000	86.640489
563.000000	86.899281
562.000000	87.154492
561.000000	87.402194
560.000000	87.639677
559.000000	87.839834
558.000000	87.988435
557.000000	88.105375
556.000000	88.200482
555.000000	88.251623
554.000000	88.255135
553.000000	88.251543
552.000000	88.271962
551.000000	88.302694
550.000000	88.331552
549.000000	88.382847
548.000000	88.476454
547.000000	88.596940
546.000000	88.733001
545.000000	88.902123
544.000000	89.105836
543.000000	89.306423
542.000000	89.476641
541.000000	89.629359
540.000000	89.768987
539.000000	89.861586
538.000000	89.883549
537.000000	89.855017
536.000000	89.795452
535.000000	89.698782
534.000000	89.582409
533.000000	89.506180
532.000000	89.510841
531.000000	89.582451
530.000000	89.702952
529.000000	89.885724
528.000000	90.133192
527.000000	90.401881
526.000000	90.640056
525.000000	90.822062
524.000000	90.915548
523.000000	90.863931
522.000000	90.645606
521.000000	90.302321
520.000000	89.879416
519.000000	89.388528
518.000000	88.862600
517.000000	88.395538
516.000000	88.078396
515.000000	87.940146
514.000000	87.978634
513.000000	88.190048
512.000000	88.524581
511.000000	88.864274
510.000000	89.091910
509.000000	89.144674
508.000000	88.969581
507.000000	88.501769
506.000000	87.736486
505.000000	86.753314
504.000000	85.638032
503.000000	84.470729
502.000000	83.416483
501.000000	82.703783
500.000000	82.457752
499.000000	82.634435
498.000000	83.126598
497.000000	83.827774
496.000000	84.598529
495.000000	85.266950
494.000000	85.711634
493.000000	85.916424
492.000000	85.921113
491.000000	85.776344
490.000000	85.567185
489.000000	85.414842
488.000000	85.408666
487.000000	85.574866
486.000000	85.925328
485.000000	86.480564
484.000000	87.207570
483.000000	87.996745
482.000000	88.746834
481.000000	89.418541
480.000000	89.971945
479.000000	90.326704
478.000000	90.437497
477.000000	90.355998
476.000000	90.167430
475.000000	89.919790
474.000000	89.672456
473.000000	89.534603
472.000000	89.579190
471.000000	89.779087
470.000000	90.090050
469.000000	90.522494
468.000000	91.065056
467.000000	91.605144
466.000000	92.010398
465.000000	92.232520
464.000000	92.258059
463.000000	92.052059
462.000000	91.641867
461.000000	91.161514
460.000000	90.724013
459.000000	90.351336
458.000000	90.077434
457.000000	90.001711
456.000000	90.151152
455.000000	90.412892
454.000000	90.691465
453.000000	90.996802
452.000000	91.313690
451.000000	91.509670
450.000000	91.471634
449.000000	91.223214
448.000000	90.821969
447.000000	90.254263
446.000000	89.517052
445.000000	88.685506
444.000000	87.813102
443.000000	86.855038
442.000000	85.770273
441.000000	84.613796
440.000000	83.433758
439.000000	82.196599
438.000000	80.909802
437.000000	79.743484
436.000000	78.923422
435.000000	78.538790
434.000000	78.531331
433.000000	78.828260
432.000000	79.378497
431.000000	80.076775
430.000000	80.811722
429.000000	81.583962
428.000000	82.431411
427.000000	83.292547
426.000000	84.086576
425.000000	84.873473
424.000000	85.750162
423.000000	86.643597
422.000000	87.416765
421.000000	88.113240
420.000000	88.883608
419.000000	89.665980
418.000000	90.233091
417.000000	90.613744
416.000000	90.900745
415.000000	90.983888
414.000000	90.807122
413.000000	90.563658
412.000000	90.451195
411.000000	90.436995
410.000000	90.471433
409.000000	90.704866
408.000000	91.232702
407.000000	91.854944
406.000000	92.335036
405.000000	92.720925
404.000000	93.068263
403.000000	93.223850
402.000000	93.013415
401.000000	92.604168
400.000000	92.200399
