PE IR       SUBTECH     SPECTRUM    ASCII       PEDS        4.00        
   -1
23ms095_nitrito.asc
24/09/05
16:26:04.00
24/09/05
16:26:04.00
Administrator
Sample 1108 By Administrator Date Thursday, September 05 2024
400.000000
#HDR
-1
-1
#GR
cm-1
%T
1.0
0.0
4000.000000
-1.000000
3601
8
67.208715
2.179259
#DATA
4000.000000	47.349538
3999.000000	47.402209
3998.000000	47.453797
3997.000000	47.504345
3996.000000	47.554391
3995.000000	47.604685
3994.000000	47.655804
3993.000000	47.708061
3992.000000	47.761606
3991.000000	47.816340
3990.000000	47.871660
3989.000000	47.926590
3988.000000	47.980576
3987.000000	48.034052
3986.000000	48.087926
3985.000000	48.142391
3984.000000	48.196438
3983.000000	48.248547
3982.000000	48.297719
3981.000000	48.344059
3980.000000	48.388836
3979.000000	48.434108
3978.000000	48.481939
3977.000000	48.533297
3976.000000	48.587355
3975.000000	48.642083
3974.000000	48.695784
3973.000000	48.748282
3972.000000	48.800483
3971.000000	48.853035
3970.000000	48.905452
3969.000000	48.956272
3968.000000	49.003999
3967.000000	49.048236
3966.000000	49.090190
3965.000000	49.132183
3964.000000	49.176503
3963.000000	49.223995
3962.000000	49.273626
3961.000000	49.323565
3960.000000	49.372818
3959.000000	49.422069
3958.000000	49.472699
3957.000000	49.524938
3956.000000	49.577274
3955.000000	49.627740
3954.000000	49.675554
3953.000000	49.721409
3952.000000	49.766891
3951.000000	49.813718
3950.000000	49.862620
3949.000000	49.912226
3948.000000	49.959874
3947.000000	50.004514
3946.000000	50.048660
3945.000000	50.097180
3944.000000	50.153574
3943.000000	50.216210
3942.000000	50.278687
3941.000000	50.335242
3940.000000	50.385431
3939.000000	50.433188
3938.000000	50.481876
3937.000000	50.531289
3936.000000	50.580128
3935.000000	50.629700
3934.000000	50.683637
3933.000000	50.743003
3932.000000	50.803296
3931.000000	50.857917
3930.000000	50.904385
3929.000000	50.946862
3928.000000	50.992750
3927.000000	51.047044
3926.000000	51.109250
3925.000000	51.174345
3924.000000	51.236052
3923.000000	51.290510
3922.000000	51.338629
3921.000000	51.385735
3920.000000	51.437288
3919.000000	51.494164
3918.000000	51.552283
3917.000000	51.606712
3916.000000	51.655398
3915.000000	51.699566
3914.000000	51.742439
3913.000000	51.788542
3912.000000	51.840626
3911.000000	51.897204
3910.000000	51.954160
3909.000000	52.009071
3908.000000	52.063744
3907.000000	52.121793
3906.000000	52.184981
3905.000000	52.251264
3904.000000	52.316544
3903.000000	52.377764
3902.000000	52.434531
3901.000000	52.488194
3900.000000	52.540187
3899.000000	52.589843
3898.000000	52.634974
3897.000000	52.675774
3896.000000	52.716994
3895.000000	52.766078
3894.000000	52.827182
3893.000000	52.897050
3892.000000	52.966071
3891.000000	53.025656
3890.000000	53.074653
3889.000000	53.117512
3888.000000	53.162863
3887.000000	53.219862
3886.000000	53.287287
3885.000000	53.352756
3884.000000	53.406405
3883.000000	53.451010
3882.000000	53.499899
3881.000000	53.560748
3880.000000	53.625501
3879.000000	53.682080
3878.000000	53.728483
3877.000000	53.773267
3876.000000	53.825969
3875.000000	53.886661
3874.000000	53.948078
3873.000000	54.004840
3872.000000	54.058264
3871.000000	54.114083
3870.000000	54.174006
3869.000000	54.233422
3868.000000	54.286116
3867.000000	54.332093
3866.000000	54.382023
3865.000000	54.444799
3864.000000	54.513834
3863.000000	54.576582
3862.000000	54.629699
3861.000000	54.679733
3860.000000	54.730806
3859.000000	54.780061
3858.000000	54.824624
3857.000000	54.867954
3856.000000	54.920431
3855.000000	54.990584
3854.000000	55.071520
3853.000000	55.148229
3852.000000	55.214983
3851.000000	55.270780
3850.000000	55.319583
3849.000000	55.371691
3848.000000	55.430974
3847.000000	55.493749
3846.000000	55.556497
3845.000000	55.619187
3844.000000	55.681786
3843.000000	55.744099
3842.000000	55.806468
3841.000000	55.869382
3840.000000	55.933231
3839.000000	55.998504
3838.000000	56.064570
3837.000000	56.129326
3836.000000	56.191207
3835.000000	56.250137
3834.000000	56.307312
3833.000000	56.363619
3832.000000	56.419295
3831.000000	56.475569
3830.000000	56.534161
3829.000000	56.595447
3828.000000	56.657622
3827.000000	56.718698
3826.000000	56.778538
3825.000000	56.838590
3824.000000	56.900961
3823.000000	56.969133
3822.000000	57.042405
3821.000000	57.113811
3820.000000	57.180434
3819.000000	57.241864
3818.000000	57.299989
3817.000000	57.360874
3816.000000	57.425616
3815.000000	57.490781
3814.000000	57.552147
3813.000000	57.607604
3812.000000	57.662489
3811.000000	57.723652
3810.000000	57.790353
3809.000000	57.855967
3808.000000	57.915965
3807.000000	57.973717
3806.000000	58.036457
3805.000000	58.104882
3804.000000	58.173911
3803.000000	58.243475
3802.000000	58.313585
3801.000000	58.382559
3800.000000	58.452253
3799.000000	58.521565
3798.000000	58.590202
3797.000000	58.659414
3796.000000	58.726510
3795.000000	58.787902
3794.000000	58.844012
3793.000000	58.899061
3792.000000	58.957595
3791.000000	59.020327
3790.000000	59.084702
3789.000000	59.149192
3788.000000	59.215263
3787.000000	59.284871
3786.000000	59.357307
3785.000000	59.430403
3784.000000	59.503596
3783.000000	59.578390
3782.000000	59.655263
3781.000000	59.732440
3780.000000	59.806405
3779.000000	59.875223
3778.000000	59.939655
3777.000000	60.000764
3776.000000	60.059911
3775.000000	60.120624
3774.000000	60.186350
3773.000000	60.256555
3772.000000	60.328198
3771.000000	60.400403
3770.000000	60.475074
3769.000000	60.553028
3768.000000	60.632254
3767.000000	60.710563
3766.000000	60.787807
3765.000000	60.863792
3764.000000	60.937289
3763.000000	61.007608
3762.000000	61.075743
3761.000000	61.144984
3760.000000	61.216632
3759.000000	61.288976
3758.000000	61.360739
3757.000000	61.432987
3756.000000	61.507174
3755.000000	61.582917
3754.000000	61.660500
3753.000000	61.741386
3752.000000	61.823783
3751.000000	61.902164
3750.000000	61.976567
3749.000000	62.054590
3748.000000	62.137722
3747.000000	62.218336
3746.000000	62.292333
3745.000000	62.361396
3744.000000	62.432640
3743.000000	62.514543
3742.000000	62.600341
3741.000000	62.682461
3740.000000	62.765191
3739.000000	62.850343
3738.000000	62.933699
3737.000000	63.014809
3736.000000	63.101176
3735.000000	63.193518
3734.000000	63.278139
3733.000000	63.343768
3732.000000	63.397319
3731.000000	63.454223
3730.000000	63.519909
3729.000000	63.589433
3728.000000	63.660067
3727.000000	63.734593
3726.000000	63.814939
3725.000000	63.897905
3724.000000	63.979580
3723.000000	64.060983
3722.000000	64.143885
3721.000000	64.226954
3720.000000	64.307674
3719.000000	64.385806
3718.000000	64.463355
3717.000000	64.542159
3716.000000	64.621216
3715.000000	64.697502
3714.000000	64.769426
3713.000000	64.838036
3712.000000	64.904933
3711.000000	64.973714
3710.000000	65.049097
3709.000000	65.131297
3708.000000	65.216978
3707.000000	65.302655
3706.000000	65.385951
3705.000000	65.463916
3704.000000	65.534117
3703.000000	65.596847
3702.000000	65.655662
3701.000000	65.716228
3700.000000	65.782674
3699.000000	65.853921
3698.000000	65.925694
3697.000000	65.995858
3696.000000	66.064983
3695.000000	66.134143
3694.000000	66.203469
3693.000000	66.274220
3692.000000	66.346987
3691.000000	66.418834
3690.000000	66.484662
3689.000000	66.543506
3688.000000	66.602258
3687.000000	66.665303
3686.000000	66.726475
3685.000000	66.777849
3684.000000	66.819738
3683.000000	66.856636
3682.000000	66.890416
3681.000000	66.920957
3680.000000	66.953120
3679.000000	66.992439
3678.000000	67.033151
3677.000000	67.060519
3676.000000	67.070357
3675.000000	67.085344
3674.000000	67.126397
3673.000000	67.177355
3672.000000	67.208715
3671.000000	67.207827
3670.000000	67.181008
3669.000000	67.148929
3668.000000	67.127891
3667.000000	67.117811
3666.000000	67.110201
3665.000000	67.095669
3664.000000	67.068754
3663.000000	67.030912
3662.000000	66.988802
3661.000000	66.948262
3660.000000	66.908662
3659.000000	66.859155
3658.000000	66.784214
3657.000000	66.679575
3656.000000	66.565911
3655.000000	66.473014
3654.000000	66.407129
3653.000000	66.347961
3652.000000	66.269609
3651.000000	66.153472
3650.000000	65.993117
3649.000000	65.802102
3648.000000	65.610613
3647.000000	65.443803
3646.000000	65.302328
3645.000000	65.167448
3644.000000	65.019889
3643.000000	64.851623
3642.000000	64.664349
3641.000000	64.462218
3640.000000	64.249264
3639.000000	64.031078
3638.000000	63.814194
3637.000000	63.599702
3636.000000	63.382063
3635.000000	63.158917
3634.000000	62.938487
3633.000000	62.729609
3632.000000	62.522904
3631.000000	62.288618
3630.000000	61.999464
3629.000000	61.668155
3628.000000	61.350495
3627.000000	61.083988
3626.000000	60.856273
3625.000000	60.640729
3624.000000	60.423027
3623.000000	60.196576
3622.000000	59.952105
3621.000000	59.680005
3620.000000	59.383440
3619.000000	59.084020
3618.000000	58.807654
3617.000000	58.563421
3616.000000	58.339180
3615.000000	58.114543
3614.000000	57.876193
3613.000000	57.626249
3612.000000	57.375695
3611.000000	57.129424
3610.000000	56.881992
3609.000000	56.629095
3608.000000	56.377827
3607.000000	56.140327
3606.000000	55.921108
3605.000000	55.715412
3604.000000	55.515880
3603.000000	55.315363
3602.000000	55.108332
3601.000000	54.895621
3600.000000	54.685413
3599.000000	54.484402
3598.000000	54.290568
3597.000000	54.097282
3596.000000	53.900808
3595.000000	53.703003
3594.000000	53.509092
3593.000000	53.325011
3592.000000	53.153715
3591.000000	52.990758
3590.000000	52.824517
3589.000000	52.645698
3588.000000	52.458356
3587.000000	52.277174
3586.000000	52.112049
3585.000000	51.960507
3584.000000	51.814734
3583.000000	51.667817
3582.000000	51.514633
3581.000000	51.353262
3580.000000	51.186369
3579.000000	51.018492
3578.000000	50.851758
3577.000000	50.686406
3576.000000	50.523103
3575.000000	50.362946
3574.000000	50.206459
3573.000000	50.055206
3572.000000	49.911948
3571.000000	49.775993
3570.000000	49.639440
3569.000000	49.492032
3568.000000	49.331160
3567.000000	49.164477
3566.000000	49.001692
3565.000000	48.847094
3564.000000	48.699646
3563.000000	48.555051
3562.000000	48.407074
3561.000000	48.251316
3560.000000	48.088479
3559.000000	47.922494
3558.000000	47.756592
3557.000000	47.592996
3556.000000	47.433673
3555.000000	47.278031
3554.000000	47.121885
3553.000000	46.962266
3552.000000	46.801805
3551.000000	46.644718
3550.000000	46.490344
3549.000000	46.334537
3548.000000	46.175596
3547.000000	46.014846
3546.000000	45.852783
3545.000000	45.689009
3544.000000	45.524982
3543.000000	45.363059
3542.000000	45.203540
3541.000000	45.045589
3540.000000	44.889816
3539.000000	44.737494
3538.000000	44.588551
3537.000000	44.442288
3536.000000	44.298877
3535.000000	44.158025
3534.000000	44.017926
3533.000000	43.877520
3532.000000	43.737739
3531.000000	43.598619
3530.000000	43.457591
3529.000000	43.313504
3528.000000	43.170250
3527.000000	43.033108
3526.000000	42.903094
3525.000000	42.777646
3524.000000	42.654486
3523.000000	42.532007
3522.000000	42.408430
3521.000000	42.283723
3520.000000	42.160373
3519.000000	42.039708
3518.000000	41.919399
3517.000000	41.796872
3516.000000	41.673011
3515.000000	41.550059
3514.000000	41.427805
3513.000000	41.304392
3512.000000	41.179215
3511.000000	41.052879
3510.000000	40.925994
3509.000000	40.800381
3508.000000	40.679305
3507.000000	40.563771
3506.000000	40.450621
3505.000000	40.336580
3504.000000	40.222094
3503.000000	40.108783
3502.000000	39.995505
3501.000000	39.879989
3500.000000	39.762254
3499.000000	39.643313
3498.000000	39.522599
3497.000000	39.399499
3496.000000	39.275713
3495.000000	39.153502
3494.000000	39.033139
3493.000000	38.914239
3492.000000	38.797655
3491.000000	38.683789
3490.000000	38.570875
3489.000000	38.457358
3488.000000	38.344204
3487.000000	38.232552
3486.000000	38.120774
3485.000000	38.006147
3484.000000	37.887839
3483.000000	37.766652
3482.000000	37.643862
3481.000000	37.521968
3480.000000	37.404044
3479.000000	37.290098
3478.000000	37.176296
3477.000000	37.059719
3476.000000	36.941749
3475.000000	36.824937
3474.000000	36.709208
3473.000000	36.593587
3472.000000	36.479186
3471.000000	36.367646
3470.000000	36.258314
3469.000000	36.149168
3468.000000	36.038953
3467.000000	35.926609
3466.000000	35.810614
3465.000000	35.691013
3464.000000	35.570496
3463.000000	35.451734
3462.000000	35.335279
3461.000000	35.221181
3460.000000	35.110139
3459.000000	35.001352
3458.000000	34.891867
3457.000000	34.779970
3456.000000	34.667153
3455.000000	34.554960
3454.000000	34.442393
3453.000000	34.328402
3452.000000	34.214402
3451.000000	34.101883
3450.000000	33.989709
3449.000000	33.876102
3448.000000	33.761408
3447.000000	33.646789
3446.000000	33.532108
3445.000000	33.417170
3444.000000	33.302990
3443.000000	33.189845
3442.000000	33.076092
3441.000000	32.960845
3440.000000	32.845710
3439.000000	32.732161
3438.000000	32.619258
3437.000000	32.505602
3436.000000	32.391269
3435.000000	32.276014
3434.000000	32.157945
3433.000000	32.036270
3432.000000	31.913229
3431.000000	31.791310
3430.000000	31.670291
3429.000000	31.548704
3428.000000	31.426213
3427.000000	31.302766
3426.000000	31.177530
3425.000000	31.050299
3424.000000	30.922078
3423.000000	30.792954
3422.000000	30.661462
3421.000000	30.527284
3420.000000	30.392178
3419.000000	30.256811
3418.000000	30.119312
3417.000000	29.978352
3416.000000	29.835252
3415.000000	29.691619
3414.000000	29.547049
3413.000000	29.400656
3412.000000	29.252395
3411.000000	29.101766
3410.000000	28.947501
3409.000000	28.789638
3408.000000	28.629623
3407.000000	28.467167
3406.000000	28.299735
3405.000000	28.126330
3404.000000	27.949261
3403.000000	27.771187
3402.000000	27.592627
3401.000000	27.412994
3400.000000	27.231246
3399.000000	27.044667
3398.000000	26.850248
3397.000000	26.648398
3396.000000	26.442447
3395.000000	26.233977
3394.000000	26.021528
3393.000000	25.804566
3392.000000	25.584952
3391.000000	25.362966
3390.000000	25.135870
3389.000000	24.901715
3388.000000	24.661565
3387.000000	24.416516
3386.000000	24.165594
3385.000000	23.908521
3384.000000	23.646973
3383.000000	23.381870
3382.000000	23.112097
3381.000000	22.837103
3380.000000	22.558086
3379.000000	22.275174
3378.000000	21.986599
3377.000000	21.691857
3376.000000	21.392514
3375.000000	21.089026
3374.000000	20.779672
3373.000000	20.463869
3372.000000	20.143766
3371.000000	19.820990
3370.000000	19.495182
3369.000000	19.166312
3368.000000	18.835401
3367.000000	18.502072
3366.000000	18.164316
3365.000000	17.821888
3364.000000	17.476821
3363.000000	17.130069
3362.000000	16.780962
3361.000000	16.430272
3360.000000	16.080269
3359.000000	15.730926
3358.000000	15.379614
3357.000000	15.025633
3356.000000	14.671280
3355.000000	14.317910
3354.000000	13.964749
3353.000000	13.612493
3352.000000	13.264278
3351.000000	12.921866
3350.000000	12.584047
3349.000000	12.249683
3348.000000	11.919129
3347.000000	11.591801
3346.000000	11.266175
3345.000000	10.942951
3344.000000	10.624859
3343.000000	10.312736
3342.000000	10.004892
3341.000000	9.701164
3340.000000	9.404047
3339.000000	9.115160
3338.000000	8.833975
3337.000000	8.560121
3336.000000	8.293933
3335.000000	8.034308
3334.000000	7.779377
3333.000000	7.529890
3332.000000	7.288229
3331.000000	7.054361
3330.000000	6.825987
3329.000000	6.602504
3328.000000	6.385901
3327.000000	6.177249
3326.000000	5.976155
3325.000000	5.783288
3324.000000	5.599616
3323.000000	5.423661
3322.000000	5.252696
3321.000000	5.086630
3320.000000	4.927618
3319.000000	4.775726
3318.000000	4.629312
3317.000000	4.488471
3316.000000	4.354634
3315.000000	4.227161
3314.000000	4.103776
3313.000000	3.984254
3312.000000	3.869853
3311.000000	3.759674
3310.000000	3.651810
3309.000000	3.547252
3308.000000	3.449261
3307.000000	3.359155
3306.000000	3.276192
3305.000000	3.200997
3304.000000	3.134284
3303.000000	3.073288
3302.000000	3.013404
3301.000000	2.953188
3300.000000	2.894379
3299.000000	2.837598
3298.000000	2.782152
3297.000000	2.729317
3296.000000	2.681321
3295.000000	2.637643
3294.000000	2.596125
3293.000000	2.557358
3292.000000	2.523996
3291.000000	2.495745
3290.000000	2.469501
3289.000000	2.443797
3288.000000	2.419489
3287.000000	2.396505
3286.000000	2.373668
3285.000000	2.351731
3284.000000	2.332562
3283.000000	2.315750
3282.000000	2.299410
3281.000000	2.283720
3280.000000	2.270201
3279.000000	2.258048
3278.000000	2.245082
3277.000000	2.231794
3276.000000	2.220579
3275.000000	2.211448
3274.000000	2.202180
3273.000000	2.192595
3272.000000	2.185036
3271.000000	2.180778
3270.000000	2.179259
3269.000000	2.180288
3268.000000	2.183694
3267.000000	2.187405
3266.000000	2.189151
3265.000000	2.189638
3264.000000	2.191129
3263.000000	2.193571
3262.000000	2.195343
3261.000000	2.196604
3260.000000	2.198598
3259.000000	2.200728
3258.000000	2.201801
3257.000000	2.203309
3256.000000	2.207798
3255.000000	2.214844
3254.000000	2.221865
3253.000000	2.228103
3252.000000	2.234384
3251.000000	2.240078
3250.000000	2.243979
3249.000000	2.247467
3248.000000	2.253234
3247.000000	2.261441
3246.000000	2.270285
3245.000000	2.279407
3244.000000	2.289565
3243.000000	2.299790
3242.000000	2.308417
3241.000000	2.316101
3240.000000	2.324701
3239.000000	2.333869
3238.000000	2.341818
3237.000000	2.348532
3236.000000	2.355302
3235.000000	2.362186
3234.000000	2.368955
3233.000000	2.377272
3232.000000	2.388660
3231.000000	2.401372
3230.000000	2.412460
3229.000000	2.421817
3228.000000	2.431085
3227.000000	2.440063
3226.000000	2.447474
3225.000000	2.454100
3224.000000	2.461635
3223.000000	2.469545
3222.000000	2.476255
3221.000000	2.482358
3220.000000	2.489406
3219.000000	2.496682
3218.000000	2.502428
3217.000000	2.507132
3216.000000	2.512383
3215.000000	2.517666
3214.000000	2.521417
3213.000000	2.524127
3212.000000	2.527189
3211.000000	2.529925
3210.000000	2.530914
3209.000000	2.530997
3208.000000	2.531850
3207.000000	2.532843
3206.000000	2.532435
3205.000000	2.531399
3204.000000	2.531389
3203.000000	2.531590
3202.000000	2.530034
3201.000000	2.527039
3200.000000	2.524204
3199.000000	2.521142
3198.000000	2.516391
3197.000000	2.510427
3196.000000	2.504707
3195.000000	2.498902
3194.000000	2.492009
3193.000000	2.484870
3192.000000	2.478682
3191.000000	2.472356
3190.000000	2.464393
3189.000000	2.455937
3188.000000	2.448935
3187.000000	2.442672
3186.000000	2.435173
3185.000000	2.426647
3184.000000	2.418453
3183.000000	2.410113
3182.000000	2.400466
3181.000000	2.390465
3180.000000	2.381760
3179.000000	2.373831
3178.000000	2.365377
3177.000000	2.357175
3176.000000	2.350593
3175.000000	2.344737
3174.000000	2.338056
3173.000000	2.331269
3172.000000	2.325823
3171.000000	2.320967
3170.000000	2.315291
3169.000000	2.309584
3168.000000	2.305253
3167.000000	2.301427
3166.000000	2.296641
3165.000000	2.291833
3164.000000	2.288702
3163.000000	2.286670
3162.000000	2.284333
3161.000000	2.282373
3160.000000	2.282095
3159.000000	2.282671
3158.000000	2.282651
3157.000000	2.282542
3156.000000	2.283196
3155.000000	2.283547
3154.000000	2.282948
3153.000000	2.283878
3152.000000	2.289003
3151.000000	2.297231
3150.000000	2.305631
3149.000000	2.313625
3148.000000	2.322235
3147.000000	2.330987
3146.000000	2.338860
3145.000000	2.346799
3144.000000	2.356086
3143.000000	2.365636
3142.000000	2.373860
3141.000000	2.381904
3140.000000	2.392175
3139.000000	2.404991
3138.000000	2.419349
3137.000000	2.435342
3136.000000	2.453034
3135.000000	2.470618
3134.000000	2.486445
3133.000000	2.501607
3132.000000	2.517951
3131.000000	2.535279
3130.000000	2.552944
3129.000000	2.572136
3128.000000	2.593890
3127.000000	2.616619
3126.000000	2.638359
3125.000000	2.659571
3124.000000	2.681188
3123.000000	2.702098
3122.000000	2.721465
3121.000000	2.741403
3120.000000	2.764313
3119.000000	2.789430
3118.000000	2.815050
3117.000000	2.842136
3116.000000	2.872478
3115.000000	2.905078
3114.000000	2.937426
3113.000000	2.968905
3112.000000	3.000080
3111.000000	3.030504
3110.000000	3.060142
3109.000000	3.091183
3108.000000	3.125438
3107.000000	3.161429
3106.000000	3.196738
3105.000000	3.231490
3104.000000	3.266842
3103.000000	3.302075
3102.000000	3.336239
3101.000000	3.370872
3100.000000	3.408088
3099.000000	3.447345
3098.000000	3.486954
3097.000000	3.527111
3096.000000	3.568569
3095.000000	3.610024
3094.000000	3.649751
3093.000000	3.688499
3092.000000	3.728181
3091.000000	3.769070
3090.000000	3.810641
3089.000000	3.853471
3088.000000	3.897820
3087.000000	3.942112
3086.000000	3.985283
3085.000000	4.028942
3084.000000	4.074757
3083.000000	4.121604
3082.000000	4.167886
3081.000000	4.214663
3080.000000	4.263874
3079.000000	4.315203
3078.000000	4.367358
3077.000000	4.420586
3076.000000	4.475198
3075.000000	4.529461
3074.000000	4.581715
3073.000000	4.632919
3072.000000	4.684609
3071.000000	4.736155
3070.000000	4.786716
3069.000000	4.838058
3068.000000	4.892522
3067.000000	4.949765
3066.000000	5.008024
3065.000000	5.067015
3064.000000	5.126926
3063.000000	5.186310
3062.000000	5.243762
3061.000000	5.300205
3060.000000	5.357062
3059.000000	5.413790
3058.000000	5.469674
3057.000000	5.526323
3056.000000	5.585593
3055.000000	5.646454
3054.000000	5.706680
3053.000000	5.766326
3052.000000	5.827086
3051.000000	5.889362
3050.000000	5.952286
3049.000000	6.015373
3048.000000	6.078043
3047.000000	6.138891
3046.000000	6.197551
3045.000000	6.255957
3044.000000	6.315974
3043.000000	6.377305
3042.000000	6.439429
3041.000000	6.503450
3040.000000	6.569773
3039.000000	6.635955
3038.000000	6.699418
3037.000000	6.760832
3036.000000	6.822684
3035.000000	6.886044
3034.000000	6.950767
3033.000000	7.017098
3032.000000	7.084728
3031.000000	7.151740
3030.000000	7.216693
3029.000000	7.280371
3028.000000	7.343864
3027.000000	7.406735
3026.000000	7.468890
3025.000000	7.532098
3024.000000	7.597451
3023.000000	7.663235
3022.000000	7.727551
3021.000000	7.791211
3020.000000	7.855791
3019.000000	7.920670
3018.000000	7.984387
3017.000000	8.047302
3016.000000	8.110616
3015.000000	8.174301
3014.000000	8.238199
3013.000000	8.303653
3012.000000	8.371779
3011.000000	8.441539
3010.000000	8.511334
3009.000000	8.581048
3008.000000	8.650760
3007.000000	8.719317
3006.000000	8.786124
3005.000000	8.852687
3004.000000	8.920476
3003.000000	8.988746
3002.000000	9.056226
3001.000000	9.123151
3000.000000	9.190012
2999.000000	9.256165
2998.000000	9.321504
2997.000000	9.387523
2996.000000	9.454859
2995.000000	9.521849
2994.000000	9.587527
2993.000000	9.653987
2992.000000	9.723479
2991.000000	9.795091
2990.000000	9.866527
2989.000000	9.937404
2988.000000	10.008444
2987.000000	10.079126
2986.000000	10.148439
2985.000000	10.216608
2984.000000	10.284043
2983.000000	10.350140
2982.000000	10.415086
2981.000000	10.481179
2980.000000	10.550177
2979.000000	10.620759
2978.000000	10.690667
2977.000000	10.759855
2976.000000	10.829596
2975.000000	10.900069
2974.000000	10.970904
2973.000000	11.042582
2972.000000	11.115197
2971.000000	11.187225
2970.000000	11.257487
2969.000000	11.327004
2968.000000	11.397012
2967.000000	11.466743
2966.000000	11.535043
2965.000000	11.602677
2964.000000	11.670996
2963.000000	11.739859
2962.000000	11.808804
2961.000000	11.878615
2960.000000	11.949753
2959.000000	12.020853
2958.000000	12.090648
2957.000000	12.159764
2956.000000	12.228840
2955.000000	12.296877
2954.000000	12.363339
2953.000000	12.429806
2952.000000	12.497395
2951.000000	12.564462
2950.000000	12.629159
2949.000000	12.692462
2948.000000	12.756561
2947.000000	12.821956
2946.000000	12.888276
2945.000000	12.956219
2944.000000	13.026335
2943.000000	13.097271
2942.000000	13.167358
2941.000000	13.236714
2940.000000	13.305884
2939.000000	13.373960
2938.000000	13.439998
2937.000000	13.504859
2936.000000	13.569651
2935.000000	13.633765
2934.000000	13.696511
2933.000000	13.759285
2932.000000	13.824049
2931.000000	13.890861
2930.000000	13.958700
2929.000000	14.027319
2928.000000	14.096459
2927.000000	14.164810
2926.000000	14.231637
2925.000000	14.297942
2924.000000	14.364355
2923.000000	14.429595
2922.000000	14.492757
2921.000000	14.555249
2920.000000	14.618568
2919.000000	14.682023
2918.000000	14.744446
2917.000000	14.806430
2916.000000	14.868923
2915.000000	14.931300
2914.000000	14.992660
2913.000000	15.053560
2912.000000	15.114728
2911.000000	15.175479
2910.000000	15.234961
2909.000000	15.293624
2908.000000	15.351989
2907.000000	15.409428
2906.000000	15.465572
2905.000000	15.521412
2904.000000	15.577590
2903.000000	15.633103
2902.000000	15.687172
2901.000000	15.740950
2900.000000	15.795932
2899.000000	15.852206
2898.000000	15.909453
2897.000000	15.967971
2896.000000	16.027250
2895.000000	16.085180
2894.000000	16.140298
2893.000000	16.193454
2892.000000	16.245863
2891.000000	16.297052
2890.000000	16.346154
2889.000000	16.393701
2888.000000	16.440606
2887.000000	16.486779
2886.000000	16.532166
2885.000000	16.577734
2884.000000	16.623995
2883.000000	16.669926
2882.000000	16.714679
2881.000000	16.758875
2880.000000	16.802858
2879.000000	16.845258
2878.000000	16.884927
2877.000000	16.922868
2876.000000	16.960696
2875.000000	16.998379
2874.000000	17.035036
2873.000000	17.070734
2872.000000	17.106157
2871.000000	17.141867
2870.000000	17.179226
2869.000000	17.220703
2868.000000	17.267731
2867.000000	17.319406
2866.000000	17.374522
2865.000000	17.433313
2864.000000	17.495988
2863.000000	17.561195
2862.000000	17.627517
2861.000000	17.694972
2860.000000	17.763613
2859.000000	17.832127
2858.000000	17.899417
2857.000000	17.966187
2856.000000	18.033518
2855.000000	18.101303
2854.000000	18.169428
2853.000000	18.238916
2852.000000	18.310399
2851.000000	18.382820
2850.000000	18.454947
2849.000000	18.526709
2848.000000	18.597821
2847.000000	18.666725
2846.000000	18.732369
2845.000000	18.795675
2844.000000	18.857956
2843.000000	18.919275
2842.000000	18.979612
2841.000000	19.040012
2840.000000	19.101045
2839.000000	19.161520
2838.000000	19.220259
2837.000000	19.278013
2836.000000	19.336228
2835.000000	19.395090
2834.000000	19.454058
2833.000000	19.513139
2832.000000	19.572258
2831.000000	19.630443
2830.000000	19.686975
2829.000000	19.742367
2828.000000	19.797099
2827.000000	19.850567
2826.000000	19.902449
2825.000000	19.953875
2824.000000	20.005981
2823.000000	20.058418
2822.000000	20.110554
2821.000000	20.163007
2820.000000	20.216638
2819.000000	20.271092
2818.000000	20.325604
2817.000000	20.380251
2816.000000	20.435183
2815.000000	20.489647
2814.000000	20.542997
2813.000000	20.595710
2812.000000	20.648271
2811.000000	20.700062
2810.000000	20.750491
2809.000000	20.800240
2808.000000	20.850309
2807.000000	20.900870
2806.000000	20.952062
2805.000000	21.004733
2804.000000	21.059169
2803.000000	21.114178
2802.000000	21.168644
2801.000000	21.222872
2800.000000	21.277271
2799.000000	21.330839
2798.000000	21.382320
2797.000000	21.431933
2796.000000	21.480680
2795.000000	21.528923
2794.000000	21.576858
2793.000000	21.625457
2792.000000	21.675540
2791.000000	21.726555
2790.000000	21.777379
2789.000000	21.827620
2788.000000	21.877249
2787.000000	21.925899
2786.000000	21.973570
2785.000000	22.021092
2784.000000	22.068863
2783.000000	22.115993
2782.000000	22.161668
2781.000000	22.206412
2780.000000	22.251061
2779.000000	22.295558
2778.000000	22.339838
2777.000000	22.384748
2776.000000	22.430838
2775.000000	22.477180
2774.000000	22.522573
2773.000000	22.567077
2772.000000	22.611210
2771.000000	22.654596
2770.000000	22.696662
2769.000000	22.737863
2768.000000	22.778980
2767.000000	22.819910
2766.000000	22.860239
2765.000000	22.900302
2764.000000	22.940593
2763.000000	22.980903
2762.000000	23.021138
2761.000000	23.062186
2760.000000	23.104851
2759.000000	23.148569
2758.000000	23.192186
2757.000000	23.235349
2756.000000	23.278188
2755.000000	23.320358
2754.000000	23.361405
2753.000000	23.401441
2752.000000	23.440571
2751.000000	23.478396
2750.000000	23.514907
2749.000000	23.551029
2748.000000	23.587405
2747.000000	23.623530
2746.000000	23.659010
2745.000000	23.694738
2744.000000	23.731749
2743.000000	23.769755
2742.000000	23.807879
2741.000000	23.846010
2740.000000	23.884284
2739.000000	23.922004
2738.000000	23.958231
2737.000000	23.992909
2736.000000	24.026418
2735.000000	24.058661
2734.000000	24.089515
2733.000000	24.119600
2732.000000	24.149695
2731.000000	24.180047
2730.000000	24.211069
2729.000000	24.243804
2728.000000	24.278587
2727.000000	24.313954
2726.000000	24.347938
2725.000000	24.379963
2724.000000	24.410523
2723.000000	24.439736
2722.000000	24.467251
2721.000000	24.493062
2720.000000	24.517490
2719.000000	24.540768
2718.000000	24.563407
2717.000000	24.586395
2716.000000	24.610220
2715.000000	24.634379
2714.000000	24.658497
2713.000000	24.683157
2712.000000	24.708834
2711.000000	24.734810
2710.000000	24.760061
2709.000000	24.784435
2708.000000	24.808081
2707.000000	24.830468
2706.000000	24.850940
2705.000000	24.869659
2704.000000	24.887107
2703.000000	24.903300
2702.000000	24.918405
2701.000000	24.933389
2700.000000	24.949207
2699.000000	24.965903
2698.000000	24.983205
2697.000000	25.001285
2696.000000	25.020104
2695.000000	25.038807
2694.000000	25.056612
2693.000000	25.073607
2692.000000	25.089903
2691.000000	25.104796
2690.000000	25.117654
2689.000000	25.128807
2688.000000	25.138686
2687.000000	25.146944
2686.000000	25.153387
2685.000000	25.159044
2684.000000	25.165315
2683.000000	25.172601
2682.000000	25.180671
2681.000000	25.189581
2680.000000	25.199287
2679.000000	25.209065
2678.000000	25.218301
2677.000000	25.227320
2676.000000	25.236659
2675.000000	25.246179
2674.000000	25.255669
2673.000000	25.265635
2672.000000	25.276686
2671.000000	25.288964
2670.000000	25.302969
2669.000000	25.320081
2668.000000	25.341507
2667.000000	25.367328
2666.000000	25.397466
2665.000000	25.432622
2664.000000	25.473065
2663.000000	25.517593
2662.000000	25.564531
2661.000000	25.613218
2660.000000	25.663639
2659.000000	25.715156
2658.000000	25.766778
2657.000000	25.817947
2656.000000	25.868243
2655.000000	25.917031
2654.000000	25.964263
2653.000000	26.010968
2652.000000	26.058019
2651.000000	26.104962
2650.000000	26.150847
2649.000000	26.195542
2648.000000	26.239278
2647.000000	26.281611
2646.000000	26.321856
2645.000000	26.359904
2644.000000	26.395801
2643.000000	26.428927
2642.000000	26.458604
2641.000000	26.485083
2640.000000	26.508888
2639.000000	26.529916
2638.000000	26.547909
2637.000000	26.563426
2636.000000	26.577509
2635.000000	26.590693
2634.000000	26.603315
2633.000000	26.616170
2632.000000	26.629957
2631.000000	26.644530
2630.000000	26.659472
2629.000000	26.674960
2628.000000	26.691284
2627.000000	26.708081
2626.000000	26.724956
2625.000000	26.742441
2624.000000	26.761396
2623.000000	26.781968
2622.000000	26.803961
2621.000000	26.827712
2620.000000	26.853772
2619.000000	26.882005
2618.000000	26.911871
2617.000000	26.943256
2616.000000	26.976141
2615.000000	27.009914
2614.000000	27.043701
2613.000000	27.077069
2612.000000	27.109731
2611.000000	27.140928
2610.000000	27.169796
2609.000000	27.196059
2608.000000	27.219810
2607.000000	27.240922
2606.000000	27.259385
2605.000000	27.275615
2604.000000	27.289895
2603.000000	27.302031
2602.000000	27.311989
2601.000000	27.320460
2600.000000	27.328039
2599.000000	27.334495
2598.000000	27.339661
2597.000000	27.344351
2596.000000	27.349733
2595.000000	27.356395
2594.000000	27.364867
2593.000000	27.376467
2592.000000	27.392813
2591.000000	27.414717
2590.000000	27.442381
2589.000000	27.476221
2588.000000	27.516415
2587.000000	27.562561
2586.000000	27.614183
2585.000000	27.671358
2584.000000	27.734192
2583.000000	27.801718
2582.000000	27.872479
2581.000000	27.945490
2580.000000	28.020102
2579.000000	28.095517
2578.000000	28.171012
2577.000000	28.246646
2576.000000	28.322881
2575.000000	28.399768
2574.000000	28.477100
2573.000000	28.554993
2572.000000	28.633792
2571.000000	28.713582
2570.000000	28.794295
2569.000000	28.876089
2568.000000	28.958991
2567.000000	29.042501
2566.000000	29.125961
2565.000000	29.209087
2564.000000	29.291706
2563.000000	29.373333
2562.000000	29.453547
2561.000000	29.532522
2560.000000	29.610691
2559.000000	29.688084
2558.000000	29.764564
2557.000000	29.840342
2556.000000	29.915723
2555.000000	29.990556
2554.000000	30.064377
2553.000000	30.136979
2552.000000	30.208306
2551.000000	30.277979
2550.000000	30.345569
2549.000000	30.411049
2548.000000	30.474624
2547.000000	30.536259
2546.000000	30.595845
2545.000000	30.653761
2544.000000	30.710450
2543.000000	30.765731
2542.000000	30.819006
2541.000000	30.869955
2540.000000	30.918654
2539.000000	30.964910
2538.000000	31.008185
2537.000000	31.048031
2536.000000	31.083817
2535.000000	31.114476
2534.000000	31.138776
2533.000000	31.156082
2532.000000	31.166421
2531.000000	31.169633
2530.000000	31.165713
2529.000000	31.155406
2528.000000	31.140059
2527.000000	31.120996
2526.000000	31.099416
2525.000000	31.077274
2524.000000	31.057162
2523.000000	31.041336
2522.000000	31.031274
2521.000000	31.028218
2520.000000	31.033149
2519.000000	31.046365
2518.000000	31.067728
2517.000000	31.097030
2516.000000	31.134197
2515.000000	31.178590
2514.000000	31.229143
2513.000000	31.285225
2512.000000	31.346368
2511.000000	31.411842
2510.000000	31.480522
2509.000000	31.551485
2508.000000	31.624207
2507.000000	31.697863
2506.000000	31.771308
2505.000000	31.843563
2504.000000	31.913977
2503.000000	31.981824
2502.000000	32.046354
2501.000000	32.107271
2500.000000	32.164795
2499.000000	32.219261
2498.000000	32.271017
2497.000000	32.320901
2496.000000	32.369918
2495.000000	32.418502
2494.000000	32.466601
2493.000000	32.514418
2492.000000	32.562474
2491.000000	32.610693
2490.000000	32.658147
2489.000000	32.703928
2488.000000	32.747505
2487.000000	32.788244
2486.000000	32.825310
2485.000000	32.858516
2484.000000	32.888751
2483.000000	32.917073
2482.000000	32.944156
2481.000000	32.970754
2480.000000	32.997970
2479.000000	33.026591
2478.000000	33.056609
2477.000000	33.087858
2476.000000	33.120508
2475.000000	33.154517
2474.000000	33.189098
2473.000000	33.223150
2472.000000	33.255787
2471.000000	33.286212
2470.000000	33.313605
2469.000000	33.337706
2468.000000	33.358993
2467.000000	33.378138
2466.000000	33.395763
2465.000000	33.412948
2464.000000	33.431353
2463.000000	33.452249
2462.000000	33.475976
2461.000000	33.502517
2460.000000	33.531957
2459.000000	33.563827
2458.000000	33.596749
2457.000000	33.629166
2456.000000	33.660014
2455.000000	33.688341
2454.000000	33.713048
2453.000000	33.733664
2452.000000	33.750913
2451.000000	33.766057
2450.000000	33.780080
2449.000000	33.794060
2448.000000	33.809593
2447.000000	33.828210
2446.000000	33.850669
2445.000000	33.877226
2444.000000	33.907836
2443.000000	33.941597
2442.000000	33.976495
2441.000000	34.010383
2440.000000	34.041962
2439.000000	34.070428
2438.000000	34.094875
2437.000000	34.114603
2436.000000	34.129765
2435.000000	34.140960
2434.000000	34.148871
2433.000000	34.154658
2432.000000	34.160120
2431.000000	34.166972
2430.000000	34.176506
2429.000000	34.190631
2428.000000	34.212360
2427.000000	34.244314
2426.000000	34.286417
2425.000000	34.335689
2424.000000	34.387541
2423.000000	34.437127
2422.000000	34.480446
2421.000000	34.515486
2420.000000	34.542840
2419.000000	34.564749
2418.000000	34.583787
2417.000000	34.602484
2416.000000	34.623480
2415.000000	34.648898
2414.000000	34.679727
2413.000000	34.716030
2412.000000	34.757370
2411.000000	34.802433
2410.000000	34.848892
2409.000000	34.894297
2408.000000	34.936921
2407.000000	34.975469
2406.000000	35.008747
2405.000000	35.036421
2404.000000	35.059600
2403.000000	35.080086
2402.000000	35.099376
2401.000000	35.119170
2400.000000	35.141955
2399.000000	35.170171
2398.000000	35.204858
2397.000000	35.245783
2396.000000	35.292181
2395.000000	35.342631
2394.000000	35.394828
2393.000000	35.446260
2392.000000	35.495202
2391.000000	35.540430
2390.000000	35.580797
2389.000000	35.615883
2388.000000	35.646870
2387.000000	35.675811
2386.000000	35.704560
2385.000000	35.735010
2384.000000	35.769543
2383.000000	35.810314
2382.000000	35.858140
2381.000000	35.912813
2380.000000	35.973935
2379.000000	36.040466
2378.000000	36.110053
2377.000000	36.180155
2376.000000	36.248907
2375.000000	36.314620
2374.000000	36.374721
2373.000000	36.427155
2372.000000	36.472740
2371.000000	36.514296
2370.000000	36.554049
2369.000000	36.594197
2368.000000	36.638542
2367.000000	36.690015
2366.000000	36.747716
2365.000000	36.810770
2364.000000	36.880471
2363.000000	36.955104
2362.000000	37.031726
2361.000000	37.106898
2360.000000	37.178360
2359.000000	37.247755
2358.000000	37.312197
2357.000000	37.370283
2356.000000	37.422797
2355.000000	37.470260
2354.000000	37.515890
2353.000000	37.566594
2352.000000	37.636360
2351.000000	37.724156
2350.000000	37.812631
2349.000000	37.887470
2348.000000	37.946418
2347.000000	38.005748
2346.000000	38.076425
2345.000000	38.158768
2344.000000	38.241545
2343.000000	38.313450
2342.000000	38.377562
2341.000000	38.435055
2340.000000	38.489891
2339.000000	38.543645
2338.000000	38.599606
2337.000000	38.659345
2336.000000	38.725621
2335.000000	38.797796
2334.000000	38.874090
2333.000000	38.949655
2332.000000	39.026441
2331.000000	39.104788
2330.000000	39.182410
2329.000000	39.258739
2328.000000	39.329053
2327.000000	39.396180
2326.000000	39.456507
2325.000000	39.512589
2324.000000	39.567584
2323.000000	39.624680
2322.000000	39.686779
2321.000000	39.751640
2320.000000	39.821704
2319.000000	39.895762
2318.000000	39.973069
2317.000000	40.048856
2316.000000	40.121306
2315.000000	40.189884
2314.000000	40.254124
2313.000000	40.313954
2312.000000	40.369837
2311.000000	40.424440
2310.000000	40.477919
2309.000000	40.531529
2308.000000	40.586639
2307.000000	40.646559
2306.000000	40.711490
2305.000000	40.780533
2304.000000	40.852869
2303.000000	40.928378
2302.000000	41.005141
2301.000000	41.080303
2300.000000	41.151887
2299.000000	41.219930
2298.000000	41.283296
2297.000000	41.341372
2296.000000	41.394421
2295.000000	41.445472
2294.000000	41.496013
2293.000000	41.547713
2292.000000	41.602326
2291.000000	41.662325
2290.000000	41.727433
2289.000000	41.795941
2288.000000	41.866774
2287.000000	41.939570
2286.000000	42.012108
2285.000000	42.080649
2284.000000	42.143059
2283.000000	42.199170
2282.000000	42.249085
2281.000000	42.292875
2280.000000	42.332835
2279.000000	42.372539
2278.000000	42.414412
2277.000000	42.459198
2276.000000	42.508311
2275.000000	42.563454
2274.000000	42.624075
2273.000000	42.687712
2272.000000	42.752422
2271.000000	42.817045
2270.000000	42.878895
2269.000000	42.934385
2268.000000	42.982014
2267.000000	43.022472
2266.000000	43.056286
2265.000000	43.083995
2264.000000	43.108261
2263.000000	43.133391
2262.000000	43.161961
2261.000000	43.194772
2260.000000	43.233083
2259.000000	43.278030
2258.000000	43.328252
2257.000000	43.380213
2256.000000	43.431547
2255.000000	43.480781
2254.000000	43.524947
2253.000000	43.560267
2252.000000	43.585537
2251.000000	43.602361
2250.000000	43.612016
2249.000000	43.615286
2248.000000	43.615478
2247.000000	43.616707
2246.000000	43.621219
2245.000000	43.629367
2244.000000	43.642470
2243.000000	43.662310
2242.000000	43.687728
2241.000000	43.714675
2240.000000	43.739702
2239.000000	43.760662
2238.000000	43.774548
2237.000000	43.778009
2236.000000	43.770566
2235.000000	43.754443
2234.000000	43.731417
2233.000000	43.702714
2232.000000	43.671643
2231.000000	43.643144
2230.000000	43.620231
2229.000000	43.603571
2228.000000	43.593919
2227.000000	43.591971
2226.000000	43.595774
2225.000000	43.601325
2224.000000	43.605812
2223.000000	43.607723
2222.000000	43.604289
2221.000000	43.592203
2220.000000	43.571114
2219.000000	43.543445
2218.000000	43.511065
2217.000000	43.475051
2216.000000	43.438605
2215.000000	43.406622
2214.000000	43.382167
2213.000000	43.365918
2212.000000	43.358799
2211.000000	43.361857
2210.000000	43.373285
2209.000000	43.388672
2208.000000	43.404428
2207.000000	43.418643
2206.000000	43.428705
2205.000000	43.431587
2204.000000	43.426723
2203.000000	43.416083
2202.000000	43.401443
2201.000000	43.384442
2200.000000	43.368826
2199.000000	43.359317
2198.000000	43.358030
2197.000000	43.364672
2196.000000	43.379929
2195.000000	43.405137
2194.000000	43.438765
2193.000000	43.476285
2192.000000	43.513949
2191.000000	43.549609
2190.000000	43.580254
2189.000000	43.602352
2188.000000	43.615231
2187.000000	43.621160
2186.000000	43.621821
2185.000000	43.618010
2184.000000	43.612651
2183.000000	43.610722
2182.000000	43.615400
2181.000000	43.627170
2180.000000	43.646389
2179.000000	43.673539
2178.000000	43.706601
2177.000000	43.741391
2176.000000	43.774833
2175.000000	43.805234
2174.000000	43.829635
2173.000000	43.844406
2172.000000	43.849044
2171.000000	43.846156
2170.000000	43.837850
2169.000000	43.825259
2168.000000	43.811612
2167.000000	43.801879
2166.000000	43.799022
2165.000000	43.803454
2164.000000	43.816040
2163.000000	43.838085
2162.000000	43.867899
2161.000000	43.900735
2160.000000	43.932589
2159.000000	43.961313
2158.000000	43.984014
2157.000000	43.997323
2156.000000	44.000749
2155.000000	43.996823
2154.000000	43.987644
2153.000000	43.974436
2152.000000	43.960341
2151.000000	43.950029
2150.000000	43.946156
2149.000000	43.949031
2148.000000	43.959647
2147.000000	43.979236
2146.000000	44.005762
2145.000000	44.034033
2144.000000	44.059958
2143.000000	44.081557
2142.000000	44.096154
2141.000000	44.100511
2140.000000	44.094639
2139.000000	44.082259
2138.000000	44.066939
2137.000000	44.050813
2136.000000	44.036935
2135.000000	44.029381
2134.000000	44.030179
2133.000000	44.039321
2132.000000	44.057491
2131.000000	44.085492
2130.000000	44.120722
2129.000000	44.157705
2128.000000	44.192419
2127.000000	44.223231
2126.000000	44.247911
2125.000000	44.263554
2124.000000	44.270119
2123.000000	44.270634
2122.000000	44.267727
2121.000000	44.262973
2120.000000	44.259700
2119.000000	44.262642
2118.000000	44.274630
2117.000000	44.296401
2116.000000	44.329028
2115.000000	44.372793
2114.000000	44.423758
2113.000000	44.475331
2112.000000	44.523587
2111.000000	44.567848
2110.000000	44.606594
2109.000000	44.637454
2108.000000	44.661324
2107.000000	44.682406
2106.000000	44.703742
2105.000000	44.726752
2104.000000	44.754865
2103.000000	44.793159
2102.000000	44.843832
2101.000000	44.905489
2100.000000	44.976924
2099.000000	45.057309
2098.000000	45.142643
2097.000000	45.226606
2096.000000	45.305237
2095.000000	45.377138
2094.000000	45.440066
2093.000000	45.492227
2092.000000	45.536847
2091.000000	45.580387
2090.000000	45.625896
2089.000000	45.672614
2088.000000	45.721772
2087.000000	45.777267
2086.000000	45.840103
2085.000000	45.907254
2084.000000	45.976412
2083.000000	46.046933
2082.000000	46.115373
2081.000000	46.175489
2080.000000	46.223644
2079.000000	46.259756
2078.000000	46.283120
2077.000000	46.292659
2076.000000	46.291328
2075.000000	46.285529
2074.000000	46.279090
2073.000000	46.272791
2072.000000	46.269601
2071.000000	46.273513
2070.000000	46.283081
2069.000000	46.292901
2068.000000	46.303104
2067.000000	46.320784
2066.000000	46.349285
2065.000000	46.381456
2064.000000	46.406895
2063.000000	46.421075
2062.000000	46.425065
2061.000000	46.422112
2060.000000	46.417356
2059.000000	46.416822
2058.000000	46.423945
2057.000000	46.439778
2056.000000	46.466824
2055.000000	46.508661
2054.000000	46.565021
2053.000000	46.631400
2052.000000	46.704314
2051.000000	46.782323
2050.000000	46.861152
2049.000000	46.934274
2048.000000	46.999462
2047.000000	47.058827
2046.000000	47.112718
2045.000000	47.160594
2044.000000	47.208995
2043.000000	47.270850
2042.000000	47.353868
2041.000000	47.455253
2040.000000	47.569345
2039.000000	47.694222
2038.000000	47.828720
2037.000000	47.969220
2036.000000	48.112640
2035.000000	48.257461
2034.000000	48.399920
2033.000000	48.534343
2032.000000	48.658845
2031.000000	48.776474
2030.000000	48.889450
2029.000000	48.998314
2028.000000	49.107045
2027.000000	49.222778
2026.000000	49.348984
2025.000000	49.484382
2024.000000	49.628950
2023.000000	49.782541
2022.000000	49.937648
2021.000000	50.083726
2020.000000	50.221708
2019.000000	50.365294
2018.000000	50.522811
2017.000000	50.684862
2016.000000	50.835128
2015.000000	50.965863
2014.000000	51.078544
2013.000000	51.178530
2012.000000	51.274468
2011.000000	51.376240
2010.000000	51.488824
2009.000000	51.611608
2008.000000	51.743705
2007.000000	51.884872
2006.000000	52.030408
2005.000000	52.171491
2004.000000	52.303211
2003.000000	52.425594
2002.000000	52.537522
2001.000000	52.635857
2000.000000	52.722111
1999.000000	52.802976
1998.000000	52.878323
1997.000000	52.937985
1996.000000	52.977592
1995.000000	53.012283
1994.000000	53.069016
1993.000000	53.164033
1992.000000	53.289138
1991.000000	53.423295
1990.000000	53.552016
1989.000000	53.672719
1988.000000	53.787876
1987.000000	53.895734
1986.000000	53.988965
1985.000000	54.063074
1984.000000	54.123312
1983.000000	54.178571
1982.000000	54.232245
1981.000000	54.283667
1980.000000	54.336075
1979.000000	54.396659
1978.000000	54.467565
1977.000000	54.544792
1976.000000	54.626151
1975.000000	54.713104
1974.000000	54.802622
1973.000000	54.883867
1972.000000	54.945407
1971.000000	54.982929
1970.000000	55.002866
1969.000000	55.024998
1968.000000	55.073262
1967.000000	55.151801
1966.000000	55.237733
1965.000000	55.306547
1964.000000	55.357530
1963.000000	55.407558
1962.000000	55.466727
1961.000000	55.530632
1960.000000	55.593599
1959.000000	55.655512
1958.000000	55.715629
1957.000000	55.772519
1956.000000	55.829898
1955.000000	55.891902
1954.000000	55.952787
1953.000000	56.002900
1952.000000	56.046694
1951.000000	56.084766
1950.000000	56.124977
1949.000000	56.163620
1948.000000	56.201687
1947.000000	56.245410
1946.000000	56.295177
1945.000000	56.344689
1944.000000	56.392203
1943.000000	56.442001
1942.000000	56.493456
1941.000000	56.540247
1940.000000	56.581693
1939.000000	56.622757
1938.000000	56.662988
1937.000000	56.696998
1936.000000	56.725857
1935.000000	56.756531
1934.000000	56.789585
1933.000000	56.819041
1932.000000	56.844773
1931.000000	56.873118
1930.000000	56.904635
1929.000000	56.933323
1928.000000	56.958845
1927.000000	56.987314
1926.000000	57.019141
1925.000000	57.047916
1924.000000	57.072719
1923.000000	57.100078
1922.000000	57.131981
1921.000000	57.163438
1920.000000	57.192660
1919.000000	57.221353
1918.000000	57.245367
1917.000000	57.258006
1916.000000	57.262871
1915.000000	57.269409
1914.000000	57.278016
1913.000000	57.282589
1912.000000	57.284342
1911.000000	57.290653
1910.000000	57.301252
1909.000000	57.309145
1908.000000	57.315190
1907.000000	57.327098
1906.000000	57.344263
1905.000000	57.358149
1904.000000	57.367526
1903.000000	57.378941
1902.000000	57.392324
1901.000000	57.400414
1900.000000	57.403289
1899.000000	57.408933
1898.000000	57.418768
1897.000000	57.426531
1896.000000	57.432341
1895.000000	57.444114
1894.000000	57.463831
1893.000000	57.486197
1892.000000	57.511049
1891.000000	57.542811
1890.000000	57.577401
1889.000000	57.604845
1888.000000	57.625870
1887.000000	57.649401
1886.000000	57.674421
1885.000000	57.691724
1884.000000	57.701632
1883.000000	57.713767
1882.000000	57.729557
1881.000000	57.741475
1880.000000	57.749945
1879.000000	57.763763
1878.000000	57.783418
1877.000000	57.800324
1876.000000	57.813530
1875.000000	57.830396
1874.000000	57.850880
1873.000000	57.867905
1872.000000	57.883186
1871.000000	57.905300
1870.000000	57.930797
1869.000000	57.944374
1868.000000	57.943063
1867.000000	57.939677
1866.000000	57.938208
1865.000000	57.931561
1864.000000	57.920970
1863.000000	57.916321
1862.000000	57.917767
1861.000000	57.915305
1860.000000	57.907624
1859.000000	57.860692
1858.000000	57.873156
1857.000000	57.876686
1856.000000	57.868082
1855.000000	57.859012
1854.000000	57.852795
1853.000000	57.836067
1852.000000	57.797918
1851.000000	57.743842
1850.000000	57.690631
1849.000000	57.663956
1848.000000	57.687257
1847.000000	57.753494
1846.000000	57.821372
1845.000000	57.850232
1844.000000	57.819501
1843.000000	57.748361
1842.000000	57.677137
1841.000000	57.611206
1840.000000	57.540403
1839.000000	57.478857
1838.000000	57.446566
1837.000000	57.437692
1836.000000	57.432426
1835.000000	57.421342
1834.000000	57.394692
1833.000000	57.331227
1832.000000	57.240244
1831.000000	57.187969
1830.000000	57.193575
1829.000000	57.188578
1828.000000	57.135930
1827.000000	57.062395
1826.000000	57.003579
1825.000000	56.961686
1824.000000	56.921652
1823.000000	56.887308
1822.000000	56.859884
1821.000000	56.824993
1820.000000	56.781687
1819.000000	56.749205
1818.000000	56.735054
1817.000000	56.718792
1816.000000	56.674436
1815.000000	56.594967
1814.000000	56.486877
1813.000000	56.367308
1812.000000	56.268583
1811.000000	56.207380
1810.000000	56.162577
1809.000000	56.108091
1808.000000	56.045227
1807.000000	55.986326
1806.000000	55.924084
1805.000000	55.842159
1804.000000	55.749422
1803.000000	55.684450
1802.000000	55.674070
1801.000000	55.695048
1800.000000	55.698782
1799.000000	55.658744
1798.000000	55.585644
1797.000000	55.511328
1796.000000	55.459228
1795.000000	55.414192
1794.000000	55.344499
1793.000000	55.258249
1792.000000	55.185274
1791.000000	55.138034
1790.000000	55.116123
1789.000000	55.103948
1788.000000	55.088028
1787.000000	55.070663
1786.000000	55.049993
1785.000000	55.004532
1784.000000	54.920193
1783.000000	54.817847
1782.000000	54.730674
1781.000000	54.665357
1780.000000	54.598826
1779.000000	54.510067
1778.000000	54.405422
1777.000000	54.312422
1776.000000	54.258048
1775.000000	54.232645
1774.000000	54.212093
1773.000000	54.203866
1772.000000	54.199290
1771.000000	54.181442
1770.000000	54.159399
1769.000000	54.123989
1768.000000	54.057250
1767.000000	53.966746
1766.000000	53.874106
1765.000000	53.775798
1764.000000	53.658661
1763.000000	53.540395
1762.000000	53.428020
1761.000000	53.299897
1760.000000	53.174443
1759.000000	53.093956
1758.000000	53.070463
1757.000000	53.068984
1756.000000	53.055425
1755.000000	53.039256
1754.000000	53.007835
1753.000000	52.897763
1752.000000	52.687741
1751.000000	52.449739
1750.000000	52.268121
1749.000000	52.154847
1748.000000	52.061678
1747.000000	51.949692
1746.000000	51.819261
1745.000000	51.699575
1744.000000	51.632112
1743.000000	51.631732
1742.000000	51.654076
1741.000000	51.630988
1740.000000	51.547565
1739.000000	51.464647
1738.000000	51.455305
1737.000000	51.484411
1736.000000	51.420568
1735.000000	51.221770
1734.000000	50.901341
1733.000000	50.491212
1732.000000	50.136237
1731.000000	49.918213
1730.000000	49.790524
1729.000000	49.659204
1728.000000	49.485651
1727.000000	49.290905
1726.000000	49.092695
1725.000000	48.890532
1724.000000	48.694802
1723.000000	48.531430
1722.000000	48.406077
1721.000000	48.264819
1720.000000	48.033198
1719.000000	47.734914
1718.000000	47.441922
1717.000000	47.136187
1716.000000	46.820594
1715.000000	46.537617
1714.000000	46.270202
1713.000000	45.984030
1712.000000	45.687892
1711.000000	45.410424
1710.000000	45.146870
1709.000000	44.866119
1708.000000	44.558533
1707.000000	44.256421
1706.000000	43.991949
1705.000000	43.781601
1704.000000	43.681890
1703.000000	43.677285
1702.000000	43.567604
1701.000000	43.171317
1700.000000	42.550650
1699.000000	41.987918
1698.000000	41.657274
1697.000000	41.445574
1696.000000	41.127482
1695.000000	40.642277
1694.000000	40.151066
1693.000000	39.737661
1692.000000	39.357190
1691.000000	38.973108
1690.000000	38.609461
1689.000000	38.307258
1688.000000	38.081925
1687.000000	37.864286
1686.000000	37.532948
1685.000000	37.095359
1684.000000	36.565293
1683.000000	35.986881
1682.000000	35.505565
1681.000000	35.128802
1680.000000	34.812553
1679.000000	34.546773
1678.000000	34.311433
1677.000000	34.027713
1676.000000	33.629771
1675.000000	33.142441
1674.000000	32.662360
1673.000000	32.249646
1672.000000	31.884146
1671.000000	31.532984
1670.000000	31.166726
1669.000000	30.742705
1668.000000	30.289530
1667.000000	29.888782
1666.000000	29.550018
1665.000000	29.209671
1664.000000	28.829945
1663.000000	28.433263
1662.000000	28.042283
1661.000000	27.659679
1660.000000	27.287850
1659.000000	26.944250
1658.000000	26.657090
1657.000000	26.446252
1656.000000	26.270424
1655.000000	26.060180
1654.000000	25.803700
1653.000000	25.331443
1652.000000	24.668848
1651.000000	24.148689
1650.000000	23.808432
1649.000000	23.541406
1648.000000	23.296663
1647.000000	23.060375
1646.000000	22.776597
1645.000000	22.445626
1644.000000	22.124321
1643.000000	21.847060
1642.000000	21.597335
1641.000000	21.341287
1640.000000	21.084844
1639.000000	20.863708
1638.000000	20.682423
1637.000000	20.515471
1636.000000	20.313788
1635.000000	20.042846
1634.000000	19.759761
1633.000000	19.516520
1632.000000	19.312316
1631.000000	19.134398
1630.000000	18.970145
1629.000000	18.808273
1628.000000	18.649463
1627.000000	18.508469
1626.000000	18.386485
1625.000000	18.261929
1624.000000	18.128638
1623.000000	18.001079
1622.000000	17.890823
1621.000000	17.804441
1620.000000	17.745914
1619.000000	17.711542
1618.000000	17.691499
1617.000000	17.663219
1616.000000	17.602528
1615.000000	17.537775
1614.000000	17.503125
1613.000000	17.487786
1612.000000	17.474116
1611.000000	17.469976
1610.000000	17.488291
1609.000000	17.520803
1608.000000	17.555584
1607.000000	17.596147
1606.000000	17.645180
1605.000000	17.693820
1604.000000	17.742365
1603.000000	17.806964
1602.000000	17.892679
1601.000000	17.981729
1600.000000	18.060183
1599.000000	18.134334
1598.000000	18.211195
1597.000000	18.285770
1596.000000	18.357463
1595.000000	18.435947
1594.000000	18.521348
1593.000000	18.599047
1592.000000	18.663844
1591.000000	18.729155
1590.000000	18.803971
1589.000000	18.879557
1588.000000	18.949211
1587.000000	19.021309
1586.000000	19.101325
1585.000000	19.180594
1584.000000	19.253254
1583.000000	19.324700
1582.000000	19.395774
1581.000000	19.460469
1580.000000	19.522694
1579.000000	19.593320
1578.000000	19.675797
1577.000000	19.764746
1576.000000	19.826029
1575.000000	19.838966
1574.000000	19.844248
1573.000000	19.868423
1572.000000	19.902104
1571.000000	19.951522
1570.000000	20.037398
1569.000000	20.125491
1568.000000	20.179515
1567.000000	20.311917
1566.000000	20.378508
1565.000000	20.446832
1564.000000	20.505258
1563.000000	20.560156
1562.000000	20.627019
1561.000000	20.714421
1560.000000	20.823154
1559.000000	20.937929
1558.000000	21.063649
1557.000000	21.063047
1556.000000	21.073875
1555.000000	21.138962
1554.000000	21.225971
1553.000000	21.297601
1552.000000	21.365122
1551.000000	21.475178
1550.000000	21.645520
1549.000000	21.829915
1548.000000	21.976869
1547.000000	22.080556
1546.000000	22.174676
1545.000000	22.305175
1544.000000	22.485170
1543.000000	22.688278
1542.000000	22.910612
1541.000000	23.231424
1540.000000	23.635006
1539.000000	23.936934
1538.000000	24.109297
1537.000000	24.246657
1536.000000	24.405288
1535.000000	24.618311
1534.000000	24.925458
1533.000000	25.275769
1532.000000	25.571638
1531.000000	25.808454
1530.000000	26.026745
1529.000000	26.252774
1528.000000	26.507921
1527.000000	26.812433
1526.000000	27.153132
1525.000000	27.487336
1524.000000	27.797776
1523.000000	28.135797
1522.000000	28.567518
1521.000000	29.009930
1520.000000	29.331519
1519.000000	29.570968
1518.000000	29.852215
1517.000000	30.229737
1516.000000	30.632201
1515.000000	30.985683
1514.000000	31.278631
1513.000000	31.509699
1512.000000	31.692786
1511.000000	31.867652
1510.000000	32.059890
1509.000000	32.296005
1508.000000	32.762296
1507.000000	33.552328
1506.000000	34.230399
1505.000000	34.547159
1504.000000	34.694272
1503.000000	34.868552
1502.000000	35.120936
1501.000000	35.414432
1500.000000	35.713432
1499.000000	36.027856
1498.000000	36.377465
1497.000000	36.725142
1496.000000	37.003651
1495.000000	37.213268
1494.000000	37.391318
1493.000000	37.529323
1492.000000	37.621856
1491.000000	37.759392
1490.000000	38.031484
1489.000000	38.372887
1488.000000	38.684272
1487.000000	38.940364
1486.000000	39.130067
1485.000000	39.228520
1484.000000	39.244999
1483.000000	39.228582
1482.000000	39.204001
1481.000000	39.142150
1480.000000	39.018131
1479.000000	38.836800
1478.000000	38.589002
1477.000000	38.259230
1476.000000	37.865727
1475.000000	37.422990
1474.000000	36.875477
1473.000000	36.114298
1472.000000	35.104301
1471.000000	33.972181
1470.000000	32.814335
1469.000000	31.595269
1468.000000	30.259475
1467.000000	28.757811
1466.000000	27.001355
1465.000000	24.947814
1464.000000	22.770313
1463.000000	20.744783
1462.000000	18.952117
1461.000000	17.309947
1460.000000	15.753154
1459.000000	14.241791
1458.000000	12.694040
1457.000000	11.094373
1456.000000	9.732164
1455.000000	8.847733
1454.000000	8.311236
1453.000000	7.939444
1452.000000	7.689485
1451.000000	7.585278
1450.000000	7.616232
1449.000000	7.760310
1448.000000	8.029988
1447.000000	8.418751
1446.000000	8.866194
1445.000000	9.329521
1444.000000	9.821066
1443.000000	10.353158
1442.000000	10.896563
1441.000000	11.417043
1440.000000	11.914941
1439.000000	12.411894
1438.000000	12.932626
1437.000000	13.495213
1436.000000	14.061145
1435.000000	14.561729
1434.000000	14.988491
1433.000000	15.378779
1432.000000	15.761242
1431.000000	16.136787
1430.000000	16.480230
1429.000000	16.757444
1428.000000	16.950158
1427.000000	17.063670
1426.000000	17.117810
1425.000000	17.142642
1424.000000	17.167082
1423.000000	17.201010
1422.000000	17.230833
1421.000000	17.233036
1420.000000	17.219241
1419.000000	17.236779
1418.000000	17.296949
1417.000000	17.390467
1416.000000	17.518026
1415.000000	17.674056
1414.000000	17.845731
1413.000000	18.030492
1412.000000	18.237026
1411.000000	18.465927
1410.000000	18.700002
1409.000000	18.919747
1408.000000	19.119272
1407.000000	19.305807
1406.000000	19.493858
1405.000000	19.691153
1404.000000	19.884121
1403.000000	20.051175
1402.000000	20.183386
1401.000000	20.288880
1400.000000	20.386701
1399.000000	20.485253
1398.000000	20.575255
1397.000000	20.653833
1396.000000	20.725917
1395.000000	20.779338
1394.000000	20.780468
1393.000000	20.709561
1392.000000	20.572105
1391.000000	20.366730
1390.000000	20.064304
1389.000000	19.613571
1388.000000	18.977440
1387.000000	18.203802
1386.000000	17.469978
1385.000000	17.004196
1384.000000	16.957238
1383.000000	17.338727
1382.000000	18.007112
1381.000000	18.741880
1380.000000	19.370095
1379.000000	19.823586
1378.000000	20.112661
1377.000000	20.286539
1376.000000	20.411418
1375.000000	20.548538
1374.000000	20.716018
1373.000000	20.885422
1372.000000	21.031762
1371.000000	21.156435
1370.000000	21.273424
1369.000000	21.391942
1368.000000	21.505154
1367.000000	21.593300
1366.000000	21.637834
1365.000000	21.638283
1364.000000	21.620496
1363.000000	21.612100
1362.000000	21.607243
1361.000000	21.581930
1360.000000	21.530285
1359.000000	21.465972
1358.000000	21.409193
1357.000000	21.383178
1356.000000	21.413627
1355.000000	21.518089
1354.000000	21.693153
1353.000000	21.918264
1352.000000	22.170442
1351.000000	22.427442
1350.000000	22.663787
1349.000000	22.850235
1348.000000	22.960602
1347.000000	22.976001
1346.000000	22.881671
1345.000000	22.664953
1344.000000	22.319628
1343.000000	21.845097
1342.000000	21.246342
1341.000000	20.538650
1340.000000	19.746703
1339.000000	18.892943
1338.000000	17.982026
1337.000000	17.003363
1336.000000	15.948462
1335.000000	14.821986
1334.000000	13.639585
1333.000000	12.423249
1332.000000	11.207462
1331.000000	10.038086
1330.000000	8.953589
1329.000000	7.972440
1328.000000	7.104275
1327.000000	6.355457
1326.000000	5.717527
1325.000000	5.168928
1324.000000	4.693699
1323.000000	4.288903
1322.000000	3.948500
1321.000000	3.658399
1320.000000	3.415576
1319.000000	3.230627
1318.000000	3.109374
1317.000000	3.047628
1316.000000	3.045412
1315.000000	3.110434
1314.000000	3.239678
1313.000000	3.417189
1312.000000	3.631888
1311.000000	3.880892
1310.000000	4.157796
1309.000000	4.451737
1308.000000	4.760234
1307.000000	5.087085
1306.000000	5.427378
1305.000000	5.769482
1304.000000	6.110170
1303.000000	6.453982
1302.000000	6.800099
1301.000000	7.143002
1300.000000	7.484783
1299.000000	7.832669
1298.000000	8.185535
1297.000000	8.535303
1296.000000	8.879991
1295.000000	9.224784
1294.000000	9.572687
1293.000000	9.925981
1292.000000	10.294614
1291.000000	10.691616
1290.000000	11.122383
1289.000000	11.586661
1288.000000	12.086594
1287.000000	12.623731
1286.000000	13.190209
1285.000000	13.773780
1284.000000	14.367624
1283.000000	14.967719
1282.000000	15.566306
1281.000000	16.155093
1280.000000	16.731484
1279.000000	17.295841
1278.000000	17.847062
1277.000000	18.385740
1276.000000	18.917563
1275.000000	19.449357
1274.000000	19.986147
1273.000000	20.534382
1272.000000	21.101735
1271.000000	21.690072
1270.000000	22.293450
1269.000000	22.905341
1268.000000	23.522627
1267.000000	24.141772
1266.000000	24.757029
1265.000000	25.363803
1264.000000	25.959225
1263.000000	26.540757
1262.000000	27.108628
1261.000000	27.668275
1260.000000	28.223451
1259.000000	28.769653
1258.000000	29.300741
1257.000000	29.816946
1256.000000	30.320870
1255.000000	30.810387
1254.000000	31.280909
1253.000000	31.731419
1252.000000	32.160694
1251.000000	32.563414
1250.000000	32.935882
1249.000000	33.279605
1248.000000	33.595956
1247.000000	33.881948
1246.000000	34.136806
1245.000000	34.366348
1244.000000	34.574186
1243.000000	34.757019
1242.000000	34.911382
1241.000000	35.039032
1240.000000	35.142006
1239.000000	35.217073
1238.000000	35.262337
1237.000000	35.281636
1236.000000	35.278987
1235.000000	35.255974
1234.000000	35.216795
1233.000000	35.171194
1232.000000	35.128100
1231.000000	35.092433
1230.000000	35.070422
1229.000000	35.072092
1228.000000	35.104802
1227.000000	35.169969
1226.000000	35.268879
1225.000000	35.403942
1224.000000	35.573190
1223.000000	35.768124
1222.000000	35.981824
1221.000000	36.214527
1220.000000	36.466226
1219.000000	36.732513
1218.000000	37.010105
1217.000000	37.300083
1216.000000	37.602504
1215.000000	37.913453
1214.000000	38.232574
1213.000000	38.565020
1212.000000	38.911714
1211.000000	39.265150
1210.000000	39.618478
1209.000000	39.971201
1208.000000	40.321392
1207.000000	40.661356
1206.000000	40.985981
1205.000000	41.298065
1204.000000	41.600169
1203.000000	41.889934
1202.000000	42.168308
1201.000000	42.442986
1200.000000	42.719538
1199.000000	42.997245
1198.000000	43.277344
1197.000000	43.565795
1196.000000	43.863163
1195.000000	44.160985
1194.000000	44.452237
1193.000000	44.735881
1192.000000	45.008114
1191.000000	45.259478
1190.000000	45.486414
1189.000000	45.695491
1188.000000	45.892044
1187.000000	46.076283
1186.000000	46.253355
1185.000000	46.436335
1184.000000	46.632759
1183.000000	46.836636
1182.000000	47.038540
1181.000000	47.234925
1180.000000	47.424733
1179.000000	47.606553
1178.000000	47.782115
1177.000000	47.953100
1176.000000	48.111333
1175.000000	48.242862
1174.000000	48.344470
1173.000000	48.425837
1172.000000	48.496363
1171.000000	48.561336
1170.000000	48.632036
1169.000000	48.725133
1168.000000	48.848530
1167.000000	48.998548
1166.000000	49.172799
1165.000000	49.372932
1164.000000	49.591898
1163.000000	49.812876
1162.000000	50.023865
1161.000000	50.222319
1160.000000	50.403012
1159.000000	50.556144
1158.000000	50.680724
1157.000000	50.787295
1156.000000	50.884012
1155.000000	50.972992
1154.000000	51.062669
1153.000000	51.167851
1152.000000	51.294474
1151.000000	51.436992
1150.000000	51.593446
1149.000000	51.768152
1148.000000	51.956763
1147.000000	52.143081
1146.000000	52.315221
1145.000000	52.471353
1144.000000	52.607264
1143.000000	52.713367
1142.000000	52.788904
1141.000000	52.845194
1140.000000	52.890597
1139.000000	52.927668
1138.000000	52.965960
1137.000000	53.022593
1136.000000	53.105578
1135.000000	53.209993
1134.000000	53.332336
1133.000000	53.474306
1132.000000	53.628969
1131.000000	53.778104
1130.000000	53.908044
1129.000000	54.015386
1128.000000	54.094792
1127.000000	54.136294
1126.000000	54.139718
1125.000000	54.115500
1124.000000	54.070425
1123.000000	54.005018
1122.000000	53.926584
1121.000000	53.849958
1120.000000	53.780439
1119.000000	53.711150
1118.000000	53.637647
1117.000000	53.559992
1116.000000	53.469431
1115.000000	53.346546
1114.000000	53.177360
1113.000000	52.957504
1112.000000	52.677190
1111.000000	52.322033
1110.000000	51.886677
1109.000000	51.376399
1108.000000	50.793956
1107.000000	50.135028
1106.000000	49.403578
1105.000000	48.609780
1104.000000	47.755747
1103.000000	46.835157
1102.000000	45.841166
1101.000000	44.770138
1100.000000	43.608432
1099.000000	42.335641
1098.000000	40.939106
1097.000000	39.412945
1096.000000	37.754271
1095.000000	35.961899
1094.000000	34.042424
1093.000000	32.014784
1092.000000	29.902896
1091.000000	27.737267
1090.000000	25.553817
1089.000000	23.390552
1088.000000	21.284744
1087.000000	19.272888
1086.000000	17.384932
1085.000000	15.641550
1084.000000	14.060589
1083.000000	12.650125
1082.000000	11.407300
1081.000000	10.319150
1080.000000	9.373042
1079.000000	8.561606
1078.000000	7.866509
1077.000000	7.265982
1076.000000	6.745892
1075.000000	6.297932
1074.000000	5.911653
1073.000000	5.572447
1072.000000	5.275164
1071.000000	5.020948
1070.000000	4.803800
1069.000000	4.614758
1068.000000	4.452269
1067.000000	4.320422
1066.000000	4.216488
1065.000000	4.132778
1064.000000	4.070643
1063.000000	4.036023
1062.000000	4.026935
1061.000000	4.036613
1060.000000	4.065938
1059.000000	4.121412
1058.000000	4.201331
1057.000000	4.298934
1056.000000	4.415702
1055.000000	4.557775
1054.000000	4.724179
1053.000000	4.908985
1052.000000	5.113862
1051.000000	5.345712
1050.000000	5.602659
1049.000000	5.878357
1048.000000	6.173994
1047.000000	6.494845
1046.000000	6.839164
1045.000000	7.201644
1044.000000	7.586161
1043.000000	8.000952
1042.000000	8.446272
1041.000000	8.918555
1040.000000	9.420097
1039.000000	9.956793
1038.000000	10.527365
1037.000000	11.125341
1036.000000	11.749633
1035.000000	12.400607
1034.000000	13.072663
1033.000000	13.757600
1032.000000	14.452824
1031.000000	15.159520
1030.000000	15.875013
1029.000000	16.595692
1028.000000	17.322826
1027.000000	18.059364
1026.000000	18.804740
1025.000000	19.557158
1024.000000	20.317370
1023.000000	21.085450
1022.000000	21.857419
1021.000000	22.628766
1020.000000	23.397188
1019.000000	24.159488
1018.000000	24.909782
1017.000000	25.643716
1016.000000	26.360034
1015.000000	27.058289
1014.000000	27.738528
1013.000000	28.403664
1012.000000	29.058834
1011.000000	29.707313
1010.000000	30.351103
1009.000000	30.993341
1008.000000	31.636093
1007.000000	32.277299
1006.000000	32.912538
1005.000000	33.538404
1004.000000	34.151316
1003.000000	34.745814
1002.000000	35.318681
1001.000000	35.870714
1000.000000	36.403051
999.000000	36.915703
998.000000	37.411760
997.000000	37.899173
996.000000	38.384043
995.000000	38.867551
994.000000	39.351298
993.000000	39.838979
992.000000	40.330330
991.000000	40.818733
990.000000	41.298021
989.000000	41.766138
988.000000	42.218832
987.000000	42.648920
986.000000	43.054203
985.000000	43.439824
984.000000	43.810501
983.000000	44.167031
982.000000	44.514289
981.000000	44.862814
980.000000	45.219401
979.000000	45.583699
978.000000	45.955750
977.000000	46.337935
976.000000	46.726313
975.000000	47.108638
974.000000	47.475465
973.000000	47.823900
972.000000	48.149793
971.000000	48.446410
970.000000	48.714162
969.000000	48.962953
968.000000	49.200272
967.000000	49.428357
966.000000	49.654439
965.000000	49.892583
964.000000	50.151274
963.000000	50.428268
962.000000	50.719594
961.000000	51.023238
960.000000	51.330443
959.000000	51.625043
958.000000	51.895149
957.000000	52.136914
956.000000	52.345814
955.000000	52.515425
954.000000	52.650117
953.000000	52.765638
952.000000	52.875347
951.000000	52.986087
950.000000	53.108210
949.000000	53.256402
948.000000	53.436509
947.000000	53.642203
946.000000	53.866621
945.000000	54.105263
944.000000	54.344766
943.000000	54.562769
942.000000	54.743617
941.000000	54.884959
940.000000	54.985723
939.000000	55.043631
938.000000	55.066710
937.000000	55.074383
936.000000	55.083590
935.000000	55.103612
934.000000	55.145753
933.000000	55.223339
932.000000	55.338470
931.000000	55.479522
930.000000	55.634203
929.000000	55.792674
928.000000	55.937395
927.000000	56.043798
926.000000	56.097362
925.000000	56.097466
924.000000	56.045386
923.000000	55.942575
922.000000	55.801672
921.000000	55.646608
920.000000	55.495818
919.000000	55.357780
918.000000	55.242202
917.000000	55.160492
916.000000	55.111696
915.000000	55.079852
914.000000	55.047371
913.000000	55.000482
912.000000	54.919747
911.000000	54.781938
910.000000	54.575251
909.000000	54.302249
908.000000	53.968281
907.000000	53.577313
906.000000	53.143774
905.000000	52.691252
904.000000	52.236746
903.000000	51.787335
902.000000	51.349974
901.000000	50.932003
900.000000	50.528318
899.000000	50.119644
898.000000	49.686848
897.000000	49.216519
896.000000	48.693299
895.000000	48.099917
894.000000	47.427829
893.000000	46.681736
892.000000	45.868061
891.000000	44.992374
890.000000	44.067471
889.000000	43.112113
888.000000	42.141419
887.000000	41.161760
886.000000	40.176744
885.000000	39.189155
884.000000	38.194858
883.000000	37.182608
882.000000	36.140887
881.000000	35.061663
880.000000	33.938364
879.000000	32.765621
878.000000	31.545013
877.000000	30.286093
876.000000	29.001736
875.000000	27.704886
874.000000	26.409210
873.000000	25.129673
872.000000	23.879443
871.000000	22.666554
870.000000	21.492995
869.000000	20.359255
868.000000	19.265876
867.000000	18.211308
866.000000	17.190745
865.000000	16.198766
864.000000	15.234712
863.000000	14.300063
862.000000	13.395169
861.000000	12.523175
860.000000	11.691903
859.000000	10.910973
858.000000	10.186815
857.000000	9.526931
856.000000	8.947170
855.000000	8.462643
854.000000	8.079975
853.000000	7.797666
852.000000	7.609907
851.000000	7.504245
850.000000	7.455547
849.000000	7.437087
848.000000	7.431182
847.000000	7.426701
846.000000	7.414505
845.000000	7.391539
844.000000	7.366153
843.000000	7.349599
842.000000	7.346326
841.000000	7.358745
840.000000	7.393846
839.000000	7.457066
838.000000	7.542786
837.000000	7.637227
836.000000	7.724499
835.000000	7.783504
834.000000	7.786470
833.000000	7.713482
832.000000	7.570051
831.000000	7.387599
830.000000	7.213993
829.000000	7.110649
828.000000	7.150986
827.000000	7.397048
826.000000	7.869138
825.000000	8.531413
824.000000	9.309154
823.000000	10.125446
822.000000	10.930636
821.000000	11.714270
820.000000	12.486008
819.000000	13.251008
818.000000	14.002942
817.000000	14.734002
816.000000	15.439780
815.000000	16.115623
814.000000	16.758113
813.000000	17.370777
812.000000	17.962335
811.000000	18.538267
810.000000	19.101164
809.000000	19.657173
808.000000	20.214422
807.000000	20.776909
806.000000	21.345496
805.000000	21.922693
804.000000	22.508567
803.000000	23.094231
802.000000	23.667930
801.000000	24.225366
800.000000	24.768089
799.000000	25.296160
798.000000	25.810012
797.000000	26.315869
796.000000	26.820816
795.000000	27.326269
794.000000	27.832753
793.000000	28.345749
792.000000	28.869452
791.000000	29.399413
790.000000	29.928107
789.000000	30.452308
788.000000	30.968454
787.000000	31.467393
786.000000	31.941417
785.000000	32.390998
784.000000	32.818923
783.000000	33.224284
782.000000	33.609315
781.000000	33.984495
780.000000	34.359862
779.000000	34.737834
778.000000	35.119843
777.000000	35.512326
776.000000	35.918568
775.000000	36.331241
774.000000	36.739580
773.000000	37.137250
772.000000	37.517946
771.000000	37.872611
770.000000	38.198264
769.000000	38.502799
768.000000	38.794487
767.000000	39.074883
766.000000	39.347243
765.000000	39.622476
764.000000	39.910190
763.000000	40.211340
762.000000	40.525249
761.000000	40.854396
760.000000	41.195620
759.000000	41.535012
758.000000	41.858243
757.000000	42.157951
756.000000	42.427273
755.000000	42.656648
754.000000	42.844612
753.000000	43.001862
752.000000	43.139065
751.000000	43.260610
750.000000	43.374062
749.000000	43.494479
748.000000	43.632044
747.000000	43.785815
746.000000	43.954074
745.000000	44.138843
744.000000	44.333282
743.000000	44.516844
742.000000	44.671059
741.000000	44.790872
740.000000	44.874852
739.000000	44.917588
738.000000	44.920640
737.000000	44.899938
736.000000	44.874479
735.000000	44.856567
734.000000	44.859411
733.000000	44.901243
732.000000	44.993649
731.000000	45.134200
730.000000	45.316807
729.000000	45.537929
728.000000	45.786005
727.000000	46.037550
726.000000	46.272861
725.000000	46.486193
724.000000	46.674674
723.000000	46.831674
722.000000	46.959139
721.000000	47.074814
720.000000	47.198335
719.000000	47.340328
718.000000	47.510570
717.000000	47.723568
716.000000	47.986364
715.000000	48.291071
714.000000	48.625938
713.000000	48.981636
712.000000	49.340645
711.000000	49.674880
710.000000	49.963610
709.000000	50.202273
708.000000	50.390223
707.000000	50.525468
706.000000	50.618639
705.000000	50.696558
704.000000	50.783785
703.000000	50.891601
702.000000	51.029368
701.000000	51.210751
700.000000	51.440435
699.000000	51.707514
698.000000	51.998216
697.000000	52.301282
696.000000	52.595229
695.000000	52.849444
694.000000	53.045817
693.000000	53.185995
692.000000	53.274405
691.000000	53.312731
690.000000	53.317234
689.000000	53.322110
688.000000	53.354595
687.000000	53.421327
686.000000	53.526242
685.000000	53.681151
684.000000	53.887706
683.000000	54.126908
682.000000	54.377527
681.000000	54.626612
680.000000	54.855446
679.000000	55.036305
678.000000	55.154380
677.000000	55.215740
676.000000	55.231274
675.000000	55.208060
674.000000	55.163926
673.000000	55.132087
672.000000	55.141280
671.000000	55.203001
670.000000	55.323068
669.000000	55.509850
668.000000	55.751833
667.000000	55.977210
666.000000	56.124750
665.000000	56.227525
664.000000	56.320597
663.000000	56.395495
662.000000	56.430950
661.000000	56.425914
660.000000	56.392671
659.000000	56.341539
658.000000	56.287249
657.000000	56.250976
656.000000	56.246885
655.000000	56.276536
654.000000	56.340635
653.000000	56.442078
652.000000	56.573239
651.000000	56.712004
650.000000	56.836204
649.000000	56.933152
648.000000	56.990300
647.000000	56.993443
646.000000	56.944025
645.000000	56.861994
644.000000	56.763793
643.000000	56.652399
642.000000	56.534621
641.000000	56.429768
640.000000	56.350725
639.000000	56.292472
638.000000	56.245850
637.000000	56.208239
636.000000	56.172253
635.000000	56.115048
634.000000	56.007454
633.000000	55.822682
632.000000	55.537044
631.000000	55.147888
630.000000	54.702366
629.000000	54.290001
628.000000	53.993549
627.000000	53.849189
626.000000	53.842887
625.000000	53.928106
624.000000	54.045985
623.000000	54.147980
622.000000	54.218389
621.000000	54.268275
620.000000	54.306230
619.000000	54.326203
618.000000	54.323741
617.000000	54.306487
616.000000	54.280256
615.000000	54.239220
614.000000	54.178866
613.000000	54.105793
612.000000	54.028038
611.000000	53.949403
610.000000	53.876495
609.000000	53.818575
608.000000	53.773633
607.000000	53.727224
606.000000	53.671339
605.000000	53.609849
604.000000	53.541541
603.000000	53.453723
602.000000	53.339323
601.000000	53.205744
600.000000	53.056757
599.000000	52.879995
598.000000	52.665554
597.000000	52.421765
596.000000	52.167595
595.000000	51.925965
594.000000	51.732303
593.000000	51.630950
592.000000	51.647011
591.000000	51.763102
590.000000	51.932210
589.000000	52.112505
588.000000	52.279286
587.000000	52.422621
586.000000	52.547187
585.000000	52.664496
584.000000	52.775410
583.000000	52.870768
582.000000	52.954018
581.000000	53.043358
580.000000	53.142522
579.000000	53.230021
578.000000	53.295681
577.000000	53.361426
576.000000	53.450738
575.000000	53.553370
574.000000	53.639683
573.000000	53.696931
572.000000	53.730165
571.000000	53.747123
570.000000	53.759547
569.000000	53.784984
568.000000	53.830312
567.000000	53.884650
566.000000	53.935720
565.000000	53.983081
564.000000	54.027375
563.000000	54.063342
562.000000	54.092205
561.000000	54.123793
560.000000	54.159333
559.000000	54.187081
558.000000	54.201328
557.000000	54.208803
556.000000	54.213119
555.000000	54.208757
554.000000	54.195983
553.000000	54.184343
552.000000	54.176804
551.000000	54.166962
550.000000	54.156212
549.000000	54.156754
548.000000	54.174437
547.000000	54.206713
546.000000	54.258249
545.000000	54.337265
544.000000	54.433771
543.000000	54.524656
542.000000	54.602959
541.000000	54.681599
540.000000	54.762532
539.000000	54.828322
538.000000	54.870994
537.000000	54.906751
536.000000	54.952515
535.000000	55.009263
534.000000	55.077237
533.000000	55.165226
532.000000	55.277176
531.000000	55.404505
530.000000	55.539817
529.000000	55.684728
528.000000	55.839894
527.000000	56.003141
526.000000	56.183255
525.000000	56.382232
524.000000	56.565546
523.000000	56.683263
522.000000	56.716934
521.000000	56.686792
520.000000	56.619999
519.000000	56.536007
518.000000	56.463609
517.000000	56.435367
516.000000	56.446074
515.000000	56.452360
514.000000	56.421912
513.000000	56.356255
512.000000	56.260590
511.000000	56.120474
510.000000	55.919423
509.000000	55.656714
508.000000	55.334407
507.000000	54.949376
506.000000	54.509917
505.000000	54.036862
504.000000	53.544460
503.000000	53.052145
502.000000	52.611717
501.000000	52.276785
500.000000	52.050347
499.000000	51.898176
498.000000	51.810047
497.000000	51.809372
496.000000	51.909104
495.000000	52.090441
494.000000	52.329493
493.000000	52.625594
492.000000	52.974873
491.000000	53.342619
490.000000	53.690282
489.000000	54.007893
488.000000	54.307474
487.000000	54.605221
486.000000	54.926768
485.000000	55.302807
484.000000	55.732988
483.000000	56.170422
482.000000	56.566662
481.000000	56.907791
480.000000	57.182642
479.000000	57.361762
478.000000	57.434580
477.000000	57.430403
476.000000	57.376436
475.000000	57.271745
474.000000	57.138918
473.000000	57.067062
472.000000	57.132627
471.000000	57.301575
470.000000	57.512252
469.000000	57.772552
468.000000	58.115144
467.000000	58.519525
466.000000	58.918365
465.000000	59.265273
464.000000	59.542814
463.000000	59.737407
462.000000	59.855365
461.000000	59.929558
460.000000	59.961732
459.000000	59.918422
458.000000	59.830109
457.000000	59.787838
456.000000	59.810674
455.000000	59.860144
454.000000	59.947707
453.000000	60.141565
452.000000	60.462831
451.000000	60.811849
450.000000	61.077930
449.000000	61.251643
448.000000	61.380281
447.000000	61.476709
446.000000	61.524488
445.000000	61.533435
444.000000	61.535325
443.000000	61.561722
442.000000	61.649073
441.000000	61.820803
440.000000	62.041539
439.000000	62.238031
438.000000	62.382608
437.000000	62.530556
436.000000	62.732825
435.000000	62.954297
434.000000	63.134674
433.000000	63.263673
432.000000	63.331640
431.000000	63.295609
430.000000	63.145251
429.000000	62.924525
428.000000	62.646175
427.000000	62.268622
426.000000	61.793585
425.000000	61.286434
424.000000	60.778303
423.000000	60.234407
422.000000	59.619838
421.000000	58.870672
420.000000	57.842162
419.000000	56.576283
418.000000	55.407846
417.000000	54.555451
416.000000	53.945917
415.000000	53.416981
414.000000	52.925295
413.000000	52.577517
412.000000	52.462739
411.000000	52.540161
410.000000	52.730767
409.000000	53.031953
408.000000	53.459975
407.000000	53.984212
406.000000	54.584545
405.000000	55.297937
404.000000	56.125619
403.000000	57.051655
402.000000	57.849086
401.000000	58.571494
400.000000	59.300756
