PE IR       SUBTECH     SPECTRUM    ASCII       PEDS        4.00        
   -1
23ms095_nitro.asc
24/09/12
15:55:45.00
24/09/12
15:55:45.00
Administrator
Sample 1172 By Administrator Date Thursday, September 12 2024
400.000000
#HDR
-1
-1
#GR
cm-1
%T
1.0
0.0
4000.000000
-1.000000
3601
8
72.821764
0.707220
#DATA
4000.000000	41.104139
3999.000000	41.152814
3998.000000	41.201435
3997.000000	41.250250
3996.000000	41.299485
3995.000000	41.348952
3994.000000	41.398149
3993.000000	41.446670
3992.000000	41.494432
3991.000000	41.541454
3990.000000	41.587600
3989.000000	41.632827
3988.000000	41.677543
3987.000000	41.722494
3986.000000	41.768258
3985.000000	41.814737
3984.000000	41.861159
3983.000000	41.906548
3982.000000	41.950464
3981.000000	41.993421
3980.000000	42.036515
3979.000000	42.080675
3978.000000	42.125920
3977.000000	42.171141
3976.000000	42.214807
3975.000000	42.255918
3974.000000	42.294574
3973.000000	42.331856
3972.000000	42.369185
3971.000000	42.407760
3970.000000	42.447952
3969.000000	42.489381
3968.000000	42.531462
3967.000000	42.573768
3966.000000	42.616063
3965.000000	42.658100
3964.000000	42.699479
3963.000000	42.739609
3962.000000	42.778209
3961.000000	42.815586
3960.000000	42.852696
3959.000000	42.890899
3958.000000	42.930882
3957.000000	42.972540
3956.000000	43.015579
3955.000000	43.059803
3954.000000	43.105046
3953.000000	43.150531
3952.000000	43.194987
3951.000000	43.237122
3950.000000	43.276154
3949.000000	43.312437
3948.000000	43.347544
3947.000000	43.383948
3946.000000	43.424008
3945.000000	43.468499
3944.000000	43.515462
3943.000000	43.560593
3942.000000	43.601114
3941.000000	43.638413
3940.000000	43.676240
3939.000000	43.717838
3938.000000	43.763284
3937.000000	43.810209
3936.000000	43.856790
3935.000000	43.902571
3934.000000	43.947656
3933.000000	43.990673
3932.000000	44.030010
3931.000000	44.065833
3930.000000	44.100009
3929.000000	44.136173
3928.000000	44.177468
3927.000000	44.224826
3926.000000	44.275051
3925.000000	44.321335
3924.000000	44.359600
3923.000000	44.392282
3922.000000	44.424635
3921.000000	44.460068
3920.000000	44.498772
3919.000000	44.539375
3918.000000	44.579903
3917.000000	44.618434
3916.000000	44.654905
3915.000000	44.691384
3914.000000	44.731059
3913.000000	44.775651
3912.000000	44.824047
3911.000000	44.874602
3910.000000	44.925814
3909.000000	44.977622
3908.000000	45.031260
3907.000000	45.085275
3906.000000	45.134355
3905.000000	45.170685
3904.000000	45.191806
3903.000000	45.205430
3902.000000	45.221797
3901.000000	45.245757
3900.000000	45.275713
3899.000000	45.308095
3898.000000	45.343201
3897.000000	45.384007
3896.000000	45.431962
3895.000000	45.486969
3894.000000	45.545883
3893.000000	45.602786
3892.000000	45.650291
3891.000000	45.685389
3890.000000	45.712680
3889.000000	45.740274
3888.000000	45.776312
3887.000000	45.823821
3886.000000	45.875290
3885.000000	45.919585
3884.000000	45.953636
3883.000000	45.982933
3882.000000	46.013319
3881.000000	46.045368
3880.000000	46.076715
3879.000000	46.107821
3878.000000	46.142737
3877.000000	46.186193
3876.000000	46.240230
3875.000000	46.299545
3874.000000	46.352826
3873.000000	46.392992
3872.000000	46.423193
3871.000000	46.449616
3870.000000	46.474277
3869.000000	46.498507
3868.000000	46.525050
3867.000000	46.557476
3866.000000	46.598100
3865.000000	46.643199
3864.000000	46.686585
3863.000000	46.726007
3862.000000	46.762803
3861.000000	46.802525
3860.000000	46.851505
3859.000000	46.913141
3858.000000	46.986938
3857.000000	47.067154
3856.000000	47.141730
3855.000000	47.188763
3854.000000	47.193045
3853.000000	47.175494
3852.000000	47.169395
3851.000000	47.181861
3850.000000	47.207008
3849.000000	47.245031
3848.000000	47.297304
3847.000000	47.362618
3846.000000	47.434453
3845.000000	47.503713
3844.000000	47.564017
3843.000000	47.612819
3842.000000	47.651587
3841.000000	47.685846
3840.000000	47.717191
3839.000000	47.744432
3838.000000	47.770919
3837.000000	47.800955
3836.000000	47.834623
3835.000000	47.868779
3834.000000	47.903507
3833.000000	47.942396
3832.000000	47.986300
3831.000000	48.033269
3830.000000	48.081955
3829.000000	48.131897
3828.000000	48.183377
3827.000000	48.236201
3826.000000	48.287133
3825.000000	48.334367
3824.000000	48.379788
3823.000000	48.426645
3822.000000	48.473165
3821.000000	48.510830
3820.000000	48.535938
3819.000000	48.553653
3818.000000	48.573082
3817.000000	48.601716
3816.000000	48.640370
3815.000000	48.685840
3814.000000	48.736106
3813.000000	48.788070
3812.000000	48.838793
3811.000000	48.889747
3810.000000	48.943498
3809.000000	48.998694
3808.000000	49.050404
3807.000000	49.094277
3806.000000	49.130454
3805.000000	49.162869
3804.000000	49.194517
3803.000000	49.230371
3802.000000	49.269190
3801.000000	49.305172
3800.000000	49.338404
3799.000000	49.371286
3798.000000	49.406265
3797.000000	49.445478
3796.000000	49.489206
3795.000000	49.536570
3794.000000	49.587406
3793.000000	49.640613
3792.000000	49.694469
3791.000000	49.748640
3790.000000	49.802460
3789.000000	49.854002
3788.000000	49.902518
3787.000000	49.949332
3786.000000	49.995798
3785.000000	50.040903
3784.000000	50.082650
3783.000000	50.122321
3782.000000	50.163755
3781.000000	50.208639
3780.000000	50.254061
3779.000000	50.296598
3778.000000	50.336469
3777.000000	50.377112
3776.000000	50.421561
3775.000000	50.470719
3774.000000	50.523043
3773.000000	50.575512
3772.000000	50.626154
3771.000000	50.674252
3770.000000	50.718465
3769.000000	50.757651
3768.000000	50.792862
3767.000000	50.828582
3766.000000	50.870502
3765.000000	50.918422
3764.000000	50.968012
3763.000000	51.017972
3762.000000	51.070382
3761.000000	51.125620
3760.000000	51.179122
3759.000000	51.228403
3758.000000	51.274367
3757.000000	51.317404
3756.000000	51.358520
3755.000000	51.399896
3754.000000	51.443912
3753.000000	51.488588
3752.000000	51.528277
3751.000000	51.564411
3750.000000	51.604746
3749.000000	51.649428
3748.000000	51.691153
3747.000000	51.729573
3746.000000	51.771764
3745.000000	51.819985
3744.000000	51.873385
3743.000000	51.932655
3742.000000	51.992411
3741.000000	52.047206
3740.000000	52.099852
3739.000000	52.159031
3738.000000	52.230539
3737.000000	52.308572
3736.000000	52.380328
3735.000000	52.434146
3734.000000	52.471799
3733.000000	52.506442
3732.000000	52.548621
3731.000000	52.599963
3730.000000	52.655086
3729.000000	52.710677
3728.000000	52.769715
3727.000000	52.833785
3726.000000	52.899157
3725.000000	52.960810
3724.000000	53.017721
3723.000000	53.071165
3722.000000	53.122401
3721.000000	53.173242
3720.000000	53.223534
3719.000000	53.274235
3718.000000	53.326057
3717.000000	53.376750
3716.000000	53.424700
3715.000000	53.469575
3714.000000	53.513490
3713.000000	53.558514
3712.000000	53.605202
3711.000000	53.654614
3710.000000	53.708017
3709.000000	53.765996
3708.000000	53.826933
3707.000000	53.888230
3706.000000	53.948256
3705.000000	54.007216
3704.000000	54.065904
3703.000000	54.124444
3702.000000	54.181822
3701.000000	54.237536
3700.000000	54.291079
3699.000000	54.343734
3698.000000	54.399279
3697.000000	54.458317
3696.000000	54.517027
3695.000000	54.571155
3694.000000	54.620037
3693.000000	54.666640
3692.000000	54.713664
3691.000000	54.760125
3690.000000	54.804002
3689.000000	54.849078
3688.000000	54.900839
3687.000000	54.956055
3686.000000	55.008128
3685.000000	55.056262
3684.000000	55.102729
3683.000000	55.150905
3682.000000	55.203504
3681.000000	55.258361
3680.000000	55.308230
3679.000000	55.344554
3678.000000	55.369258
3677.000000	55.396277
3676.000000	55.437841
3675.000000	55.494388
3674.000000	55.550141
3673.000000	55.589279
3672.000000	55.616770
3671.000000	55.653708
3670.000000	55.711010
3669.000000	55.780933
3668.000000	55.849892
3667.000000	55.908330
3666.000000	55.955913
3665.000000	56.000077
3664.000000	56.047599
3663.000000	56.101866
3662.000000	56.160399
3661.000000	56.214617
3660.000000	56.257255
3659.000000	56.286297
3658.000000	56.307000
3657.000000	56.328007
3656.000000	56.355184
3655.000000	56.386838
3654.000000	56.413078
3653.000000	56.427263
3652.000000	56.434198
3651.000000	56.442319
3650.000000	56.454341
3649.000000	56.472916
3648.000000	56.505290
3647.000000	56.550369
3646.000000	56.595052
3645.000000	56.629063
3644.000000	56.653638
3643.000000	56.676720
3642.000000	56.701343
3641.000000	56.724383
3640.000000	56.744036
3639.000000	56.761729
3638.000000	56.777985
3637.000000	56.790664
3636.000000	56.800387
3635.000000	56.811080
3634.000000	56.821959
3633.000000	56.824667
3632.000000	56.810552
3631.000000	56.782132
3630.000000	56.755091
3629.000000	56.748676
3628.000000	56.769870
3627.000000	56.805569
3626.000000	56.834220
3625.000000	56.847303
3624.000000	56.850767
3623.000000	56.851860
3622.000000	56.851794
3621.000000	56.847122
3620.000000	56.835468
3619.000000	56.820315
3618.000000	56.806312
3617.000000	56.791333
3616.000000	56.771523
3615.000000	56.748347
3614.000000	56.725732
3613.000000	56.705005
3612.000000	56.685394
3611.000000	56.667310
3610.000000	56.655425
3609.000000	56.656810
3608.000000	56.671947
3607.000000	56.693098
3606.000000	56.709772
3605.000000	56.715190
3604.000000	56.709824
3603.000000	56.698695
3602.000000	56.687632
3601.000000	56.679897
3600.000000	56.674316
3599.000000	56.666355
3598.000000	56.652660
3597.000000	56.633718
3596.000000	56.615759
3595.000000	56.604135
3594.000000	56.598106
3593.000000	56.591779
3592.000000	56.577659
3591.000000	56.552504
3590.000000	56.522188
3589.000000	56.500215
3588.000000	56.497496
3587.000000	56.512964
3586.000000	56.534092
3585.000000	56.547451
3584.000000	56.547379
3583.000000	56.536637
3582.000000	56.520744
3581.000000	56.503184
3580.000000	56.485676
3579.000000	56.468973
3578.000000	56.453284
3577.000000	56.438181
3576.000000	56.423831
3575.000000	56.411690
3574.000000	56.402606
3573.000000	56.395055
3572.000000	56.384829
3571.000000	56.366445
3570.000000	56.337874
3569.000000	56.305395
3568.000000	56.281545
3567.000000	56.275267
3566.000000	56.283448
3565.000000	56.293950
3564.000000	56.296923
3563.000000	56.291199
3562.000000	56.280243
3561.000000	56.266879
3560.000000	56.252693
3559.000000	56.239069
3558.000000	56.226346
3557.000000	56.213076
3556.000000	56.197715
3555.000000	56.180832
3554.000000	56.164442
3553.000000	56.149461
3552.000000	56.134602
3551.000000	56.116829
3550.000000	56.093700
3549.000000	56.067799
3548.000000	56.046977
3547.000000	56.038212
3546.000000	56.039700
3545.000000	56.042134
3544.000000	56.037243
3543.000000	56.022754
3542.000000	55.999995
3541.000000	55.971762
3540.000000	55.942452
3539.000000	55.916497
3538.000000	55.894998
3537.000000	55.874629
3536.000000	55.851598
3535.000000	55.824480
3534.000000	55.794142
3533.000000	55.762452
3532.000000	55.731631
3531.000000	55.703054
3530.000000	55.675633
3529.000000	55.647776
3528.000000	55.620486
3527.000000	55.596416
3526.000000	55.575688
3525.000000	55.554828
3524.000000	55.529742
3523.000000	55.498332
3522.000000	55.460676
3521.000000	55.419053
3520.000000	55.377634
3519.000000	55.339601
3518.000000	55.304674
3517.000000	55.270510
3516.000000	55.235906
3515.000000	55.199885
3514.000000	55.158948
3513.000000	55.108940
3512.000000	55.050289
3511.000000	54.988910
3510.000000	54.930958
3509.000000	54.878128
3508.000000	54.828073
3507.000000	54.778003
3506.000000	54.727083
3505.000000	54.676730
3504.000000	54.628519
3503.000000	54.580944
3502.000000	54.528901
3501.000000	54.468107
3500.000000	54.399426
3499.000000	54.326928
3498.000000	54.253076
3497.000000	54.177714
3496.000000	54.100829
3495.000000	54.023165
3494.000000	53.944195
3493.000000	53.862337
3492.000000	53.777515
3491.000000	53.691398
3490.000000	53.605065
3489.000000	53.518368
3488.000000	53.430628
3487.000000	53.339952
3486.000000	53.242949
3485.000000	53.137975
3484.000000	53.029139
3483.000000	52.924147
3482.000000	52.827000
3481.000000	52.734206
3480.000000	52.637880
3479.000000	52.531549
3478.000000	52.413533
3477.000000	52.287349
3476.000000	52.159103
3475.000000	52.032836
3474.000000	51.908724
3473.000000	51.786071
3472.000000	51.666110
3471.000000	51.549378
3470.000000	51.431867
3469.000000	51.307140
3468.000000	51.171647
3467.000000	51.025925
3466.000000	50.872034
3465.000000	50.712718
3464.000000	50.552514
3463.000000	50.395862
3462.000000	50.243151
3461.000000	50.090467
3460.000000	49.933334
3459.000000	49.769672
3458.000000	49.599811
3457.000000	49.425861
3456.000000	49.251135
3455.000000	49.077628
3454.000000	48.904506
3453.000000	48.729727
3452.000000	48.552344
3451.000000	48.371893
3450.000000	48.186834
3449.000000	47.996425
3448.000000	47.803243
3447.000000	47.610705
3446.000000	47.418302
3445.000000	47.222110
3444.000000	47.019898
3443.000000	46.813411
3442.000000	46.605630
3441.000000	46.398432
3440.000000	46.192670
3439.000000	45.987724
3438.000000	45.780398
3437.000000	45.565996
3436.000000	45.341472
3435.000000	45.106386
3434.000000	44.862167
3433.000000	44.612130
3432.000000	44.360657
3431.000000	44.109890
3430.000000	43.857165
3429.000000	43.598139
3428.000000	43.332026
3427.000000	43.061331
3426.000000	42.787752
3425.000000	42.511056
3424.000000	42.231122
3423.000000	41.948214
3422.000000	41.661317
3421.000000	41.369026
3420.000000	41.071786
3419.000000	40.770858
3418.000000	40.466074
3417.000000	40.156814
3416.000000	39.844221
3415.000000	39.529664
3414.000000	39.211524
3413.000000	38.886637
3412.000000	38.554154
3411.000000	38.215563
3410.000000	37.871437
3409.000000	37.520718
3408.000000	37.163256
3407.000000	36.800552
3406.000000	36.434448
3405.000000	36.066976
3404.000000	35.700348
3403.000000	35.334522
3402.000000	34.965033
3401.000000	34.585507
3400.000000	34.192578
3399.000000	33.787417
3398.000000	33.373893
3397.000000	32.956694
3396.000000	32.539488
3395.000000	32.122846
3394.000000	31.704029
3393.000000	31.279972
3392.000000	30.849429
3391.000000	30.411734
3390.000000	29.966358
3389.000000	29.514772
3388.000000	29.060618
3387.000000	28.606156
3386.000000	28.150292
3385.000000	27.691717
3384.000000	27.231364
3383.000000	26.770265
3382.000000	26.307390
3381.000000	25.841503
3380.000000	25.373234
3379.000000	24.903467
3378.000000	24.431778
3377.000000	23.958186
3376.000000	23.484360
3375.000000	23.011680
3374.000000	22.540002
3373.000000	22.069496
3372.000000	21.601349
3371.000000	21.135195
3370.000000	20.668336
3369.000000	20.199007
3368.000000	19.728378
3367.000000	19.258388
3366.000000	18.790126
3365.000000	18.325174
3364.000000	17.865750
3363.000000	17.412172
3362.000000	16.962553
3361.000000	16.516124
3360.000000	16.074259
3359.000000	15.637508
3358.000000	15.204558
3357.000000	14.775008
3356.000000	14.350554
3355.000000	13.932260
3354.000000	13.519645
3353.000000	13.113279
3352.000000	12.715108
3351.000000	12.325512
3350.000000	11.942676
3349.000000	11.565786
3348.000000	11.196214
3347.000000	10.834407
3346.000000	10.479121
3345.000000	10.130196
3344.000000	9.789176
3343.000000	9.456618
3342.000000	9.131367
3341.000000	8.813519
3340.000000	8.504891
3339.000000	8.205878
3338.000000	7.915079
3337.000000	7.632086
3336.000000	7.358038
3335.000000	7.092780
3334.000000	6.834515
3333.000000	6.583134
3332.000000	6.340274
3331.000000	6.106043
3330.000000	5.878602
3329.000000	5.657300
3328.000000	5.443789
3327.000000	5.239079
3326.000000	5.042711
3325.000000	4.854862
3324.000000	4.676025
3323.000000	4.504918
3322.000000	4.339300
3321.000000	4.179156
3320.000000	4.026398
3319.000000	3.881061
3318.000000	3.741530
3317.000000	3.607774
3316.000000	3.481341
3315.000000	3.362197
3314.000000	3.248374
3313.000000	3.139126
3312.000000	3.035242
3311.000000	2.936435
3310.000000	2.841765
3309.000000	2.752119
3308.000000	2.669613
3307.000000	2.594507
3306.000000	2.525501
3305.000000	2.462785
3304.000000	2.407125
3303.000000	2.356883
3302.000000	2.309033
3301.000000	2.262764
3300.000000	2.219297
3299.000000	2.178554
3298.000000	2.139485
3297.000000	2.103066
3296.000000	2.071327
3295.000000	2.043983
3294.000000	2.019139
3293.000000	1.996928
3292.000000	1.979062
3291.000000	1.964912
3290.000000	1.951900
3289.000000	1.939267
3288.000000	1.928306
3287.000000	1.919191
3286.000000	1.910719
3285.000000	1.903130
3284.000000	1.897705
3283.000000	1.893883
3282.000000	1.889899
3281.000000	1.885923
3280.000000	1.883583
3279.000000	1.882622
3278.000000	1.881259
3277.000000	1.879465
3276.000000	1.878694
3275.000000	1.878781
3274.000000	1.878277
3273.000000	1.877715
3272.000000	1.879330
3271.000000	1.883619
3270.000000	1.889129
3269.000000	1.895308
3268.000000	1.902654
3267.000000	1.910357
3266.000000	1.916791
3265.000000	1.922137
3264.000000	1.927869
3263.000000	1.933942
3262.000000	1.939215
3261.000000	1.944067
3260.000000	1.949795
3259.000000	1.955979
3258.000000	1.961246
3257.000000	1.966152
3256.000000	1.972444
3255.000000	1.980064
3254.000000	1.987588
3253.000000	1.995023
3252.000000	2.003252
3251.000000	2.011408
3250.000000	2.017811
3249.000000	2.023104
3248.000000	2.029625
3247.000000	2.038003
3246.000000	2.047020
3245.000000	2.056225
3244.000000	2.066032
3243.000000	2.075744
3242.000000	2.084209
3241.000000	2.091949
3240.000000	2.100191
3239.000000	2.108342
3238.000000	2.114915
3237.000000	2.120206
3236.000000	2.125686
3235.000000	2.131625
3234.000000	2.137694
3233.000000	2.144847
3232.000000	2.153877
3231.000000	2.163117
3230.000000	2.170329
3229.000000	2.176025
3228.000000	2.182281
3227.000000	2.189283
3226.000000	2.195727
3225.000000	2.201634
3224.000000	2.207848
3223.000000	2.213670
3222.000000	2.217821
3221.000000	2.221019
3220.000000	2.224883
3219.000000	2.229021
3218.000000	2.231877
3217.000000	2.233617
3216.000000	2.235552
3215.000000	2.237586
3214.000000	2.238800
3213.000000	2.239686
3212.000000	2.241162
3211.000000	2.242276
3210.000000	2.241529
3209.000000	2.239553
3208.000000	2.237977
3207.000000	2.236598
3206.000000	2.234181
3205.000000	2.231080
3204.000000	2.228450
3203.000000	2.225866
3202.000000	2.222227
3201.000000	2.217998
3200.000000	2.214092
3199.000000	2.209638
3198.000000	2.203466
3197.000000	2.196641
3196.000000	2.190890
3195.000000	2.185630
3194.000000	2.179189
3193.000000	2.171835
3192.000000	2.164987
3191.000000	2.158466
3190.000000	2.151232
3189.000000	2.143798
3188.000000	2.137268
3187.000000	2.130959
3186.000000	2.123541
3185.000000	2.115588
3184.000000	2.108500
3183.000000	2.101933
3182.000000	2.094706
3181.000000	2.087186
3180.000000	2.080342
3179.000000	2.073590
3178.000000	2.066031
3177.000000	2.058690
3176.000000	2.053045
3175.000000	2.048431
3174.000000	2.043334
3173.000000	2.038065
3172.000000	2.033772
3171.000000	2.030042
3170.000000	2.025908
3169.000000	2.022033
3168.000000	2.019516
3167.000000	2.017675
3166.000000	2.015372
3165.000000	2.013297
3164.000000	2.012634
3163.000000	2.012775
3162.000000	2.012606
3161.000000	2.012745
3160.000000	2.014175
3159.000000	2.016066
3158.000000	2.017258
3157.000000	2.018463
3156.000000	2.020800
3155.000000	2.023680
3154.000000	2.026509
3153.000000	2.030865
3152.000000	2.038361
3151.000000	2.047832
3150.000000	2.057112
3149.000000	2.066160
3148.000000	2.076028
3147.000000	2.086265
3146.000000	2.095974
3145.000000	2.105965
3144.000000	2.117262
3143.000000	2.128862
3142.000000	2.139503
3141.000000	2.150362
3140.000000	2.163504
3139.000000	2.178857
3138.000000	2.195172
3137.000000	2.212508
3136.000000	2.231310
3135.000000	2.250410
3134.000000	2.268425
3133.000000	2.286110
3132.000000	2.305003
3131.000000	2.325006
3130.000000	2.345467
3129.000000	2.367138
3128.000000	2.390827
3127.000000	2.415471
3126.000000	2.439749
3125.000000	2.464182
3124.000000	2.489504
3123.000000	2.514683
3122.000000	2.538863
3121.000000	2.563637
3120.000000	2.590974
3119.000000	2.620357
3118.000000	2.650384
3117.000000	2.681622
3116.000000	2.715323
3115.000000	2.750756
3114.000000	2.786221
3113.000000	2.821508
3112.000000	2.857148
3111.000000	2.892676
3110.000000	2.927889
3109.000000	2.964337
3108.000000	3.003340
3107.000000	3.043860
3106.000000	3.084385
3105.000000	3.125453
3104.000000	3.168163
3103.000000	3.211882
3102.000000	3.255628
3101.000000	3.300149
3100.000000	3.346433
3099.000000	3.393585
3098.000000	3.440465
3097.000000	3.487900
3096.000000	3.537017
3095.000000	3.586972
3094.000000	3.636511
3093.000000	3.686365
3092.000000	3.737891
3091.000000	3.790735
3090.000000	3.843995
3089.000000	3.898191
3088.000000	3.953970
3087.000000	4.010359
3086.000000	4.066353
3085.000000	4.122858
3084.000000	4.180950
3083.000000	4.239760
3082.000000	4.298249
3081.000000	4.357471
3080.000000	4.418970
3079.000000	4.482303
3078.000000	4.546238
3077.000000	4.610927
3076.000000	4.676773
3075.000000	4.742709
3074.000000	4.807743
3073.000000	4.872793
3072.000000	4.938987
3071.000000	5.005579
3070.000000	5.071641
3069.000000	5.138273
3068.000000	5.206927
3067.000000	5.276971
3066.000000	5.346991
3065.000000	5.417225
3064.000000	5.488545
3063.000000	5.560350
3062.000000	5.631585
3061.000000	5.702624
3060.000000	5.774224
3059.000000	5.845856
3058.000000	5.916925
3057.000000	5.988355
3056.000000	6.061085
3055.000000	6.134290
3054.000000	6.207004
3053.000000	6.280161
3052.000000	6.355165
3051.000000	6.431605
3050.000000	6.508158
3049.000000	6.584495
3048.000000	6.660585
3047.000000	6.735547
3046.000000	6.809082
3045.000000	6.882823
3044.000000	6.958484
3043.000000	7.035810
3042.000000	7.113848
3041.000000	7.192807
3040.000000	7.272898
3039.000000	7.352806
3038.000000	7.431196
3037.000000	7.508584
3036.000000	7.586118
3035.000000	7.663746
3034.000000	7.741141
3033.000000	7.819065
3032.000000	7.898153
3031.000000	7.977628
3030.000000	8.056773
3029.000000	8.136310
3028.000000	8.216884
3027.000000	8.297685
3026.000000	8.378060
3025.000000	8.458870
3024.000000	8.540640
3023.000000	8.621966
3022.000000	8.701519
3021.000000	8.780142
3020.000000	8.859245
3019.000000	8.938611
3018.000000	9.017567
3017.000000	9.096887
3016.000000	9.177663
3015.000000	9.259509
3014.000000	9.341645
3013.000000	9.424507
3012.000000	9.508585
3011.000000	9.592913
3010.000000	9.676338
3009.000000	9.759116
3008.000000	9.841727
3007.000000	9.923458
3006.000000	10.003751
3005.000000	10.083732
3004.000000	10.164807
3003.000000	10.246782
3002.000000	10.328843
3001.000000	10.411216
3000.000000	10.494412
2999.000000	10.577919
2998.000000	10.660958
2997.000000	10.743471
2996.000000	10.825250
2995.000000	10.905522
2994.000000	10.984681
2993.000000	11.064958
2992.000000	11.147879
2991.000000	11.232389
2990.000000	11.316795
2989.000000	11.401116
2988.000000	11.486005
2987.000000	11.570861
2986.000000	11.654653
2985.000000	11.737445
2984.000000	11.819591
2983.000000	11.900698
2982.000000	11.980886
2981.000000	12.061803
2980.000000	12.144789
2979.000000	12.229131
2978.000000	12.313566
2977.000000	12.398315
2976.000000	12.484174
2975.000000	12.570761
2974.000000	12.657179
2973.000000	12.743296
2972.000000	12.829012
2971.000000	12.913411
2970.000000	12.996114
2969.000000	13.078371
2968.000000	13.161410
2967.000000	13.244875
2966.000000	13.328171
2965.000000	13.412055
2964.000000	13.497381
2963.000000	13.583474
2962.000000	13.669230
2961.000000	13.754573
2960.000000	13.839408
2959.000000	13.922521
2958.000000	14.003044
2957.000000	14.081823
2956.000000	14.160016
2955.000000	14.237792
2954.000000	14.315683
2953.000000	14.395431
2952.000000	14.477781
2951.000000	14.560888
2950.000000	14.642657
2949.000000	14.723285
2948.000000	14.803996
2947.000000	14.884793
2946.000000	14.965233
2945.000000	15.046025
2944.000000	15.127929
2943.000000	15.210181
2942.000000	15.291781
2941.000000	15.373402
2940.000000	15.456291
2939.000000	15.540269
2938.000000	15.624350
2937.000000	15.708386
2936.000000	15.792452
2935.000000	15.875559
2934.000000	15.956683
2933.000000	16.036337
2932.000000	16.115691
2931.000000	16.195043
2930.000000	16.274528
2929.000000	16.355242
2928.000000	16.438122
2927.000000	16.522701
2926.000000	16.608372
2925.000000	16.695633
2924.000000	16.784487
2923.000000	16.872740
2922.000000	16.957532
2921.000000	17.037638
2920.000000	17.112899
2919.000000	17.182805
2918.000000	17.247302
2917.000000	17.307954
2916.000000	17.366711
2915.000000	17.424327
2914.000000	17.481286
2913.000000	17.539055
2912.000000	17.599020
2911.000000	17.661010
2910.000000	17.724205
2909.000000	17.788573
2908.000000	17.854135
2907.000000	17.919829
2906.000000	17.984518
2905.000000	18.048394
2904.000000	18.112235
2903.000000	18.176017
2902.000000	18.239875
2901.000000	18.304999
2900.000000	18.372689
2899.000000	18.442957
2898.000000	18.514843
2897.000000	18.587376
2896.000000	18.659087
2895.000000	18.727787
2894.000000	18.792256
2893.000000	18.853555
2892.000000	18.913586
2891.000000	18.973217
2890.000000	19.032847
2889.000000	19.093673
2888.000000	19.156870
2887.000000	19.222213
2886.000000	19.288809
2885.000000	19.356506
2884.000000	19.425306
2883.000000	19.494095
2882.000000	19.561308
2881.000000	19.626408
2880.000000	19.689696
2879.000000	19.751450
2878.000000	19.812594
2877.000000	19.875474
2876.000000	19.942216
2875.000000	20.012327
2874.000000	20.083141
2873.000000	20.152565
2872.000000	20.220519
2871.000000	20.288031
2870.000000	20.355970
2869.000000	20.424519
2868.000000	20.492870
2867.000000	20.559578
2866.000000	20.623941
2865.000000	20.686928
2864.000000	20.750309
2863.000000	20.815295
2862.000000	20.882487
2861.000000	20.952281
2860.000000	21.024372
2859.000000	21.097545
2858.000000	21.170889
2857.000000	21.244791
2856.000000	21.319949
2855.000000	21.396015
2854.000000	21.471950
2853.000000	21.547006
2852.000000	21.620432
2851.000000	21.690695
2850.000000	21.755967
2849.000000	21.815189
2848.000000	21.868334
2847.000000	21.916475
2846.000000	21.962198
2845.000000	22.008980
2844.000000	22.059175
2843.000000	22.112888
2842.000000	22.169081
2841.000000	22.226762
2840.000000	22.284479
2839.000000	22.340194
2838.000000	22.393189
2837.000000	22.445486
2836.000000	22.500168
2835.000000	22.558722
2834.000000	22.620773
2833.000000	22.685512
2832.000000	22.752061
2831.000000	22.818902
2830.000000	22.884435
2829.000000	22.948150
2828.000000	23.010418
2827.000000	23.071426
2826.000000	23.131227
2825.000000	23.190594
2824.000000	23.250867
2823.000000	23.312979
2822.000000	23.377282
2821.000000	23.443904
2820.000000	23.512417
2819.000000	23.581379
2818.000000	23.649013
2817.000000	23.714280
2816.000000	23.776845
2815.000000	23.836555
2814.000000	23.893788
2813.000000	23.949860
2812.000000	24.006130
2811.000000	24.062862
2810.000000	24.119663
2809.000000	24.176683
2808.000000	24.234474
2807.000000	24.292891
2806.000000	24.350967
2805.000000	24.407750
2804.000000	24.462592
2803.000000	24.514913
2802.000000	24.564545
2801.000000	24.612185
2800.000000	24.658785
2799.000000	24.704711
2798.000000	24.750222
2797.000000	24.796456
2796.000000	24.844990
2795.000000	24.896493
2794.000000	24.950411
2793.000000	25.005728
2792.000000	25.061182
2791.000000	25.115011
2790.000000	25.165557
2789.000000	25.212433
2788.000000	25.256673
2787.000000	25.299858
2786.000000	25.343623
2785.000000	25.389556
2784.000000	25.438534
2783.000000	25.490017
2782.000000	25.542557
2781.000000	25.594945
2780.000000	25.646266
2779.000000	25.695234
2778.000000	25.740390
2777.000000	25.780944
2776.000000	25.816800
2775.000000	25.847848
2774.000000	25.874161
2773.000000	25.896903
2772.000000	25.917953
2771.000000	25.938418
2770.000000	25.958018
2769.000000	25.975864
2768.000000	25.991125
2767.000000	26.002729
2766.000000	26.009313
2765.000000	26.009886
2764.000000	26.004275
2763.000000	25.993159
2762.000000	25.978074
2761.000000	25.961298
2760.000000	25.945022
2759.000000	25.930359
2758.000000	25.917569
2757.000000	25.906773
2756.000000	25.897717
2755.000000	25.889049
2754.000000	25.878644
2753.000000	25.864786
2752.000000	25.846470
2751.000000	25.822926
2750.000000	25.793690
2749.000000	25.759082
2748.000000	25.720009
2747.000000	25.677243
2746.000000	25.631503
2745.000000	25.584049
2744.000000	25.536258
2743.000000	25.488799
2742.000000	25.441984
2741.000000	25.396666
2740.000000	25.354181
2739.000000	25.315743
2738.000000	25.282722
2737.000000	25.257659
2736.000000	25.244063
2735.000000	25.245091
2734.000000	25.263225
2733.000000	25.300150
2732.000000	25.356128
2731.000000	25.429556
2730.000000	25.517504
2729.000000	25.617139
2728.000000	25.725509
2727.000000	25.838506
2726.000000	25.951657
2725.000000	26.061963
2724.000000	26.168778
2723.000000	26.272785
2722.000000	26.374741
2721.000000	26.475266
2720.000000	26.574744
2719.000000	26.672816
2718.000000	26.768404
2717.000000	26.860299
2716.000000	26.947159
2715.000000	27.027210
2714.000000	27.098532
2713.000000	27.160110
2712.000000	27.212253
2711.000000	27.255653
2710.000000	27.291105
2709.000000	27.320033
2708.000000	27.344553
2707.000000	27.366657
2706.000000	27.387297
2705.000000	27.406603
2704.000000	27.424088
2703.000000	27.438457
2702.000000	27.448138
2701.000000	27.452275
2700.000000	27.451094
2699.000000	27.445204
2698.000000	27.435218
2697.000000	27.422369
2696.000000	27.408492
2695.000000	27.395072
2694.000000	27.382766
2693.000000	27.371913
2692.000000	27.362829
2691.000000	27.355137
2690.000000	27.347498
2689.000000	27.338452
2688.000000	27.327120
2687.000000	27.313027
2686.000000	27.296009
2685.000000	27.276789
2684.000000	27.257067
2683.000000	27.238529
2682.000000	27.222062
2681.000000	27.208084
2680.000000	27.196967
2679.000000	27.188682
2678.000000	27.182495
2677.000000	27.177403
2676.000000	27.172761
2675.000000	27.168278
2674.000000	27.163841
2673.000000	27.159800
2672.000000	27.157115
2671.000000	27.157103
2670.000000	27.161106
2669.000000	27.170227
2668.000000	27.185028
2667.000000	27.205053
2666.000000	27.228843
2665.000000	27.254450
2664.000000	27.279675
2663.000000	27.302252
2662.000000	27.320375
2661.000000	27.333339
2660.000000	27.341607
2659.000000	27.346412
2658.000000	27.349566
2657.000000	27.353341
2656.000000	27.359778
2655.000000	27.369926
2654.000000	27.384070
2653.000000	27.402604
2652.000000	27.425999
2651.000000	27.454120
2650.000000	27.486362
2649.000000	27.522473
2648.000000	27.563101
2647.000000	27.609310
2646.000000	27.662072
2645.000000	27.722474
2644.000000	27.791314
2643.000000	27.868553
2642.000000	27.953170
2641.000000	28.043401
2640.000000	28.136975
2639.000000	28.230881
2638.000000	28.321935
2637.000000	28.407931
2636.000000	28.487941
2635.000000	28.561475
2634.000000	28.628085
2633.000000	28.687969
2632.000000	28.742384
2631.000000	28.793021
2630.000000	28.840861
2629.000000	28.886171
2628.000000	28.928795
2627.000000	28.967958
2626.000000	29.002464
2625.000000	29.031301
2624.000000	29.054326
2623.000000	29.072023
2622.000000	29.084965
2621.000000	29.094080
2620.000000	29.100684
2619.000000	29.105988
2618.000000	29.110656
2617.000000	29.114863
2616.000000	29.118458
2615.000000	29.120431
2614.000000	29.118838
2613.000000	29.111736
2612.000000	29.097907
2611.000000	29.076917
2610.000000	29.048907
2609.000000	29.015095
2608.000000	28.978132
2607.000000	28.941275
2606.000000	28.907442
2605.000000	28.879063
2604.000000	28.858249
2603.000000	28.846510
2602.000000	28.844554
2601.000000	28.852163
2600.000000	28.868337
2599.000000	28.891433
2598.000000	28.919556
2597.000000	28.951715
2596.000000	28.987915
2595.000000	29.028438
2594.000000	29.073416
2593.000000	29.122916
2592.000000	29.177351
2591.000000	29.236908
2590.000000	29.300976
2589.000000	29.368330
2588.000000	29.437376
2587.000000	29.506378
2586.000000	29.573778
2585.000000	29.638875
2584.000000	29.702150
2583.000000	29.764680
2582.000000	29.827728
2581.000000	29.892864
2580.000000	29.961887
2579.000000	30.036052
2578.000000	30.115398
2577.000000	30.199118
2576.000000	30.285996
2575.000000	30.374238
2574.000000	30.461492
2573.000000	30.545633
2572.000000	30.625409
2571.000000	30.700149
2570.000000	30.769435
2569.000000	30.833510
2568.000000	30.893698
2567.000000	30.951478
2566.000000	31.007434
2565.000000	31.061513
2564.000000	31.113317
2563.000000	31.161736
2562.000000	31.204361
2561.000000	31.238278
2560.000000	31.261557
2559.000000	31.273239
2558.000000	31.273235
2557.000000	31.262909
2556.000000	31.245718
2555.000000	31.226675
2554.000000	31.210989
2553.000000	31.203674
2552.000000	31.209483
2551.000000	31.231877
2550.000000	31.271684
2549.000000	31.327629
2548.000000	31.397303
2547.000000	31.477519
2546.000000	31.564592
2545.000000	31.654946
2544.000000	31.746483
2543.000000	31.838352
2542.000000	31.929896
2541.000000	32.020719
2540.000000	32.111021
2539.000000	32.200979
2538.000000	32.289646
2537.000000	32.375214
2536.000000	32.456196
2535.000000	32.531745
2534.000000	32.600894
2533.000000	32.662771
2532.000000	32.717667
2531.000000	32.766823
2530.000000	32.811511
2529.000000	32.852835
2528.000000	32.892466
2527.000000	32.932658
2526.000000	32.975069
2525.000000	33.020276
2524.000000	33.067962
2523.000000	33.116910
2522.000000	33.165120
2521.000000	33.210853
2520.000000	33.253688
2519.000000	33.294010
2518.000000	33.331932
2517.000000	33.367607
2516.000000	33.402146
2515.000000	33.437218
2514.000000	33.473827
2513.000000	33.512184
2512.000000	33.552315
2511.000000	33.593686
2510.000000	33.634620
2509.000000	33.673187
2508.000000	33.708589
2507.000000	33.740937
2506.000000	33.770075
2505.000000	33.795912
2504.000000	33.819532
2503.000000	33.842652
2502.000000	33.866224
2501.000000	33.890455
2500.000000	33.915889
2499.000000	33.943087
2498.000000	33.971320
2497.000000	33.998877
2496.000000	34.024569
2495.000000	34.048004
2494.000000	34.068667
2493.000000	34.086031
2492.000000	34.100643
2491.000000	34.113897
2490.000000	34.126840
2489.000000	34.140159
2488.000000	34.154963
2487.000000	34.172290
2486.000000	34.191764
2485.000000	34.211811
2484.000000	34.231123
2483.000000	34.248924
2482.000000	34.264226
2481.000000	34.276189
2480.000000	34.285270
2479.000000	34.292927
2478.000000	34.300206
2477.000000	34.307645
2476.000000	34.316190
2475.000000	34.326921
2474.000000	34.339899
2473.000000	34.354277
2472.000000	34.369348
2471.000000	34.384408
2470.000000	34.397971
2469.000000	34.408501
2468.000000	34.415918
2467.000000	34.421369
2466.000000	34.425777
2465.000000	34.429787
2464.000000	34.434751
2463.000000	34.442233
2462.000000	34.452508
2461.000000	34.464709
2460.000000	34.478292
2459.000000	34.493074
2458.000000	34.507984
2457.000000	34.521175
2456.000000	34.531555
2455.000000	34.539199
2454.000000	34.544479
2453.000000	34.548023
2452.000000	34.551457
2451.000000	34.556811
2450.000000	34.565024
2449.000000	34.575858
2448.000000	34.589030
2447.000000	34.604237
2446.000000	34.620247
2445.000000	34.635293
2444.000000	34.648434
2443.000000	34.659627
2442.000000	34.668709
2441.000000	34.675515
2440.000000	34.680886
2439.000000	34.686414
2438.000000	34.693262
2437.000000	34.702136
2436.000000	34.713979
2435.000000	34.729380
2434.000000	34.747340
2433.000000	34.765783
2432.000000	34.783211
2431.000000	34.798911
2430.000000	34.812033
2429.000000	34.821855
2428.000000	34.828882
2427.000000	34.834579
2426.000000	34.840223
2425.000000	34.846986
2424.000000	34.856612
2423.000000	34.870505
2422.000000	34.888207
2421.000000	34.907821
2420.000000	34.927687
2419.000000	34.946713
2418.000000	34.963664
2417.000000	34.977631
2416.000000	34.988999
2415.000000	34.998796
2414.000000	35.007449
2413.000000	35.015421
2412.000000	35.024569
2411.000000	35.037310
2410.000000	35.054591
2409.000000	35.075707
2408.000000	35.099542
2407.000000	35.124683
2406.000000	35.148814
2405.000000	35.169764
2404.000000	35.187217
2403.000000	35.202294
2402.000000	35.215892
2401.000000	35.228683
2400.000000	35.242186
2399.000000	35.258290
2398.000000	35.277887
2397.000000	35.301108
2396.000000	35.328228
2395.000000	35.358870
2394.000000	35.390873
2393.000000	35.421600
2392.000000	35.450052
2391.000000	35.476560
2390.000000	35.501251
2389.000000	35.524305
2388.000000	35.547624
2387.000000	35.574008
2386.000000	35.605348
2385.000000	35.642981
2384.000000	35.688329
2383.000000	35.742387
2382.000000	35.803750
2381.000000	35.869611
2380.000000	35.938221
2379.000000	36.007932
2378.000000	36.075720
2377.000000	36.138376
2376.000000	36.195277
2375.000000	36.248000
2374.000000	36.298370
2373.000000	36.348284
2372.000000	36.400997
2371.000000	36.459593
2370.000000	36.522891
2369.000000	36.587264
2368.000000	36.650517
2367.000000	36.712093
2366.000000	36.770303
2365.000000	36.823388
2364.000000	36.875454
2363.000000	36.927649
2362.000000	36.976491
2361.000000	37.024925
2360.000000	37.074872
2359.000000	37.129856
2358.000000	37.189098
2357.000000	37.247281
2356.000000	37.306081
2355.000000	37.362337
2354.000000	37.416334
2353.000000	37.468882
2352.000000	37.525413
2351.000000	37.591764
2350.000000	37.653002
2349.000000	37.699175
2348.000000	37.734791
2347.000000	37.785131
2346.000000	37.866784
2345.000000	37.958805
2344.000000	38.036909
2343.000000	38.087371
2342.000000	38.124052
2341.000000	38.160073
2340.000000	38.196455
2339.000000	38.233740
2338.000000	38.270765
2337.000000	38.308685
2336.000000	38.349452
2335.000000	38.396737
2334.000000	38.453711
2333.000000	38.519568
2332.000000	38.589343
2331.000000	38.663224
2330.000000	38.732185
2329.000000	38.797158
2328.000000	38.854685
2327.000000	38.907020
2326.000000	38.958385
2325.000000	39.006611
2324.000000	39.058274
2323.000000	39.110289
2322.000000	39.163780
2321.000000	39.214679
2320.000000	39.264029
2319.000000	39.316308
2318.000000	39.371772
2317.000000	39.430443
2316.000000	39.488859
2315.000000	39.548489
2314.000000	39.606236
2313.000000	39.659697
2312.000000	39.705994
2311.000000	39.747761
2310.000000	39.787984
2309.000000	39.828830
2308.000000	39.872638
2307.000000	39.921155
2306.000000	39.974761
2305.000000	40.029983
2304.000000	40.084869
2303.000000	40.138375
2302.000000	40.189090
2301.000000	40.234737
2300.000000	40.274453
2299.000000	40.310838
2298.000000	40.345856
2297.000000	40.381018
2296.000000	40.418095
2295.000000	40.459617
2294.000000	40.506063
2293.000000	40.554872
2292.000000	40.604533
2291.000000	40.654041
2290.000000	40.701791
2289.000000	40.744139
2288.000000	40.780181
2287.000000	40.811586
2286.000000	40.840594
2285.000000	40.868141
2284.000000	40.896900
2283.000000	40.930732
2282.000000	40.971529
2281.000000	41.017761
2280.000000	41.067379
2279.000000	41.119124
2278.000000	41.170417
2277.000000	41.217525
2276.000000	41.258163
2275.000000	41.292966
2274.000000	41.322622
2273.000000	41.347724
2272.000000	41.370833
2271.000000	41.396150
2270.000000	41.426051
2269.000000	41.460090
2268.000000	41.497815
2267.000000	41.539192
2266.000000	41.581834
2265.000000	41.621356
2264.000000	41.654819
2263.000000	41.681840
2262.000000	41.702068
2261.000000	41.714602
2260.000000	41.721301
2259.000000	41.726255
2258.000000	41.732397
2257.000000	41.740078
2256.000000	41.749609
2255.000000	41.761542
2254.000000	41.773717
2253.000000	41.781842
2252.000000	41.782680
2251.000000	41.775163
2250.000000	41.757286
2249.000000	41.726733
2248.000000	41.684261
2247.000000	41.633546
2246.000000	41.577544
2245.000000	41.517179
2244.000000	41.454327
2243.000000	41.391748
2242.000000	41.329693
2241.000000	41.265615
2240.000000	41.197876
2239.000000	41.126970
2238.000000	41.053088
2237.000000	40.976104
2236.000000	40.898651
2235.000000	40.825944
2234.000000	40.761909
2233.000000	40.708015
2232.000000	40.666007
2231.000000	40.638057
2230.000000	40.623496
2229.000000	40.618314
2228.000000	40.618549
2227.000000	40.621549
2226.000000	40.623530
2225.000000	40.619720
2224.000000	40.607968
2223.000000	40.589720
2222.000000	40.566943
2221.000000	40.540982
2220.000000	40.514812
2219.000000	40.492948
2218.000000	40.477977
2217.000000	40.469564
2216.000000	40.467070
2215.000000	40.470072
2214.000000	40.475921
2213.000000	40.480027
2212.000000	40.479540
2211.000000	40.474291
2210.000000	40.464144
2209.000000	40.448744
2208.000000	40.430356
2207.000000	40.413637
2206.000000	40.401691
2205.000000	40.394906
2204.000000	40.393645
2203.000000	40.398605
2202.000000	40.407921
2201.000000	40.417184
2200.000000	40.423211
2199.000000	40.425063
2198.000000	40.421360
2197.000000	40.410185
2196.000000	40.392461
2195.000000	40.372170
2194.000000	40.352464
2193.000000	40.334445
2192.000000	40.319782
2191.000000	40.310788
2190.000000	40.306967
2189.000000	40.304688
2188.000000	40.301159
2187.000000	40.295807
2186.000000	40.287451
2185.000000	40.273854
2184.000000	40.255172
2183.000000	40.234813
2182.000000	40.216030
2181.000000	40.200648
2180.000000	40.191398
2179.000000	40.191906
2178.000000	40.203128
2177.000000	40.222597
2176.000000	40.247876
2175.000000	40.277736
2174.000000	40.309519
2173.000000	40.339059
2172.000000	40.364484
2171.000000	40.387233
2170.000000	40.408730
2169.000000	40.429223
2168.000000	40.450512
2167.000000	40.476265
2166.000000	40.508366
2165.000000	40.545675
2164.000000	40.586882
2163.000000	40.631316
2162.000000	40.676399
2161.000000	40.717950
2160.000000	40.754128
2159.000000	40.786129
2158.000000	40.814556
2157.000000	40.838768
2156.000000	40.860433
2155.000000	40.883868
2154.000000	40.911724
2153.000000	40.943489
2152.000000	40.978616
2151.000000	41.017450
2150.000000	41.058296
2149.000000	41.097291
2148.000000	41.132428
2147.000000	41.164491
2146.000000	41.193435
2145.000000	41.217998
2144.000000	41.239721
2143.000000	41.263145
2142.000000	41.290986
2141.000000	41.322718
2140.000000	41.358485
2139.000000	41.400062
2138.000000	41.446756
2137.000000	41.494473
2136.000000	41.540254
2135.000000	41.584101
2134.000000	41.625492
2133.000000	41.662315
2132.000000	41.694586
2131.000000	41.725430
2130.000000	41.757043
2129.000000	41.789325
2128.000000	41.823203
2127.000000	41.861088
2126.000000	41.902701
2125.000000	41.944397
2124.000000	41.984042
2123.000000	42.022648
2122.000000	42.060265
2121.000000	42.094606
2120.000000	42.125198
2119.000000	42.154872
2118.000000	42.185779
2117.000000	42.217743
2116.000000	42.251539
2115.000000	42.289620
2114.000000	42.332171
2113.000000	42.376173
2112.000000	42.419525
2111.000000	42.462311
2110.000000	42.503169
2109.000000	42.538836
2108.000000	42.568449
2107.000000	42.594278
2106.000000	42.617580
2105.000000	42.637690
2104.000000	42.655950
2103.000000	42.675906
2102.000000	42.698009
2101.000000	42.718956
2100.000000	42.736578
2099.000000	42.751556
2098.000000	42.763504
2097.000000	42.769309
2096.000000	42.767462
2095.000000	42.759964
2094.000000	42.748871
2093.000000	42.735005
2092.000000	42.721048
2091.000000	42.711535
2090.000000	42.708571
2089.000000	42.711103
2088.000000	42.718975
2087.000000	42.733613
2086.000000	42.753920
2085.000000	42.775992
2084.000000	42.798016
2083.000000	42.821561
2082.000000	42.847178
2081.000000	42.873574
2080.000000	42.901344
2079.000000	42.933530
2078.000000	42.971419
2077.000000	43.013120
2076.000000	43.058423
2075.000000	43.108990
2074.000000	43.163860
2073.000000	43.219613
2072.000000	43.274476
2071.000000	43.328493
2070.000000	43.379616
2069.000000	43.425507
2068.000000	43.469223
2067.000000	43.517329
2066.000000	43.572083
2065.000000	43.631261
2064.000000	43.695215
2063.000000	43.767398
2062.000000	43.847222
2061.000000	43.928988
2060.000000	44.009446
2059.000000	44.090274
2058.000000	44.171757
2057.000000	44.250263
2056.000000	44.324644
2055.000000	44.398256
2054.000000	44.472846
2053.000000	44.547108
2052.000000	44.621974
2051.000000	44.701055
2050.000000	44.785144
2049.000000	44.871524
2048.000000	44.958695
2047.000000	45.047079
2046.000000	45.134884
2045.000000	45.219140
2044.000000	45.301261
2043.000000	45.385719
2042.000000	45.473029
2041.000000	45.560218
2040.000000	45.648128
2039.000000	45.741393
2038.000000	45.840743
2037.000000	45.942127
2036.000000	46.044244
2035.000000	46.150192
2034.000000	46.260088
2033.000000	46.369117
2032.000000	46.475290
2031.000000	46.580976
2030.000000	46.686838
2029.000000	46.789692
2028.000000	46.889423
2027.000000	46.990272
2026.000000	47.093470
2025.000000	47.196998
2024.000000	47.300410
2023.000000	47.404902
2022.000000	47.508139
2021.000000	47.606645
2020.000000	47.703205
2019.000000	47.804104
2018.000000	47.909319
2017.000000	48.013948
2016.000000	48.118624
2015.000000	48.228965
2014.000000	48.344933
2013.000000	48.459771
2012.000000	48.570872
2011.000000	48.682615
2010.000000	48.797655
2009.000000	48.912644
2008.000000	49.026552
2007.000000	49.143270
2006.000000	49.262460
2005.000000	49.379605
2004.000000	49.492679
2003.000000	49.606447
2002.000000	49.722347
2001.000000	49.835286
2000.000000	49.946246
1999.000000	50.060939
1998.000000	50.176439
1997.000000	50.281435
1996.000000	50.373335
1995.000000	50.461279
1994.000000	50.549218
1993.000000	50.629868
1992.000000	50.703180
1991.000000	50.783102
1990.000000	50.878368
1989.000000	50.981537
1988.000000	51.082220
1987.000000	51.179398
1986.000000	51.274213
1985.000000	51.363203
1984.000000	51.443356
1983.000000	51.518947
1982.000000	51.592389
1981.000000	51.659217
1980.000000	51.719755
1979.000000	51.780997
1978.000000	51.845799
1977.000000	51.909187
1976.000000	51.970918
1975.000000	52.037883
1974.000000	52.110566
1973.000000	52.178392
1972.000000	52.233708
1971.000000	52.279564
1970.000000	52.321034
1969.000000	52.358584
1968.000000	52.393490
1967.000000	52.432215
1966.000000	52.479180
1965.000000	52.531631
1964.000000	52.587326
1963.000000	52.647894
1962.000000	52.710775
1961.000000	52.769296
1960.000000	52.822167
1959.000000	52.873719
1958.000000	52.924282
1957.000000	52.968086
1956.000000	53.005270
1955.000000	53.041595
1954.000000	53.079115
1953.000000	53.115263
1952.000000	53.148132
1951.000000	53.183019
1950.000000	53.225247
1949.000000	53.273012
1948.000000	53.321434
1947.000000	53.365955
1946.000000	53.401521
1945.000000	53.425025
1944.000000	53.438052
1943.000000	53.446325
1942.000000	53.457659
1941.000000	53.477664
1940.000000	53.508768
1939.000000	53.548369
1938.000000	53.586048
1937.000000	53.613595
1936.000000	53.638325
1935.000000	53.670989
1934.000000	53.711687
1933.000000	53.753523
1932.000000	53.790329
1931.000000	53.828019
1930.000000	53.867136
1929.000000	53.899493
1928.000000	53.916251
1927.000000	53.913599
1926.000000	53.903669
1925.000000	53.901134
1924.000000	53.909220
1923.000000	53.923696
1922.000000	53.943268
1921.000000	53.970963
1920.000000	54.006051
1919.000000	54.036071
1918.000000	54.051498
1917.000000	54.059340
1916.000000	54.076922
1915.000000	54.108214
1914.000000	54.135065
1913.000000	54.139303
1912.000000	54.125666
1911.000000	54.117494
1910.000000	54.122497
1909.000000	54.137104
1908.000000	54.163549
1907.000000	54.202518
1906.000000	54.249422
1905.000000	54.290254
1904.000000	54.317264
1903.000000	54.338388
1902.000000	54.356661
1901.000000	54.365011
1900.000000	54.360812
1899.000000	54.347765
1898.000000	54.333760
1897.000000	54.324831
1896.000000	54.326980
1895.000000	54.345002
1894.000000	54.372810
1893.000000	54.395205
1892.000000	54.405098
1891.000000	54.402008
1890.000000	54.383181
1889.000000	54.353503
1888.000000	54.329536
1887.000000	54.322361
1886.000000	54.323522
1885.000000	54.314875
1884.000000	54.293876
1883.000000	54.278685
1882.000000	54.277654
1881.000000	54.281633
1880.000000	54.288318
1879.000000	54.301404
1878.000000	54.317413
1877.000000	54.331099
1876.000000	54.344304
1875.000000	54.359933
1874.000000	54.368252
1873.000000	54.352311
1872.000000	54.306882
1871.000000	54.241236
1870.000000	54.163288
1869.000000	54.082905
1868.000000	54.029184
1867.000000	54.027374
1866.000000	54.065724
1865.000000	54.106994
1864.000000	54.126593
1863.000000	54.126760
1862.000000	54.114327
1861.000000	54.087318
1860.000000	54.049210
1859.000000	54.013417
1858.000000	53.983373
1857.000000	53.952236
1856.000000	53.917606
1855.000000	53.894255
1854.000000	53.883222
1853.000000	53.862304
1852.000000	53.833536
1851.000000	53.814011
1850.000000	53.793468
1849.000000	53.735500
1848.000000	53.639342
1847.000000	53.547435
1846.000000	53.479565
1845.000000	53.415404
1844.000000	53.350727
1843.000000	53.309457
1842.000000	53.295592
1841.000000	53.293492
1840.000000	53.283897
1839.000000	53.255497
1838.000000	53.216870
1837.000000	53.179721
1836.000000	53.149283
1835.000000	53.127643
1834.000000	53.097781
1833.000000	53.033710
1832.000000	52.939363
1831.000000	52.828791
1830.000000	52.712348
1829.000000	52.604092
1828.000000	52.516293
1827.000000	52.446851
1826.000000	52.371321
1825.000000	52.277946
1824.000000	52.193315
1823.000000	52.141805
1822.000000	52.103067
1821.000000	52.042551
1820.000000	51.955574
1819.000000	51.860479
1818.000000	51.771703
1817.000000	51.683111
1816.000000	51.593675
1815.000000	51.508600
1814.000000	51.418028
1813.000000	51.312034
1812.000000	51.191041
1811.000000	51.071120
1810.000000	50.971280
1809.000000	50.893957
1808.000000	50.834060
1807.000000	50.784396
1806.000000	50.734368
1805.000000	50.665923
1804.000000	50.578483
1803.000000	50.487624
1802.000000	50.390670
1801.000000	50.284572
1800.000000	50.185858
1799.000000	50.115738
1798.000000	50.065677
1797.000000	50.004937
1796.000000	49.929502
1795.000000	49.855818
1794.000000	49.776542
1793.000000	49.675161
1792.000000	49.570168
1791.000000	49.502260
1790.000000	49.470656
1789.000000	49.438597
1788.000000	49.381250
1787.000000	49.299648
1786.000000	49.207840
1785.000000	49.098342
1784.000000	48.971004
1783.000000	48.850021
1782.000000	48.733850
1781.000000	48.612279
1780.000000	48.495956
1779.000000	48.403077
1778.000000	48.299177
1777.000000	48.129845
1776.000000	47.925317
1775.000000	47.775698
1774.000000	47.689740
1773.000000	47.577506
1772.000000	47.398766
1771.000000	47.205662
1770.000000	47.059615
1769.000000	46.972586
1768.000000	46.920060
1767.000000	46.874923
1766.000000	46.815766
1765.000000	46.728999
1764.000000	46.616648
1763.000000	46.487756
1762.000000	46.352147
1761.000000	46.215805
1760.000000	46.075907
1759.000000	45.953782
1758.000000	45.843849
1757.000000	45.702775
1756.000000	45.519489
1755.000000	45.335942
1754.000000	45.194454
1753.000000	45.087396
1752.000000	44.972510
1751.000000	44.834786
1750.000000	44.690965
1749.000000	44.533290
1748.000000	44.370555
1747.000000	44.229279
1746.000000	44.103016
1745.000000	43.967316
1744.000000	43.813534
1743.000000	43.651974
1742.000000	43.494078
1741.000000	43.332119
1740.000000	43.130032
1739.000000	42.854200
1738.000000	42.515590
1737.000000	42.179439
1736.000000	41.891689
1735.000000	41.648481
1734.000000	41.465544
1733.000000	41.332546
1732.000000	41.183742
1731.000000	41.008176
1730.000000	40.822367
1729.000000	40.616213
1728.000000	40.398272
1727.000000	40.182985
1726.000000	39.958943
1725.000000	39.719774
1724.000000	39.469726
1723.000000	39.196752
1722.000000	38.858471
1721.000000	38.435308
1720.000000	37.985067
1719.000000	37.587594
1718.000000	37.270290
1717.000000	37.014417
1716.000000	36.779879
1715.000000	36.544318
1714.000000	36.312193
1713.000000	36.076814
1712.000000	35.829508
1711.000000	35.583860
1710.000000	35.335024
1709.000000	35.048215
1708.000000	34.718770
1707.000000	34.370545
1706.000000	34.001677
1705.000000	33.599433
1704.000000	33.224537
1703.000000	32.939825
1702.000000	32.640751
1701.000000	32.180674
1700.000000	31.613300
1699.000000	31.111725
1698.000000	30.782360
1697.000000	30.584762
1696.000000	30.408016
1695.000000	30.212459
1694.000000	29.987000
1693.000000	29.729774
1692.000000	29.451213
1691.000000	29.138147
1690.000000	28.754462
1689.000000	28.306007
1688.000000	27.895233
1687.000000	27.614052
1686.000000	27.423234
1685.000000	27.160564
1684.000000	26.797023
1683.000000	26.477480
1682.000000	26.240356
1681.000000	26.030793
1680.000000	25.810719
1679.000000	25.582103
1678.000000	25.359029
1677.000000	25.110719
1676.000000	24.812114
1675.000000	24.506878
1674.000000	24.236511
1673.000000	23.985983
1672.000000	23.724038
1671.000000	23.435764
1670.000000	23.127611
1669.000000	22.829728
1668.000000	22.574284
1667.000000	22.365546
1666.000000	22.177041
1665.000000	21.965635
1664.000000	21.704452
1663.000000	21.421195
1662.000000	21.159218
1661.000000	20.929097
1660.000000	20.723258
1659.000000	20.514510
1658.000000	20.251924
1657.000000	19.926923
1656.000000	19.605174
1655.000000	19.327353
1654.000000	19.062649
1653.000000	18.862744
1652.000000	18.775106
1651.000000	18.692896
1650.000000	18.542321
1649.000000	18.337078
1648.000000	18.092634
1647.000000	17.842356
1646.000000	17.646997
1645.000000	17.499064
1644.000000	17.349614
1643.000000	17.200521
1642.000000	17.057868
1641.000000	16.896525
1640.000000	16.702574
1639.000000	16.504231
1638.000000	16.329619
1637.000000	16.147573
1636.000000	15.935124
1635.000000	15.745434
1634.000000	15.610006
1633.000000	15.497944
1632.000000	15.387738
1631.000000	15.275339
1630.000000	15.153932
1629.000000	15.014045
1628.000000	14.862879
1627.000000	14.725886
1626.000000	14.608310
1625.000000	14.488696
1624.000000	14.355386
1623.000000	14.227317
1622.000000	14.112354
1621.000000	13.989165
1620.000000	13.859699
1619.000000	13.758850
1618.000000	13.700732
1617.000000	13.660771
1616.000000	13.620182
1615.000000	13.582218
1614.000000	13.550735
1613.000000	13.519507
1612.000000	13.480024
1611.000000	13.437412
1610.000000	13.403627
1609.000000	13.376789
1608.000000	13.350016
1607.000000	13.331146
1606.000000	13.324679
1605.000000	13.319982
1604.000000	13.311036
1603.000000	13.306169
1602.000000	13.311675
1601.000000	13.319711
1600.000000	13.324094
1599.000000	13.330618
1598.000000	13.343281
1597.000000	13.355812
1596.000000	13.364207
1595.000000	13.375859
1594.000000	13.395911
1593.000000	13.416984
1592.000000	13.432341
1591.000000	13.447445
1590.000000	13.467123
1589.000000	13.485707
1588.000000	13.496751
1587.000000	13.506092
1586.000000	13.520950
1585.000000	13.533240
1584.000000	13.539381
1583.000000	13.549700
1582.000000	13.559241
1581.000000	13.537188
1580.000000	13.473284
1579.000000	13.407419
1578.000000	13.387704
1577.000000	13.414444
1576.000000	13.457975
1575.000000	13.500154
1574.000000	13.530187
1573.000000	13.547541
1572.000000	13.552310
1571.000000	13.540675
1570.000000	13.520949
1569.000000	13.508348
1568.000000	13.509370
1567.000000	13.524694
1566.000000	13.547131
1565.000000	13.553782
1564.000000	13.530516
1563.000000	13.521677
1562.000000	13.562891
1561.000000	13.620606
1560.000000	13.647139
1559.000000	13.659288
1558.000000	13.733720
1557.000000	13.841064
1556.000000	13.944874
1555.000000	14.073656
1554.000000	14.223292
1553.000000	14.365671
1552.000000	14.489030
1551.000000	14.613252
1550.000000	14.756950
1549.000000	14.913511
1548.000000	15.064371
1547.000000	15.206442
1546.000000	15.347774
1545.000000	15.485037
1544.000000	15.603318
1543.000000	15.695143
1542.000000	15.798534
1541.000000	15.969301
1540.000000	16.239325
1539.000000	16.590513
1538.000000	16.930437
1537.000000	17.197239
1536.000000	17.415178
1535.000000	17.630243
1534.000000	17.870142
1533.000000	18.141673
1532.000000	18.431859
1531.000000	18.722317
1530.000000	19.007355
1529.000000	19.291245
1528.000000	19.588089
1527.000000	19.910632
1526.000000	20.239434
1525.000000	20.532576
1524.000000	20.796964
1523.000000	21.110401
1522.000000	21.538472
1521.000000	22.044230
1520.000000	22.512558
1519.000000	22.898303
1518.000000	23.269393
1517.000000	23.679236
1516.000000	24.112150
1515.000000	24.542579
1514.000000	24.974715
1513.000000	25.412085
1512.000000	25.809872
1511.000000	26.121500
1510.000000	26.352911
1509.000000	26.608219
1508.000000	26.979046
1507.000000	27.491412
1506.000000	28.170064
1505.000000	28.857462
1504.000000	29.399248
1503.000000	29.853070
1502.000000	30.297467
1501.000000	30.719367
1500.000000	31.074714
1499.000000	31.394326
1498.000000	31.772478
1497.000000	32.270347
1496.000000	32.847445
1495.000000	33.408800
1494.000000	33.895242
1493.000000	34.299660
1492.000000	34.642762
1491.000000	34.973664
1490.000000	35.337772
1489.000000	35.738013
1488.000000	36.144505
1487.000000	36.549055
1486.000000	36.960219
1485.000000	37.346354
1484.000000	37.686004
1483.000000	38.004322
1482.000000	38.331632
1481.000000	38.657747
1480.000000	38.953528
1479.000000	39.204133
1478.000000	39.391421
1477.000000	39.495259
1476.000000	39.528341
1475.000000	39.555898
1474.000000	39.612583
1473.000000	39.658736
1472.000000	39.667678
1471.000000	39.634144
1470.000000	39.513919
1469.000000	39.253607
1468.000000	38.826435
1467.000000	38.228964
1466.000000	37.434875
1465.000000	36.440109
1464.000000	35.377093
1463.000000	34.394330
1462.000000	33.479445
1461.000000	32.531274
1460.000000	31.531617
1459.000000	30.540927
1458.000000	29.562490
1457.000000	28.619649
1456.000000	27.862973
1455.000000	27.335781
1454.000000	26.907086
1453.000000	26.461047
1452.000000	25.961747
1451.000000	25.402763
1450.000000	24.725809
1449.000000	23.833352
1448.000000	22.704860
1447.000000	21.438318
1446.000000	20.096310
1445.000000	18.651942
1444.000000	17.102879
1443.000000	15.495204
1442.000000	13.861497
1441.000000	12.239173
1440.000000	10.715424
1439.000000	9.326167
1438.000000	7.962193
1437.000000	6.533072
1436.000000	5.216917
1435.000000	4.254302
1434.000000	3.598989
1433.000000	3.074655
1432.000000	2.628285
1431.000000	2.293335
1430.000000	2.054357
1429.000000	1.861761
1428.000000	1.734054
1427.000000	1.709128
1426.000000	1.755463
1425.000000	1.828055
1424.000000	1.951709
1423.000000	2.160233
1422.000000	2.419629
1421.000000	2.701428
1420.000000	3.069211
1419.000000	3.585227
1418.000000	4.172186
1417.000000	4.735337
1416.000000	5.311871
1415.000000	5.966385
1414.000000	6.684423
1413.000000	7.434183
1412.000000	8.241837
1411.000000	9.136399
1410.000000	10.080359
1409.000000	11.028421
1408.000000	11.994627
1407.000000	13.014046
1406.000000	14.088184
1405.000000	15.202951
1404.000000	16.348284
1403.000000	17.488115
1402.000000	18.583864
1401.000000	19.660012
1400.000000	20.784774
1399.000000	21.960679
1398.000000	23.111320
1397.000000	24.214936
1396.000000	25.345744
1395.000000	26.558009
1394.000000	27.804775
1393.000000	29.006688
1392.000000	30.137909
1391.000000	31.207920
1390.000000	32.231330
1389.000000	33.242597
1388.000000	34.274549
1387.000000	35.294437
1386.000000	36.213735
1385.000000	36.979718
1384.000000	37.596593
1383.000000	38.063269
1382.000000	38.367042
1381.000000	38.514497
1380.000000	38.516702
1379.000000	38.356996
1378.000000	38.003637
1377.000000	37.431259
1376.000000	36.603109
1375.000000	35.474237
1374.000000	34.056579
1373.000000	32.455271
1372.000000	30.785540
1371.000000	29.111851
1370.000000	27.499796
1369.000000	26.076848
1368.000000	25.010024
1367.000000	24.412207
1366.000000	24.299501
1365.000000	24.637781
1364.000000	25.391858
1363.000000	26.504406
1362.000000	27.850352
1361.000000	29.268366
1360.000000	30.634003
1359.000000	31.877777
1358.000000	32.959040
1357.000000	33.844885
1356.000000	34.501336
1355.000000	34.890329
1354.000000	34.977633
1353.000000	34.740720
1352.000000	34.165895
1351.000000	33.246375
1350.000000	31.988000
1349.000000	30.417397
1348.000000	28.575756
1347.000000	26.510998
1346.000000	24.277869
1345.000000	21.942020
1344.000000	19.586673
1343.000000	17.297126
1342.000000	15.137377
1341.000000	13.155495
1340.000000	11.415630
1339.000000	9.999950
1338.000000	8.957763
1337.000000	8.262702
1336.000000	7.835781
1335.000000	7.583701
1334.000000	7.402946
1333.000000	7.187667
1332.000000	6.856074
1331.000000	6.371643
1330.000000	5.743704
1329.000000	5.014292
1328.000000	4.246428
1327.000000	3.507857
1326.000000	2.847494
1325.000000	2.286653
1324.000000	1.832790
1323.000000	1.488835
1322.000000	1.244465
1321.000000	1.076060
1320.000000	0.964754
1319.000000	0.900385
1318.000000	0.868327
1317.000000	0.848150
1316.000000	0.828265
1315.000000	0.809632
1314.000000	0.791184
1313.000000	0.767090
1312.000000	0.739665
1311.000000	0.719264
1310.000000	0.709737
1309.000000	0.707220
1308.000000	0.714360
1307.000000	0.741109
1306.000000	0.790235
1305.000000	0.856644
1304.000000	0.941205
1303.000000	1.051121
1302.000000	1.186213
1301.000000	1.338137
1300.000000	1.504854
1299.000000	1.691069
1298.000000	1.895002
1297.000000	2.109003
1296.000000	2.332127
1295.000000	2.569497
1294.000000	2.819020
1293.000000	3.071944
1292.000000	3.325545
1291.000000	3.582324
1290.000000	3.837502
1289.000000	4.079412
1288.000000	4.300568
1287.000000	4.496503
1286.000000	4.656703
1285.000000	4.769448
1284.000000	4.837350
1283.000000	4.879829
1282.000000	4.922147
1281.000000	4.990716
1280.000000	5.114603
1279.000000	5.315726
1278.000000	5.594313
1277.000000	5.933577
1276.000000	6.315940
1275.000000	6.727665
1274.000000	7.153406
1273.000000	7.579025
1272.000000	8.000311
1271.000000	8.418563
1270.000000	8.830579
1269.000000	9.231423
1268.000000	9.622932
1267.000000	10.010241
1266.000000	10.392796
1265.000000	10.766740
1264.000000	11.132869
1263.000000	11.495019
1262.000000	11.852944
1261.000000	12.204568
1260.000000	12.552001
1259.000000	12.898224
1258.000000	13.241507
1257.000000	13.579222
1256.000000	13.913629
1255.000000	14.248194
1254.000000	14.581931
1253.000000	14.912600
1252.000000	15.241399
1251.000000	15.569827
1250.000000	15.895525
1249.000000	16.215518
1248.000000	16.530461
1247.000000	16.841824
1246.000000	17.148465
1245.000000	17.449671
1244.000000	17.747832
1243.000000	18.045030
1242.000000	18.340023
1241.000000	18.631444
1240.000000	18.920609
1239.000000	19.208544
1238.000000	19.493886
1237.000000	19.775518
1236.000000	20.054012
1235.000000	20.329118
1234.000000	20.599098
1233.000000	20.864189
1232.000000	21.127221
1231.000000	21.389848
1230.000000	21.651692
1229.000000	21.913561
1228.000000	22.177944
1227.000000	22.445717
1226.000000	22.715814
1225.000000	22.988169
1224.000000	23.263285
1223.000000	23.539169
1222.000000	23.812571
1221.000000	24.082914
1220.000000	24.351691
1219.000000	24.618775
1218.000000	24.883069
1217.000000	25.145719
1216.000000	25.408772
1215.000000	25.672061
1214.000000	25.934603
1213.000000	26.197430
1212.000000	26.461387
1211.000000	26.723908
1210.000000	26.982103
1209.000000	27.236498
1208.000000	27.488255
1207.000000	27.735712
1206.000000	27.977584
1205.000000	28.216849
1204.000000	28.456817
1203.000000	28.696372
1202.000000	28.933230
1201.000000	29.167954
1200.000000	29.400973
1199.000000	29.628507
1198.000000	29.845371
1197.000000	30.048924
1196.000000	30.234840
1195.000000	30.394198
1194.000000	30.517680
1193.000000	30.598674
1192.000000	30.630870
1191.000000	30.606046
1190.000000	30.522373
1189.000000	30.392089
1188.000000	30.239506
1187.000000	30.096460
1186.000000	29.999098
1185.000000	29.980026
1184.000000	30.055309
1183.000000	30.219127
1182.000000	30.450518
1181.000000	30.727018
1180.000000	31.030113
1179.000000	31.345263
1178.000000	31.665014
1177.000000	31.987008
1176.000000	32.307641
1175.000000	32.620047
1174.000000	32.920471
1173.000000	33.211236
1172.000000	33.494387
1171.000000	33.767841
1170.000000	34.030871
1169.000000	34.287257
1168.000000	34.539032
1167.000000	34.784301
1166.000000	35.024019
1165.000000	35.264173
1164.000000	35.507831
1163.000000	35.751453
1162.000000	35.992992
1161.000000	36.235819
1160.000000	36.480937
1159.000000	36.723335
1158.000000	36.959635
1157.000000	37.192076
1156.000000	37.421124
1155.000000	37.642330
1154.000000	37.854717
1153.000000	38.063394
1152.000000	38.270676
1151.000000	38.473004
1150.000000	38.670135
1149.000000	38.868461
1148.000000	39.070845
1147.000000	39.272668
1146.000000	39.471531
1145.000000	39.670955
1144.000000	39.870893
1143.000000	40.064318
1142.000000	40.247874
1141.000000	40.426450
1140.000000	40.603098
1139.000000	40.774816
1138.000000	40.941508
1137.000000	41.109081
1136.000000	41.279767
1135.000000	41.449333
1134.000000	41.617603
1133.000000	41.790805
1132.000000	41.969851
1131.000000	42.147288
1130.000000	42.319738
1129.000000	42.492511
1128.000000	42.668079
1127.000000	42.841338
1126.000000	43.010594
1125.000000	43.181524
1124.000000	43.356260
1123.000000	43.529891
1122.000000	43.701646
1121.000000	43.877608
1120.000000	44.057974
1119.000000	44.233979
1118.000000	44.401349
1117.000000	44.564721
1116.000000	44.725386
1115.000000	44.877641
1114.000000	45.021787
1113.000000	45.167569
1112.000000	45.319774
1111.000000	45.473713
1110.000000	45.627764
1109.000000	45.786885
1108.000000	45.950056
1107.000000	46.107067
1106.000000	46.252959
1105.000000	46.391331
1104.000000	46.520692
1103.000000	46.632405
1102.000000	46.726206
1101.000000	46.813519
1100.000000	46.901089
1099.000000	46.986034
1098.000000	47.070036
1097.000000	47.162283
1096.000000	47.264100
1095.000000	47.364941
1094.000000	47.457648
1093.000000	47.543443
1092.000000	47.617617
1091.000000	47.667409
1090.000000	47.687719
1089.000000	47.684294
1088.000000	47.658636
1087.000000	47.602939
1086.000000	47.514970
1085.000000	47.400293
1084.000000	47.254679
1083.000000	47.061508
1082.000000	46.805175
1081.000000	46.477497
1080.000000	46.066706
1079.000000	45.554566
1078.000000	44.934569
1077.000000	44.211995
1076.000000	43.391571
1075.000000	42.476663
1074.000000	41.478937
1073.000000	40.421381
1072.000000	39.322938
1071.000000	38.195069
1070.000000	37.051012
1069.000000	35.906159
1068.000000	34.771450
1067.000000	33.654823
1066.000000	32.571794
1065.000000	31.548007
1064.000000	30.615965
1063.000000	29.807864
1062.000000	29.157393
1061.000000	28.697499
1060.000000	28.447493
1059.000000	28.413589
1058.000000	28.587174
1057.000000	28.952159
1056.000000	29.487657
1055.000000	30.161786
1054.000000	30.942249
1053.000000	31.798987
1052.000000	32.702378
1051.000000	33.622492
1050.000000	34.534530
1049.000000	35.426415
1048.000000	36.291246
1047.000000	37.121282
1046.000000	37.913456
1045.000000	38.672404
1044.000000	39.399326
1043.000000	40.087462
1042.000000	40.732329
1041.000000	41.336249
1040.000000	41.900628
1039.000000	42.421130
1038.000000	42.898589
1037.000000	43.343953
1036.000000	43.766039
1035.000000	44.167389
1034.000000	44.553197
1033.000000	44.934242
1032.000000	45.315394
1031.000000	45.690816
1030.000000	46.056298
1029.000000	46.413222
1028.000000	46.758014
1027.000000	47.080788
1026.000000	47.378959
1025.000000	47.661396
1024.000000	47.934555
1023.000000	48.197279
1022.000000	48.452781
1021.000000	48.710757
1020.000000	48.974182
1019.000000	49.235994
1018.000000	49.492482
1017.000000	49.746938
1016.000000	49.996273
1015.000000	50.229450
1014.000000	50.442789
1013.000000	50.643623
1012.000000	50.835967
1011.000000	51.016618
1010.000000	51.188536
1009.000000	51.362764
1008.000000	51.543070
1007.000000	51.722971
1006.000000	51.900168
1005.000000	52.079758
1004.000000	52.260200
1003.000000	52.430718
1002.000000	52.587045
1001.000000	52.735478
1000.000000	52.879121
999.000000	53.014190
998.000000	53.142939
997.000000	53.275438
996.000000	53.414664
995.000000	53.553539
994.000000	53.689485
993.000000	53.827448
992.000000	53.966024
991.000000	54.095387
990.000000	54.212491
989.000000	54.324583
988.000000	54.434400
987.000000	54.537273
986.000000	54.635086
985.000000	54.738192
984.000000	54.849708
983.000000	54.962122
982.000000	55.072084
981.000000	55.183501
980.000000	55.293568
979.000000	55.391582
978.000000	55.474924
977.000000	55.551654
976.000000	55.624826
975.000000	55.689569
974.000000	55.748958
973.000000	55.815674
972.000000	55.894535
971.000000	55.977885
970.000000	56.061173
969.000000	56.147337
968.000000	56.232522
967.000000	56.304246
966.000000	56.358033
965.000000	56.401205
964.000000	56.437510
963.000000	56.463837
962.000000	56.485001
961.000000	56.515278
960.000000	56.560393
959.000000	56.613373
958.000000	56.670315
957.000000	56.734215
956.000000	56.799976
955.000000	56.852568
954.000000	56.885207
953.000000	56.904054
952.000000	56.912413
951.000000	56.906491
950.000000	56.890377
949.000000	56.878616
948.000000	56.879238
947.000000	56.888674
946.000000	56.906116
945.000000	56.935872
944.000000	56.972275
943.000000	56.998583
942.000000	57.005471
941.000000	56.996292
940.000000	56.971464
939.000000	56.925547
938.000000	56.862677
937.000000	56.798352
936.000000	56.741585
935.000000	56.690217
934.000000	56.645787
933.000000	56.615662
932.000000	56.596346
931.000000	56.571637
930.000000	56.530959
929.000000	56.474744
928.000000	56.399739
927.000000	56.296139
926.000000	56.164513
925.000000	56.018134
924.000000	55.865563
923.000000	55.705605
922.000000	55.541392
921.000000	55.382719
920.000000	55.229300
919.000000	55.067500
918.000000	54.887585
917.000000	54.688629
916.000000	54.465546
915.000000	54.207308
914.000000	53.912508
913.000000	53.592079
912.000000	53.251641
911.000000	52.888137
910.000000	52.504163
909.000000	52.109845
908.000000	51.706887
907.000000	51.283899
906.000000	50.832382
905.000000	50.351738
904.000000	49.836696
903.000000	49.276734
902.000000	48.669728
901.000000	48.024758
900.000000	47.347233
899.000000	46.633461
898.000000	45.883961
897.000000	45.104935
896.000000	44.296478
895.000000	43.449983
894.000000	42.559565
893.000000	41.627229
892.000000	40.652376
891.000000	39.630055
890.000000	38.561029
889.000000	37.452826
888.000000	36.310935
887.000000	35.135331
886.000000	33.928135
885.000000	32.695768
884.000000	31.441303
883.000000	30.163441
882.000000	28.863502
881.000000	27.548634
880.000000	26.227125
879.000000	24.906673
878.000000	23.597407
877.000000	22.312535
876.000000	21.063721
875.000000	19.857004
874.000000	18.696902
873.000000	17.589094
872.000000	16.540170
871.000000	15.554855
870.000000	14.633643
869.000000	13.778045
868.000000	12.990618
867.000000	12.272127
866.000000	11.620830
865.000000	11.033904
864.000000	10.511128
863.000000	10.049269
862.000000	9.639135
861.000000	9.271940
860.000000	8.943085
859.000000	8.650077
858.000000	8.387053
857.000000	8.147688
856.000000	7.931193
855.000000	7.739090
854.000000	7.571510
853.000000	7.428309
852.000000	7.311431
851.000000	7.222630
850.000000	7.159831
849.000000	7.121534
848.000000	7.110229
847.000000	7.128028
846.000000	7.173448
845.000000	7.244683
844.000000	7.344986
843.000000	7.479605
842.000000	7.650046
841.000000	7.856900
840.000000	8.102919
839.000000	8.391733
838.000000	8.724444
837.000000	9.100609
836.000000	9.521088
835.000000	9.984179
834.000000	10.481289
833.000000	10.993893
832.000000	11.484532
831.000000	11.861098
830.000000	11.946644
829.000000	11.509771
828.000000	10.407064
827.000000	8.768650
826.000000	7.039881
825.000000	5.777718
824.000000	5.334331
823.000000	5.694242
822.000000	6.583184
821.000000	7.703270
820.000000	8.864089
819.000000	9.976375
818.000000	11.011413
817.000000	11.972473
816.000000	12.876219
815.000000	13.730362
814.000000	14.536373
813.000000	15.303373
812.000000	16.044479
811.000000	16.761647
810.000000	17.449352
809.000000	18.108595
808.000000	18.743296
807.000000	19.351357
806.000000	19.931578
805.000000	20.494269
804.000000	21.050979
803.000000	21.599975
802.000000	22.136173
801.000000	22.666364
800.000000	23.201758
799.000000	23.743302
798.000000	24.287425
797.000000	24.837395
796.000000	25.394849
795.000000	25.948952
794.000000	26.487560
793.000000	27.010620
792.000000	27.521363
791.000000	28.015201
790.000000	28.490112
789.000000	28.957286
788.000000	29.428883
787.000000	29.905455
786.000000	30.385679
785.000000	30.875927
784.000000	31.377939
783.000000	31.878436
782.000000	32.363017
781.000000	32.829595
780.000000	33.277921
779.000000	33.699966
778.000000	34.093100
777.000000	34.470592
776.000000	34.846986
775.000000	35.225011
774.000000	35.606797
773.000000	36.002533
772.000000	36.415392
771.000000	36.830917
770.000000	37.233101
769.000000	37.618632
768.000000	37.984850
767.000000	38.319888
766.000000	38.618446
765.000000	38.893304
764.000000	39.159636
763.000000	39.421053
762.000000	39.681718
761.000000	39.955603
760.000000	40.250528
759.000000	40.556759
758.000000	40.862125
757.000000	41.163537
756.000000	41.453736
755.000000	41.714469
754.000000	41.936805
753.000000	42.132925
752.000000	42.317172
751.000000	42.492732
750.000000	42.667268
749.000000	42.862085
748.000000	43.090813
747.000000	43.344936
746.000000	43.611401
745.000000	43.886536
744.000000	44.160614
743.000000	44.409403
742.000000	44.616532
741.000000	44.788083
740.000000	44.933424
739.000000	45.051749
738.000000	45.150320
737.000000	45.254305
736.000000	45.382835
735.000000	45.532432
734.000000	45.695994
733.000000	45.875855
732.000000	46.063990
731.000000	46.231670
730.000000	46.356351
729.000000	46.440428
728.000000	46.492864
727.000000	46.515674
726.000000	46.522270
725.000000	46.547366
724.000000	46.620801
723.000000	46.748630
722.000000	46.931648
721.000000	47.178635
720.000000	47.484062
719.000000	47.816022
718.000000	48.145065
717.000000	48.464226
716.000000	48.766981
715.000000	49.033506
714.000000	49.258293
713.000000	49.467068
712.000000	49.688073
711.000000	49.928487
710.000000	50.194597
709.000000	50.505759
708.000000	50.867559
707.000000	51.254872
706.000000	51.637927
705.000000	52.003225
704.000000	52.334677
703.000000	52.602004
702.000000	52.792450
701.000000	52.931187
700.000000	53.050274
699.000000	53.165587
698.000000	53.297275
697.000000	53.481193
696.000000	53.734890
695.000000	54.034808
694.000000	54.350514
693.000000	54.671692
692.000000	54.979399
691.000000	55.231460
690.000000	55.403630
689.000000	55.517898
688.000000	55.605338
687.000000	55.671387
686.000000	55.730205
685.000000	55.830469
684.000000	56.008032
683.000000	56.247951
682.000000	56.523943
681.000000	56.833835
680.000000	57.162427
679.000000	57.455354
678.000000	57.671993
677.000000	57.817211
676.000000	57.904165
675.000000	57.938137
674.000000	57.949390
673.000000	58.001789
672.000000	58.142954
671.000000	58.379207
670.000000	58.717476
669.000000	59.176689
668.000000	59.630590
667.000000	59.870388
666.000000	59.936624
665.000000	59.958496
664.000000	59.971166
663.000000	59.975811
662.000000	59.974643
661.000000	59.985697
660.000000	60.031517
659.000000	60.131515
658.000000	60.300996
657.000000	60.538371
656.000000	60.820912
655.000000	61.121311
654.000000	61.409715
653.000000	61.650545
652.000000	61.818504
651.000000	61.912311
650.000000	61.949428
649.000000	61.950866
648.000000	61.939569
647.000000	61.948263
646.000000	62.012433
645.000000	62.152697
644.000000	62.362842
643.000000	62.614184
642.000000	62.872792
641.000000	63.107822
640.000000	63.288883
639.000000	63.392283
638.000000	63.415505
637.000000	63.380344
636.000000	63.321362
635.000000	63.274444
634.000000	63.274094
633.000000	63.345506
632.000000	63.491757
631.000000	63.695375
630.000000	63.931757
629.000000	64.172276
628.000000	64.379595
627.000000	64.518557
626.000000	64.578352
625.000000	64.576351
624.000000	64.535356
623.000000	64.474402
622.000000	64.424894
621.000000	64.429777
620.000000	64.513683
619.000000	64.668058
618.000000	64.868978
617.000000	65.092567
616.000000	65.306086
615.000000	65.466858
614.000000	65.544407
613.000000	65.533370
612.000000	65.438607
611.000000	65.268551
610.000000	65.046000
609.000000	64.798556
608.000000	64.528309
607.000000	64.192778
606.000000	63.714122
605.000000	62.973022
604.000000	61.776161
603.000000	59.861438
602.000000	56.934893
601.000000	52.774911
600.000000	47.406654
599.000000	41.289229
598.000000	35.299480
597.000000	30.421472
596.000000	27.379072
595.000000	26.425371
594.000000	27.325858
593.000000	29.521192
592.000000	32.416029
591.000000	35.537758
590.000000	38.563795
589.000000	41.339545
588.000000	43.831625
587.000000	46.053441
586.000000	48.018176
585.000000	49.744135
584.000000	51.257489
583.000000	52.593566
582.000000	53.801158
581.000000	54.934874
580.000000	56.020050
579.000000	57.030094
578.000000	57.933296
577.000000	58.730663
576.000000	59.429156
575.000000	60.011384
574.000000	60.460937
573.000000	60.801314
572.000000	61.076722
571.000000	61.323621
570.000000	61.580580
569.000000	61.890080
568.000000	62.266882
567.000000	62.684415
566.000000	63.108686
565.000000	63.523638
564.000000	63.904264
563.000000	64.203610
562.000000	64.395384
561.000000	64.502521
560.000000	64.563764
559.000000	64.603796
558.000000	64.655545
557.000000	64.768346
556.000000	64.967425
555.000000	65.232710
554.000000	65.534862
553.000000	65.858254
552.000000	66.172462
551.000000	66.421935
550.000000	66.575594
549.000000	66.653370
548.000000	66.682828
547.000000	66.673770
546.000000	66.655507
545.000000	66.689485
544.000000	66.814030
543.000000	67.016689
542.000000	67.275393
541.000000	67.584237
540.000000	67.914954
539.000000	68.201383
538.000000	68.394538
537.000000	68.499863
536.000000	68.536508
535.000000	68.508210
534.000000	68.442537
533.000000	68.407312
532.000000	68.454466
531.000000	68.583179
530.000000	68.776284
529.000000	69.025111
528.000000	69.296941
527.000000	69.525162
526.000000	69.664926
525.000000	69.716676
524.000000	69.671468
523.000000	69.486889
522.000000	69.150715
521.000000	68.710934
520.000000	68.217364
519.000000	67.681876
518.000000	67.122741
517.000000	66.598880
516.000000	66.155672
515.000000	65.787059
514.000000	65.477366
513.000000	65.228630
512.000000	65.017185
511.000000	64.772474
510.000000	64.428240
509.000000	63.954015
508.000000	63.312937
507.000000	62.454127
506.000000	61.367348
505.000000	60.086472
504.000000	58.636076
503.000000	57.066331
502.000000	55.562245
501.000000	54.397681
500.000000	53.735821
499.000000	53.556046
498.000000	53.769187
497.000000	54.282539
496.000000	54.970608
495.000000	55.684077
494.000000	56.323781
493.000000	56.887412
492.000000	57.413609
491.000000	57.924960
490.000000	58.439473
489.000000	58.985094
488.000000	59.565347
487.000000	60.150964
486.000000	60.731438
485.000000	61.339322
484.000000	61.998086
483.000000	62.693661
482.000000	63.425383
481.000000	64.225293
480.000000	65.091527
479.000000	65.955256
478.000000	66.747881
477.000000	67.450718
476.000000	68.041260
475.000000	68.448516
474.000000	68.630477
473.000000	68.648817
472.000000	68.601861
471.000000	68.530016
470.000000	68.457199
469.000000	68.450477
468.000000	68.557543
467.000000	68.734888
466.000000	68.890041
465.000000	68.968183
464.000000	68.944147
463.000000	68.797750
462.000000	68.562420
461.000000	68.326049
460.000000	68.129409
459.000000	67.937720
458.000000	67.769614
457.000000	67.745724
456.000000	67.903309
455.000000	68.120558
454.000000	68.287228
453.000000	68.405683
452.000000	68.485133
451.000000	68.432228
450.000000	68.132254
449.000000	67.564386
448.000000	66.766184
447.000000	65.754607
446.000000	64.545846
445.000000	63.164144
444.000000	61.575977
443.000000	59.688887
442.000000	57.469116
441.000000	55.017739
440.000000	52.484658
439.000000	49.989475
438.000000	47.661724
437.000000	45.730371
436.000000	44.477733
435.000000	44.071155
434.000000	44.470001
433.000000	45.536682
432.000000	47.173178
431.000000	49.246171
430.000000	51.548558
429.000000	53.913895
428.000000	56.236077
427.000000	58.372722
426.000000	60.197176
425.000000	61.734214
424.000000	63.053287
423.000000	64.102137
422.000000	64.820034
421.000000	65.338269
420.000000	65.868490
419.000000	66.566762
418.000000	67.474905
417.000000	68.490062
416.000000	69.453978
415.000000	70.200257
414.000000	70.672108
413.000000	70.988899
412.000000	71.232724
411.000000	71.298275
410.000000	71.150400
409.000000	71.013555
408.000000	71.079380
407.000000	71.268062
406.000000	71.475351
405.000000	71.832150
404.000000	72.386215
403.000000	72.821764
402.000000	72.816196
401.000000	72.455720
400.000000	71.975842
