PE IR       SUBTECH     SPECTRUM    ASCII       PEDS        4.00        
   -1
23ms035_nitro.asc
24/09/10
16:36:39.00
24/09/10
16:36:39.00
Administrator
Sample 1161 By Administrator Date Tuesday, September 10 2024
400.000000
#HDR
-1
-1
#GR
cm-1
%T
1.0
0.0
4000.000000
-1.000000
3601
8
92.931508
15.798858
#DATA
4000.000000	67.443840
3999.000000	67.468768
3998.000000	67.493848
3997.000000	67.519375
3996.000000	67.546581
3995.000000	67.576691
3994.000000	67.608982
3993.000000	67.640999
3992.000000	67.671286
3991.000000	67.700923
3990.000000	67.731500
3989.000000	67.762233
3988.000000	67.790419
3987.000000	67.814555
3986.000000	67.835679
3985.000000	67.855612
3984.000000	67.875333
3983.000000	67.895530
3982.000000	67.917672
3981.000000	67.943319
3980.000000	67.972390
3979.000000	68.003005
3978.000000	68.033240
3977.000000	68.062593
3976.000000	68.091346
3975.000000	68.119249
3974.000000	68.145212
3973.000000	68.168029
3972.000000	68.187265
3971.000000	68.204140
3970.000000	68.221527
3969.000000	68.242514
3968.000000	68.268714
3967.000000	68.299167
3966.000000	68.330966
3965.000000	68.360832
3964.000000	68.387401
3963.000000	68.412371
3962.000000	68.438464
3961.000000	68.465485
3960.000000	68.489344
3959.000000	68.506730
3958.000000	68.519576
3957.000000	68.533332
3956.000000	68.552057
3955.000000	68.575763
3954.000000	68.602449
3953.000000	68.629614
3952.000000	68.654962
3951.000000	68.677406
3950.000000	68.698665
3949.000000	68.723888
3948.000000	68.756910
3947.000000	68.792992
3946.000000	68.819607
3945.000000	68.829579
3944.000000	68.832204
3943.000000	68.847550
3942.000000	68.885624
3941.000000	68.933809
3940.000000	68.971611
3939.000000	68.995461
3938.000000	69.019397
3937.000000	69.053327
3936.000000	69.089533
3935.000000	69.112506
3934.000000	69.119278
3933.000000	69.123120
3932.000000	69.139301
3931.000000	69.170747
3930.000000	69.208260
3929.000000	69.241337
3928.000000	69.262670
3927.000000	69.271187
3926.000000	69.277617
3925.000000	69.299872
3924.000000	69.343873
3923.000000	69.392524
3922.000000	69.425972
3921.000000	69.443958
3920.000000	69.457981
3919.000000	69.473530
3918.000000	69.491651
3917.000000	69.518167
3916.000000	69.557067
3915.000000	69.598818
3914.000000	69.628817
3913.000000	69.645807
3912.000000	69.662151
3911.000000	69.689248
3910.000000	69.729490
3909.000000	69.776908
3908.000000	69.824452
3907.000000	69.864652
3906.000000	69.895054
3905.000000	69.921505
3904.000000	69.953757
3903.000000	69.986526
3902.000000	69.996078
3901.000000	69.973167
3900.000000	69.945164
3899.000000	69.946838
3898.000000	69.978711
3897.000000	70.014821
3896.000000	70.041282
3895.000000	70.066006
3894.000000	70.092895
3893.000000	70.115734
3892.000000	70.146139
3891.000000	70.214746
3890.000000	70.317647
3889.000000	70.393497
3888.000000	70.395704
3887.000000	70.343916
3886.000000	70.310075
3885.000000	70.347373
3884.000000	70.415503
3883.000000	70.429441
3882.000000	70.378695
3881.000000	70.334303
3880.000000	70.365041
3879.000000	70.462516
3878.000000	70.547971
3877.000000	70.567267
3876.000000	70.547188
3875.000000	70.556579
3874.000000	70.634640
3873.000000	70.738513
3872.000000	70.781694
3871.000000	70.745251
3870.000000	70.714109
3869.000000	70.761745
3868.000000	70.836506
3867.000000	70.845984
3866.000000	70.796645
3865.000000	70.762169
3864.000000	70.784400
3863.000000	70.839802
3862.000000	70.882668
3861.000000	70.904365
3860.000000	70.935318
3859.000000	71.010993
3858.000000	71.153578
3857.000000	71.345392
3856.000000	71.513532
3855.000000	71.560444
3854.000000	71.488383
3853.000000	71.438042
3852.000000	71.451857
3851.000000	71.401774
3850.000000	71.266891
3849.000000	71.156701
3848.000000	71.131174
3847.000000	71.171548
3846.000000	71.235508
3845.000000	71.297056
3844.000000	71.356956
3843.000000	71.427951
3842.000000	71.507441
3841.000000	71.572453
3840.000000	71.605135
3839.000000	71.609424
3838.000000	71.609381
3837.000000	71.622767
3836.000000	71.641954
3835.000000	71.644774
3834.000000	71.626137
3833.000000	71.605292
3832.000000	71.610379
3831.000000	71.650760
3830.000000	71.700671
3829.000000	71.724986
3828.000000	71.724454
3827.000000	71.742136
3826.000000	71.817356
3825.000000	71.931018
3824.000000	72.015062
3823.000000	72.019733
3822.000000	71.979044
3821.000000	71.999691
3820.000000	72.117510
3819.000000	72.216720
3818.000000	72.199552
3817.000000	72.107946
3816.000000	72.053362
3815.000000	72.091411
3814.000000	72.152722
3813.000000	72.161746
3812.000000	72.153245
3811.000000	72.191896
3810.000000	72.270900
3809.000000	72.331306
3808.000000	72.346202
3807.000000	72.367471
3806.000000	72.447007
3805.000000	72.538638
3804.000000	72.562218
3803.000000	72.508865
3802.000000	72.450309
3801.000000	72.474463
3800.000000	72.559957
3799.000000	72.588581
3798.000000	72.532748
3797.000000	72.475406
3796.000000	72.482701
3795.000000	72.542847
3794.000000	72.596448
3793.000000	72.614911
3792.000000	72.619593
3791.000000	72.638731
3790.000000	72.675537
3789.000000	72.717898
3788.000000	72.754031
3787.000000	72.778768
3786.000000	72.797231
3785.000000	72.825995
3784.000000	72.875182
3783.000000	72.928949
3782.000000	72.958322
3781.000000	72.957080
3780.000000	72.953230
3779.000000	72.978121
3778.000000	73.025984
3777.000000	73.061509
3776.000000	73.074938
3775.000000	73.094648
3774.000000	73.143262
3773.000000	73.204329
3772.000000	73.245637
3771.000000	73.263524
3770.000000	73.288482
3769.000000	73.335041
3768.000000	73.369507
3767.000000	73.360380
3766.000000	73.335055
3765.000000	73.347938
3764.000000	73.408543
3763.000000	73.468603
3762.000000	73.488520
3761.000000	73.483004
3760.000000	73.489805
3759.000000	73.524502
3758.000000	73.579468
3757.000000	73.648975
3756.000000	73.736648
3755.000000	73.836551
3754.000000	73.931285
3753.000000	73.999371
3752.000000	74.026052
3751.000000	74.023633
3750.000000	74.034469
3749.000000	74.086057
3748.000000	74.149338
3747.000000	74.166917
3746.000000	74.105583
3745.000000	74.008854
3744.000000	74.008228
3743.000000	74.112694
3742.000000	74.153424
3741.000000	74.096177
3740.000000	74.060994
3739.000000	74.093978
3738.000000	74.145239
3737.000000	74.167934
3736.000000	74.184668
3735.000000	74.233232
3734.000000	74.290459
3733.000000	74.313391
3732.000000	74.314941
3731.000000	74.331512
3730.000000	74.356742
3729.000000	74.362671
3728.000000	74.351819
3727.000000	74.358834
3726.000000	74.407863
3725.000000	74.475943
3724.000000	74.520579
3723.000000	74.537096
3722.000000	74.551863
3721.000000	74.578530
3720.000000	74.605845
3719.000000	74.627459
3718.000000	74.660677
3717.000000	74.724259
3716.000000	74.813220
3715.000000	74.900128
3714.000000	74.958555
3713.000000	74.980349
3712.000000	74.983491
3711.000000	74.995112
3710.000000	75.014223
3709.000000	75.019717
3708.000000	75.011937
3707.000000	75.011939
3706.000000	75.032958
3705.000000	75.066470
3704.000000	75.096837
3703.000000	75.122400
3702.000000	75.158702
3701.000000	75.216828
3700.000000	75.278300
3699.000000	75.310805
3698.000000	75.312521
3697.000000	75.316477
3696.000000	75.351308
3695.000000	75.413257
3694.000000	75.481455
3693.000000	75.548557
3692.000000	75.616375
3691.000000	75.672784
3690.000000	75.696671
3689.000000	75.694762
3688.000000	75.699400
3687.000000	75.708630
3686.000000	75.690777
3685.000000	75.652210
3684.000000	75.634830
3683.000000	75.659051
3682.000000	75.712669
3681.000000	75.784974
3680.000000	75.888527
3679.000000	76.019421
3678.000000	76.116016
3677.000000	76.111776
3676.000000	76.051182
3675.000000	76.075309
3674.000000	76.189760
3673.000000	76.241589
3672.000000	76.168378
3671.000000	76.048625
3670.000000	75.994591
3669.000000	76.049914
3668.000000	76.131780
3667.000000	76.154575
3666.000000	76.136821
3665.000000	76.131235
3664.000000	76.153561
3663.000000	76.190479
3662.000000	76.234255
3661.000000	76.289359
3660.000000	76.351401
3659.000000	76.394922
3658.000000	76.398720
3657.000000	76.384187
3656.000000	76.407090
3655.000000	76.485331
3654.000000	76.569560
3653.000000	76.618880
3652.000000	76.631026
3651.000000	76.610981
3650.000000	76.569927
3649.000000	76.529785
3648.000000	76.500907
3647.000000	76.481055
3646.000000	76.466539
3645.000000	76.451617
3644.000000	76.437007
3643.000000	76.436164
3642.000000	76.463862
3641.000000	76.514481
3640.000000	76.564327
3639.000000	76.598528
3638.000000	76.623288
3637.000000	76.641408
3636.000000	76.644549
3635.000000	76.643566
3634.000000	76.676572
3633.000000	76.759489
3632.000000	76.845415
3631.000000	76.860215
3630.000000	76.785006
3629.000000	76.712167
3628.000000	76.734014
3627.000000	76.782951
3626.000000	76.758241
3625.000000	76.693724
3624.000000	76.667207
3623.000000	76.692785
3622.000000	76.730010
3621.000000	76.738533
3620.000000	76.721017
3619.000000	76.715924
3618.000000	76.739785
3617.000000	76.758982
3616.000000	76.740834
3615.000000	76.698347
3614.000000	76.672666
3613.000000	76.690112
3612.000000	76.732554
3611.000000	76.753260
3610.000000	76.728276
3609.000000	76.683621
3608.000000	76.665291
3607.000000	76.686958
3606.000000	76.720671
3605.000000	76.738497
3604.000000	76.738419
3603.000000	76.730773
3602.000000	76.723189
3601.000000	76.719694
3600.000000	76.721627
3599.000000	76.724091
3598.000000	76.718793
3597.000000	76.703240
3596.000000	76.685859
3595.000000	76.684611
3594.000000	76.712384
3593.000000	76.762591
3592.000000	76.809842
3591.000000	76.828172
3590.000000	76.802575
3589.000000	76.741693
3588.000000	76.686749
3587.000000	76.681691
3586.000000	76.718684
3585.000000	76.749881
3584.000000	76.752363
3583.000000	76.742551
3582.000000	76.742337
3581.000000	76.756494
3580.000000	76.776942
3579.000000	76.794492
3578.000000	76.803485
3577.000000	76.802040
3576.000000	76.791873
3575.000000	76.779830
3574.000000	76.774031
3573.000000	76.779250
3572.000000	76.793187
3571.000000	76.804005
3570.000000	76.793055
3569.000000	76.750551
3568.000000	76.697656
3567.000000	76.677918
3566.000000	76.707031
3565.000000	76.751310
3564.000000	76.774146
3563.000000	76.774045
3562.000000	76.769595
3561.000000	76.773669
3560.000000	76.787043
3559.000000	76.804947
3558.000000	76.822585
3557.000000	76.836018
3556.000000	76.842114
3555.000000	76.839621
3554.000000	76.832091
3553.000000	76.828373
3552.000000	76.836646
3551.000000	76.853003
3550.000000	76.861322
3549.000000	76.849376
3548.000000	76.823101
3547.000000	76.802210
3546.000000	76.802540
3545.000000	76.822052
3544.000000	76.845919
3543.000000	76.862770
3542.000000	76.871670
3541.000000	76.876344
3540.000000	76.879168
3539.000000	76.881159
3538.000000	76.884736
3537.000000	76.893458
3536.000000	76.909331
3535.000000	76.928960
3534.000000	76.944053
3533.000000	76.947839
3532.000000	76.940426
3531.000000	76.927069
3530.000000	76.911796
3529.000000	76.896699
3528.000000	76.884695
3527.000000	76.878961
3526.000000	76.878752
3525.000000	76.881629
3524.000000	76.889452
3523.000000	76.906493
3522.000000	76.929634
3521.000000	76.946787
3520.000000	76.949342
3519.000000	76.941397
3518.000000	76.933075
3517.000000	76.928144
3516.000000	76.923941
3515.000000	76.920042
3514.000000	76.919084
3513.000000	76.919977
3512.000000	76.917864
3511.000000	76.912574
3510.000000	76.910628
3509.000000	76.916867
3508.000000	76.926182
3507.000000	76.926701
3506.000000	76.910389
3505.000000	76.880188
3504.000000	76.848399
3503.000000	76.827989
3502.000000	76.822549
3501.000000	76.824971
3500.000000	76.826734
3499.000000	76.825710
3498.000000	76.824063
3497.000000	76.822499
3496.000000	76.818912
3495.000000	76.810908
3494.000000	76.796966
3493.000000	76.776077
3492.000000	76.749060
3491.000000	76.719420
3490.000000	76.691178
3489.000000	76.667038
3488.000000	76.649245
3487.000000	76.638809
3486.000000	76.631674
3485.000000	76.619263
3484.000000	76.596313
3483.000000	76.566680
3482.000000	76.538498
3481.000000	76.514800
3480.000000	76.491400
3479.000000	76.463047
3478.000000	76.428484
3477.000000	76.390455
3476.000000	76.353661
3475.000000	76.322277
3474.000000	76.296764
3473.000000	76.273438
3472.000000	76.248651
3471.000000	76.221870
3470.000000	76.192995
3469.000000	76.159356
3468.000000	76.118636
3467.000000	76.072545
3466.000000	76.024281
3465.000000	75.974380
3464.000000	75.922690
3463.000000	75.872108
3462.000000	75.826094
3461.000000	75.783249
3460.000000	75.737889
3459.000000	75.685930
3458.000000	75.627823
3457.000000	75.566422
3456.000000	75.504890
3455.000000	75.445735
3454.000000	75.389933
3453.000000	75.337020
3452.000000	75.285884
3451.000000	75.233961
3450.000000	75.176005
3449.000000	75.107983
3448.000000	75.032685
3447.000000	74.957968
3446.000000	74.886848
3445.000000	74.814066
3444.000000	74.735438
3443.000000	74.655621
3442.000000	74.582674
3441.000000	74.518253
3440.000000	74.457376
3439.000000	74.395475
3438.000000	74.330892
3437.000000	74.261035
3436.000000	74.180993
3435.000000	74.086985
3434.000000	73.979707
3433.000000	73.864424
3432.000000	73.748334
3431.000000	73.637242
3430.000000	73.532797
3429.000000	73.432774
3428.000000	73.333991
3427.000000	73.234623
3426.000000	73.133390
3425.000000	73.027652
3424.000000	72.913631
3423.000000	72.788916
3422.000000	72.654242
3421.000000	72.512927
3420.000000	72.369012
3419.000000	72.225515
3418.000000	72.084123
3417.000000	71.945921
3416.000000	71.811611
3415.000000	71.680299
3414.000000	71.548170
3413.000000	71.409583
3412.000000	71.259900
3411.000000	71.097314
3410.000000	70.922179
3409.000000	70.735620
3408.000000	70.539663
3407.000000	70.337860
3406.000000	70.134982
3405.000000	69.935600
3404.000000	69.742404
3403.000000	69.554919
3402.000000	69.368476
3401.000000	69.174603
3400.000000	68.964736
3399.000000	68.735476
3398.000000	68.490605
3397.000000	68.237281
3396.000000	67.980239
3395.000000	67.720518
3394.000000	67.458168
3393.000000	67.194131
3392.000000	66.928460
3391.000000	66.657995
3390.000000	66.378319
3389.000000	66.087585
3388.000000	65.787250
3387.000000	65.479011
3386.000000	65.162698
3385.000000	64.838051
3384.000000	64.506504
3383.000000	64.170241
3382.000000	63.830202
3381.000000	63.485843
3380.000000	63.136431
3379.000000	62.781167
3378.000000	62.418479
3377.000000	62.046489
3376.000000	61.664056
3375.000000	61.271522
3374.000000	60.870369
3373.000000	60.462817
3372.000000	60.051391
3371.000000	59.637416
3370.000000	59.220197
3369.000000	58.797632
3368.000000	58.367623
3367.000000	57.928821
3366.000000	57.480311
3365.000000	57.021760
3364.000000	56.553473
3363.000000	56.076149
3362.000000	55.591212
3361.000000	55.100953
3360.000000	54.607787
3359.000000	54.113036
3358.000000	53.617126
3357.000000	53.121037
3356.000000	52.625706
3355.000000	52.130121
3354.000000	51.631354
3353.000000	51.126762
3352.000000	50.615115
3351.000000	50.095424
3350.000000	49.566870
3349.000000	49.030699
3348.000000	48.490752
3347.000000	47.951481
3346.000000	47.416002
3345.000000	46.885873
3344.000000	46.360992
3343.000000	45.839160
3342.000000	45.317304
3341.000000	44.793434
3340.000000	44.266609
3339.000000	43.735685
3338.000000	43.200013
3337.000000	42.661461
3336.000000	42.123841
3335.000000	41.590165
3334.000000	41.061985
3333.000000	40.540993
3332.000000	40.028709
3331.000000	39.524398
3330.000000	39.025131
3329.000000	38.528213
3328.000000	38.032442
3327.000000	37.537286
3326.000000	37.043037
3325.000000	36.551615
3324.000000	36.065252
3323.000000	35.584922
3322.000000	35.111162
3321.000000	34.645706
3320.000000	34.190365
3319.000000	33.744672
3318.000000	33.306921
3317.000000	32.876241
3316.000000	32.452095
3315.000000	32.033193
3314.000000	31.618774
3313.000000	31.210505
3312.000000	30.810653
3311.000000	30.419739
3310.000000	30.038531
3309.000000	29.670081
3308.000000	29.317850
3307.000000	28.982620
3306.000000	28.663560
3305.000000	28.360991
3304.000000	28.074249
3303.000000	27.799658
3302.000000	27.533466
3301.000000	27.275638
3300.000000	27.028749
3299.000000	26.793926
3298.000000	26.571537
3297.000000	26.363783
3296.000000	26.172621
3295.000000	25.997144
3294.000000	25.835230
3293.000000	25.687077
3292.000000	25.553895
3291.000000	25.433733
3290.000000	25.323039
3289.000000	25.220310
3288.000000	25.126128
3287.000000	25.040857
3286.000000	24.964660
3285.000000	24.899293
3284.000000	24.845835
3283.000000	24.802259
3282.000000	24.765632
3281.000000	24.734900
3280.000000	24.709636
3279.000000	24.687552
3278.000000	24.666669
3277.000000	24.648380
3276.000000	24.635037
3275.000000	24.626172
3274.000000	24.619962
3273.000000	24.617257
3272.000000	24.621139
3271.000000	24.632998
3270.000000	24.651636
3269.000000	24.674867
3268.000000	24.699646
3267.000000	24.722369
3266.000000	24.741513
3265.000000	24.759236
3264.000000	24.778367
3263.000000	24.799296
3262.000000	24.821731
3261.000000	24.846925
3260.000000	24.875757
3259.000000	24.906537
3258.000000	24.937296
3257.000000	24.968708
3256.000000	25.002186
3255.000000	25.036922
3254.000000	25.071279
3253.000000	25.105369
3252.000000	25.139854
3251.000000	25.173998
3250.000000	25.207504
3249.000000	25.242611
3248.000000	25.281694
3247.000000	25.324181
3246.000000	25.367830
3245.000000	25.411384
3244.000000	25.453941
3243.000000	25.493714
3242.000000	25.529993
3241.000000	25.564744
3240.000000	25.600118
3239.000000	25.635963
3238.000000	25.671592
3237.000000	25.708000
3236.000000	25.746252
3235.000000	25.785599
3234.000000	25.825204
3233.000000	25.865609
3232.000000	25.906270
3231.000000	25.943948
3230.000000	25.976145
3229.000000	26.004277
3228.000000	26.031301
3227.000000	26.058219
3226.000000	26.085133
3225.000000	26.113513
3224.000000	26.144369
3223.000000	26.175848
3222.000000	26.205118
3221.000000	26.231228
3220.000000	26.254095
3219.000000	26.272457
3218.000000	26.285338
3217.000000	26.294054
3216.000000	26.300819
3215.000000	26.306732
3214.000000	26.312605
3213.000000	26.320002
3212.000000	26.329339
3211.000000	26.338518
3210.000000	26.345335
3209.000000	26.349397
3208.000000	26.350319
3207.000000	26.346225
3206.000000	26.336013
3205.000000	26.321334
3204.000000	26.304270
3203.000000	26.285156
3202.000000	26.264280
3201.000000	26.243339
3200.000000	26.223299
3199.000000	26.202677
3198.000000	26.179901
3197.000000	26.155214
3196.000000	26.128435
3195.000000	26.097438
3194.000000	26.060890
3193.000000	26.020492
3192.000000	25.978568
3191.000000	25.935499
3190.000000	25.891597
3189.000000	25.848838
3188.000000	25.808451
3187.000000	25.768985
3186.000000	25.728723
3185.000000	25.688027
3184.000000	25.647314
3183.000000	25.605112
3182.000000	25.560338
3181.000000	25.514416
3180.000000	25.469146
3179.000000	25.424583
3178.000000	25.380906
3177.000000	25.339945
3176.000000	25.302713
3175.000000	25.267610
3174.000000	25.233117
3173.000000	25.199893
3172.000000	25.168296
3171.000000	25.136578
3170.000000	25.103678
3169.000000	25.071497
3168.000000	25.042273
3167.000000	25.015956
3166.000000	24.992337
3165.000000	24.973078
3164.000000	24.959370
3163.000000	24.949862
3162.000000	24.942836
3161.000000	24.938339
3160.000000	24.936110
3159.000000	24.934027
3158.000000	24.930917
3157.000000	24.928359
3156.000000	24.928046
3155.000000	24.929946
3154.000000	24.935132
3153.000000	24.947413
3152.000000	24.969135
3151.000000	24.997857
3150.000000	25.029366
3149.000000	25.061634
3148.000000	25.093908
3147.000000	25.124718
3146.000000	25.153734
3145.000000	25.183267
3144.000000	25.215381
3143.000000	25.249740
3142.000000	25.286245
3141.000000	25.327379
3140.000000	25.375505
3139.000000	25.429826
3138.000000	25.488219
3137.000000	25.549534
3136.000000	25.612341
3135.000000	25.674086
3134.000000	25.733751
3133.000000	25.793544
3132.000000	25.855844
3131.000000	25.920766
3130.000000	25.988418
3129.000000	26.060742
3128.000000	26.138983
3127.000000	26.221264
3126.000000	26.304727
3125.000000	26.388143
3124.000000	26.470753
3123.000000	26.551263
3122.000000	26.630140
3121.000000	26.710572
3120.000000	26.795166
3119.000000	26.883695
3118.000000	26.975801
3117.000000	27.073089
3116.000000	27.176435
3115.000000	27.283656
3114.000000	27.391695
3113.000000	27.499237
3112.000000	27.605664
3111.000000	27.710079
3110.000000	27.813375
3109.000000	27.918760
3108.000000	28.028362
3107.000000	28.141267
3106.000000	28.256343
3105.000000	28.374479
3104.000000	28.496091
3103.000000	28.619248
3102.000000	28.742364
3101.000000	28.866130
3100.000000	28.990805
3099.000000	29.114247
3098.000000	29.235091
3097.000000	29.355384
3096.000000	29.477743
3095.000000	29.602274
3094.000000	29.728394
3093.000000	29.857402
3092.000000	29.990840
3091.000000	30.127945
3090.000000	30.266669
3089.000000	30.405393
3088.000000	30.542207
3087.000000	30.674872
3086.000000	30.803431
3085.000000	30.931040
3084.000000	31.060457
3083.000000	31.191759
3082.000000	31.324910
3081.000000	31.461987
3080.000000	31.604810
3079.000000	31.752282
3078.000000	31.901755
3077.000000	32.051040
3076.000000	32.197721
3075.000000	32.339036
3074.000000	32.474498
3073.000000	32.606938
3072.000000	32.739405
3071.000000	32.872821
3070.000000	33.007933
3069.000000	33.146978
3068.000000	33.291253
3067.000000	33.438971
3066.000000	33.587249
3065.000000	33.734481
3064.000000	33.879365
3063.000000	34.019962
3062.000000	34.155730
3061.000000	34.288729
3060.000000	34.421318
3059.000000	34.554450
3058.000000	34.689391
3057.000000	34.828550
3056.000000	34.972692
3055.000000	35.119041
3054.000000	35.263895
3053.000000	35.405663
3052.000000	35.544085
3051.000000	35.678606
3050.000000	35.809257
3049.000000	35.937553
3048.000000	36.065155
3047.000000	36.193083
3046.000000	36.323050
3045.000000	36.457497
3044.000000	36.596941
3043.000000	36.739024
3042.000000	36.881067
3041.000000	37.021622
3040.000000	37.158752
3039.000000	37.289408
3038.000000	37.412536
3037.000000	37.531156
3036.000000	37.649919
3035.000000	37.771946
3034.000000	37.898770
3033.000000	38.031282
3032.000000	38.168869
3031.000000	38.308861
3030.000000	38.447951
3029.000000	38.583336
3028.000000	38.712585
3027.000000	38.834381
3026.000000	38.950328
3025.000000	39.064232
3024.000000	39.178793
3023.000000	39.294660
3022.000000	39.412949
3021.000000	39.536139
3020.000000	39.665102
3019.000000	39.797257
3018.000000	39.928957
3017.000000	40.057915
3016.000000	40.182492
3015.000000	40.301063
3014.000000	40.413844
3013.000000	40.523792
3012.000000	40.634288
3011.000000	40.747159
3010.000000	40.863571
3009.000000	40.984758
3008.000000	41.110557
3007.000000	41.238764
3006.000000	41.367002
3005.000000	41.493906
3004.000000	41.617710
3003.000000	41.735606
3002.000000	41.845924
3001.000000	41.949925
3000.000000	42.050734
2999.000000	42.151731
2998.000000	42.256239
2997.000000	42.366666
2996.000000	42.482759
2995.000000	42.602011
2994.000000	42.722356
2993.000000	42.843012
2992.000000	42.962385
2991.000000	43.077362
2990.000000	43.185966
2989.000000	43.289266
2988.000000	43.389891
2987.000000	43.490149
2986.000000	43.592145
2985.000000	43.697822
2984.000000	43.807627
2983.000000	43.920184
2982.000000	44.033879
2981.000000	44.147482
2980.000000	44.258883
2979.000000	44.365137
2978.000000	44.464869
2977.000000	44.559639
2976.000000	44.652491
2975.000000	44.746468
2974.000000	44.844611
2973.000000	44.949214
2972.000000	45.059924
2971.000000	45.173733
2970.000000	45.287476
2969.000000	45.399118
2968.000000	45.506503
2967.000000	45.607125
2966.000000	45.700221
2965.000000	45.787850
2964.000000	45.873322
2963.000000	45.959830
2962.000000	46.050716
2961.000000	46.148706
2960.000000	46.253686
2959.000000	46.362518
2958.000000	46.471547
2957.000000	46.577951
2956.000000	46.678798
2955.000000	46.771456
2954.000000	46.856120
2953.000000	46.936163
2952.000000	47.015113
2951.000000	47.094792
2950.000000	47.176987
2949.000000	47.264610
2948.000000	47.359689
2947.000000	47.461499
2946.000000	47.567597
2945.000000	47.675359
2944.000000	47.781632
2943.000000	47.882606
2942.000000	47.975569
2941.000000	48.060454
2940.000000	48.139164
2939.000000	48.214548
2938.000000	48.290363
2937.000000	48.370596
2936.000000	48.457372
2935.000000	48.549794
2934.000000	48.645178
2933.000000	48.740490
2932.000000	48.832785
2931.000000	48.919807
2930.000000	49.000909
2929.000000	49.076553
2928.000000	49.146929
2927.000000	49.212535
2926.000000	49.276070
2925.000000	49.341870
2924.000000	49.412782
2923.000000	49.488891
2922.000000	49.569353
2921.000000	49.653351
2920.000000	49.738826
2919.000000	49.822316
2918.000000	49.901349
2917.000000	49.976031
2916.000000	50.048013
2915.000000	50.119287
2914.000000	50.192213
2913.000000	50.268971
2912.000000	50.349987
2911.000000	50.433804
2910.000000	50.518790
2909.000000	50.603799
2908.000000	50.687132
2907.000000	50.766632
2906.000000	50.841561
2905.000000	50.913252
2904.000000	50.983610
2903.000000	51.053977
2902.000000	51.125746
2901.000000	51.200303
2900.000000	51.278160
2899.000000	51.358342
2898.000000	51.439437
2897.000000	51.520075
2896.000000	51.597979
2895.000000	51.670610
2894.000000	51.737418
2893.000000	51.800609
2892.000000	51.863199
2891.000000	51.927321
2890.000000	51.994562
2889.000000	52.066338
2888.000000	52.142877
2887.000000	52.222584
2886.000000	52.302982
2885.000000	52.381640
2884.000000	52.456114
2883.000000	52.524364
2882.000000	52.586100
2881.000000	52.643098
2880.000000	52.697974
2879.000000	52.753578
2878.000000	52.813705
2877.000000	52.882674
2876.000000	52.962431
2875.000000	53.049940
2874.000000	53.138062
2873.000000	53.219354
2872.000000	53.289849
2871.000000	53.350423
2870.000000	53.405044
2869.000000	53.457413
2868.000000	53.509092
2867.000000	53.560707
2866.000000	53.614070
2865.000000	53.671953
2864.000000	53.736176
2863.000000	53.806672
2862.000000	53.881804
2861.000000	53.958242
2860.000000	54.031076
2859.000000	54.096057
2858.000000	54.152384
2857.000000	54.202502
2856.000000	54.249373
2855.000000	54.295159
2854.000000	54.342208
2853.000000	54.393387
2852.000000	54.450723
2851.000000	54.514697
2850.000000	54.584743
2849.000000	54.659183
2848.000000	54.734740
2847.000000	54.807860
2846.000000	54.877135
2845.000000	54.943633
2844.000000	55.009092
2843.000000	55.075108
2842.000000	55.143660
2841.000000	55.216001
2840.000000	55.290224
2839.000000	55.361629
2838.000000	55.426851
2837.000000	55.486759
2836.000000	55.544656
2835.000000	55.602826
2834.000000	55.661628
2833.000000	55.720824
2832.000000	55.780543
2831.000000	55.841311
2830.000000	55.903968
2829.000000	55.969198
2828.000000	56.036587
2827.000000	56.104500
2826.000000	56.171212
2825.000000	56.235785
2824.000000	56.297766
2823.000000	56.356975
2822.000000	56.414159
2821.000000	56.471234
2820.000000	56.530261
2819.000000	56.592499
2818.000000	56.658548
2817.000000	56.728549
2816.000000	56.801542
2815.000000	56.875144
2814.000000	56.946439
2813.000000	57.013036
2812.000000	57.073231
2811.000000	57.125993
2810.000000	57.171615
2809.000000	57.212372
2808.000000	57.252157
2807.000000	57.295273
2806.000000	57.345158
2805.000000	57.403242
2804.000000	57.468363
2803.000000	57.537409
2802.000000	57.606725
2801.000000	57.672899
2800.000000	57.732749
2799.000000	57.783772
2798.000000	57.825338
2797.000000	57.859381
2796.000000	57.889798
2795.000000	57.921299
2794.000000	57.958379
2793.000000	58.004309
2792.000000	58.060076
2791.000000	58.124081
2790.000000	58.192845
2789.000000	58.261894
2788.000000	58.326651
2787.000000	58.383713
2786.000000	58.432006
2785.000000	58.472663
2784.000000	58.507960
2783.000000	58.540767
2782.000000	58.574598
2781.000000	58.613048
2780.000000	58.658364
2779.000000	58.710612
2778.000000	58.768202
2777.000000	58.828561
2776.000000	58.888271
2775.000000	58.943403
2774.000000	58.990651
2773.000000	59.028410
2772.000000	59.056898
2771.000000	59.077815
2770.000000	59.093871
2769.000000	59.107938
2768.000000	59.122113
2767.000000	59.137344
2766.000000	59.153820
2765.000000	59.171160
2764.000000	59.188050
2763.000000	59.202500
2762.000000	59.212941
2761.000000	59.218991
2760.000000	59.221131
2759.000000	59.220097
2758.000000	59.216931
2757.000000	59.213023
2756.000000	59.209542
2755.000000	59.206841
2754.000000	59.204535
2753.000000	59.201946
2752.000000	59.198259
2751.000000	59.192584
2750.000000	59.184211
2749.000000	59.172601
2748.000000	59.157120
2747.000000	59.137006
2746.000000	59.111848
2745.000000	59.081876
2744.000000	59.047470
2743.000000	59.008770
2742.000000	58.965863
2741.000000	58.919144
2740.000000	58.869573
2739.000000	58.818937
2738.000000	58.770072
2737.000000	58.726712
2736.000000	58.692730
2735.000000	58.671590
2734.000000	58.666389
2733.000000	58.679167
2732.000000	58.710028
2731.000000	58.757250
2730.000000	58.818116
2729.000000	58.889835
2728.000000	58.969324
2727.000000	59.053059
2726.000000	59.138073
2725.000000	59.222839
2724.000000	59.307650
2723.000000	59.394110
2722.000000	59.483900
2721.000000	59.577524
2720.000000	59.673774
2719.000000	59.770522
2718.000000	59.865820
2717.000000	59.957924
2716.000000	60.044661
2715.000000	60.123702
2714.000000	60.193571
2713.000000	60.254169
2712.000000	60.306348
2711.000000	60.351161
2710.000000	60.389885
2709.000000	60.424035
2708.000000	60.455037
2707.000000	60.484168
2706.000000	60.512454
2705.000000	60.540498
2704.000000	60.568023
2703.000000	60.593892
2702.000000	60.616955
2701.000000	60.636637
2700.000000	60.652850
2699.000000	60.665568
2698.000000	60.674675
2697.000000	60.680163
2696.000000	60.682187
2695.000000	60.681222
2694.000000	60.678199
2693.000000	60.674270
2692.000000	60.670448
2691.000000	60.667547
2690.000000	60.666470
2689.000000	60.668143
2688.000000	60.672858
2687.000000	60.679828
2686.000000	60.687518
2685.000000	60.694291
2684.000000	60.698738
2683.000000	60.699756
2682.000000	60.696680
2681.000000	60.689411
2680.000000	60.678565
2679.000000	60.665767
2678.000000	60.653803
2677.000000	60.646046
2676.000000	60.645344
2675.000000	60.653102
2674.000000	60.669078
2673.000000	60.691719
2672.000000	60.718542
2671.000000	60.746698
2670.000000	60.773555
2669.000000	60.796945
2668.000000	60.815537
2667.000000	60.829392
2666.000000	60.840159
2665.000000	60.850363
2664.000000	60.862312
2663.000000	60.877704
2662.000000	60.897788
2661.000000	60.923098
2660.000000	60.952734
2659.000000	60.984228
2658.000000	61.014337
2657.000000	61.039952
2656.000000	61.058601
2655.000000	61.068925
2654.000000	61.071329
2653.000000	61.068014
2652.000000	61.062345
2651.000000	61.058190
2650.000000	61.059523
2649.000000	61.069841
2648.000000	61.091400
2647.000000	61.124770
2646.000000	61.169026
2645.000000	61.222231
2644.000000	61.281463
2643.000000	61.343372
2642.000000	61.405130
2641.000000	61.464914
2640.000000	61.521913
2639.000000	61.575975
2638.000000	61.627670
2637.000000	61.678415
2636.000000	61.730093
2635.000000	61.784284
2634.000000	61.841588
2633.000000	61.901397
2632.000000	61.962118
2631.000000	62.021640
2630.000000	62.077719
2629.000000	62.128375
2628.000000	62.172204
2627.000000	62.208540
2626.000000	62.237507
2625.000000	62.259747
2624.000000	62.276503
2623.000000	62.289647
2622.000000	62.301248
2621.000000	62.313020
2620.000000	62.325851
2619.000000	62.339915
2618.000000	62.354854
2617.000000	62.369626
2616.000000	62.382603
2615.000000	62.391968
2614.000000	62.396216
2613.000000	62.394213
2612.000000	62.385004
2611.000000	62.368185
2610.000000	62.344347
2609.000000	62.315239
2608.000000	62.283623
2607.000000	62.252908
2606.000000	62.226744
2605.000000	62.208340
2604.000000	62.199786
2603.000000	62.201924
2602.000000	62.214765
2601.000000	62.237338
2600.000000	62.267620
2599.000000	62.303101
2598.000000	62.341547
2597.000000	62.381674
2596.000000	62.422852
2595.000000	62.464954
2594.000000	62.508550
2593.000000	62.554667
2592.000000	62.604379
2591.000000	62.658293
2590.000000	62.716411
2589.000000	62.778224
2588.000000	62.842755
2587.000000	62.908931
2586.000000	62.975834
2585.000000	63.042647
2584.000000	63.108564
2583.000000	63.172968
2582.000000	63.235833
2581.000000	63.297762
2580.000000	63.359619
2579.000000	63.422171
2578.000000	63.485877
2577.000000	63.550794
2576.000000	63.616620
2575.000000	63.683004
2574.000000	63.749819
2573.000000	63.816978
2572.000000	63.883971
2571.000000	63.949757
2570.000000	64.013241
2569.000000	64.073665
2568.000000	64.130498
2567.000000	64.182819
2566.000000	64.229116
2565.000000	64.268023
2564.000000	64.298939
2563.000000	64.322258
2562.000000	64.338766
2561.000000	64.349141
2560.000000	64.354133
2559.000000	64.354474
2558.000000	64.350890
2557.000000	64.343897
2556.000000	64.333868
2555.000000	64.321599
2554.000000	64.308726
2553.000000	64.297838
2552.000000	64.292024
2551.000000	64.294208
2550.000000	64.306547
2549.000000	64.330492
2548.000000	64.366677
2547.000000	64.414899
2546.000000	64.474432
2545.000000	64.543878
2544.000000	64.621371
2543.000000	64.704351
2542.000000	64.789515
2541.000000	64.873391
2540.000000	64.952797
2539.000000	65.025194
2538.000000	65.088935
2537.000000	65.143761
2536.000000	65.191028
2535.000000	65.233325
2534.000000	65.273446
2533.000000	65.313771
2532.000000	65.356217
2531.000000	65.401916
2530.000000	65.450850
2529.000000	65.501855
2528.000000	65.553214
2527.000000	65.603231
2526.000000	65.650374
2525.000000	65.693503
2524.000000	65.732156
2523.000000	65.766494
2522.000000	65.797023
2521.000000	65.824468
2520.000000	65.850025
2519.000000	65.875195
2518.000000	65.901220
2517.000000	65.928880
2516.000000	65.958622
2515.000000	65.990556
2514.000000	66.024254
2513.000000	66.058937
2512.000000	66.093970
2511.000000	66.129005
2510.000000	66.163598
2509.000000	66.196958
2508.000000	66.228045
2507.000000	66.255757
2506.000000	66.279158
2505.000000	66.298112
2504.000000	66.313751
2503.000000	66.327983
2502.000000	66.342744
2501.000000	66.359860
2500.000000	66.381253
2499.000000	66.408335
2498.000000	66.440908
2497.000000	66.476919
2496.000000	66.513410
2495.000000	66.547378
2494.000000	66.576088
2493.000000	66.597478
2492.000000	66.610953
2491.000000	66.617609
2490.000000	66.619889
2489.000000	66.621304
2488.000000	66.626055
2487.000000	66.637887
2486.000000	66.658582
2485.000000	66.687473
2484.000000	66.722155
2483.000000	66.759193
2482.000000	66.794361
2481.000000	66.823318
2480.000000	66.843007
2479.000000	66.852716
2478.000000	66.854004
2477.000000	66.850204
2476.000000	66.845820
2475.000000	66.845445
2474.000000	66.852451
2473.000000	66.868200
2472.000000	66.891960
2471.000000	66.921167
2470.000000	66.952027
2469.000000	66.980599
2468.000000	67.003848
2467.000000	67.019927
2466.000000	67.028214
2465.000000	67.029852
2464.000000	67.028140
2463.000000	67.027442
2462.000000	67.031369
2461.000000	67.041838
2460.000000	67.059161
2459.000000	67.082007
2458.000000	67.107360
2457.000000	67.131485
2456.000000	67.151514
2455.000000	67.166147
2454.000000	67.175296
2453.000000	67.180044
2452.000000	67.182904
2451.000000	67.187143
2450.000000	67.195326
2449.000000	67.208607
2448.000000	67.227006
2447.000000	67.249409
2446.000000	67.273170
2445.000000	67.294664
2444.000000	67.310924
2443.000000	67.320845
2442.000000	67.325193
2441.000000	67.326258
2440.000000	67.327597
2439.000000	67.333111
2438.000000	67.345552
2437.000000	67.365632
2436.000000	67.392105
2435.000000	67.422150
2434.000000	67.451757
2433.000000	67.476698
2432.000000	67.493853
2431.000000	67.501970
2430.000000	67.501792
2429.000000	67.496312
2428.000000	67.490528
2427.000000	67.489832
2426.000000	67.497951
2425.000000	67.516150
2424.000000	67.543631
2423.000000	67.577699
2422.000000	67.613803
2421.000000	67.646500
2420.000000	67.671308
2419.000000	67.685793
2418.000000	67.689811
2417.000000	67.685718
2416.000000	67.678364
2415.000000	67.673614
2414.000000	67.676159
2413.000000	67.688498
2412.000000	67.711205
2411.000000	67.742864
2410.000000	67.779706
2409.000000	67.816404
2408.000000	67.847944
2407.000000	67.870952
2406.000000	67.884007
2405.000000	67.888099
2404.000000	67.886896
2403.000000	67.885553
2402.000000	67.888494
2401.000000	67.898411
2400.000000	67.916551
2399.000000	67.942697
2398.000000	67.974490
2397.000000	68.007817
2396.000000	68.038458
2395.000000	68.063503
2394.000000	68.081749
2393.000000	68.093887
2392.000000	68.102617
2391.000000	68.111701
2390.000000	68.124377
2389.000000	68.142518
2388.000000	68.166671
2387.000000	68.195646
2386.000000	68.226223
2385.000000	68.254461
2384.000000	68.277592
2383.000000	68.294990
2382.000000	68.307618
2381.000000	68.318033
2380.000000	68.330775
2379.000000	68.350939
2378.000000	68.382123
2377.000000	68.425307
2376.000000	68.479214
2375.000000	68.540218
2374.000000	68.602335
2373.000000	68.658953
2372.000000	68.705533
2371.000000	68.740558
2370.000000	68.764596
2369.000000	68.780690
2368.000000	68.794688
2367.000000	68.812904
2366.000000	68.839347
2365.000000	68.875949
2364.000000	68.923819
2363.000000	68.980078
2362.000000	69.037198
2361.000000	69.088221
2360.000000	69.129632
2359.000000	69.160781
2358.000000	69.180868
2357.000000	69.190917
2356.000000	69.199426
2355.000000	69.216881
2354.000000	69.250735
2353.000000	69.304015
2352.000000	69.373701
2351.000000	69.446328
2350.000000	69.501807
2349.000000	69.531676
2348.000000	69.544879
2347.000000	69.559688
2346.000000	69.591950
2345.000000	69.641874
2344.000000	69.694416
2343.000000	69.732948
2342.000000	69.758504
2341.000000	69.784941
2340.000000	69.822431
2339.000000	69.872539
2338.000000	69.929792
2337.000000	69.987131
2336.000000	70.037606
2335.000000	70.076114
2334.000000	70.100600
2333.000000	70.115658
2332.000000	70.130119
2331.000000	70.152865
2330.000000	70.185690
2329.000000	70.227392
2328.000000	70.274884
2327.000000	70.325677
2326.000000	70.378310
2325.000000	70.431420
2324.000000	70.485168
2323.000000	70.536990
2322.000000	70.582516
2321.000000	70.618337
2320.000000	70.645302
2319.000000	70.668670
2318.000000	70.692902
2317.000000	70.721674
2316.000000	70.757570
2315.000000	70.803906
2314.000000	70.860288
2313.000000	70.922146
2312.000000	70.981071
2311.000000	71.029762
2310.000000	71.063903
2309.000000	71.084462
2308.000000	71.096743
2307.000000	71.108299
2306.000000	71.125230
2305.000000	71.151264
2304.000000	71.188004
2303.000000	71.235112
2302.000000	71.289018
2301.000000	71.343952
2300.000000	71.393717
2299.000000	71.433956
2298.000000	71.462194
2297.000000	71.478859
2296.000000	71.487710
2295.000000	71.494780
2294.000000	71.505779
2293.000000	71.524782
2292.000000	71.554525
2291.000000	71.595416
2290.000000	71.644254
2289.000000	71.694962
2288.000000	71.741743
2287.000000	71.780803
2286.000000	71.810133
2285.000000	71.829412
2284.000000	71.841049
2283.000000	71.849745
2282.000000	71.860567
2281.000000	71.877590
2280.000000	71.903627
2279.000000	71.939352
2278.000000	71.982026
2277.000000	72.026442
2276.000000	72.067706
2275.000000	72.102995
2274.000000	72.131137
2273.000000	72.152509
2272.000000	72.169487
2271.000000	72.185679
2270.000000	72.204116
2269.000000	72.226758
2268.000000	72.255045
2267.000000	72.289145
2266.000000	72.326489
2265.000000	72.362539
2264.000000	72.393393
2263.000000	72.417151
2262.000000	72.433564
2261.000000	72.444121
2260.000000	72.452537
2259.000000	72.463228
2258.000000	72.478903
2257.000000	72.500136
2256.000000	72.526443
2255.000000	72.556000
2254.000000	72.584491
2253.000000	72.606349
2252.000000	72.617560
2251.000000	72.616820
2250.000000	72.604619
2249.000000	72.583311
2248.000000	72.557921
2247.000000	72.533845
2246.000000	72.514811
2245.000000	72.501669
2244.000000	72.493532
2243.000000	72.487639
2242.000000	72.478598
2241.000000	72.460192
2240.000000	72.428556
2239.000000	72.383147
2238.000000	72.325750
2237.000000	72.260704
2236.000000	72.195651
2235.000000	72.139404
2234.000000	72.098310
2233.000000	72.074928
2232.000000	72.069200
2231.000000	72.078443
2230.000000	72.096520
2229.000000	72.115421
2228.000000	72.128824
2227.000000	72.133737
2226.000000	72.129505
2225.000000	72.117600
2224.000000	72.102292
2223.000000	72.089406
2222.000000	72.083423
2221.000000	72.086289
2220.000000	72.098104
2219.000000	72.116899
2218.000000	72.137759
2217.000000	72.154372
2216.000000	72.162511
2215.000000	72.161425
2214.000000	72.152566
2213.000000	72.138905
2212.000000	72.125301
2211.000000	72.117257
2210.000000	72.118245
2209.000000	72.128892
2208.000000	72.147951
2207.000000	72.172323
2206.000000	72.196316
2205.000000	72.213266
2204.000000	72.218945
2203.000000	72.212994
2202.000000	72.197829
2201.000000	72.178086
2200.000000	72.160643
2199.000000	72.152620
2198.000000	72.158065
2197.000000	72.176915
2196.000000	72.206279
2195.000000	72.240881
2194.000000	72.272694
2193.000000	72.292798
2192.000000	72.295224
2191.000000	72.278782
2190.000000	72.246350
2189.000000	72.204270
2188.000000	72.162035
2187.000000	72.129745
2186.000000	72.114563
2185.000000	72.119339
2184.000000	72.143134
2183.000000	72.180871
2182.000000	72.223016
2181.000000	72.258327
2180.000000	72.278420
2179.000000	72.279781
2178.000000	72.263006
2177.000000	72.232817
2176.000000	72.198561
2175.000000	72.171868
2174.000000	72.162343
2173.000000	72.175387
2172.000000	72.212205
2171.000000	72.269269
2170.000000	72.337569
2169.000000	72.405147
2168.000000	72.461688
2167.000000	72.500827
2166.000000	72.519735
2165.000000	72.519801
2164.000000	72.507878
2163.000000	72.494262
2162.000000	72.488303
2161.000000	72.496405
2160.000000	72.522520
2159.000000	72.567243
2158.000000	72.625824
2157.000000	72.689278
2156.000000	72.748598
2155.000000	72.797281
2154.000000	72.831122
2153.000000	72.848770
2152.000000	72.853549
2151.000000	72.852546
2150.000000	72.852994
2149.000000	72.860233
2148.000000	72.877973
2147.000000	72.907469
2146.000000	72.945954
2145.000000	72.987717
2144.000000	73.027573
2143.000000	73.062543
2142.000000	73.090889
2141.000000	73.112220
2140.000000	73.129086
2139.000000	73.146351
2138.000000	73.168115
2137.000000	73.196295
2136.000000	73.231448
2135.000000	73.272585
2134.000000	73.315950
2133.000000	73.356182
2132.000000	73.389407
2131.000000	73.414233
2130.000000	73.430542
2129.000000	73.440038
2128.000000	73.447892
2127.000000	73.461143
2126.000000	73.484541
2125.000000	73.518948
2124.000000	73.562937
2123.000000	73.613397
2122.000000	73.664561
2121.000000	73.709066
2120.000000	73.741287
2119.000000	73.759145
2118.000000	73.763561
2117.000000	73.758622
2116.000000	73.752000
2115.000000	73.752525
2114.000000	73.766435
2113.000000	73.796523
2112.000000	73.843261
2111.000000	73.903743
2110.000000	73.969831
2109.000000	74.030460
2108.000000	74.076862
2107.000000	74.104674
2106.000000	74.112576
2105.000000	74.102622
2104.000000	74.081984
2103.000000	74.060980
2102.000000	74.048127
2101.000000	74.047979
2100.000000	74.062453
2099.000000	74.090762
2098.000000	74.127445
2097.000000	74.163783
2096.000000	74.191621
2095.000000	74.205331
2094.000000	74.201890
2093.000000	74.182155
2092.000000	74.151776
2091.000000	74.118332
2090.000000	74.087535
2089.000000	74.063600
2088.000000	74.051392
2087.000000	74.054714
2086.000000	74.072368
2085.000000	74.098685
2084.000000	74.128011
2083.000000	74.156768
2082.000000	74.182278
2081.000000	74.203260
2080.000000	74.221583
2079.000000	74.241117
2078.000000	74.264229
2077.000000	74.291791
2076.000000	74.324796
2075.000000	74.363315
2074.000000	74.404430
2073.000000	74.443488
2072.000000	74.478621
2071.000000	74.510610
2070.000000	74.539926
2069.000000	74.568166
2068.000000	74.601586
2067.000000	74.648070
2066.000000	74.709237
2065.000000	74.778952
2064.000000	74.850385
2063.000000	74.920644
2062.000000	74.987327
2061.000000	75.045291
2060.000000	75.089651
2059.000000	75.119625
2058.000000	75.138484
2057.000000	75.152547
2056.000000	75.170822
2055.000000	75.202564
2054.000000	75.253028
2053.000000	75.321858
2052.000000	75.405610
2051.000000	75.498257
2050.000000	75.589351
2049.000000	75.666652
2048.000000	75.722627
2047.000000	75.755658
2046.000000	75.767097
2045.000000	75.762438
2044.000000	75.754240
2043.000000	75.757622
2042.000000	75.781541
2041.000000	75.827397
2040.000000	75.894468
2039.000000	75.981269
2038.000000	76.081104
2037.000000	76.181428
2036.000000	76.270055
2035.000000	76.339401
2034.000000	76.385756
2033.000000	76.409827
2032.000000	76.418810
2031.000000	76.424173
2030.000000	76.435868
2029.000000	76.460714
2028.000000	76.504883
2027.000000	76.571660
2026.000000	76.657507
2025.000000	76.752425
2024.000000	76.846796
2023.000000	76.933140
2022.000000	77.003918
2021.000000	77.054739
2020.000000	77.089951
2019.000000	77.118990
2018.000000	77.146629
2017.000000	77.172228
2016.000000	77.198293
2015.000000	77.232878
2014.000000	77.281638
2013.000000	77.343160
2012.000000	77.413099
2011.000000	77.487911
2010.000000	77.564113
2009.000000	77.638348
2008.000000	77.709775
2007.000000	77.778816
2006.000000	77.844495
2005.000000	77.904504
2004.000000	77.959469
2003.000000	78.011478
2002.000000	78.059810
2001.000000	78.103209
2000.000000	78.142981
1999.000000	78.184699
1998.000000	78.231310
1997.000000	78.280468
1996.000000	78.332068
1995.000000	78.393618
1994.000000	78.472147
1993.000000	78.563830
1992.000000	78.655239
1991.000000	78.734382
1990.000000	78.796678
1989.000000	78.841167
1988.000000	78.867729
1987.000000	78.878373
1986.000000	78.879015
1985.000000	78.879793
1984.000000	78.893049
1983.000000	78.927921
1982.000000	78.985823
1981.000000	79.062608
1980.000000	79.151244
1979.000000	79.244116
1978.000000	79.329629
1977.000000	79.394250
1976.000000	79.430422
1975.000000	79.440285
1974.000000	79.430323
1973.000000	79.407000
1972.000000	79.379689
1971.000000	79.362713
1970.000000	79.369952
1969.000000	79.408925
1968.000000	79.478856
1967.000000	79.568810
1966.000000	79.660097
1965.000000	79.737331
1964.000000	79.796222
1963.000000	79.837912
1962.000000	79.860024
1961.000000	79.858669
1960.000000	79.838548
1959.000000	79.813983
1958.000000	79.798781
1957.000000	79.800957
1956.000000	79.825288
1955.000000	79.872577
1954.000000	79.935432
1953.000000	80.001238
1952.000000	80.062665
1951.000000	80.115383
1950.000000	80.153716
1949.000000	80.174324
1948.000000	80.179134
1947.000000	80.171194
1946.000000	80.152744
1945.000000	80.132349
1944.000000	80.127235
1943.000000	80.147820
1942.000000	80.184434
1941.000000	80.220806
1940.000000	80.254469
1939.000000	80.291849
1938.000000	80.332035
1937.000000	80.367043
1936.000000	80.395543
1935.000000	80.425030
1934.000000	80.458065
1933.000000	80.488104
1932.000000	80.511975
1931.000000	80.529912
1930.000000	80.541768
1929.000000	80.545993
1928.000000	80.540613
1927.000000	80.527700
1926.000000	80.511455
1925.000000	80.506930
1924.000000	80.528485
1923.000000	80.567457
1922.000000	80.597890
1921.000000	80.611993
1920.000000	80.629658
1919.000000	80.669069
1918.000000	80.718772
1917.000000	80.752303
1916.000000	80.760205
1915.000000	80.752522
1914.000000	80.736179
1913.000000	80.712347
1912.000000	80.692238
1911.000000	80.693763
1910.000000	80.724946
1909.000000	80.777972
1908.000000	80.840854
1907.000000	80.907913
1906.000000	80.968502
1905.000000	81.013023
1904.000000	81.038074
1903.000000	81.042724
1902.000000	81.027511
1901.000000	80.996955
1900.000000	80.960869
1899.000000	80.931661
1898.000000	80.916066
1897.000000	80.920861
1896.000000	80.952147
1895.000000	81.001616
1894.000000	81.045315
1893.000000	81.065807
1892.000000	81.068260
1891.000000	81.068579
1890.000000	81.070845
1889.000000	81.066734
1888.000000	81.055505
1887.000000	81.045935
1886.000000	81.041550
1885.000000	81.039984
1884.000000	81.041934
1883.000000	81.050393
1882.000000	81.066602
1881.000000	81.088184
1880.000000	81.111589
1879.000000	81.135351
1878.000000	81.155104
1877.000000	81.167126
1876.000000	81.176890
1875.000000	81.187279
1874.000000	81.185150
1873.000000	81.154389
1872.000000	81.096500
1871.000000	81.029372
1870.000000	80.973494
1869.000000	80.943257
1868.000000	80.942457
1867.000000	80.966995
1866.000000	81.008550
1865.000000	81.056769
1864.000000	81.106430
1863.000000	81.156528
1862.000000	81.201856
1861.000000	81.235415
1860.000000	81.255136
1859.000000	81.260639
1858.000000	81.246622
1857.000000	81.209721
1856.000000	81.158520
1855.000000	81.107332
1854.000000	81.064055
1853.000000	81.031475
1852.000000	81.011316
1851.000000	81.014889
1850.000000	81.041912
1849.000000	81.068277
1848.000000	81.068616
1847.000000	81.044562
1846.000000	81.016310
1845.000000	80.997433
1844.000000	80.987076
1843.000000	80.967779
1842.000000	80.926449
1841.000000	80.877443
1840.000000	80.844556
1839.000000	80.836739
1838.000000	80.845923
1837.000000	80.865894
1836.000000	80.893756
1835.000000	80.915247
1834.000000	80.902777
1833.000000	80.835498
1832.000000	80.724392
1831.000000	80.614472
1830.000000	80.535382
1829.000000	80.476141
1828.000000	80.427951
1827.000000	80.404501
1826.000000	80.413429
1825.000000	80.442759
1824.000000	80.478347
1823.000000	80.514466
1822.000000	80.540970
1821.000000	80.541497
1820.000000	80.515949
1819.000000	80.480729
1818.000000	80.440000
1817.000000	80.389228
1816.000000	80.332819
1815.000000	80.281093
1814.000000	80.234212
1813.000000	80.182276
1812.000000	80.131280
1811.000000	80.092806
1810.000000	80.062883
1809.000000	80.034365
1808.000000	80.006562
1807.000000	79.975899
1806.000000	79.933876
1805.000000	79.883292
1804.000000	79.840638
1803.000000	79.813894
1802.000000	79.793385
1801.000000	79.765129
1800.000000	79.743063
1799.000000	79.743918
1798.000000	79.748608
1797.000000	79.717113
1796.000000	79.633213
1795.000000	79.515507
1794.000000	79.395300
1793.000000	79.306239
1792.000000	79.286302
1791.000000	79.335184
1790.000000	79.411714
1789.000000	79.481195
1788.000000	79.532663
1787.000000	79.561820
1786.000000	79.554781
1785.000000	79.495428
1784.000000	79.383109
1783.000000	79.241782
1782.000000	79.109483
1781.000000	79.000841
1780.000000	78.921379
1779.000000	78.874088
1778.000000	78.848521
1777.000000	78.821986
1776.000000	78.783331
1775.000000	78.743791
1774.000000	78.696920
1773.000000	78.608012
1772.000000	78.473474
1771.000000	78.345282
1770.000000	78.273162
1769.000000	78.256701
1768.000000	78.254946
1767.000000	78.229931
1766.000000	78.174800
1765.000000	78.108724
1764.000000	78.058782
1763.000000	78.039206
1762.000000	78.039777
1761.000000	78.022174
1760.000000	77.969993
1759.000000	77.900858
1758.000000	77.836524
1757.000000	77.766157
1756.000000	77.672604
1755.000000	77.581774
1754.000000	77.527794
1753.000000	77.494454
1752.000000	77.428283
1751.000000	77.309631
1750.000000	77.163923
1749.000000	77.030836
1748.000000	76.936772
1747.000000	76.888743
1746.000000	76.865626
1745.000000	76.823977
1744.000000	76.743026
1743.000000	76.630078
1742.000000	76.500988
1741.000000	76.376060
1740.000000	76.276468
1739.000000	76.192400
1738.000000	76.098478
1737.000000	76.007492
1736.000000	75.938099
1735.000000	75.869074
1734.000000	75.783744
1733.000000	75.656471
1732.000000	75.482897
1731.000000	75.333426
1730.000000	75.258657
1729.000000	75.218246
1728.000000	75.153044
1727.000000	75.053457
1726.000000	74.922301
1725.000000	74.745649
1724.000000	74.531408
1723.000000	74.293816
1722.000000	74.031778
1721.000000	73.762363
1720.000000	73.541714
1719.000000	73.416559
1718.000000	73.354843
1717.000000	73.261870
1716.000000	73.099910
1715.000000	72.913670
1714.000000	72.742260
1713.000000	72.579472
1712.000000	72.401509
1711.000000	72.194268
1710.000000	71.949570
1709.000000	71.659669
1708.000000	71.345826
1707.000000	71.066489
1706.000000	70.850733
1705.000000	70.672118
1704.000000	70.505388
1703.000000	70.358755
1702.000000	70.181405
1701.000000	69.894543
1700.000000	69.583825
1699.000000	69.376344
1698.000000	69.270746
1697.000000	69.222893
1696.000000	69.142444
1695.000000	68.959834
1694.000000	68.695219
1693.000000	68.419224
1692.000000	68.200517
1691.000000	68.021780
1690.000000	67.820024
1689.000000	67.578765
1688.000000	67.344194
1687.000000	67.157192
1686.000000	66.945597
1685.000000	66.622187
1684.000000	66.234218
1683.000000	65.908246
1682.000000	65.713394
1681.000000	65.608951
1680.000000	65.501437
1679.000000	65.325661
1678.000000	65.084082
1677.000000	64.796393
1676.000000	64.470850
1675.000000	64.145953
1674.000000	63.863267
1673.000000	63.605052
1672.000000	63.358482
1671.000000	63.139037
1670.000000	62.970716
1669.000000	62.856512
1668.000000	62.762244
1667.000000	62.645101
1666.000000	62.474513
1665.000000	62.233827
1664.000000	61.931829
1663.000000	61.617780
1662.000000	61.353282
1661.000000	61.147650
1660.000000	60.973084
1659.000000	60.805885
1658.000000	60.623625
1657.000000	60.423161
1656.000000	60.240506
1655.000000	60.082952
1654.000000	59.901573
1653.000000	59.686311
1652.000000	59.438384
1651.000000	59.078276
1650.000000	58.643070
1649.000000	58.280531
1648.000000	58.037245
1647.000000	57.895458
1646.000000	57.832293
1645.000000	57.794237
1644.000000	57.711842
1643.000000	57.578482
1642.000000	57.420751
1641.000000	57.214093
1640.000000	56.931832
1639.000000	56.610745
1638.000000	56.301688
1637.000000	56.012722
1636.000000	55.750196
1635.000000	55.572570
1634.000000	55.492818
1633.000000	55.441351
1632.000000	55.372718
1631.000000	55.272155
1630.000000	55.123476
1629.000000	54.927213
1628.000000	54.708852
1627.000000	54.496903
1626.000000	54.302449
1625.000000	54.119179
1624.000000	53.959818
1623.000000	53.856627
1622.000000	53.810737
1621.000000	53.780595
1620.000000	53.747911
1619.000000	53.731842
1618.000000	53.726061
1617.000000	53.689263
1616.000000	53.589937
1615.000000	53.445222
1614.000000	53.308697
1613.000000	53.219986
1612.000000	53.172054
1611.000000	53.145016
1610.000000	53.142194
1609.000000	53.164818
1608.000000	53.192511
1607.000000	53.206737
1606.000000	53.207211
1605.000000	53.187731
1604.000000	53.142420
1603.000000	53.088552
1602.000000	53.050361
1601.000000	53.034290
1600.000000	53.037357
1599.000000	53.066674
1598.000000	53.127508
1597.000000	53.205102
1596.000000	53.277905
1595.000000	53.336905
1594.000000	53.379677
1593.000000	53.396728
1592.000000	53.381851
1591.000000	53.348348
1590.000000	53.319332
1589.000000	53.306062
1588.000000	53.311632
1587.000000	53.344419
1586.000000	53.411508
1585.000000	53.498992
1584.000000	53.576424
1583.000000	53.633040
1582.000000	53.664675
1581.000000	53.649902
1580.000000	53.585979
1579.000000	53.524696
1578.000000	53.514735
1577.000000	53.541004
1576.000000	53.551606
1575.000000	53.515645
1574.000000	53.444930
1573.000000	53.376658
1572.000000	53.332404
1571.000000	53.304242
1570.000000	53.299815
1569.000000	53.320720
1568.000000	53.331607
1567.000000	53.316404
1566.000000	53.294545
1565.000000	53.280943
1564.000000	53.275063
1563.000000	53.288195
1562.000000	53.328765
1561.000000	53.331147
1560.000000	53.285467
1559.000000	53.354289
1558.000000	53.558182
1557.000000	53.782669
1556.000000	53.968978
1555.000000	54.143937
1554.000000	54.318006
1553.000000	54.454268
1552.000000	54.567643
1551.000000	54.724392
1550.000000	54.947064
1549.000000	55.185757
1548.000000	55.385070
1547.000000	55.541150
1546.000000	55.675860
1545.000000	55.787468
1544.000000	55.851736
1543.000000	55.879642
1542.000000	55.943858
1541.000000	56.158034
1540.000000	56.571267
1539.000000	57.067427
1538.000000	57.451711
1537.000000	57.652503
1536.000000	57.776459
1535.000000	57.945010
1534.000000	58.207405
1533.000000	58.530586
1532.000000	58.837705
1531.000000	59.088579
1530.000000	59.289962
1529.000000	59.482018
1528.000000	59.719120
1527.000000	60.027817
1526.000000	60.378165
1525.000000	60.712666
1524.000000	61.031630
1523.000000	61.405917
1522.000000	61.876373
1521.000000	62.344595
1520.000000	62.659083
1519.000000	62.835334
1518.000000	63.037626
1517.000000	63.371351
1516.000000	63.794541
1515.000000	64.227193
1514.000000	64.651649
1513.000000	65.070174
1512.000000	65.458357
1511.000000	65.779064
1510.000000	66.036006
1509.000000	66.272461
1508.000000	66.557671
1507.000000	66.938285
1506.000000	67.398867
1505.000000	67.858427
1504.000000	68.195414
1503.000000	68.451807
1502.000000	68.733399
1501.000000	69.035185
1500.000000	69.326586
1499.000000	69.643948
1498.000000	70.033701
1497.000000	70.458385
1496.000000	70.820393
1495.000000	71.046437
1494.000000	71.144579
1493.000000	71.185342
1492.000000	71.250581
1491.000000	71.411592
1490.000000	71.689350
1489.000000	72.025933
1488.000000	72.370030
1487.000000	72.705340
1486.000000	73.005775
1485.000000	73.231593
1484.000000	73.363908
1483.000000	73.441413
1482.000000	73.507518
1481.000000	73.566395
1480.000000	73.609517
1479.000000	73.648487
1478.000000	73.694336
1477.000000	73.740135
1476.000000	73.780305
1475.000000	73.812602
1474.000000	73.823931
1473.000000	73.785340
1472.000000	73.698712
1471.000000	73.597850
1470.000000	73.477788
1469.000000	73.306242
1468.000000	73.078334
1467.000000	72.813579
1466.000000	72.529462
1465.000000	72.222576
1464.000000	71.899134
1463.000000	71.566548
1462.000000	71.177947
1461.000000	70.687184
1460.000000	70.122197
1459.000000	69.545562
1458.000000	68.940743
1457.000000	68.240476
1456.000000	67.496750
1455.000000	66.795983
1454.000000	66.108474
1453.000000	65.356841
1452.000000	64.487260
1451.000000	63.493782
1450.000000	62.360737
1449.000000	61.035478
1448.000000	59.530386
1447.000000	57.954015
1446.000000	56.372613
1445.000000	54.734873
1444.000000	52.997244
1443.000000	51.168752
1442.000000	49.237133
1441.000000	47.199801
1440.000000	45.122196
1439.000000	43.008355
1438.000000	40.648072
1437.000000	37.864570
1436.000000	34.968031
1435.000000	32.476265
1434.000000	30.449168
1433.000000	28.648414
1432.000000	26.996250
1431.000000	25.586815
1430.000000	24.475132
1429.000000	23.657438
1428.000000	23.198886
1427.000000	23.156524
1426.000000	23.474276
1425.000000	24.084089
1424.000000	24.987043
1423.000000	26.130201
1422.000000	27.380633
1421.000000	28.719863
1420.000000	30.308899
1419.000000	32.204053
1418.000000	34.130026
1417.000000	35.842050
1416.000000	37.417254
1415.000000	38.991946
1414.000000	40.557366
1413.000000	42.062928
1412.000000	43.530878
1411.000000	44.992841
1410.000000	46.410924
1409.000000	47.752222
1408.000000	49.059708
1407.000000	50.395305
1406.000000	51.783231
1405.000000	53.211401
1404.000000	54.629737
1403.000000	55.950561
1402.000000	57.120167
1401.000000	58.188677
1400.000000	59.251024
1399.000000	60.317462
1398.000000	61.314103
1397.000000	62.235356
1396.000000	63.179872
1395.000000	64.219366
1394.000000	65.311962
1393.000000	66.362197
1392.000000	67.321930
1391.000000	68.196142
1390.000000	69.006214
1389.000000	69.778978
1388.000000	70.526524
1387.000000	71.211478
1386.000000	71.781890
1385.000000	72.246573
1384.000000	72.658336
1383.000000	73.042070
1382.000000	73.380954
1381.000000	73.651621
1380.000000	73.826360
1379.000000	73.854399
1378.000000	73.683598
1377.000000	73.291502
1376.000000	72.664462
1375.000000	71.779463
1374.000000	70.644320
1373.000000	69.336470
1372.000000	67.966264
1371.000000	66.628141
1370.000000	65.428840
1369.000000	64.508792
1368.000000	63.995616
1367.000000	63.934965
1366.000000	64.285841
1365.000000	64.979497
1364.000000	65.951997
1363.000000	67.119842
1362.000000	68.359488
1361.000000	69.555094
1360.000000	70.642568
1359.000000	71.592502
1358.000000	72.383574
1357.000000	72.990209
1356.000000	73.375226
1355.000000	73.499156
1354.000000	73.339951
1353.000000	72.900334
1352.000000	72.198136
1351.000000	71.251992
1350.000000	70.087927
1349.000000	68.736725
1348.000000	67.216821
1347.000000	65.531763
1346.000000	63.674926
1345.000000	61.638413
1344.000000	59.429986
1343.000000	57.074981
1342.000000	54.599878
1341.000000	52.034828
1340.000000	49.460204
1339.000000	47.042249
1338.000000	44.972194
1337.000000	43.357450
1336.000000	42.192286
1335.000000	41.391346
1334.000000	40.807597
1333.000000	40.253655
1332.000000	39.546924
1331.000000	38.549092
1330.000000	37.178925
1329.000000	35.414666
1328.000000	33.302762
1327.000000	30.956362
1326.000000	28.522141
1325.000000	26.143284
1324.000000	23.958275
1323.000000	22.096196
1322.000000	20.631317
1321.000000	19.554947
1320.000000	18.805862
1319.000000	18.298823
1318.000000	17.930623
1317.000000	17.604499
1316.000000	17.273094
1315.000000	16.945954
1314.000000	16.641804
1313.000000	16.364145
1312.000000	16.122941
1311.000000	15.940782
1310.000000	15.831793
1309.000000	15.798858
1308.000000	15.861981
1307.000000	16.059574
1306.000000	16.411945
1305.000000	16.913484
1304.000000	17.557077
1303.000000	18.337904
1302.000000	19.231843
1301.000000	20.196403
1300.000000	21.203402
1299.000000	22.243721
1298.000000	23.302419
1297.000000	24.355667
1296.000000	25.389551
1295.000000	26.401397
1294.000000	27.381224
1293.000000	28.312062
1292.000000	29.188426
1291.000000	30.017398
1290.000000	30.797435
1289.000000	31.512685
1288.000000	32.145036
1287.000000	32.673539
1286.000000	33.070223
1285.000000	33.314364
1284.000000	33.422255
1283.000000	33.456656
1282.000000	33.502741
1281.000000	33.639986
1280.000000	33.926423
1279.000000	34.384593
1278.000000	34.993207
1277.000000	35.706755
1276.000000	36.485738
1275.000000	37.305283
1274.000000	38.143949
1273.000000	38.979049
1272.000000	39.793716
1271.000000	40.574994
1270.000000	41.306796
1269.000000	41.975761
1268.000000	42.583639
1267.000000	43.145019
1266.000000	43.675716
1265.000000	44.189571
1264.000000	44.702492
1263.000000	45.229804
1262.000000	45.775603
1261.000000	46.331613
1260.000000	46.884914
1259.000000	47.421626
1258.000000	47.927657
1257.000000	48.393595
1256.000000	48.821086
1255.000000	49.221050
1254.000000	49.606644
1253.000000	49.990677
1252.000000	50.385092
1251.000000	50.797088
1250.000000	51.224769
1249.000000	51.658316
1248.000000	52.085540
1247.000000	52.495000
1246.000000	52.877166
1245.000000	53.227596
1244.000000	53.549830
1243.000000	53.854491
1242.000000	54.155284
1241.000000	54.465533
1240.000000	54.795162
1239.000000	55.146495
1238.000000	55.512563
1237.000000	55.879757
1236.000000	56.232365
1235.000000	56.556620
1234.000000	56.844147
1233.000000	57.095077
1232.000000	57.318383
1231.000000	57.529703
1230.000000	57.748200
1229.000000	57.991820
1228.000000	58.271801
1227.000000	58.588775
1226.000000	58.932611
1225.000000	59.285308
1224.000000	59.624755
1223.000000	59.930191
1222.000000	60.188905
1221.000000	60.400041
1220.000000	60.574043
1219.000000	60.729989
1218.000000	60.892117
1217.000000	61.083659
1216.000000	61.319272
1215.000000	61.601238
1214.000000	61.920251
1213.000000	62.257298
1212.000000	62.586216
1211.000000	62.880425
1210.000000	63.123038
1209.000000	63.311354
1208.000000	63.454203
1207.000000	63.569516
1206.000000	63.682728
1205.000000	63.820710
1204.000000	64.002053
1203.000000	64.232203
1202.000000	64.505180
1201.000000	64.805158
1200.000000	65.107254
1199.000000	65.383260
1198.000000	65.611472
1197.000000	65.782061
1196.000000	65.894669
1195.000000	65.957626
1194.000000	65.987586
1193.000000	66.001988
1192.000000	66.009639
1191.000000	66.008284
1190.000000	65.992421
1189.000000	65.959427
1188.000000	65.910388
1187.000000	65.852707
1186.000000	65.802390
1185.000000	65.778640
1184.000000	65.794271
1183.000000	65.853547
1182.000000	65.956605
1181.000000	66.104109
1180.000000	66.295898
1179.000000	66.528668
1178.000000	66.795728
1177.000000	67.083073
1176.000000	67.367908
1175.000000	67.626058
1174.000000	67.843670
1173.000000	68.020380
1172.000000	68.163854
1171.000000	68.287559
1170.000000	68.411689
1169.000000	68.557232
1168.000000	68.735098
1167.000000	68.943747
1166.000000	69.174493
1165.000000	69.413255
1164.000000	69.639590
1163.000000	69.833236
1162.000000	69.985660
1161.000000	70.101599
1160.000000	70.191814
1159.000000	70.271871
1158.000000	70.364658
1157.000000	70.493164
1156.000000	70.667268
1155.000000	70.881092
1154.000000	71.120828
1153.000000	71.367672
1152.000000	71.595862
1151.000000	71.779472
1150.000000	71.906255
1149.000000	71.981311
1148.000000	72.018514
1147.000000	72.037223
1146.000000	72.064577
1145.000000	72.127999
1144.000000	72.241263
1143.000000	72.401319
1142.000000	72.596030
1141.000000	72.807111
1140.000000	73.007906
1139.000000	73.170690
1138.000000	73.280474
1137.000000	73.337941
1136.000000	73.352007
1135.000000	73.338327
1134.000000	73.323107
1133.000000	73.335582
1132.000000	73.393018
1131.000000	73.497226
1130.000000	73.641960
1129.000000	73.814596
1128.000000	73.992467
1127.000000	74.149031
1126.000000	74.267813
1125.000000	74.346090
1124.000000	74.388215
1123.000000	74.404950
1122.000000	74.417223
1121.000000	74.448603
1120.000000	74.511245
1119.000000	74.604757
1118.000000	74.725343
1117.000000	74.866393
1116.000000	75.012116
1115.000000	75.142754
1114.000000	75.248438
1113.000000	75.331175
1112.000000	75.395392
1111.000000	75.447016
1110.000000	75.499759
1109.000000	75.569789
1108.000000	75.662869
1107.000000	75.773316
1106.000000	75.893926
1105.000000	76.017434
1104.000000	76.130572
1103.000000	76.218937
1102.000000	76.280003
1101.000000	76.322274
1100.000000	76.355391
1099.000000	76.388876
1098.000000	76.437982
1097.000000	76.518352
1096.000000	76.630775
1095.000000	76.761385
1094.000000	76.894875
1093.000000	77.019016
1092.000000	77.119206
1091.000000	77.183066
1090.000000	77.212560
1089.000000	77.222585
1088.000000	77.228788
1087.000000	77.246104
1086.000000	77.294419
1085.000000	77.390715
1084.000000	77.532998
1083.000000	77.700565
1082.000000	77.869032
1081.000000	78.016873
1080.000000	78.122254
1079.000000	78.169721
1078.000000	78.163610
1077.000000	78.124419
1076.000000	78.073759
1075.000000	78.031620
1074.000000	78.021547
1073.000000	78.062360
1072.000000	78.151811
1071.000000	78.267560
1070.000000	78.382494
1069.000000	78.469509
1068.000000	78.498005
1067.000000	78.442416
1066.000000	78.300321
1065.000000	78.094387
1064.000000	77.858637
1063.000000	77.633402
1062.000000	77.466039
1061.000000	77.397183
1060.000000	77.439878
1059.000000	77.578838
1058.000000	77.784719
1057.000000	78.022629
1056.000000	78.252533
1055.000000	78.438699
1054.000000	78.567315
1053.000000	78.646499
1052.000000	78.691983
1051.000000	78.722846
1050.000000	78.766515
1049.000000	78.849840
1048.000000	78.980854
1047.000000	79.147565
1046.000000	79.332127
1045.000000	79.515750
1044.000000	79.673939
1043.000000	79.784238
1042.000000	79.842500
1041.000000	79.862769
1040.000000	79.863382
1039.000000	79.863331
1038.000000	79.887070
1037.000000	79.956072
1036.000000	80.072486
1035.000000	80.220207
1034.000000	80.380026
1033.000000	80.534282
1032.000000	80.661576
1031.000000	80.743584
1030.000000	80.780054
1029.000000	80.787039
1028.000000	80.782266
1027.000000	80.782842
1026.000000	80.811729
1025.000000	80.889112
1024.000000	81.014805
1023.000000	81.168868
1022.000000	81.328516
1021.000000	81.473954
1020.000000	81.582826
1019.000000	81.637080
1018.000000	81.639348
1017.000000	81.611609
1016.000000	81.578221
1015.000000	81.560739
1014.000000	81.583196
1013.000000	81.664448
1012.000000	81.802169
1011.000000	81.974621
1010.000000	82.156718
1009.000000	82.325005
1008.000000	82.452462
1007.000000	82.516748
1006.000000	82.517399
1005.000000	82.475540
1004.000000	82.417630
1003.000000	82.369051
1002.000000	82.357824
1001.000000	82.406340
1000.000000	82.515510
999.000000	82.665745
998.000000	82.832909
997.000000	82.993874
996.000000	83.121853
995.000000	83.193744
994.000000	83.206378
993.000000	83.176149
992.000000	83.124543
991.000000	83.074014
990.000000	83.052203
989.000000	83.082701
988.000000	83.168120
987.000000	83.291317
986.000000	83.431507
985.000000	83.569643
984.000000	83.682728
983.000000	83.750336
982.000000	83.770323
981.000000	83.758424
980.000000	83.733216
979.000000	83.711734
978.000000	83.714780
977.000000	83.759804
976.000000	83.845595
975.000000	83.953740
974.000000	84.064809
973.000000	84.163079
972.000000	84.230453
971.000000	84.252637
970.000000	84.234242
969.000000	84.196665
968.000000	84.161467
967.000000	84.145425
966.000000	84.166023
965.000000	84.234825
964.000000	84.343333
963.000000	84.466312
962.000000	84.579350
961.000000	84.664654
960.000000	84.704899
959.000000	84.689209
958.000000	84.627611
957.000000	84.548206
956.000000	84.479266
955.000000	84.442635
954.000000	84.458063
953.000000	84.536171
952.000000	84.664452
951.000000	84.811463
950.000000	84.945851
949.000000	85.043154
948.000000	85.080876
947.000000	85.045746
946.000000	84.949073
945.000000	84.822645
944.000000	84.700065
943.000000	84.609814
942.000000	84.577939
941.000000	84.619128
940.000000	84.723104
939.000000	84.859983
938.000000	84.998308
937.000000	85.109752
936.000000	85.164131
935.000000	85.139624
934.000000	85.041390
933.000000	84.898622
932.000000	84.744102
931.000000	84.607161
930.000000	84.517440
929.000000	84.495351
928.000000	84.536183
927.000000	84.614942
926.000000	84.705390
925.000000	84.783688
924.000000	84.820653
923.000000	84.790637
922.000000	84.691385
921.000000	84.543597
920.000000	84.372227
919.000000	84.200030
918.000000	84.052640
917.000000	83.950130
916.000000	83.891764
915.000000	83.858825
914.000000	83.831028
913.000000	83.790218
912.000000	83.713555
911.000000	83.581893
910.000000	83.396287
909.000000	83.174931
908.000000	82.935902
907.000000	82.692995
906.000000	82.462451
905.000000	82.255265
904.000000	82.063108
903.000000	81.865149
902.000000	81.645237
901.000000	81.393094
900.000000	81.094769
899.000000	80.739298
898.000000	80.335129
897.000000	79.905148
896.000000	79.468702
895.000000	79.037093
894.000000	78.618645
893.000000	78.213613
892.000000	77.803716
891.000000	77.360575
890.000000	76.863139
889.000000	76.297993
888.000000	75.652955
887.000000	74.923302
886.000000	74.123948
885.000000	73.282920
884.000000	72.422746
883.000000	71.558018
882.000000	70.699095
881.000000	69.845801
880.000000	68.980682
879.000000	68.076860
878.000000	67.113106
877.000000	66.074775
876.000000	64.951875
875.000000	63.748859
874.000000	62.491003
873.000000	61.214857
872.000000	59.954641
871.000000	58.739705
870.000000	57.592950
869.000000	56.523801
868.000000	55.525699
867.000000	54.584999
866.000000	53.688652
865.000000	52.821857
864.000000	51.970834
863.000000	51.130373
862.000000	50.307170
861.000000	49.514987
860.000000	48.768356
859.000000	48.083359
858.000000	47.472246
857.000000	46.935994
856.000000	46.467489
855.000000	46.058205
854.000000	45.701199
853.000000	45.386698
852.000000	45.104459
851.000000	44.853978
850.000000	44.642934
849.000000	44.480731
848.000000	44.376665
847.000000	44.343469
846.000000	44.396154
845.000000	44.540387
844.000000	44.773677
843.000000	45.095074
842.000000	45.504948
841.000000	45.997489
840.000000	46.558122
839.000000	47.178731
838.000000	47.862924
837.000000	48.612829
836.000000	49.420954
835.000000	50.278717
834.000000	51.176209
833.000000	52.078880
832.000000	52.906086
831.000000	53.497576
830.000000	53.559915
829.000000	52.643848
828.000000	50.339800
827.000000	46.712649
826.000000	42.576773
825.000000	39.201750
824.000000	37.582338
823.000000	37.909505
822.000000	39.676537
821.000000	42.187911
820.000000	44.904612
819.000000	47.484661
818.000000	49.739195
817.000000	51.616667
816.000000	53.175344
815.000000	54.499373
814.000000	55.649326
813.000000	56.675305
812.000000	57.629152
811.000000	58.542263
810.000000	59.418119
809.000000	60.255563
808.000000	61.054941
807.000000	61.807028
806.000000	62.494159
805.000000	63.110620
804.000000	63.663837
803.000000	64.157058
802.000000	64.594140
801.000000	64.997383
800.000000	65.401741
799.000000	65.829877
798.000000	66.286607
797.000000	66.773868
796.000000	67.291054
795.000000	67.822475
794.000000	68.341866
793.000000	68.829661
792.000000	69.275442
791.000000	69.670197
790.000000	70.012649
789.000000	70.319999
788.000000	70.618241
787.000000	70.924378
786.000000	71.246175
785.000000	71.591017
784.000000	71.961548
783.000000	72.346449
782.000000	72.727128
781.000000	73.090451
780.000000	73.427901
779.000000	73.731328
778.000000	74.000880
777.000000	74.250999
776.000000	74.497891
775.000000	74.745696
774.000000	74.992275
773.000000	75.239468
772.000000	75.488371
771.000000	75.731797
770.000000	75.960847
769.000000	76.173657
768.000000	76.370919
767.000000	76.551895
766.000000	76.722578
765.000000	76.898522
764.000000	77.091162
763.000000	77.298141
762.000000	77.512397
761.000000	77.729919
760.000000	77.941025
759.000000	78.126204
758.000000	78.271037
757.000000	78.377951
756.000000	78.457436
755.000000	78.519211
754.000000	78.579743
753.000000	78.665256
752.000000	78.795803
751.000000	78.972631
750.000000	79.186284
749.000000	79.425683
748.000000	79.671821
747.000000	79.895096
746.000000	80.070401
745.000000	80.188629
744.000000	80.249828
743.000000	80.258789
742.000000	80.235346
741.000000	80.215696
740.000000	80.231752
739.000000	80.295776
738.000000	80.408428
737.000000	80.567275
736.000000	80.758092
735.000000	80.950058
734.000000	81.111044
733.000000	81.220635
732.000000	81.265365
731.000000	81.237622
730.000000	81.149528
729.000000	81.035210
728.000000	80.929126
727.000000	80.851143
726.000000	80.815429
725.000000	80.837526
724.000000	80.922314
723.000000	81.056252
722.000000	81.220248
721.000000	81.399128
720.000000	81.572912
719.000000	81.716422
718.000000	81.819915
717.000000	81.897466
716.000000	81.966768
715.000000	82.034222
714.000000	82.106343
713.000000	82.198857
712.000000	82.323216
711.000000	82.476262
710.000000	82.652035
709.000000	82.849688
708.000000	83.060960
707.000000	83.265694
706.000000	83.449580
705.000000	83.612710
704.000000	83.753762
703.000000	83.861719
702.000000	83.932932
701.000000	83.981769
700.000000	84.022958
699.000000	84.059116
698.000000	84.095327
697.000000	84.148975
696.000000	84.234146
695.000000	84.349194
694.000000	84.489688
693.000000	84.657896
692.000000	84.845843
691.000000	85.027165
690.000000	85.178779
689.000000	85.295886
688.000000	85.377453
687.000000	85.414872
686.000000	85.409705
685.000000	85.385567
684.000000	85.367463
683.000000	85.366285
682.000000	85.394548
681.000000	85.475340
680.000000	85.616945
679.000000	85.797387
678.000000	85.988972
677.000000	86.178976
676.000000	86.348499
675.000000	86.471313
674.000000	86.536426
673.000000	86.545181
672.000000	86.498042
671.000000	86.410767
670.000000	86.340918
669.000000	86.386518
668.000000	86.601014
667.000000	86.840842
666.000000	86.955809
665.000000	87.009730
664.000000	87.107248
663.000000	87.256657
662.000000	87.406205
661.000000	87.509985
660.000000	87.555932
659.000000	87.548224
658.000000	87.502495
657.000000	87.450404
656.000000	87.418153
655.000000	87.417926
654.000000	87.460818
653.000000	87.556254
652.000000	87.701566
651.000000	87.878200
650.000000	88.061889
649.000000	88.230528
648.000000	88.361053
647.000000	88.434989
646.000000	88.453962
645.000000	88.439024
644.000000	88.409423
643.000000	88.374801
642.000000	88.350416
641.000000	88.359762
640.000000	88.415265
639.000000	88.510241
638.000000	88.633426
637.000000	88.776460
636.000000	88.923016
635.000000	89.047314
634.000000	89.134223
633.000000	89.188811
632.000000	89.219134
631.000000	89.225490
630.000000	89.214647
629.000000	89.206243
628.000000	89.214803
627.000000	89.240264
626.000000	89.280806
625.000000	89.340900
624.000000	89.418994
623.000000	89.502121
622.000000	89.580421
621.000000	89.652467
620.000000	89.713404
619.000000	89.754680
618.000000	89.781090
617.000000	89.809893
616.000000	89.845113
615.000000	89.870945
614.000000	89.875819
613.000000	89.864019
612.000000	89.838235
611.000000	89.791174
610.000000	89.720712
609.000000	89.630513
608.000000	89.508276
607.000000	89.319338
606.000000	89.027823
605.000000	88.594764
604.000000	87.942309
603.000000	86.936159
602.000000	85.392854
601.000000	83.122998
600.000000	80.031756
599.000000	76.283053
598.000000	72.383601
597.000000	69.040473
596.000000	66.879784
595.000000	66.211772
594.000000	66.942376
593.000000	68.671055
592.000000	70.921902
591.000000	73.295950
590.000000	75.524298
589.000000	77.490840
588.000000	79.185392
587.000000	80.628401
586.000000	81.832618
585.000000	82.814126
584.000000	83.600815
583.000000	84.235721
582.000000	84.776670
581.000000	85.282811
580.000000	85.786701
579.000000	86.284261
578.000000	86.767104
577.000000	87.238391
576.000000	87.686504
575.000000	88.069623
574.000000	88.349482
573.000000	88.525886
572.000000	88.619856
571.000000	88.650763
570.000000	88.648490
569.000000	88.658532
568.000000	88.716140
567.000000	88.827907
566.000000	88.987816
565.000000	89.193339
564.000000	89.429573
563.000000	89.659825
562.000000	89.849227
561.000000	89.985375
560.000000	90.064951
559.000000	90.082629
558.000000	90.051800
557.000000	90.012383
556.000000	89.998296
555.000000	90.016161
554.000000	90.066246
553.000000	90.157500
552.000000	90.285898
551.000000	90.420959
550.000000	90.533698
549.000000	90.620770
548.000000	90.687853
547.000000	90.733601
546.000000	90.764836
545.000000	90.801704
544.000000	90.850678
543.000000	90.895760
542.000000	90.928671
541.000000	90.961625
540.000000	90.996819
539.000000	91.013939
538.000000	91.005073
537.000000	90.995964
536.000000	91.013428
535.000000	91.059516
534.000000	91.130472
533.000000	91.235556
532.000000	91.372547
531.000000	91.507330
530.000000	91.602766
529.000000	91.646008
528.000000	91.630956
527.000000	91.549355
526.000000	91.418019
525.000000	91.281555
524.000000	91.170101
523.000000	91.077294
522.000000	90.994496
521.000000	90.929334
520.000000	90.871963
519.000000	90.777462
518.000000	90.605824
517.000000	90.358822
516.000000	90.061738
515.000000	89.741917
514.000000	89.442255
513.000000	89.220854
512.000000	89.104719
511.000000	89.064825
510.000000	89.054883
509.000000	89.051898
508.000000	89.026180
507.000000	88.905815
506.000000	88.605979
505.000000	88.072542
504.000000	87.288371
503.000000	86.292017
502.000000	85.234708
501.000000	84.353788
500.000000	83.830831
499.000000	83.709829
498.000000	83.943006
497.000000	84.435809
496.000000	85.054566
495.000000	85.657065
494.000000	86.149410
493.000000	86.512953
492.000000	86.766663
491.000000	86.944629
490.000000	87.108665
489.000000	87.335256
488.000000	87.657298
487.000000	88.044386
486.000000	88.456828
485.000000	88.885513
484.000000	89.321800
483.000000	89.725615
482.000000	90.056616
481.000000	90.305600
480.000000	90.473217
479.000000	90.561315
478.000000	90.601921
477.000000	90.655560
476.000000	90.757671
475.000000	90.903534
474.000000	91.100273
473.000000	91.380786
472.000000	91.725503
471.000000	92.030972
470.000000	92.192214
469.000000	92.179179
468.000000	92.016499
467.000000	91.748013
466.000000	91.448109
465.000000	91.221935
464.000000	91.152288
463.000000	91.254127
462.000000	91.483279
461.000000	91.768929
460.000000	92.037656
459.000000	92.223416
458.000000	92.286406
457.000000	92.223508
456.000000	92.037771
455.000000	91.720247
454.000000	91.307717
453.000000	90.913382
452.000000	90.653487
451.000000	90.567729
450.000000	90.630706
449.000000	90.803214
448.000000	91.008110
447.000000	91.095494
446.000000	90.918379
445.000000	90.412465
444.000000	89.554273
443.000000	88.323712
442.000000	86.775199
441.000000	85.072398
440.000000	83.383634
439.000000	81.804597
438.000000	80.409811
437.000000	79.327713
436.000000	78.700268
435.000000	78.567854
434.000000	78.838187
433.000000	79.388733
432.000000	80.148502
431.000000	81.043222
430.000000	81.989668
429.000000	82.967726
428.000000	84.002727
427.000000	85.078738
426.000000	86.148637
425.000000	87.202330
424.000000	88.208348
423.000000	89.038396
422.000000	89.584710
421.000000	89.904773
420.000000	90.142967
419.000000	90.370071
418.000000	90.574072
417.000000	90.794665
416.000000	91.083581
415.000000	91.404004
414.000000	91.689191
413.000000	91.946037
412.000000	92.193894
411.000000	92.345085
410.000000	92.312938
409.000000	92.165514
408.000000	92.021136
407.000000	91.908402
406.000000	91.852650
405.000000	91.991783
404.000000	92.360001
403.000000	92.750168
402.000000	92.931508
401.000000	92.865518
400.000000	92.627555
