PE IR       SUBTECH     SPECTRUM    ASCII       PEDS        4.00        
   -1
23ms262_nitrito.asc
24/09/02
17:37:53.00
24/09/02
17:37:53.00
Administrator
Sample 1090 By Administrator Date Monday, September 02 2024
400.000000
#HDR
-1
-1
#GR
cm-1
%T
1.0
0.0
4000.000000
-1.000000
3601
8
96.630612
29.413438
#DATA
4000.000000	90.251397
3999.000000	90.279420
3998.000000	90.304163
3997.000000	90.325120
3996.000000	90.342271
3995.000000	90.356456
3994.000000	90.369733
3993.000000	90.384534
3992.000000	90.402102
3991.000000	90.421840
3990.000000	90.442277
3989.000000	90.462633
3988.000000	90.483201
3987.000000	90.504410
3986.000000	90.526439
3985.000000	90.549500
3984.000000	90.574036
3983.000000	90.600064
3982.000000	90.626516
3981.000000	90.651600
3980.000000	90.673659
3979.000000	90.692125
3978.000000	90.707614
3977.000000	90.721240
3976.000000	90.734389
3975.000000	90.748324
3974.000000	90.764007
3973.000000	90.782244
3972.000000	90.803241
3971.000000	90.826351
3970.000000	90.849503
3969.000000	90.869983
3968.000000	90.886111
3967.000000	90.898065
3966.000000	90.907891
3965.000000	90.918625
3964.000000	90.932995
3963.000000	90.951740
3962.000000	90.973524
3961.000000	90.996016
3960.000000	91.017207
3959.000000	91.036539
3958.000000	91.053992
3957.000000	91.070142
3956.000000	91.086466
3955.000000	91.104304
3954.000000	91.124469
3953.000000	91.146299
3952.000000	91.167844
3951.000000	91.186792
3950.000000	91.201461
3949.000000	91.211775
3948.000000	91.219617
3947.000000	91.229353
3946.000000	91.246577
3945.000000	91.274400
3944.000000	91.309867
3943.000000	91.344405
3942.000000	91.371536
3941.000000	91.392022
3940.000000	91.409354
3939.000000	91.425343
3938.000000	91.438402
3937.000000	91.447023
3936.000000	91.454200
3935.000000	91.465167
3934.000000	91.484875
3933.000000	91.513837
3932.000000	91.548193
3931.000000	91.581962
3930.000000	91.608894
3929.000000	91.629006
3928.000000	91.647921
3927.000000	91.671940
3926.000000	91.700641
3925.000000	91.725503
3924.000000	91.741312
3923.000000	91.751506
3922.000000	91.760150
3921.000000	91.767942
3920.000000	91.776529
3919.000000	91.791150
3918.000000	91.814280
3917.000000	91.841317
3916.000000	91.866673
3915.000000	91.889219
3914.000000	91.910835
3913.000000	91.932222
3912.000000	91.951676
3911.000000	91.969303
3910.000000	91.985446
3909.000000	92.001462
3908.000000	92.022023
3907.000000	92.048703
3906.000000	92.076766
3905.000000	92.095417
3904.000000	92.101951
3903.000000	92.111215
3902.000000	92.138929
3901.000000	92.183800
3900.000000	92.228324
3899.000000	92.256139
3898.000000	92.266875
3897.000000	92.270883
3896.000000	92.275954
3895.000000	92.288552
3894.000000	92.312144
3893.000000	92.344013
3892.000000	92.369919
3891.000000	92.376971
3890.000000	92.371588
3889.000000	92.371314
3888.000000	92.388796
3887.000000	92.422967
3886.000000	92.459072
3885.000000	92.486342
3884.000000	92.510188
3883.000000	92.539708
3882.000000	92.572051
3881.000000	92.595366
3880.000000	92.601839
3879.000000	92.598373
3878.000000	92.600314
3877.000000	92.616875
3876.000000	92.646401
3875.000000	92.677151
3874.000000	92.697136
3873.000000	92.709707
3872.000000	92.728789
3871.000000	92.755832
3870.000000	92.777016
3869.000000	92.790240
3868.000000	92.808828
3867.000000	92.837876
3866.000000	92.867625
3865.000000	92.888396
3864.000000	92.902958
3863.000000	92.918822
3862.000000	92.932807
3861.000000	92.942001
3860.000000	92.953014
3859.000000	92.976631
3858.000000	93.021432
3857.000000	93.087194
3856.000000	93.162755
3855.000000	93.220315
3854.000000	93.235541
3853.000000	93.231090
3852.000000	93.245094
3851.000000	93.270354
3850.000000	93.278042
3849.000000	93.263513
3848.000000	93.242257
3847.000000	93.233069
3846.000000	93.241207
3845.000000	93.260937
3844.000000	93.284778
3843.000000	93.307372
3842.000000	93.329476
3841.000000	93.359766
3840.000000	93.397752
3839.000000	93.432572
3838.000000	93.460496
3837.000000	93.485266
3836.000000	93.509808
3835.000000	93.530955
3834.000000	93.546294
3833.000000	93.557556
3832.000000	93.565490
3831.000000	93.572405
3830.000000	93.584952
3829.000000	93.608013
3828.000000	93.638262
3827.000000	93.665719
3826.000000	93.681491
3825.000000	93.691738
3824.000000	93.710461
3823.000000	93.744331
3822.000000	93.784354
3821.000000	93.812773
3820.000000	93.832055
3819.000000	93.859021
3818.000000	93.896882
3817.000000	93.932349
3816.000000	93.952384
3815.000000	93.962966
3814.000000	93.980370
3813.000000	94.001136
3812.000000	94.009464
3811.000000	94.007278
3810.000000	94.013516
3809.000000	94.040039
3808.000000	94.076398
3807.000000	94.102985
3806.000000	94.118660
3805.000000	94.141885
3804.000000	94.179973
3803.000000	94.226681
3802.000000	94.262890
3801.000000	94.278715
3800.000000	94.292494
3799.000000	94.317357
3798.000000	94.343867
3797.000000	94.359142
3796.000000	94.363490
3795.000000	94.368558
3794.000000	94.383576
3793.000000	94.405213
3792.000000	94.425974
3791.000000	94.445750
3790.000000	94.467605
3789.000000	94.491346
3788.000000	94.515851
3787.000000	94.541534
3786.000000	94.567440
3785.000000	94.589214
3784.000000	94.604299
3783.000000	94.618667
3782.000000	94.640573
3781.000000	94.670879
3780.000000	94.701658
3779.000000	94.726409
3778.000000	94.747104
3777.000000	94.768260
3776.000000	94.787491
3775.000000	94.799804
3774.000000	94.807685
3773.000000	94.820397
3772.000000	94.843477
3771.000000	94.872512
3770.000000	94.899918
3769.000000	94.926521
3768.000000	94.957638
3767.000000	94.991846
3766.000000	95.021824
3765.000000	95.040208
3764.000000	95.049083
3763.000000	95.059340
3762.000000	95.077390
3761.000000	95.102025
3760.000000	95.128722
3759.000000	95.156151
3758.000000	95.181692
3757.000000	95.200439
3756.000000	95.215071
3755.000000	95.232066
3754.000000	95.254438
3753.000000	95.281295
3752.000000	95.313723
3751.000000	95.355836
3750.000000	95.402457
3749.000000	95.441904
3748.000000	95.475631
3747.000000	95.515842
3746.000000	95.563596
3745.000000	95.595914
3744.000000	95.601210
3743.000000	95.607305
3742.000000	95.626694
3741.000000	95.637660
3740.000000	95.627291
3739.000000	95.611161
3738.000000	95.613349
3737.000000	95.637484
3736.000000	95.674105
3735.000000	95.714039
3734.000000	95.754033
3733.000000	95.790353
3732.000000	95.816001
3731.000000	95.832149
3730.000000	95.845570
3729.000000	95.860593
3728.000000	95.878631
3727.000000	95.897193
3726.000000	95.915754
3725.000000	95.937834
3724.000000	95.965437
3723.000000	95.995066
3722.000000	96.021743
3721.000000	96.046426
3720.000000	96.069767
3719.000000	96.091079
3718.000000	96.107516
3717.000000	96.117690
3716.000000	96.128545
3715.000000	96.146800
3714.000000	96.173168
3713.000000	96.205185
3712.000000	96.241186
3711.000000	96.280332
3710.000000	96.318692
3709.000000	96.349918
3708.000000	96.368391
3707.000000	96.372909
3706.000000	96.370116
3705.000000	96.370320
3704.000000	96.381187
3703.000000	96.402416
3702.000000	96.427446
3701.000000	96.450832
3700.000000	96.471301
3699.000000	96.489308
3698.000000	96.503470
3697.000000	96.510461
3696.000000	96.511220
3695.000000	96.512189
3694.000000	96.517213
3693.000000	96.528166
3692.000000	96.546738
3691.000000	96.570566
3690.000000	96.589719
3689.000000	96.599295
3688.000000	96.607272
3687.000000	96.619081
3686.000000	96.630010
3685.000000	96.630612
3684.000000	96.615882
3683.000000	96.591712
3682.000000	96.570487
3681.000000	96.554466
3680.000000	96.536827
3679.000000	96.513486
3678.000000	96.491139
3677.000000	96.476881
3676.000000	96.463977
3675.000000	96.450980
3674.000000	96.445100
3673.000000	96.443401
3672.000000	96.432942
3671.000000	96.408737
3670.000000	96.372611
3669.000000	96.332176
3668.000000	96.293860
3667.000000	96.250750
3666.000000	96.193275
3665.000000	96.124472
3664.000000	96.053504
3663.000000	95.987040
3662.000000	95.923839
3661.000000	95.856587
3660.000000	95.784252
3659.000000	95.709485
3658.000000	95.632352
3657.000000	95.547369
3656.000000	95.453189
3655.000000	95.360045
3654.000000	95.272092
3653.000000	95.178771
3652.000000	95.067202
3651.000000	94.933411
3650.000000	94.784225
3649.000000	94.636535
3648.000000	94.506957
3647.000000	94.393773
3646.000000	94.280082
3645.000000	94.154205
3644.000000	94.016050
3643.000000	93.870857
3642.000000	93.719476
3641.000000	93.559143
3640.000000	93.390299
3639.000000	93.215620
3638.000000	93.037660
3637.000000	92.858139
3636.000000	92.679733
3635.000000	92.505242
3634.000000	92.336156
3633.000000	92.174877
3632.000000	92.019001
3631.000000	91.855830
3630.000000	91.668271
3629.000000	91.456402
3628.000000	91.247966
3627.000000	91.064614
3626.000000	90.891609
3625.000000	90.707484
3624.000000	90.512661
3623.000000	90.320092
3622.000000	90.135433
3621.000000	89.950330
3620.000000	89.754401
3619.000000	89.550589
3618.000000	89.352595
3617.000000	89.167942
3616.000000	88.992928
3615.000000	88.818443
3614.000000	88.635642
3613.000000	88.443156
3612.000000	88.248662
3611.000000	88.059285
3610.000000	87.876278
3609.000000	87.700843
3608.000000	87.534582
3607.000000	87.376507
3606.000000	87.222019
3605.000000	87.066236
3604.000000	86.909519
3603.000000	86.753009
3602.000000	86.594398
3601.000000	86.430180
3600.000000	86.261048
3599.000000	86.090477
3598.000000	85.920460
3597.000000	85.750876
3596.000000	85.583625
3595.000000	85.419236
3594.000000	85.255671
3593.000000	85.094787
3592.000000	84.941020
3591.000000	84.796297
3590.000000	84.658191
3589.000000	84.522539
3588.000000	84.384403
3587.000000	84.240029
3586.000000	84.089688
3585.000000	83.936588
3584.000000	83.783189
3583.000000	83.629803
3582.000000	83.476032
3581.000000	83.322754
3580.000000	83.172744
3579.000000	83.027341
3578.000000	82.884524
3577.000000	82.742303
3576.000000	82.600454
3575.000000	82.458858
3574.000000	82.314699
3573.000000	82.165819
3572.000000	82.012819
3571.000000	81.856223
3570.000000	81.695068
3569.000000	81.530746
3568.000000	81.368440
3567.000000	81.212446
3566.000000	81.062174
3565.000000	80.914683
3564.000000	80.768143
3563.000000	80.622519
3562.000000	80.477114
3561.000000	80.330668
3560.000000	80.182436
3559.000000	80.031802
3558.000000	79.877815
3557.000000	79.720878
3556.000000	79.563413
3555.000000	79.407294
3554.000000	79.251616
3553.000000	79.094920
3552.000000	78.938920
3551.000000	78.786535
3550.000000	78.637513
3549.000000	78.489912
3548.000000	78.342967
3547.000000	78.196758
3546.000000	78.049585
3545.000000	77.900142
3544.000000	77.750080
3543.000000	77.601602
3542.000000	77.454234
3541.000000	77.307203
3540.000000	77.162080
3539.000000	77.020196
3538.000000	76.880590
3537.000000	76.742333
3536.000000	76.607943
3535.000000	76.480064
3534.000000	76.357805
3533.000000	76.238367
3532.000000	76.119745
3531.000000	75.999990
3530.000000	75.875307
3529.000000	75.743338
3528.000000	75.606505
3527.000000	75.469711
3526.000000	75.336280
3525.000000	75.208330
3524.000000	75.087904
3523.000000	74.974812
3522.000000	74.865535
3521.000000	74.756762
3520.000000	74.647835
3519.000000	74.537495
3518.000000	74.422571
3517.000000	74.301757
3516.000000	74.178143
3515.000000	74.055336
3514.000000	73.934287
3513.000000	73.815744
3512.000000	73.701795
3511.000000	73.592436
3510.000000	73.483888
3509.000000	73.373295
3508.000000	73.262307
3507.000000	73.153642
3506.000000	73.046687
3505.000000	72.939145
3504.000000	72.830253
3503.000000	72.720163
3502.000000	72.608316
3501.000000	72.494825
3500.000000	72.381623
3499.000000	72.269992
3498.000000	72.159617
3497.000000	72.051282
3496.000000	71.948052
3495.000000	71.851500
3494.000000	71.759168
3493.000000	71.667525
3492.000000	71.574553
3491.000000	71.478019
3490.000000	71.374959
3489.000000	71.265344
3488.000000	71.153403
3487.000000	71.043395
3486.000000	70.936543
3485.000000	70.832947
3484.000000	70.733068
3483.000000	70.635411
3482.000000	70.536214
3481.000000	70.434425
3480.000000	70.333923
3479.000000	70.238774
3478.000000	70.148924
3477.000000	70.062157
3476.000000	69.976934
3475.000000	69.891414
3474.000000	69.802721
3473.000000	69.709048
3472.000000	69.610788
3471.000000	69.508802
3470.000000	69.404532
3469.000000	69.302731
3468.000000	69.210005
3467.000000	69.128767
3466.000000	69.055403
3465.000000	68.984772
3464.000000	68.913387
3463.000000	68.837763
3462.000000	68.754445
3461.000000	68.663987
3460.000000	68.571665
3459.000000	68.482513
3458.000000	68.398025
3457.000000	68.318195
3456.000000	68.243567
3455.000000	68.173303
3454.000000	68.104696
3453.000000	68.035834
3452.000000	67.966884
3451.000000	67.898121
3450.000000	67.828783
3449.000000	67.758882
3448.000000	67.689825
3447.000000	67.622277
3446.000000	67.555524
3445.000000	67.489483
3444.000000	67.424615
3443.000000	67.359485
3442.000000	67.291209
3441.000000	67.219356
3440.000000	67.147086
3439.000000	67.077509
3438.000000	67.011458
3437.000000	66.949316
3436.000000	66.892346
3435.000000	66.840288
3434.000000	66.789920
3433.000000	66.737168
3432.000000	66.679647
3431.000000	66.617277
3430.000000	66.552186
3429.000000	66.488881
3428.000000	66.431825
3427.000000	66.381624
3426.000000	66.335011
3425.000000	66.288848
3424.000000	66.242134
3423.000000	66.193747
3422.000000	66.141639
3421.000000	66.085731
3420.000000	66.029194
3419.000000	65.975066
3418.000000	65.923431
3417.000000	65.872805
3416.000000	65.821908
3415.000000	65.769263
3414.000000	65.713395
3413.000000	65.654824
3412.000000	65.595847
3411.000000	65.537662
3410.000000	65.479736
3409.000000	65.422508
3408.000000	65.367789
3407.000000	65.315161
3406.000000	65.260606
3405.000000	65.199970
3404.000000	65.131889
3403.000000	65.056701
3402.000000	64.975859
3401.000000	64.893620
3400.000000	64.816048
3399.000000	64.745949
3398.000000	64.680560
3397.000000	64.615198
3396.000000	64.546577
3395.000000	64.471886
3394.000000	64.388237
3393.000000	64.295550
3392.000000	64.197750
3391.000000	64.099091
3390.000000	64.000983
3389.000000	63.902706
3388.000000	63.802819
3387.000000	63.698683
3386.000000	63.587081
3385.000000	63.466871
3384.000000	63.338996
3383.000000	63.203829
3382.000000	63.061108
3381.000000	62.912704
3380.000000	62.762371
3379.000000	62.611435
3378.000000	62.457334
3377.000000	62.297167
3376.000000	62.129520
3375.000000	61.952556
3374.000000	61.763311
3373.000000	61.560499
3372.000000	61.346092
3371.000000	61.123001
3370.000000	60.893990
3369.000000	60.662151
3368.000000	60.429326
3367.000000	60.193369
3366.000000	59.949225
3365.000000	59.693454
3364.000000	59.425091
3363.000000	59.143042
3362.000000	58.846726
3361.000000	58.539046
3360.000000	58.225185
3359.000000	57.907128
3358.000000	57.581955
3357.000000	57.246363
3356.000000	56.898782
3355.000000	56.537795
3354.000000	56.162061
3353.000000	55.773058
3352.000000	55.375407
3351.000000	54.973052
3350.000000	54.567423
3349.000000	54.158715
3348.000000	53.745367
3347.000000	53.322870
3346.000000	52.886391
3345.000000	52.435685
3344.000000	51.974891
3343.000000	51.507490
3342.000000	51.034955
3341.000000	50.559298
3340.000000	50.083115
3339.000000	49.606870
3338.000000	49.128930
3337.000000	48.648488
3336.000000	48.164991
3335.000000	47.675719
3334.000000	47.178017
3333.000000	46.673466
3332.000000	46.166514
3331.000000	45.659237
3330.000000	45.150750
3329.000000	44.641067
3328.000000	44.131641
3327.000000	43.622906
3326.000000	43.115163
3325.000000	42.611141
3324.000000	42.113903
3323.000000	41.623082
3322.000000	41.136690
3321.000000	40.655504
3320.000000	40.181736
3319.000000	39.714492
3318.000000	39.251387
3317.000000	38.793015
3316.000000	38.341766
3315.000000	37.897657
3314.000000	37.459392
3313.000000	37.028537
3312.000000	36.607828
3311.000000	36.196712
3310.000000	35.793580
3309.000000	35.400497
3308.000000	35.021964
3307.000000	34.659985
3306.000000	34.314542
3305.000000	33.987442
3304.000000	33.679559
3303.000000	33.387016
3302.000000	33.104503
3301.000000	32.830918
3300.000000	32.567867
3299.000000	32.314154
3298.000000	32.067692
3297.000000	31.830857
3296.000000	31.608001
3295.000000	31.399784
3294.000000	31.204329
3293.000000	31.022950
3292.000000	30.859225
3291.000000	30.712541
3290.000000	30.578643
3289.000000	30.454406
3288.000000	30.338378
3287.000000	30.228280
3286.000000	30.122476
3285.000000	30.023697
3284.000000	29.935865
3283.000000	29.858978
3282.000000	29.790909
3281.000000	29.731810
3280.000000	29.682521
3279.000000	29.639953
3278.000000	29.599428
3277.000000	29.560325
3276.000000	29.524683
3275.000000	29.492271
3274.000000	29.461676
3273.000000	29.435202
3272.000000	29.418145
3271.000000	29.413438
3270.000000	29.420610
3269.000000	29.437872
3268.000000	29.461372
3267.000000	29.484906
3266.000000	29.504500
3265.000000	29.522441
3264.000000	29.543331
3263.000000	29.568050
3262.000000	29.595353
3261.000000	29.625950
3260.000000	29.660494
3259.000000	29.695978
3258.000000	29.729168
3257.000000	29.762112
3256.000000	29.799561
3255.000000	29.842844
3254.000000	29.890124
3253.000000	29.940451
3252.000000	29.993153
3251.000000	30.045047
3250.000000	30.093100
3249.000000	30.138799
3248.000000	30.185903
3247.000000	30.235472
3246.000000	30.286510
3245.000000	30.339489
3244.000000	30.395352
3243.000000	30.452761
3242.000000	30.510191
3241.000000	30.568781
3240.000000	30.629595
3239.000000	30.690005
3238.000000	30.746431
3237.000000	30.798685
3236.000000	30.848637
3235.000000	30.897257
3234.000000	30.946412
3233.000000	31.000434
3232.000000	31.061485
3231.000000	31.125476
3230.000000	31.186507
3229.000000	31.243214
3228.000000	31.297282
3227.000000	31.348743
3226.000000	31.397021
3225.000000	31.444241
3224.000000	31.492861
3223.000000	31.541695
3222.000000	31.587897
3221.000000	31.631058
3220.000000	31.671812
3219.000000	31.708648
3218.000000	31.740131
3217.000000	31.768147
3216.000000	31.795332
3215.000000	31.821419
3214.000000	31.845283
3213.000000	31.868251
3212.000000	31.891521
3211.000000	31.912638
3210.000000	31.928352
3209.000000	31.938702
3208.000000	31.945236
3207.000000	31.947538
3206.000000	31.944991
3205.000000	31.939791
3204.000000	31.934360
3203.000000	31.927984
3202.000000	31.919063
3201.000000	31.908178
3200.000000	31.895859
3199.000000	31.879819
3198.000000	31.858068
3197.000000	31.832318
3196.000000	31.805013
3195.000000	31.775662
3194.000000	31.743083
3193.000000	31.708440
3192.000000	31.672750
3191.000000	31.634068
3190.000000	31.590860
3189.000000	31.545309
3188.000000	31.500010
3187.000000	31.454312
3186.000000	31.407230
3185.000000	31.361022
3184.000000	31.318060
3183.000000	31.276997
3182.000000	31.235562
3181.000000	31.194289
3180.000000	31.154016
3179.000000	31.112800
3178.000000	31.069086
3177.000000	31.025271
3176.000000	30.984622
3175.000000	30.947211
3174.000000	30.912167
3173.000000	30.880836
3172.000000	30.854164
3171.000000	30.829944
3170.000000	30.806048
3169.000000	30.783770
3168.000000	30.764917
3167.000000	30.748519
3166.000000	30.733839
3165.000000	30.723200
3164.000000	30.718410
3163.000000	30.717567
3162.000000	30.718562
3161.000000	30.722712
3160.000000	30.731484
3159.000000	30.743025
3158.000000	30.755511
3157.000000	30.770443
3156.000000	30.789574
3155.000000	30.811937
3154.000000	30.837592
3153.000000	30.870986
3152.000000	30.916125
3151.000000	30.971351
3150.000000	31.032113
3149.000000	31.096055
3148.000000	31.162518
3147.000000	31.230255
3146.000000	31.299649
3145.000000	31.374079
3144.000000	31.455232
3143.000000	31.540050
3142.000000	31.625451
3141.000000	31.713629
3140.000000	31.809275
3139.000000	31.913959
3138.000000	32.026556
3137.000000	32.146021
3136.000000	32.270556
3135.000000	32.396784
3134.000000	32.522819
3133.000000	32.650405
3132.000000	32.781535
3131.000000	32.916058
3130.000000	33.054689
3129.000000	33.200291
3128.000000	33.353672
3127.000000	33.511403
3126.000000	33.670566
3125.000000	33.832033
3124.000000	33.996340
3123.000000	34.160783
3122.000000	34.323905
3121.000000	34.489102
3120.000000	34.660346
3119.000000	34.837352
3118.000000	35.018721
3117.000000	35.206336
3116.000000	35.402700
3115.000000	35.606576
3114.000000	35.814272
3113.000000	36.022992
3112.000000	36.230360
3111.000000	36.434132
3110.000000	36.635652
3109.000000	36.840510
3108.000000	37.052669
3107.000000	37.270264
3106.000000	37.489367
3105.000000	37.708915
3104.000000	37.929212
3103.000000	38.149062
3102.000000	38.367741
3101.000000	38.587425
3100.000000	38.810831
3099.000000	39.038052
3098.000000	39.268018
3097.000000	39.500639
3096.000000	39.735108
3095.000000	39.968625
3094.000000	40.199248
3093.000000	40.428128
3092.000000	40.657138
3091.000000	40.886533
3090.000000	41.116476
3089.000000	41.348029
3088.000000	41.580802
3087.000000	41.812515
3086.000000	42.042898
3085.000000	42.275247
3084.000000	42.511800
3083.000000	42.750228
3082.000000	42.986899
3081.000000	43.221098
3080.000000	43.454019
3079.000000	43.686261
3078.000000	43.918734
3077.000000	44.153435
3076.000000	44.390752
3075.000000	44.627904
3074.000000	44.862125
3073.000000	45.093423
3072.000000	45.322515
3071.000000	45.548574
3070.000000	45.771112
3069.000000	45.992099
3068.000000	46.214142
3067.000000	46.438020
3066.000000	46.663514
3065.000000	46.890648
3064.000000	47.118475
3063.000000	47.344512
3062.000000	47.566869
3061.000000	47.785440
3060.000000	48.000057
3059.000000	48.209780
3058.000000	48.415396
3057.000000	48.620185
3056.000000	48.826613
3055.000000	49.033973
3054.000000	49.240590
3053.000000	49.446305
3052.000000	49.651241
3051.000000	49.854355
3050.000000	50.054711
3049.000000	50.252441
3048.000000	50.447327
3047.000000	50.638365
3046.000000	50.826128
3045.000000	51.013510
3044.000000	51.202679
3043.000000	51.393275
3042.000000	51.584575
3041.000000	51.777028
3040.000000	51.969989
3039.000000	52.160175
3038.000000	52.344618
3037.000000	52.523572
3036.000000	52.699355
3035.000000	52.873960
3034.000000	53.048811
3033.000000	53.224783
3032.000000	53.400652
3031.000000	53.573506
3030.000000	53.742267
3029.000000	53.908978
3028.000000	54.075678
3027.000000	54.242249
3026.000000	54.408651
3025.000000	54.576601
3024.000000	54.746788
3023.000000	54.916409
3022.000000	55.081495
3021.000000	55.240387
3020.000000	55.393750
3019.000000	55.542900
3018.000000	55.689913
3017.000000	55.837687
3016.000000	55.988016
3015.000000	56.140586
3014.000000	56.294841
3013.000000	56.451359
3012.000000	56.610061
3011.000000	56.768825
3010.000000	56.925417
3009.000000	57.079449
3008.000000	57.231200
3007.000000	57.380201
3006.000000	57.526419
3005.000000	57.671329
3004.000000	57.816180
3003.000000	57.960227
3002.000000	58.102013
3001.000000	58.241268
3000.000000	58.378642
2999.000000	58.514946
2998.000000	58.651738
2997.000000	58.791067
2996.000000	58.932989
2995.000000	59.074599
2994.000000	59.212902
2993.000000	59.347536
2992.000000	59.479616
2991.000000	59.609435
2990.000000	59.737009
2989.000000	59.863692
2988.000000	59.991521
2987.000000	60.121627
2986.000000	60.254333
2985.000000	60.389613
2984.000000	60.526058
2983.000000	60.660524
2982.000000	60.790459
2981.000000	60.915931
2980.000000	61.038325
2979.000000	61.158209
2978.000000	61.275802
2977.000000	61.392542
2976.000000	61.510423
2975.000000	61.630177
2974.000000	61.751160
2973.000000	61.872403
2972.000000	61.992853
2971.000000	62.111433
2970.000000	62.228154
2969.000000	62.344677
2968.000000	62.462630
2967.000000	62.581887
2966.000000	62.701114
2965.000000	62.819163
2964.000000	62.935080
2963.000000	63.047741
2962.000000	63.156795
2961.000000	63.263333
2960.000000	63.368878
2959.000000	63.474514
2958.000000	63.581433
2957.000000	63.690955
2956.000000	63.802736
2955.000000	63.914040
2954.000000	64.021839
2953.000000	64.124713
2952.000000	64.222112
2951.000000	64.313320
2950.000000	64.398769
2949.000000	64.481423
2948.000000	64.565345
2947.000000	64.653284
2946.000000	64.746178
2945.000000	64.843818
2944.000000	64.944621
2943.000000	65.045561
2942.000000	65.143760
2941.000000	65.238126
2940.000000	65.329081
2939.000000	65.417652
2938.000000	65.505507
2937.000000	65.594605
2936.000000	65.685544
2935.000000	65.776855
2934.000000	65.866873
2933.000000	65.955475
2932.000000	66.043290
2931.000000	66.130520
2930.000000	66.217904
2929.000000	66.307707
2928.000000	66.401979
2927.000000	66.500111
2926.000000	66.599159
2925.000000	66.695808
2924.000000	66.787217
2923.000000	66.871232
2922.000000	66.947713
2921.000000	67.019382
2920.000000	67.090097
2919.000000	67.162603
2918.000000	67.238404
2917.000000	67.318390
2916.000000	67.401584
2915.000000	67.483666
2914.000000	67.558801
2913.000000	67.623588
2912.000000	67.678944
2911.000000	67.728535
2910.000000	67.776798
2909.000000	67.828121
2908.000000	67.886048
2907.000000	67.951716
2906.000000	68.023202
2905.000000	68.096738
2904.000000	68.168875
2903.000000	68.237414
2902.000000	68.302696
2901.000000	68.366414
2900.000000	68.430812
2899.000000	68.497939
2898.000000	68.568284
2897.000000	68.640111
2896.000000	68.709600
2895.000000	68.772969
2894.000000	68.829145
2893.000000	68.880406
2892.000000	68.930337
2891.000000	68.981718
2890.000000	69.036299
2889.000000	69.095300
2888.000000	69.158818
2887.000000	69.224826
2886.000000	69.289484
2885.000000	69.348570
2884.000000	69.398700
2883.000000	69.438187
2882.000000	69.467750
2881.000000	69.490336
2880.000000	69.509755
2879.000000	69.529408
2878.000000	69.552105
2877.000000	69.579738
2876.000000	69.611724
2875.000000	69.644113
2874.000000	69.671933
2873.000000	69.693307
2872.000000	69.711488
2871.000000	69.733120
2870.000000	69.764736
2869.000000	69.810324
2868.000000	69.870595
2867.000000	69.943587
2866.000000	70.026060
2865.000000	70.114805
2864.000000	70.207402
2863.000000	70.302460
2862.000000	70.399472
2861.000000	70.498306
2860.000000	70.598726
2859.000000	70.700279
2858.000000	70.802355
2857.000000	70.903817
2856.000000	71.002439
2855.000000	71.095473
2854.000000	71.181320
2853.000000	71.260804
2852.000000	71.336908
2851.000000	71.413252
2850.000000	71.492305
2849.000000	71.574193
2848.000000	71.656775
2847.000000	71.737089
2846.000000	71.812787
2845.000000	71.882383
2844.000000	71.945205
2843.000000	72.002239
2842.000000	72.056732
2841.000000	72.112514
2840.000000	72.171156
2839.000000	72.231504
2838.000000	72.292091
2837.000000	72.352772
2836.000000	72.413326
2835.000000	72.471822
2834.000000	72.525877
2833.000000	72.575375
2832.000000	72.622884
2831.000000	72.671562
2830.000000	72.723391
2829.000000	72.778979
2828.000000	72.837665
2827.000000	72.897362
2826.000000	72.955095
2825.000000	73.008452
2824.000000	73.056809
2823.000000	73.101596
2822.000000	73.145815
2821.000000	73.192911
2820.000000	73.245037
2819.000000	73.301737
2818.000000	73.360237
2817.000000	73.416931
2816.000000	73.468737
2815.000000	73.514041
2814.000000	73.553653
2813.000000	73.591008
2812.000000	73.630535
2811.000000	73.675311
2810.000000	73.726238
2809.000000	73.782850
2808.000000	73.843734
2807.000000	73.905979
2806.000000	73.965336
2805.000000	74.018071
2804.000000	74.063079
2803.000000	74.102561
2802.000000	74.141081
2801.000000	74.183447
2800.000000	74.232071
2799.000000	74.285553
2798.000000	74.340063
2797.000000	74.392383
2796.000000	74.441554
2795.000000	74.488145
2794.000000	74.533258
2793.000000	74.578639
2792.000000	74.626371
2791.000000	74.677133
2790.000000	74.729028
2789.000000	74.779018
2788.000000	74.825311
2787.000000	74.867781
2786.000000	74.906703
2785.000000	74.942328
2784.000000	74.975972
2783.000000	75.010698
2782.000000	75.050223
2781.000000	75.097002
2780.000000	75.151053
2779.000000	75.209928
2778.000000	75.269340
2777.000000	75.324096
2776.000000	75.369474
2775.000000	75.403098
2774.000000	75.426798
2773.000000	75.446903
2772.000000	75.471659
2771.000000	75.507007
2770.000000	75.553932
2769.000000	75.609068
2768.000000	75.667051
2767.000000	75.722498
2766.000000	75.771305
2765.000000	75.811758
2764.000000	75.845011
2763.000000	75.874187
2762.000000	75.902708
2761.000000	75.933100
2760.000000	75.966332
2759.000000	76.001391
2758.000000	76.035766
2757.000000	76.067107
2756.000000	76.094886
2755.000000	76.120759
2754.000000	76.147715
2753.000000	76.178801
2752.000000	76.215669
2751.000000	76.257316
2750.000000	76.300014
2749.000000	76.338829
2748.000000	76.369626
2747.000000	76.390366
2746.000000	76.401912
2745.000000	76.408483
2744.000000	76.416573
2743.000000	76.432191
2742.000000	76.458430
2741.000000	76.494987
2740.000000	76.538737
2739.000000	76.584212
2738.000000	76.624797
2737.000000	76.655293
2736.000000	76.674101
2735.000000	76.683110
2734.000000	76.686140
2733.000000	76.687936
2732.000000	76.693455
2731.000000	76.706204
2730.000000	76.726556
2729.000000	76.751831
2728.000000	76.777962
2727.000000	76.801108
2726.000000	76.818748
2725.000000	76.830677
2724.000000	76.838983
2723.000000	76.846307
2722.000000	76.853887
2721.000000	76.861309
2720.000000	76.867481
2719.000000	76.871037
2718.000000	76.870633
2717.000000	76.866446
2716.000000	76.861620
2715.000000	76.861369
2714.000000	76.870282
2713.000000	76.890284
2712.000000	76.920075
2711.000000	76.955243
2710.000000	76.989032
2709.000000	77.014611
2708.000000	77.027893
2707.000000	77.028761
2706.000000	77.020514
2705.000000	77.009033
2704.000000	77.001751
2703.000000	77.005394
2702.000000	77.023244
2701.000000	77.054198
2700.000000	77.093939
2699.000000	77.136697
2698.000000	77.176822
2697.000000	77.210575
2696.000000	77.237598
2695.000000	77.260291
2694.000000	77.281487
2693.000000	77.302888
2692.000000	77.325063
2691.000000	77.347677
2690.000000	77.369451
2689.000000	77.388775
2688.000000	77.405056
2687.000000	77.419514
2686.000000	77.434602
2685.000000	77.452824
2684.000000	77.475502
2683.000000	77.501579
2682.000000	77.527307
2681.000000	77.547492
2680.000000	77.557635
2679.000000	77.555343
2678.000000	77.540864
2677.000000	77.517847
2676.000000	77.493327
2675.000000	77.475413
2674.000000	77.469785
2673.000000	77.477757
2672.000000	77.496754
2671.000000	77.521651
2670.000000	77.545996
2669.000000	77.563776
2668.000000	77.571735
2667.000000	77.570553
2666.000000	77.564093
2665.000000	77.557716
2664.000000	77.556497
2663.000000	77.563571
2662.000000	77.579181
2661.000000	77.601237
2660.000000	77.626812
2659.000000	77.653220
2658.000000	77.678516
2657.000000	77.701920
2656.000000	77.723836
2655.000000	77.744837
2654.000000	77.764327
2653.000000	77.780383
2652.000000	77.790847
2651.000000	77.794265
2650.000000	77.790462
2649.000000	77.781553
2648.000000	77.772691
2647.000000	77.771010
2646.000000	77.783172
2645.000000	77.813226
2644.000000	77.861192
2643.000000	77.922641
2642.000000	77.989607
2641.000000	78.053187
2640.000000	78.106687
2639.000000	78.147111
2638.000000	78.175241
2637.000000	78.195518
2636.000000	78.215113
2635.000000	78.241100
2634.000000	78.277188
2633.000000	78.322773
2632.000000	78.374497
2631.000000	78.428055
2630.000000	78.479214
2629.000000	78.524920
2628.000000	78.564321
2627.000000	78.598457
2626.000000	78.628857
2625.000000	78.656692
2624.000000	78.682753
2623.000000	78.706946
2622.000000	78.727844
2621.000000	78.743978
2620.000000	78.755898
2619.000000	78.766622
2618.000000	78.780219
2617.000000	78.800359
2616.000000	78.829427
2615.000000	78.867164
2614.000000	78.909476
2613.000000	78.949346
2612.000000	78.979723
2611.000000	78.996067
2610.000000	78.997304
2609.000000	78.986213
2608.000000	78.969151
2607.000000	78.953753
2606.000000	78.945789
2605.000000	78.947355
2604.000000	78.956995
2603.000000	78.970413
2602.000000	78.981346
2601.000000	78.983836
2600.000000	78.974850
2599.000000	78.955038
2598.000000	78.927584
2597.000000	78.896934
2596.000000	78.867966
2595.000000	78.844443
2594.000000	78.827465
2593.000000	78.815871
2592.000000	78.808392
2591.000000	78.805072
2590.000000	78.807441
2589.000000	78.818306
2588.000000	78.840769
2587.000000	78.876493
2586.000000	78.923905
2585.000000	78.978587
2584.000000	79.035426
2583.000000	79.089634
2582.000000	79.137262
2581.000000	79.176714
2580.000000	79.210700
2579.000000	79.245842
2578.000000	79.289315
2577.000000	79.345935
2576.000000	79.417067
2575.000000	79.500314
2574.000000	79.589706
2573.000000	79.677384
2572.000000	79.756684
2571.000000	79.824214
2570.000000	79.880115
2569.000000	79.927725
2568.000000	79.972736
2567.000000	80.020705
2566.000000	80.074206
2565.000000	80.132454
2564.000000	80.193075
2563.000000	80.253471
2562.000000	80.311109
2561.000000	80.364462
2560.000000	80.414471
2559.000000	80.463971
2558.000000	80.515300
2557.000000	80.568899
2556.000000	80.623636
2555.000000	80.677009
2554.000000	80.724982
2553.000000	80.763745
2552.000000	80.792708
2551.000000	80.815268
2550.000000	80.836911
2549.000000	80.863153
2548.000000	80.898478
2547.000000	80.944648
2546.000000	80.998844
2545.000000	81.054453
2544.000000	81.104218
2543.000000	81.142738
2542.000000	81.167204
2541.000000	81.178144
2540.000000	81.180324
2539.000000	81.180875
2538.000000	81.185497
2537.000000	81.196292
2536.000000	81.212189
2535.000000	81.229899
2534.000000	81.244153
2533.000000	81.249481
2532.000000	81.243270
2531.000000	81.226696
2530.000000	81.203146
2529.000000	81.176484
2528.000000	81.150364
2527.000000	81.127120
2526.000000	81.106429
2525.000000	81.086337
2524.000000	81.066041
2523.000000	81.047124
2522.000000	81.032488
2521.000000	81.025844
2520.000000	81.031688
2519.000000	81.054025
2518.000000	81.093796
2517.000000	81.147568
2516.000000	81.209222
2515.000000	81.271563
2514.000000	81.327567
2513.000000	81.372741
2512.000000	81.407465
2511.000000	81.436679
2510.000000	81.466638
2509.000000	81.502303
2508.000000	81.546569
2507.000000	81.599439
2506.000000	81.657155
2505.000000	81.713665
2504.000000	81.764019
2503.000000	81.806192
2502.000000	81.840541
2501.000000	81.869385
2500.000000	81.897120
2499.000000	81.928380
2498.000000	81.964705
2497.000000	82.003809
2496.000000	82.041875
2495.000000	82.075596
2494.000000	82.102610
2493.000000	82.122372
2492.000000	82.137700
2491.000000	82.153914
2490.000000	82.175611
2489.000000	82.204668
2488.000000	82.240533
2487.000000	82.280367
2486.000000	82.318597
2485.000000	82.348660
2484.000000	82.366851
2483.000000	82.374047
2482.000000	82.374237
2481.000000	82.372902
2480.000000	82.376301
2479.000000	82.389516
2478.000000	82.413480
2477.000000	82.444621
2476.000000	82.477578
2475.000000	82.507562
2474.000000	82.530872
2473.000000	82.545845
2472.000000	82.554447
2471.000000	82.561410
2470.000000	82.570898
2469.000000	82.584539
2468.000000	82.602066
2467.000000	82.621854
2466.000000	82.640507
2465.000000	82.654117
2464.000000	82.661358
2463.000000	82.664700
2462.000000	82.668506
2461.000000	82.676952
2460.000000	82.693178
2459.000000	82.717928
2458.000000	82.748015
2457.000000	82.777345
2456.000000	82.800319
2455.000000	82.813888
2454.000000	82.817314
2453.000000	82.812409
2452.000000	82.804398
2451.000000	82.800423
2450.000000	82.805785
2449.000000	82.821851
2448.000000	82.846865
2447.000000	82.876836
2446.000000	82.905820
2445.000000	82.927935
2444.000000	82.940650
2443.000000	82.945675
2442.000000	82.946767
2441.000000	82.947798
2440.000000	82.952298
2439.000000	82.962333
2438.000000	82.976810
2437.000000	82.992225
2436.000000	83.005624
2435.000000	83.016038
2434.000000	83.023710
2433.000000	83.029993
2432.000000	83.038057
2431.000000	83.051490
2430.000000	83.071313
2429.000000	83.095229
2428.000000	83.119568
2427.000000	83.140498
2426.000000	83.153994
2425.000000	83.157469
2424.000000	83.152555
2423.000000	83.144944
2422.000000	83.141077
2421.000000	83.145835
2420.000000	83.162365
2419.000000	83.191070
2418.000000	83.227746
2417.000000	83.264672
2416.000000	83.294757
2415.000000	83.314301
2414.000000	83.322662
2413.000000	83.321836
2412.000000	83.316739
2411.000000	83.313583
2410.000000	83.316495
2409.000000	83.326186
2408.000000	83.341451
2407.000000	83.360210
2406.000000	83.379301
2405.000000	83.395678
2404.000000	83.408874
2403.000000	83.421099
2402.000000	83.434760
2401.000000	83.450982
2400.000000	83.470002
2399.000000	83.490748
2398.000000	83.509753
2397.000000	83.522430
2396.000000	83.526477
2395.000000	83.523426
2394.000000	83.517515
2393.000000	83.514616
2392.000000	83.521339
2391.000000	83.542286
2390.000000	83.576981
2389.000000	83.620173
2388.000000	83.665115
2387.000000	83.705093
2386.000000	83.733767
2385.000000	83.747738
2384.000000	83.749229
2383.000000	83.745450
2382.000000	83.743917
2381.000000	83.750012
2380.000000	83.767649
2379.000000	83.798059
2378.000000	83.837979
2377.000000	83.880726
2376.000000	83.919964
2375.000000	83.952216
2374.000000	83.976465
2373.000000	83.993997
2372.000000	84.008854
2371.000000	84.025506
2370.000000	84.044663
2369.000000	84.064721
2368.000000	84.084833
2367.000000	84.104572
2366.000000	84.122021
2365.000000	84.137210
2364.000000	84.155997
2363.000000	84.182286
2362.000000	84.217542
2361.000000	84.261973
2360.000000	84.311803
2359.000000	84.364246
2358.000000	84.409290
2357.000000	84.438064
2356.000000	84.448262
2355.000000	84.440849
2354.000000	84.425611
2353.000000	84.417793
2352.000000	84.438814
2351.000000	84.490715
2350.000000	84.549783
2349.000000	84.594341
2348.000000	84.617439
2347.000000	84.636765
2346.000000	84.664302
2345.000000	84.697546
2344.000000	84.725850
2343.000000	84.741165
2342.000000	84.753876
2341.000000	84.769764
2340.000000	84.792658
2339.000000	84.821589
2338.000000	84.855849
2337.000000	84.891312
2336.000000	84.926649
2335.000000	84.960486
2334.000000	84.994810
2333.000000	85.027009
2332.000000	85.059912
2331.000000	85.095863
2330.000000	85.132773
2329.000000	85.169019
2328.000000	85.195608
2327.000000	85.212758
2326.000000	85.217320
2325.000000	85.212356
2324.000000	85.206591
2323.000000	85.209537
2322.000000	85.231264
2321.000000	85.269571
2320.000000	85.322356
2319.000000	85.381323
2318.000000	85.438024
2317.000000	85.479938
2316.000000	85.500214
2315.000000	85.500008
2314.000000	85.486517
2313.000000	85.469591
2312.000000	85.459126
2311.000000	85.464759
2310.000000	85.489066
2309.000000	85.528142
2308.000000	85.573717
2307.000000	85.618720
2306.000000	85.656932
2305.000000	85.684295
2304.000000	85.701972
2303.000000	85.715287
2302.000000	85.729486
2301.000000	85.746273
2300.000000	85.764970
2299.000000	85.784257
2298.000000	85.800194
2297.000000	85.809177
2296.000000	85.810956
2295.000000	85.811875
2294.000000	85.818974
2293.000000	85.837877
2292.000000	85.871316
2291.000000	85.919213
2290.000000	85.974863
2289.000000	86.026169
2288.000000	86.061474
2287.000000	86.074700
2286.000000	86.065778
2285.000000	86.040302
2284.000000	86.010536
2283.000000	85.991852
2282.000000	85.995548
2281.000000	86.023799
2280.000000	86.071538
2279.000000	86.129017
2278.000000	86.183508
2277.000000	86.222493
2276.000000	86.239964
2275.000000	86.238736
2274.000000	86.226548
2273.000000	86.212161
2272.000000	86.203926
2271.000000	86.207707
2270.000000	86.222978
2269.000000	86.243157
2268.000000	86.261150
2267.000000	86.273483
2266.000000	86.279896
2265.000000	86.283063
2264.000000	86.289157
2263.000000	86.305412
2262.000000	86.333683
2261.000000	86.368263
2260.000000	86.399927
2259.000000	86.419735
2258.000000	86.420442
2257.000000	86.398787
2256.000000	86.360263
2255.000000	86.318379
2254.000000	86.287966
2253.000000	86.279246
2252.000000	86.296768
2251.000000	86.338331
2250.000000	86.392951
2249.000000	86.442672
2248.000000	86.471027
2247.000000	86.470222
2246.000000	86.441284
2245.000000	86.392891
2244.000000	86.339762
2243.000000	86.297856
2242.000000	86.276594
2241.000000	86.275626
2240.000000	86.288126
2239.000000	86.304695
2238.000000	86.314901
2237.000000	86.310655
2236.000000	86.291555
2235.000000	86.265192
2234.000000	86.240828
2233.000000	86.223901
2232.000000	86.215276
2231.000000	86.211315
2230.000000	86.203361
2229.000000	86.181114
2228.000000	86.139711
2227.000000	86.083004
2226.000000	86.020665
2225.000000	85.964823
2224.000000	85.928380
2223.000000	85.920392
2222.000000	85.939096
2221.000000	85.970696
2220.000000	85.996442
2219.000000	86.000332
2218.000000	85.972486
2217.000000	85.911817
2216.000000	85.829030
2215.000000	85.743940
2214.000000	85.676261
2213.000000	85.637879
2212.000000	85.631307
2211.000000	85.650405
2210.000000	85.681067
2209.000000	85.705790
2208.000000	85.712036
2207.000000	85.697170
2206.000000	85.666496
2205.000000	85.629749
2204.000000	85.598883
2203.000000	85.583586
2202.000000	85.585026
2201.000000	85.594910
2200.000000	85.601853
2199.000000	85.597862
2198.000000	85.580291
2197.000000	85.552728
2196.000000	85.526041
2195.000000	85.514647
2194.000000	85.527957
2193.000000	85.564838
2192.000000	85.615136
2191.000000	85.663406
2190.000000	85.692120
2189.000000	85.687669
2188.000000	85.648322
2187.000000	85.586098
2186.000000	85.520356
2185.000000	85.470498
2184.000000	85.451808
2183.000000	85.470923
2182.000000	85.520870
2181.000000	85.582392
2180.000000	85.633145
2179.000000	85.656792
2178.000000	85.646491
2177.000000	85.605889
2176.000000	85.549180
2175.000000	85.495929
2174.000000	85.461266
2173.000000	85.449789
2172.000000	85.456898
2171.000000	85.472367
2170.000000	85.483065
2169.000000	85.478305
2168.000000	85.457031
2167.000000	85.428690
2166.000000	85.406048
2165.000000	85.398206
2164.000000	85.408474
2163.000000	85.433103
2162.000000	85.459682
2161.000000	85.470750
2160.000000	85.453288
2159.000000	85.405596
2158.000000	85.336728
2157.000000	85.263129
2156.000000	85.205408
2155.000000	85.181646
2154.000000	85.198089
2153.000000	85.245497
2152.000000	85.304441
2151.000000	85.352858
2150.000000	85.371342
2149.000000	85.349056
2148.000000	85.289849
2147.000000	85.211462
2146.000000	85.136398
2145.000000	85.082841
2144.000000	85.060764
2143.000000	85.069973
2142.000000	85.098821
2141.000000	85.128693
2140.000000	85.144100
2139.000000	85.139225
2138.000000	85.116883
2137.000000	85.085617
2136.000000	85.057822
2135.000000	85.044549
2134.000000	85.047716
2133.000000	85.058187
2132.000000	85.062307
2131.000000	85.049273
2130.000000	85.014036
2129.000000	84.959389
2128.000000	84.898428
2127.000000	84.851107
2126.000000	84.833994
2125.000000	84.852231
2124.000000	84.899144
2123.000000	84.958654
2122.000000	85.008005
2121.000000	85.025034
2120.000000	84.998952
2119.000000	84.935229
2118.000000	84.850803
2117.000000	84.767351
2116.000000	84.706966
2115.000000	84.685984
2114.000000	84.706726
2113.000000	84.755610
2112.000000	84.811248
2111.000000	84.854167
2110.000000	84.871509
2109.000000	84.859850
2108.000000	84.827686
2107.000000	84.791820
2106.000000	84.767353
2105.000000	84.760627
2104.000000	84.770034
2103.000000	84.788695
2102.000000	84.805638
2101.000000	84.810192
2100.000000	84.800176
2099.000000	84.784904
2098.000000	84.778614
2097.000000	84.792947
2096.000000	84.834263
2095.000000	84.901237
2094.000000	84.981020
2093.000000	85.051243
2092.000000	85.091044
2091.000000	85.091221
2090.000000	85.055879
2089.000000	84.999750
2088.000000	84.945445
2087.000000	84.917020
2086.000000	84.929348
2085.000000	84.981580
2084.000000	85.059769
2083.000000	85.143202
2082.000000	85.208963
2081.000000	85.238294
2080.000000	85.225377
2079.000000	85.180287
2078.000000	85.121394
2077.000000	85.066257
2076.000000	85.027977
2075.000000	85.012963
2074.000000	85.017491
2073.000000	85.028457
2072.000000	85.032346
2071.000000	85.023412
2070.000000	85.003763
2069.000000	84.979524
2068.000000	84.958554
2067.000000	84.948255
2066.000000	84.951095
2065.000000	84.961918
2064.000000	84.969949
2063.000000	84.963049
2062.000000	84.931792
2061.000000	84.874899
2060.000000	84.804127
2059.000000	84.741284
2058.000000	84.707155
2057.000000	84.712693
2056.000000	84.757563
2055.000000	84.830806
2054.000000	84.911727
2053.000000	84.975737
2052.000000	85.005278
2051.000000	84.996822
2050.000000	84.958811
2049.000000	84.907231
2048.000000	84.862990
2047.000000	84.846152
2046.000000	84.866524
2045.000000	84.919094
2044.000000	84.989198
2043.000000	85.060907
2042.000000	85.121964
2041.000000	85.166842
2040.000000	85.198699
2039.000000	85.226745
2038.000000	85.259561
2037.000000	85.300881
2036.000000	85.350215
2035.000000	85.403507
2034.000000	85.452619
2033.000000	85.489118
2032.000000	85.511653
2031.000000	85.528407
2030.000000	85.551585
2029.000000	85.591954
2028.000000	85.657618
2027.000000	85.750715
2026.000000	85.862496
2025.000000	85.974160
2024.000000	86.066182
2023.000000	86.127026
2022.000000	86.154319
2021.000000	86.153516
2020.000000	86.137629
2019.000000	86.125205
2018.000000	86.134793
2017.000000	86.178998
2016.000000	86.259808
2015.000000	86.366286
2014.000000	86.477548
2013.000000	86.572397
2012.000000	86.639500
2011.000000	86.679496
2010.000000	86.699577
2009.000000	86.709322
2008.000000	86.720075
2007.000000	86.741110
2006.000000	86.774256
2005.000000	86.813806
2004.000000	86.853390
2003.000000	86.890324
2002.000000	86.923841
2001.000000	86.955955
2000.000000	86.992673
1999.000000	87.041585
1998.000000	87.105890
1997.000000	87.181480
1996.000000	87.258233
1995.000000	87.320364
1994.000000	87.350623
1993.000000	87.342951
1992.000000	87.312369
1991.000000	87.283711
1990.000000	87.271799
1989.000000	87.281136
1988.000000	87.317456
1987.000000	87.384478
1986.000000	87.471773
1985.000000	87.557241
1984.000000	87.623192
1983.000000	87.663019
1982.000000	87.675011
1981.000000	87.662421
1980.000000	87.638481
1979.000000	87.621719
1978.000000	87.622205
1977.000000	87.638963
1976.000000	87.670039
1975.000000	87.714008
1974.000000	87.763477
1973.000000	87.808621
1972.000000	87.848592
1971.000000	87.888763
1970.000000	87.926931
1969.000000	87.953526
1968.000000	87.966904
1967.000000	87.977027
1966.000000	87.989655
1965.000000	87.998451
1964.000000	87.997984
1963.000000	87.992162
1962.000000	87.987057
1961.000000	87.987289
1960.000000	88.001144
1959.000000	88.037562
1958.000000	88.093476
1957.000000	88.154063
1956.000000	88.207261
1955.000000	88.248577
1954.000000	88.272609
1953.000000	88.272276
1952.000000	88.251714
1951.000000	88.227048
1950.000000	88.210907
1949.000000	88.207769
1948.000000	88.223639
1947.000000	88.265680
1946.000000	88.325935
1945.000000	88.379583
1944.000000	88.407680
1943.000000	88.414611
1942.000000	88.416864
1941.000000	88.420206
1940.000000	88.421149
1939.000000	88.421741
1938.000000	88.426266
1937.000000	88.433478
1936.000000	88.441186
1935.000000	88.450984
1934.000000	88.463173
1933.000000	88.473156
1932.000000	88.481034
1931.000000	88.493606
1930.000000	88.514260
1929.000000	88.540029
1928.000000	88.569437
1927.000000	88.605969
1926.000000	88.641674
1925.000000	88.655559
1924.000000	88.638389
1923.000000	88.608416
1922.000000	88.589760
1921.000000	88.581539
1920.000000	88.571080
1919.000000	88.562250
1918.000000	88.571711
1917.000000	88.602445
1916.000000	88.636691
1915.000000	88.662265
1914.000000	88.682103
1913.000000	88.694949
1912.000000	88.692326
1911.000000	88.671527
1910.000000	88.641679
1909.000000	88.614620
1908.000000	88.596321
1907.000000	88.591428
1906.000000	88.600038
1905.000000	88.613619
1904.000000	88.622918
1903.000000	88.626220
1902.000000	88.628233
1901.000000	88.631222
1900.000000	88.635438
1899.000000	88.645276
1898.000000	88.662170
1897.000000	88.677486
1896.000000	88.684346
1895.000000	88.690895
1894.000000	88.709084
1893.000000	88.732482
1892.000000	88.742496
1891.000000	88.732141
1890.000000	88.714582
1889.000000	88.708885
1888.000000	88.719014
1887.000000	88.736908
1886.000000	88.757255
1885.000000	88.775910
1884.000000	88.788308
1883.000000	88.793612
1882.000000	88.793909
1881.000000	88.789618
1880.000000	88.780794
1879.000000	88.773924
1878.000000	88.776898
1877.000000	88.787822
1876.000000	88.800439
1875.000000	88.816481
1874.000000	88.841695
1873.000000	88.872777
1872.000000	88.897411
1871.000000	88.905685
1870.000000	88.894979
1869.000000	88.873523
1868.000000	88.856751
1867.000000	88.851014
1866.000000	88.852164
1865.000000	88.853150
1864.000000	88.846471
1863.000000	88.828584
1862.000000	88.802354
1861.000000	88.773538
1860.000000	88.747764
1859.000000	88.732450
1858.000000	88.735340
1857.000000	88.755580
1856.000000	88.783233
1855.000000	88.808203
1854.000000	88.824668
1853.000000	88.830555
1852.000000	88.822738
1851.000000	88.803641
1850.000000	88.783861
1849.000000	88.772517
1848.000000	88.770980
1847.000000	88.771821
1846.000000	88.763906
1845.000000	88.740941
1844.000000	88.717364
1843.000000	88.707464
1842.000000	88.698953
1841.000000	88.682136
1840.000000	88.667844
1839.000000	88.666733
1838.000000	88.670998
1837.000000	88.665268
1836.000000	88.648899
1835.000000	88.633381
1834.000000	88.623589
1833.000000	88.610306
1832.000000	88.581549
1831.000000	88.538701
1830.000000	88.505990
1829.000000	88.506210
1828.000000	88.526526
1827.000000	88.539132
1826.000000	88.532753
1825.000000	88.510693
1824.000000	88.478706
1823.000000	88.433232
1822.000000	88.371439
1821.000000	88.301696
1820.000000	88.235508
1819.000000	88.181327
1818.000000	88.144248
1817.000000	88.131960
1816.000000	88.148535
1815.000000	88.181046
1814.000000	88.207998
1813.000000	88.213115
1812.000000	88.194608
1811.000000	88.162000
1810.000000	88.123420
1809.000000	88.081641
1808.000000	88.036766
1807.000000	87.992671
1806.000000	87.954115
1805.000000	87.919009
1804.000000	87.879504
1803.000000	87.830770
1802.000000	87.785696
1801.000000	87.769097
1800.000000	87.792963
1799.000000	87.843400
1798.000000	87.894604
1797.000000	87.929462
1796.000000	87.940162
1795.000000	87.920837
1794.000000	87.861086
1793.000000	87.753744
1792.000000	87.625786
1791.000000	87.525555
1790.000000	87.472400
1789.000000	87.459656
1788.000000	87.474817
1787.000000	87.502714
1786.000000	87.530046
1785.000000	87.554607
1784.000000	87.575368
1783.000000	87.574680
1782.000000	87.536966
1781.000000	87.466505
1780.000000	87.389175
1779.000000	87.329944
1778.000000	87.290189
1777.000000	87.267321
1776.000000	87.264526
1775.000000	87.283149
1774.000000	87.310478
1773.000000	87.328997
1772.000000	87.343697
1771.000000	87.352999
1770.000000	87.323699
1769.000000	87.247682
1768.000000	87.163376
1767.000000	87.100313
1766.000000	87.043735
1765.000000	86.966817
1764.000000	86.871245
1763.000000	86.779028
1762.000000	86.719770
1761.000000	86.711625
1760.000000	86.739794
1759.000000	86.771501
1758.000000	86.784479
1757.000000	86.781457
1756.000000	86.779058
1755.000000	86.772141
1754.000000	86.732896
1753.000000	86.650011
1752.000000	86.542468
1751.000000	86.446602
1750.000000	86.367561
1749.000000	86.285211
1748.000000	86.213488
1747.000000	86.180990
1746.000000	86.179425
1745.000000	86.177494
1744.000000	86.173802
1743.000000	86.185390
1742.000000	86.196007
1741.000000	86.167209
1740.000000	86.100301
1739.000000	86.033150
1738.000000	85.969870
1737.000000	85.883439
1736.000000	85.761697
1735.000000	85.611208
1734.000000	85.492303
1733.000000	85.445869
1732.000000	85.408015
1731.000000	85.347380
1730.000000	85.290040
1729.000000	85.236460
1728.000000	85.167854
1727.000000	85.069523
1726.000000	84.934947
1725.000000	84.756741
1724.000000	84.561570
1723.000000	84.409225
1722.000000	84.331405
1721.000000	84.307235
1720.000000	84.299604
1719.000000	84.272403
1718.000000	84.199498
1717.000000	84.090693
1716.000000	83.950707
1715.000000	83.782587
1714.000000	83.615205
1713.000000	83.455967
1712.000000	83.287453
1711.000000	83.104627
1710.000000	82.923095
1709.000000	82.751847
1708.000000	82.577051
1707.000000	82.388848
1706.000000	82.213697
1705.000000	82.104392
1704.000000	82.065803
1703.000000	82.054176
1702.000000	82.028047
1701.000000	81.948291
1700.000000	81.819215
1699.000000	81.642162
1698.000000	81.365712
1697.000000	80.976519
1696.000000	80.558210
1695.000000	80.228472
1694.000000	79.995789
1693.000000	79.797055
1692.000000	79.620123
1691.000000	79.468389
1690.000000	79.324954
1689.000000	79.181643
1688.000000	79.052680
1687.000000	78.946527
1686.000000	78.809543
1685.000000	78.511662
1684.000000	78.080289
1683.000000	77.694592
1682.000000	77.355495
1681.000000	76.998678
1680.000000	76.660451
1679.000000	76.389535
1678.000000	76.181962
1677.000000	75.977680
1676.000000	75.746820
1675.000000	75.529984
1674.000000	75.353422
1673.000000	75.163858
1672.000000	74.915429
1671.000000	74.589507
1670.000000	74.167911
1669.000000	73.685956
1668.000000	73.231519
1667.000000	72.869667
1666.000000	72.596796
1665.000000	72.364593
1664.000000	72.130364
1663.000000	71.888278
1662.000000	71.647516
1661.000000	71.384088
1660.000000	71.082077
1659.000000	70.775942
1658.000000	70.507608
1657.000000	70.286001
1656.000000	70.095324
1655.000000	69.892997
1654.000000	69.538135
1653.000000	69.070849
1652.000000	68.713905
1651.000000	68.440246
1650.000000	68.168927
1649.000000	67.891913
1648.000000	67.558117
1647.000000	67.183151
1646.000000	66.856252
1645.000000	66.590031
1644.000000	66.318670
1643.000000	66.028064
1642.000000	65.732755
1641.000000	65.440702
1640.000000	65.165492
1639.000000	64.931619
1638.000000	64.738305
1637.000000	64.534098
1636.000000	64.299823
1635.000000	64.117169
1634.000000	63.997220
1633.000000	63.858039
1632.000000	63.680271
1631.000000	63.489568
1630.000000	63.294334
1629.000000	63.079770
1628.000000	62.860465
1627.000000	62.689299
1626.000000	62.589974
1625.000000	62.527773
1624.000000	62.462951
1623.000000	62.406295
1622.000000	62.379872
1621.000000	62.363507
1620.000000	62.340563
1619.000000	62.330477
1618.000000	62.342624
1617.000000	62.359125
1616.000000	62.371677
1615.000000	62.383570
1614.000000	62.389137
1613.000000	62.384967
1612.000000	62.378708
1611.000000	62.388444
1610.000000	62.428839
1609.000000	62.499014
1608.000000	62.603940
1607.000000	62.761199
1606.000000	62.967981
1605.000000	63.184989
1604.000000	63.370212
1603.000000	63.511736
1602.000000	63.611692
1601.000000	63.670213
1600.000000	63.703782
1599.000000	63.754384
1598.000000	63.856556
1597.000000	64.009741
1596.000000	64.197270
1595.000000	64.409967
1594.000000	64.631599
1593.000000	64.826122
1592.000000	64.967446
1591.000000	65.066345
1590.000000	65.150339
1589.000000	65.233315
1588.000000	65.322461
1587.000000	65.433221
1586.000000	65.571091
1585.000000	65.714901
1584.000000	65.836819
1583.000000	65.936769
1582.000000	66.035060
1581.000000	66.141476
1580.000000	66.257666
1579.000000	66.398032
1578.000000	66.576580
1577.000000	66.774017
1576.000000	66.962272
1575.000000	67.115712
1574.000000	67.202220
1573.000000	67.224875
1572.000000	67.220372
1571.000000	67.215409
1570.000000	67.230327
1569.000000	67.290624
1568.000000	67.401687
1567.000000	67.553195
1566.000000	67.741010
1565.000000	67.948523
1564.000000	68.146266
1563.000000	68.329897
1562.000000	68.508573
1561.000000	68.681730
1560.000000	68.745926
1559.000000	68.714586
1558.000000	68.807973
1557.000000	68.947867
1556.000000	69.009211
1555.000000	69.072950
1554.000000	69.178454
1553.000000	69.296879
1552.000000	69.373049
1551.000000	69.426729
1550.000000	69.515053
1549.000000	69.671517
1548.000000	69.878962
1547.000000	70.111611
1546.000000	70.358905
1545.000000	70.600027
1544.000000	70.814353
1543.000000	71.004682
1542.000000	71.182212
1541.000000	71.333774
1540.000000	71.504896
1539.000000	71.773306
1538.000000	72.064283
1537.000000	72.287210
1536.000000	72.471119
1535.000000	72.651839
1534.000000	72.824341
1533.000000	72.968490
1532.000000	73.085460
1531.000000	73.203763
1530.000000	73.369511
1529.000000	73.606925
1528.000000	73.907096
1527.000000	74.256203
1526.000000	74.637637
1525.000000	75.003306
1524.000000	75.299569
1523.000000	75.515135
1522.000000	75.680309
1521.000000	75.854312
1520.000000	76.049484
1519.000000	76.233081
1518.000000	76.409769
1517.000000	76.599558
1516.000000	76.802361
1515.000000	76.993632
1514.000000	77.154333
1513.000000	77.299622
1512.000000	77.455854
1511.000000	77.646087
1510.000000	77.872915
1509.000000	78.123211
1508.000000	78.345485
1507.000000	78.541700
1506.000000	78.792681
1505.000000	78.995870
1504.000000	79.040491
1503.000000	79.021206
1502.000000	79.045258
1501.000000	79.159540
1500.000000	79.361716
1499.000000	79.631364
1498.000000	79.931583
1497.000000	80.214574
1496.000000	80.444733
1495.000000	80.598950
1494.000000	80.672620
1493.000000	80.688219
1492.000000	80.683242
1491.000000	80.694531
1490.000000	80.752023
1489.000000	80.864840
1488.000000	81.009490
1487.000000	81.156767
1486.000000	81.275366
1485.000000	81.326858
1484.000000	81.296978
1483.000000	81.211646
1482.000000	81.106508
1481.000000	81.006702
1480.000000	80.935218
1479.000000	80.903096
1478.000000	80.884233
1477.000000	80.823271
1476.000000	80.689489
1475.000000	80.479400
1474.000000	80.153086
1473.000000	79.660929
1472.000000	79.080360
1471.000000	78.539136
1470.000000	78.033939
1469.000000	77.490909
1468.000000	76.857448
1467.000000	76.065059
1466.000000	74.977310
1465.000000	73.499853
1464.000000	71.767441
1463.000000	70.015869
1462.000000	68.307884
1461.000000	66.573673
1460.000000	64.718695
1459.000000	62.552240
1458.000000	59.696598
1457.000000	56.155841
1456.000000	52.809208
1455.000000	50.332280
1454.000000	48.569142
1453.000000	47.266938
1452.000000	46.439475
1451.000000	46.195614
1450.000000	46.553647
1449.000000	47.474853
1448.000000	48.895601
1447.000000	50.620365
1446.000000	52.388139
1445.000000	54.067358
1444.000000	55.658418
1443.000000	57.165837
1442.000000	58.552048
1441.000000	59.784965
1440.000000	60.863418
1439.000000	61.809897
1438.000000	62.648857
1437.000000	63.378340
1436.000000	63.950022
1435.000000	64.307369
1434.000000	64.472663
1433.000000	64.527412
1432.000000	64.520448
1431.000000	64.443754
1430.000000	64.272021
1429.000000	64.005110
1428.000000	63.665221
1427.000000	63.257380
1426.000000	62.759906
1425.000000	62.164931
1424.000000	61.539833
1423.000000	60.997090
1422.000000	60.577276
1421.000000	60.229226
1420.000000	59.880588
1419.000000	59.509439
1418.000000	59.144972
1417.000000	58.803389
1416.000000	58.480775
1415.000000	58.169033
1414.000000	57.850962
1413.000000	57.523450
1412.000000	57.216638
1411.000000	56.964732
1410.000000	56.764790
1409.000000	56.592186
1408.000000	56.434113
1407.000000	56.273464
1406.000000	56.073585
1405.000000	55.825238
1404.000000	55.586517
1403.000000	55.419776
1402.000000	55.321806
1401.000000	55.260786
1400.000000	55.233815
1399.000000	55.253548
1398.000000	55.298777
1397.000000	55.330773
1396.000000	55.349214
1395.000000	55.383512
1394.000000	55.446082
1393.000000	55.532661
1392.000000	55.654252
1391.000000	55.827296
1390.000000	56.045884
1389.000000	56.299065
1388.000000	56.601621
1387.000000	56.977598
1386.000000	57.429142
1385.000000	57.968908
1384.000000	58.650986
1383.000000	59.513462
1382.000000	60.517488
1381.000000	61.584720
1380.000000	62.662919
1379.000000	63.715062
1378.000000	64.689707
1377.000000	65.553200
1376.000000	66.322709
1375.000000	67.033113
1374.000000	67.700894
1373.000000	68.337340
1372.000000	68.962240
1371.000000	69.587425
1370.000000	70.205096
1369.000000	70.799871
1368.000000	71.358867
1367.000000	71.862934
1366.000000	72.292205
1365.000000	72.651446
1364.000000	72.965219
1363.000000	73.250594
1362.000000	73.508685
1361.000000	73.732220
1360.000000	73.907002
1359.000000	74.007205
1358.000000	74.007473
1357.000000	73.912458
1356.000000	73.765331
1355.000000	73.625848
1354.000000	73.550067
1353.000000	73.579529
1352.000000	73.723734
1351.000000	73.941512
1350.000000	74.148946
1349.000000	74.252321
1348.000000	74.172532
1347.000000	73.850700
1346.000000	73.252005
1345.000000	72.381185
1344.000000	71.280526
1343.000000	69.985848
1342.000000	68.492057
1341.000000	66.771240
1340.000000	64.830305
1339.000000	62.741229
1338.000000	60.585232
1337.000000	58.398135
1336.000000	56.191147
1335.000000	53.988947
1334.000000	51.831606
1333.000000	49.763205
1332.000000	47.832910
1331.000000	46.085347
1330.000000	44.533798
1329.000000	43.158061
1328.000000	41.941320
1327.000000	40.881197
1326.000000	39.962668
1325.000000	39.155539
1324.000000	38.438526
1323.000000	37.800455
1322.000000	37.212392
1321.000000	36.631539
1320.000000	36.048866
1319.000000	35.509736
1318.000000	35.094246
1317.000000	34.896632
1316.000000	35.014442
1315.000000	35.522485
1314.000000	36.427465
1313.000000	37.669966
1312.000000	39.164640
1311.000000	40.817175
1310.000000	42.529775
1309.000000	44.217390
1308.000000	45.825855
1307.000000	47.324671
1306.000000	48.692592
1305.000000	49.927111
1304.000000	51.054100
1303.000000	52.107430
1302.000000	53.105170
1301.000000	54.055684
1300.000000	54.967739
1299.000000	55.843044
1298.000000	56.670750
1297.000000	57.444100
1296.000000	58.178700
1295.000000	58.902935
1294.000000	59.640832
1293.000000	60.408996
1292.000000	61.212179
1291.000000	62.029971
1290.000000	62.817428
1289.000000	63.532395
1288.000000	64.159219
1287.000000	64.707413
1286.000000	65.203910
1285.000000	65.688745
1284.000000	66.201902
1283.000000	66.759452
1282.000000	67.341132
1281.000000	67.903705
1280.000000	68.397294
1279.000000	68.775466
1278.000000	69.013179
1277.000000	69.126447
1276.000000	69.171654
1275.000000	69.220490
1274.000000	69.335847
1273.000000	69.561506
1272.000000	69.913897
1271.000000	70.373399
1270.000000	70.893006
1269.000000	71.424708
1268.000000	71.937546
1267.000000	72.420064
1266.000000	72.879669
1265.000000	73.341349
1264.000000	73.831682
1263.000000	74.355122
1262.000000	74.889100
1261.000000	75.399707
1260.000000	75.854411
1259.000000	76.228760
1258.000000	76.521628
1257.000000	76.765324
1256.000000	77.010624
1255.000000	77.299312
1254.000000	77.649185
1253.000000	78.052353
1252.000000	78.471710
1251.000000	78.845088
1250.000000	79.111424
1249.000000	79.241989
1248.000000	79.251136
1247.000000	79.185636
1246.000000	79.111905
1245.000000	79.100308
1244.000000	79.197477
1243.000000	79.402979
1242.000000	79.671685
1241.000000	79.936740
1240.000000	80.131514
1239.000000	80.207641
1238.000000	80.156238
1237.000000	80.015520
1236.000000	79.850698
1235.000000	79.723741
1234.000000	79.675074
1233.000000	79.717639
1232.000000	79.833387
1231.000000	79.978171
1230.000000	80.104871
1229.000000	80.190660
1228.000000	80.242440
1227.000000	80.285765
1226.000000	80.355803
1225.000000	80.485953
1224.000000	80.687858
1223.000000	80.937506
1222.000000	81.185995
1221.000000	81.384680
1220.000000	81.502913
1219.000000	81.537615
1218.000000	81.521047
1217.000000	81.515695
1216.000000	81.587181
1215.000000	81.772408
1214.000000	82.067213
1213.000000	82.431380
1212.000000	82.796802
1211.000000	83.083946
1210.000000	83.235797
1209.000000	83.246032
1208.000000	83.156890
1207.000000	83.038184
1206.000000	82.966720
1205.000000	83.004517
1204.000000	83.173393
1203.000000	83.443629
1202.000000	83.751065
1201.000000	84.027793
1200.000000	84.223139
1199.000000	84.315335
1198.000000	84.321694
1197.000000	84.294093
1196.000000	84.290703
1195.000000	84.346661
1194.000000	84.465818
1193.000000	84.626178
1192.000000	84.786379
1191.000000	84.899493
1190.000000	84.940230
1189.000000	84.922920
1188.000000	84.891044
1187.000000	84.893444
1186.000000	84.968605
1185.000000	85.132773
1184.000000	85.363677
1183.000000	85.595286
1182.000000	85.743459
1181.000000	85.747921
1180.000000	85.601484
1179.000000	85.354389
1178.000000	85.096289
1177.000000	84.921046
1176.000000	84.889544
1175.000000	85.010949
1174.000000	85.247505
1173.000000	85.530026
1172.000000	85.774485
1171.000000	85.906521
1170.000000	85.893809
1169.000000	85.761086
1168.000000	85.572767
1167.000000	85.402631
1166.000000	85.312151
1165.000000	85.334258
1164.000000	85.458619
1163.000000	85.632899
1162.000000	85.790525
1161.000000	85.883525
1160.000000	85.895988
1159.000000	85.842958
1158.000000	85.766601
1157.000000	85.720628
1156.000000	85.741618
1155.000000	85.828945
1154.000000	85.949676
1153.000000	86.055376
1152.000000	86.097522
1151.000000	86.046396
1150.000000	85.913498
1149.000000	85.753619
1148.000000	85.636542
1147.000000	85.613828
1146.000000	85.703982
1145.000000	85.888792
1144.000000	86.111637
1143.000000	86.290307
1142.000000	86.353280
1141.000000	86.274498
1140.000000	86.079370
1139.000000	85.829879
1138.000000	85.605903
1137.000000	85.481052
1136.000000	85.492588
1135.000000	85.623657
1134.000000	85.814079
1133.000000	85.987546
1132.000000	86.075688
1131.000000	86.038489
1130.000000	85.882789
1129.000000	85.661377
1128.000000	85.445537
1127.000000	85.293220
1126.000000	85.233043
1125.000000	85.258524
1124.000000	85.327886
1123.000000	85.378381
1122.000000	85.358109
1121.000000	85.251981
1120.000000	85.081585
1119.000000	84.889702
1118.000000	84.725845
1117.000000	84.628841
1116.000000	84.604993
1115.000000	84.618492
1114.000000	84.609424
1113.000000	84.523630
1112.000000	84.331408
1111.000000	84.036582
1110.000000	83.679666
1109.000000	83.326517
1108.000000	83.039083
1107.000000	82.845597
1106.000000	82.731326
1105.000000	82.644438
1104.000000	82.509393
1103.000000	82.250968
1102.000000	81.823600
1101.000000	81.232522
1100.000000	80.525365
1099.000000	79.765521
1098.000000	79.011730
1097.000000	78.293633
1096.000000	77.598273
1095.000000	76.867811
1094.000000	76.019569
1093.000000	74.981327
1092.000000	73.709844
1091.000000	72.201331
1090.000000	70.487064
1089.000000	68.618463
1088.000000	66.651347
1087.000000	64.621474
1086.000000	62.538165
1085.000000	60.395973
1084.000000	58.195857
1083.000000	55.957526
1082.000000	53.716667
1081.000000	51.525448
1080.000000	49.453679
1079.000000	47.570716
1078.000000	45.908951
1077.000000	44.462620
1076.000000	43.207702
1075.000000	42.108417
1074.000000	41.117771
1073.000000	40.189940
1072.000000	39.312326
1071.000000	38.501656
1070.000000	37.774465
1069.000000	37.146545
1068.000000	36.640688
1067.000000	36.277655
1066.000000	36.052654
1065.000000	35.941794
1064.000000	35.937906
1063.000000	36.048203
1062.000000	36.277656
1061.000000	36.634913
1060.000000	37.145112
1059.000000	37.839586
1058.000000	38.720296
1057.000000	39.761630
1056.000000	40.933244
1055.000000	42.196431
1054.000000	43.498319
1053.000000	44.789117
1052.000000	46.051190
1051.000000	47.296107
1050.000000	48.539745
1049.000000	49.797376
1048.000000	51.084500
1047.000000	52.399022
1046.000000	53.706212
1045.000000	54.958285
1044.000000	56.121804
1043.000000	57.185297
1042.000000	58.156916
1041.000000	59.068574
1040.000000	59.973626
1039.000000	60.920677
1038.000000	61.927841
1037.000000	62.980417
1036.000000	64.039974
1035.000000	65.052506
1034.000000	65.961580
1033.000000	66.736668
1032.000000	67.393455
1031.000000	67.984206
1030.000000	68.573903
1029.000000	69.216758
1028.000000	69.937078
1027.000000	70.717384
1026.000000	71.503200
1025.000000	72.230066
1024.000000	72.849149
1023.000000	73.341834
1022.000000	73.727601
1021.000000	74.059340
1020.000000	74.402473
1019.000000	74.804467
1018.000000	75.275794
1017.000000	75.791699
1016.000000	76.301843
1015.000000	76.747978
1014.000000	77.089930
1013.000000	77.327487
1012.000000	77.499984
1011.000000	77.666211
1010.000000	77.882772
1009.000000	78.184990
1008.000000	78.569463
1007.000000	78.990591
1006.000000	79.378812
1005.000000	79.672563
1004.000000	79.842544
1003.000000	79.901637
1002.000000	79.903584
1001.000000	79.926047
1000.000000	80.038472
999.000000	80.271736
998.000000	80.607662
997.000000	80.989514
996.000000	81.340053
995.000000	81.587268
994.000000	81.696105
993.000000	81.686112
992.000000	81.619825
991.000000	81.574778
990.000000	81.616860
989.000000	81.779254
988.000000	82.047526
987.000000	82.362884
986.000000	82.648008
985.000000	82.841651
984.000000	82.920232
983.000000	82.903268
982.000000	82.847402
981.000000	82.825688
980.000000	82.893924
979.000000	83.065061
978.000000	83.307219
977.000000	83.559864
976.000000	83.754635
975.000000	83.841170
974.000000	83.813854
973.000000	83.718626
972.000000	83.630128
971.000000	83.617811
970.000000	83.721290
969.000000	83.937844
968.000000	84.218561
967.000000	84.482169
966.000000	84.650102
965.000000	84.682333
964.000000	84.590149
963.000000	84.429146
962.000000	84.282169
961.000000	84.230423
960.000000	84.318027
959.000000	84.532562
958.000000	84.812966
957.000000	85.075100
956.000000	85.240259
955.000000	85.263623
954.000000	85.156484
953.000000	84.983917
952.000000	84.832661
951.000000	84.772820
950.000000	84.835775
949.000000	85.007785
948.000000	85.231474
947.000000	85.424485
946.000000	85.517990
945.000000	85.489622
944.000000	85.367697
943.000000	85.215132
942.000000	85.106453
941.000000	85.099618
940.000000	85.208661
939.000000	85.395345
938.000000	85.587513
937.000000	85.710820
936.000000	85.715379
935.000000	85.594321
934.000000	85.392958
933.000000	85.194369
932.000000	85.080716
931.000000	85.097133
930.000000	85.238679
929.000000	85.454576
928.000000	85.661570
927.000000	85.771962
926.000000	85.733718
925.000000	85.555528
924.000000	85.299209
923.000000	85.051350
922.000000	84.892739
921.000000	84.870801
920.000000	84.978462
919.000000	85.153840
918.000000	85.308209
917.000000	85.364227
916.000000	85.282369
915.000000	85.074047
914.000000	84.800925
913.000000	84.549821
912.000000	84.390627
911.000000	84.347277
910.000000	84.394908
909.000000	84.473469
908.000000	84.507387
907.000000	84.432230
906.000000	84.226028
905.000000	83.921926
904.000000	83.589700
903.000000	83.303760
902.000000	83.117776
901.000000	83.046256
900.000000	83.052174
899.000000	83.055483
898.000000	82.970625
897.000000	82.746014
896.000000	82.382314
895.000000	81.928817
894.000000	81.465463
893.000000	81.072204
892.000000	80.793791
891.000000	80.620228
890.000000	80.493788
889.000000	80.333589
888.000000	80.064175
887.000000	79.640999
886.000000	79.070542
885.000000	78.409092
884.000000	77.734409
883.000000	77.112566
882.000000	76.575274
881.000000	76.109970
880.000000	75.662538
879.000000	75.154826
878.000000	74.519240
877.000000	73.728841
876.000000	72.806566
875.000000	71.812409
874.000000	70.816882
873.000000	69.874207
872.000000	69.000697
871.000000	68.167155
870.000000	67.313633
869.000000	66.376472
868.000000	65.316141
867.000000	64.131041
866.000000	62.856317
865.000000	61.551155
864.000000	60.276781
863.000000	59.072687
862.000000	57.940116
861.000000	56.845545
860.000000	55.742043
859.000000	54.592959
858.000000	53.391493
857.000000	52.176079
856.000000	51.033594
855.000000	50.069481
854.000000	49.367609
853.000000	48.959337
852.000000	48.813938
851.000000	48.847857
850.000000	48.945730
849.000000	49.005656
848.000000	48.976976
847.000000	48.866522
846.000000	48.721519
845.000000	48.605648
844.000000	48.580653
843.000000	48.683721
842.000000	48.911855
841.000000	49.230335
840.000000	49.594236
839.000000	49.964865
838.000000	50.314498
837.000000	50.622618
836.000000	50.855906
835.000000	50.940252
834.000000	50.749203
833.000000	50.156553
832.000000	49.165951
831.000000	48.049415
830.000000	47.336003
829.000000	47.562625
828.000000	48.914147
827.000000	51.070984
826.000000	53.449561
825.000000	55.602815
824.000000	57.410878
823.000000	58.960176
822.000000	60.338260
821.000000	61.569185
820.000000	62.649124
819.000000	63.576144
818.000000	64.357792
817.000000	65.030549
816.000000	65.658906
815.000000	66.303678
814.000000	66.990495
813.000000	67.708364
812.000000	68.423834
811.000000	69.085574
810.000000	69.640975
809.000000	70.069775
808.000000	70.400421
807.000000	70.692526
806.000000	71.009293
805.000000	71.401168
804.000000	71.890604
803.000000	72.454696
802.000000	73.030543
801.000000	73.546948
800.000000	73.954841
799.000000	74.238913
798.000000	74.422008
797.000000	74.564464
796.000000	74.741551
795.000000	75.004686
794.000000	75.359907
793.000000	75.775521
792.000000	76.199626
791.000000	76.573505
790.000000	76.851811
789.000000	77.025922
788.000000	77.128696
787.000000	77.216108
786.000000	77.343813
785.000000	77.548108
784.000000	77.830848
783.000000	78.153808
782.000000	78.455595
781.000000	78.682482
780.000000	78.810517
779.000000	78.851860
778.000000	78.853219
777.000000	78.882510
776.000000	78.998259
775.000000	79.218448
774.000000	79.514475
773.000000	79.828602
772.000000	80.095043
771.000000	80.258911
770.000000	80.298788
769.000000	80.241737
768.000000	80.152800
767.000000	80.105360
766.000000	80.154409
765.000000	80.320971
764.000000	80.583605
763.000000	80.881539
762.000000	81.138745
761.000000	81.297095
760.000000	81.336489
759.000000	81.278338
758.000000	81.179096
757.000000	81.109773
756.000000	81.122860
755.000000	81.227625
754.000000	81.393434
753.000000	81.570905
752.000000	81.710299
751.000000	81.775339
750.000000	81.760121
749.000000	81.696792
748.000000	81.639107
747.000000	81.633328
746.000000	81.700123
745.000000	81.829808
744.000000	81.982506
743.000000	82.098435
742.000000	82.125379
741.000000	82.046851
740.000000	81.889314
739.000000	81.710301
738.000000	81.579644
737.000000	81.555112
736.000000	81.655212
735.000000	81.847830
734.000000	82.067542
733.000000	82.244500
732.000000	82.323790
731.000000	82.280018
730.000000	82.133977
729.000000	81.952060
728.000000	81.815790
727.000000	81.784060
726.000000	81.876409
725.000000	82.075640
724.000000	82.332615
723.000000	82.577310
722.000000	82.747032
721.000000	82.816108
720.000000	82.802921
719.000000	82.755447
718.000000	82.730917
717.000000	82.773141
716.000000	82.890489
715.000000	83.051230
714.000000	83.205366
713.000000	83.312209
712.000000	83.352328
711.000000	83.331157
710.000000	83.284560
709.000000	83.270454
708.000000	83.337339
707.000000	83.494948
706.000000	83.712751
705.000000	83.937449
704.000000	84.106947
703.000000	84.166245
702.000000	84.095668
701.000000	83.929345
700.000000	83.739890
699.000000	83.606656
698.000000	83.591149
697.000000	83.719526
696.000000	83.965599
695.000000	84.252851
694.000000	84.490783
693.000000	84.615440
692.000000	84.602445
691.000000	84.465861
690.000000	84.260202
689.000000	84.070289
688.000000	83.971102
687.000000	83.986663
686.000000	84.092823
685.000000	84.244127
684.000000	84.384938
683.000000	84.458681
682.000000	84.438311
681.000000	84.347770
680.000000	84.241354
679.000000	84.166619
678.000000	84.150743
677.000000	84.194617
676.000000	84.261160
675.000000	84.291798
674.000000	84.240564
673.000000	84.105070
672.000000	83.930958
671.000000	83.783819
670.000000	83.716869
669.000000	83.760292
668.000000	83.908620
667.000000	84.093894
666.000000	84.220644
665.000000	84.241170
664.000000	84.148273
663.000000	83.938217
662.000000	83.631186
661.000000	83.294691
660.000000	83.020362
659.000000	82.884592
658.000000	82.916309
657.000000	83.081093
656.000000	83.297118
655.000000	83.474837
654.000000	83.540031
653.000000	83.456929
652.000000	83.251467
651.000000	83.001743
650.000000	82.792657
649.000000	82.672654
648.000000	82.645933
647.000000	82.682817
646.000000	82.728826
645.000000	82.725933
644.000000	82.642517
643.000000	82.487120
642.000000	82.299835
641.000000	82.133010
640.000000	82.032611
639.000000	82.014418
638.000000	82.041695
637.000000	82.031326
636.000000	81.894220
635.000000	81.576945
634.000000	81.087269
633.000000	80.502119
632.000000	79.952038
631.000000	79.573035
630.000000	79.439535
629.000000	79.529173
628.000000	79.747383
627.000000	79.973675
626.000000	80.093604
625.000000	80.031567
624.000000	79.781593
623.000000	79.410564
622.000000	79.024443
621.000000	78.722951
620.000000	78.570790
619.000000	78.580589
618.000000	78.703342
617.000000	78.847071
616.000000	78.923631
615.000000	78.885530
614.000000	78.732832
613.000000	78.506877
612.000000	78.279922
611.000000	78.124963
610.000000	78.073130
609.000000	78.094957
608.000000	78.123999
607.000000	78.093868
606.000000	77.962038
605.000000	77.728719
604.000000	77.448726
603.000000	77.213514
602.000000	77.103674
601.000000	77.147635
600.000000	77.313366
599.000000	77.520318
598.000000	77.660405
597.000000	77.639046
596.000000	77.422184
595.000000	77.055237
594.000000	76.642037
593.000000	76.303399
592.000000	76.144259
591.000000	76.218999
590.000000	76.495400
589.000000	76.861356
588.000000	77.183427
587.000000	77.360307
586.000000	77.345907
585.000000	77.161081
584.000000	76.890684
583.000000	76.650195
582.000000	76.529350
581.000000	76.556027
580.000000	76.698981
579.000000	76.888884
578.000000	77.040380
577.000000	77.087587
576.000000	77.024891
575.000000	76.913859
574.000000	76.840828
573.000000	76.866246
572.000000	77.009553
571.000000	77.242940
570.000000	77.484081
569.000000	77.622173
568.000000	77.582772
567.000000	77.371503
566.000000	77.067876
565.000000	76.787779
564.000000	76.648306
563.000000	76.731285
562.000000	77.036856
561.000000	77.472175
560.000000	77.896733
559.000000	78.176987
558.000000	78.223878
557.000000	78.025450
556.000000	77.662456
555.000000	77.283291
554.000000	77.037351
553.000000	77.010119
552.000000	77.205187
551.000000	77.554718
550.000000	77.936919
549.000000	78.220609
548.000000	78.328641
547.000000	78.269297
546.000000	78.120933
545.000000	77.987443
544.000000	77.955456
543.000000	78.059973
542.000000	78.262443
541.000000	78.463724
540.000000	78.561779
539.000000	78.509076
538.000000	78.333950
537.000000	78.126403
536.000000	78.006243
535.000000	78.076235
534.000000	78.368500
533.000000	78.823256
532.000000	79.308965
531.000000	79.669856
530.000000	79.788553
529.000000	79.637005
528.000000	79.281811
527.000000	78.863078
526.000000	78.558486
525.000000	78.514166
524.000000	78.776034
523.000000	79.270835
522.000000	79.841190
521.000000	80.306908
520.000000	80.531611
519.000000	80.471676
518.000000	80.190477
517.000000	79.830215
516.000000	79.550291
515.000000	79.454621
514.000000	79.548518
513.000000	79.747866
512.000000	79.928671
511.000000	79.985196
510.000000	79.877033
509.000000	79.642458
508.000000	79.372770
507.000000	79.177661
506.000000	79.137774
505.000000	79.257317
504.000000	79.459029
503.000000	79.611084
502.000000	79.581789
501.000000	79.314402
500.000000	78.865822
499.000000	78.377543
498.000000	78.025000
497.000000	77.959766
496.000000	78.246895
495.000000	78.829824
494.000000	79.548609
493.000000	80.194014
492.000000	80.579867
491.000000	80.623579
490.000000	80.383287
489.000000	80.024235
488.000000	79.738650
487.000000	79.680704
486.000000	79.921590
485.000000	80.412240
484.000000	80.989386
483.000000	81.453687
482.000000	81.676023
481.000000	81.646459
480.000000	81.454342
479.000000	81.239817
478.000000	81.138512
477.000000	81.225546
476.000000	81.480446
475.000000	81.793624
474.000000	82.013223
473.000000	82.016086
472.000000	81.793273
471.000000	81.480852
470.000000	81.264982
469.000000	81.280479
468.000000	81.589217
467.000000	82.157458
466.000000	82.830335
465.000000	83.390950
464.000000	83.654988
463.000000	83.533741
462.000000	83.089436
461.000000	82.521253
460.000000	82.064553
459.000000	81.909892
458.000000	82.158444
457.000000	82.748604
456.000000	83.448290
455.000000	84.002549
454.000000	84.256049
453.000000	84.166190
452.000000	83.816604
451.000000	83.402093
450.000000	83.117452
449.000000	83.074256
448.000000	83.290128
447.000000	83.681236
446.000000	84.076109
445.000000	84.306689
444.000000	84.298241
443.000000	84.100861
442.000000	83.871963
441.000000	83.787800
440.000000	83.948102
439.000000	84.334099
438.000000	84.825202
437.000000	85.236451
436.000000	85.382307
435.000000	85.170811
434.000000	84.672559
433.000000	84.077785
432.000000	83.610609
431.000000	83.460931
430.000000	83.707405
429.000000	84.252790
428.000000	84.855467
427.000000	85.232222
426.000000	85.175184
425.000000	84.612316
424.000000	83.624575
423.000000	82.474062
422.000000	81.487955
421.000000	80.831350
420.000000	80.460789
419.000000	80.262954
418.000000	80.143536
417.000000	79.984419
416.000000	79.710608
415.000000	79.359012
414.000000	79.061320
413.000000	78.985894
412.000000	79.257606
411.000000	79.884970
410.000000	80.740512
409.000000	81.596362
408.000000	82.247024
407.000000	82.596668
406.000000	82.693932
405.000000	82.675492
404.000000	82.744397
403.000000	83.003886
402.000000	83.237157
401.000000	83.709880
400.000000	84.146477
