PE IR       SUBTECH     SPECTRUM    ASCII       PEDS        4.00        
   -1
23MS015_nitro.asc
24/09/10
15:58:16.00
24/09/10
15:58:16.00
Administrator
Sample 1154 By Administrator Date Tuesday, September 10 2024
400.000000
#HDR
-1
-1
#GR
cm-1
%T
1.0
0.0
4000.000000
-1.000000
3601
8
80.912787
0.411575
#DATA
4000.000000	45.422084
3999.000000	45.473888
3998.000000	45.525675
3997.000000	45.577326
3996.000000	45.628772
3995.000000	45.679943
3994.000000	45.730854
3993.000000	45.781910
3992.000000	45.833890
3991.000000	45.887282
3990.000000	45.941494
3989.000000	45.995109
3988.000000	46.047215
3987.000000	46.098144
3986.000000	46.148668
3985.000000	46.198718
3984.000000	46.247406
3983.000000	46.294155
3982.000000	46.339402
3981.000000	46.384185
3980.000000	46.429390
3979.000000	46.475457
3978.000000	46.522574
3977.000000	46.570752
3976.000000	46.619608
3975.000000	46.668288
3974.000000	46.715822
3973.000000	46.761634
3972.000000	46.805718
3971.000000	46.848733
3970.000000	46.891782
3969.000000	46.935726
3968.000000	46.980762
3967.000000	47.026681
3966.000000	47.073331
3965.000000	47.120781
3964.000000	47.169030
3963.000000	47.217536
3962.000000	47.265171
3961.000000	47.310699
3960.000000	47.353332
3959.000000	47.393585
3958.000000	47.433201
3957.000000	47.473811
3956.000000	47.515913
3955.000000	47.559190
3954.000000	47.603524
3953.000000	47.649232
3952.000000	47.696655
3951.000000	47.745787
3950.000000	47.795696
3949.000000	47.844227
3948.000000	47.889404
3947.000000	47.931270
3946.000000	47.971974
3945.000000	48.014557
3944.000000	48.061560
3943.000000	48.113089
3942.000000	48.166025
3941.000000	48.216587
3940.000000	48.263539
3939.000000	48.309040
3938.000000	48.355900
3937.000000	48.404380
3936.000000	48.452385
3935.000000	48.498350
3934.000000	48.543436
3933.000000	48.589510
3932.000000	48.635931
3931.000000	48.679964
3930.000000	48.720167
3929.000000	48.759077
3928.000000	48.801168
3927.000000	48.848894
3926.000000	48.901548
3925.000000	48.956329
3924.000000	49.009004
3923.000000	49.055511
3922.000000	49.095116
3921.000000	49.132065
3920.000000	49.172288
3919.000000	49.218148
3918.000000	49.267474
3917.000000	49.317384
3916.000000	49.366779
3915.000000	49.415464
3914.000000	49.463349
3913.000000	49.511880
3912.000000	49.562229
3911.000000	49.613252
3910.000000	49.662060
3909.000000	49.707076
3908.000000	49.749956
3907.000000	49.793100
3906.000000	49.836809
3905.000000	49.879246
3904.000000	49.918391
3903.000000	49.953881
3902.000000	49.987282
3901.000000	50.021080
3900.000000	50.058392
3899.000000	50.100609
3898.000000	50.145117
3897.000000	50.189340
3896.000000	50.234409
3895.000000	50.285240
3894.000000	50.344790
3893.000000	50.409433
3892.000000	50.469761
3891.000000	50.519620
3890.000000	50.561060
3889.000000	50.597826
3888.000000	50.631575
3887.000000	50.666276
3886.000000	50.706894
3885.000000	50.752389
3884.000000	50.794957
3883.000000	50.829835
3882.000000	50.862808
3881.000000	50.903714
3880.000000	50.953732
3879.000000	51.004995
3878.000000	51.050443
3877.000000	51.089933
3876.000000	51.129627
3875.000000	51.177210
3874.000000	51.234318
3873.000000	51.291655
3872.000000	51.335886
3871.000000	51.365297
3870.000000	51.393001
3869.000000	51.430931
3868.000000	51.475131
3867.000000	51.514487
3866.000000	51.550783
3865.000000	51.597657
3864.000000	51.658252
3863.000000	51.720278
3862.000000	51.771915
3861.000000	51.813933
3860.000000	51.855163
3859.000000	51.904777
3858.000000	51.967253
3857.000000	52.038927
3856.000000	52.107925
3855.000000	52.160117
3854.000000	52.187941
3853.000000	52.197217
3852.000000	52.204702
3851.000000	52.223139
3850.000000	52.255605
3849.000000	52.303578
3848.000000	52.366164
3847.000000	52.437569
3846.000000	52.510356
3845.000000	52.578651
3844.000000	52.638774
3843.000000	52.692140
3842.000000	52.741820
3841.000000	52.788368
3840.000000	52.830724
3839.000000	52.868522
3838.000000	52.902659
3837.000000	52.935971
3836.000000	52.972396
3835.000000	53.013891
3834.000000	53.059342
3833.000000	53.107695
3832.000000	53.159856
3831.000000	53.216164
3830.000000	53.274385
3829.000000	53.331554
3828.000000	53.385883
3827.000000	53.439671
3826.000000	53.496403
3825.000000	53.554301
3824.000000	53.605568
3823.000000	53.646477
3822.000000	53.683581
3821.000000	53.725776
3820.000000	53.773541
3819.000000	53.817283
3818.000000	53.849792
3817.000000	53.878036
3816.000000	53.918167
3815.000000	53.976560
3814.000000	54.041968
3813.000000	54.100597
3812.000000	54.152608
3811.000000	54.207508
3810.000000	54.268648
3809.000000	54.327469
3808.000000	54.374155
3807.000000	54.411320
3806.000000	54.449704
3805.000000	54.492255
3804.000000	54.531032
3803.000000	54.563934
3802.000000	54.600320
3801.000000	54.647694
3800.000000	54.701488
3799.000000	54.751552
3798.000000	54.796274
3797.000000	54.844088
3796.000000	54.902097
3795.000000	54.966835
3794.000000	55.029219
3793.000000	55.085439
3792.000000	55.139334
3791.000000	55.195311
3790.000000	55.253124
3789.000000	55.309555
3788.000000	55.363069
3787.000000	55.414445
3786.000000	55.464338
3785.000000	55.512798
3784.000000	55.560045
3783.000000	55.606060
3782.000000	55.650598
3781.000000	55.695732
3780.000000	55.745271
3779.000000	55.800742
3778.000000	55.858799
3777.000000	55.914159
3776.000000	55.965124
3775.000000	56.016016
3774.000000	56.071636
3773.000000	56.129905
3772.000000	56.183674
3771.000000	56.230707
3770.000000	56.275423
3769.000000	56.320968
3768.000000	56.365904
3767.000000	56.409260
3766.000000	56.455016
3765.000000	56.508214
3764.000000	56.567380
3763.000000	56.624633
3762.000000	56.674491
3761.000000	56.722101
3760.000000	56.775018
3759.000000	56.830897
3758.000000	56.882581
3757.000000	56.929593
3756.000000	56.975804
3755.000000	57.020799
3754.000000	57.062371
3753.000000	57.103959
3752.000000	57.149871
3751.000000	57.194419
3750.000000	57.230820
3749.000000	57.268704
3748.000000	57.319690
3747.000000	57.375758
3746.000000	57.424237
3745.000000	57.468668
3744.000000	57.522084
3743.000000	57.588709
3742.000000	57.656569
3741.000000	57.715412
3740.000000	57.770252
3739.000000	57.828835
3738.000000	57.890947
3737.000000	57.954258
3736.000000	58.022914
3735.000000	58.097410
3734.000000	58.164998
3733.000000	58.215779
3732.000000	58.258462
3731.000000	58.309720
3730.000000	58.374754
3729.000000	58.444813
3728.000000	58.513375
3727.000000	58.584265
3726.000000	58.661169
3725.000000	58.736799
3724.000000	58.801479
3723.000000	58.856802
3722.000000	58.910789
3721.000000	58.968023
3720.000000	59.027369
3719.000000	59.085957
3718.000000	59.144241
3717.000000	59.204723
3716.000000	59.265886
3715.000000	59.321183
3714.000000	59.366343
3713.000000	59.405333
3712.000000	59.446796
3711.000000	59.495374
3710.000000	59.550045
3709.000000	59.607997
3708.000000	59.668119
3707.000000	59.732211
3706.000000	59.800926
3705.000000	59.872023
3704.000000	59.942704
3703.000000	60.013114
3702.000000	60.083454
3701.000000	60.151065
3700.000000	60.212657
3699.000000	60.266641
3698.000000	60.314679
3697.000000	60.362093
3696.000000	60.412586
3695.000000	60.463217
3694.000000	60.509626
3693.000000	60.554055
3692.000000	60.603397
3691.000000	60.658637
3690.000000	60.711052
3689.000000	60.752004
3688.000000	60.786361
3687.000000	60.827619
3686.000000	60.878816
3685.000000	60.932856
3684.000000	60.986157
3683.000000	61.040810
3682.000000	61.097215
3681.000000	61.151989
3680.000000	61.204919
3679.000000	61.255871
3678.000000	61.295695
3677.000000	61.317140
3676.000000	61.332483
3675.000000	61.362964
3674.000000	61.409278
3673.000000	61.449058
3672.000000	61.467140
3671.000000	61.481160
3670.000000	61.522163
3669.000000	61.593368
3668.000000	61.671547
3667.000000	61.739323
3666.000000	61.795455
3665.000000	61.846628
3664.000000	61.897310
3663.000000	61.945958
3662.000000	61.989428
3661.000000	62.025728
3660.000000	62.054282
3659.000000	62.073635
3658.000000	62.083581
3657.000000	62.089744
3656.000000	62.102028
3655.000000	62.125316
3654.000000	62.150917
3653.000000	62.162735
3652.000000	62.154255
3651.000000	62.135478
3650.000000	62.120369
3649.000000	62.112437
3648.000000	62.112367
3647.000000	62.126186
3646.000000	62.154424
3645.000000	62.188338
3644.000000	62.220230
3643.000000	62.249745
3642.000000	62.279235
3641.000000	62.305849
3640.000000	62.322890
3639.000000	62.328158
3638.000000	62.325747
3637.000000	62.318604
3636.000000	62.305433
3635.000000	62.288181
3634.000000	62.275165
3633.000000	62.270127
3632.000000	62.262036
3631.000000	62.235603
3630.000000	62.193726
3629.000000	62.159065
3628.000000	62.146306
3627.000000	62.148472
3626.000000	62.150733
3625.000000	62.146139
3624.000000	62.138411
3623.000000	62.131590
3622.000000	62.121251
3621.000000	62.101142
3620.000000	62.073936
3619.000000	62.048316
3618.000000	62.028004
3617.000000	62.008735
3616.000000	61.983830
3615.000000	61.952484
3614.000000	61.921115
3613.000000	61.894651
3612.000000	61.870089
3611.000000	61.840836
3610.000000	61.806824
3609.000000	61.778853
3608.000000	61.768162
3607.000000	61.773394
3606.000000	61.781978
3605.000000	61.781954
3604.000000	61.770235
3603.000000	61.750624
3602.000000	61.726709
3601.000000	61.699651
3600.000000	61.670186
3599.000000	61.637900
3598.000000	61.603008
3597.000000	61.568172
3596.000000	61.538222
3595.000000	61.516779
3594.000000	61.502497
3593.000000	61.488808
3592.000000	61.468692
3591.000000	61.437409
3590.000000	61.395231
3589.000000	61.351161
3588.000000	61.319152
3587.000000	61.304640
3586.000000	61.299269
3585.000000	61.291930
3584.000000	61.279158
3583.000000	61.264169
3582.000000	61.249872
3581.000000	61.235216
3580.000000	61.217771
3579.000000	61.196467
3578.000000	61.171521
3577.000000	61.143628
3576.000000	61.114633
3575.000000	61.087137
3574.000000	61.062754
3573.000000	61.040425
3572.000000	61.017441
3571.000000	60.989742
3570.000000	60.952790
3569.000000	60.907390
3568.000000	60.863999
3567.000000	60.834313
3566.000000	60.818556
3565.000000	60.808014
3564.000000	60.796272
3563.000000	60.783544
3562.000000	60.772345
3561.000000	60.762921
3560.000000	60.753560
3559.000000	60.742659
3558.000000	60.728806
3557.000000	60.710567
3556.000000	60.687808
3555.000000	60.661981
3554.000000	60.634818
3553.000000	60.607365
3552.000000	60.580237
3551.000000	60.553541
3550.000000	60.526486
3549.000000	60.499607
3548.000000	60.476893
3547.000000	60.462526
3546.000000	60.454489
3545.000000	60.445048
3544.000000	60.428069
3543.000000	60.403166
3542.000000	60.372998
3541.000000	60.340492
3540.000000	60.309282
3539.000000	60.282880
3538.000000	60.262150
3537.000000	60.244535
3536.000000	60.226689
3535.000000	60.206526
3534.000000	60.182586
3533.000000	60.153928
3532.000000	60.121199
3531.000000	60.086119
3530.000000	60.049374
3529.000000	60.011258
3528.000000	59.974397
3527.000000	59.942761
3526.000000	59.917241
3525.000000	59.894785
3524.000000	59.872217
3523.000000	59.848141
3522.000000	59.821274
3521.000000	59.789814
3520.000000	59.753670
3519.000000	59.715010
3518.000000	59.675916
3517.000000	59.636844
3516.000000	59.597760
3515.000000	59.558936
3514.000000	59.519716
3513.000000	59.478432
3512.000000	59.435011
3511.000000	59.391878
3510.000000	59.350706
3509.000000	59.309980
3508.000000	59.266755
3507.000000	59.219440
3506.000000	59.168202
3505.000000	59.114580
3504.000000	59.061049
3503.000000	59.009318
3502.000000	58.958891
3501.000000	58.908542
3500.000000	58.858565
3499.000000	58.809466
3498.000000	58.759288
3497.000000	58.704432
3496.000000	58.643146
3495.000000	58.576387
3494.000000	58.505515
3493.000000	58.431328
3492.000000	58.355726
3491.000000	58.281950
3490.000000	58.212070
3489.000000	58.145788
3488.000000	58.081589
3487.000000	58.016945
3486.000000	57.947899
3485.000000	57.871301
3484.000000	57.788322
3483.000000	57.703710
3482.000000	57.620474
3481.000000	57.537023
3480.000000	57.449923
3479.000000	57.357813
3478.000000	57.262076
3477.000000	57.165638
3476.000000	57.071646
3475.000000	56.981310
3474.000000	56.892850
3473.000000	56.803636
3472.000000	56.712816
3471.000000	56.620221
3470.000000	56.523338
3469.000000	56.418151
3468.000000	56.303501
3467.000000	56.182475
3466.000000	56.059394
3465.000000	55.937309
3464.000000	55.818327
3463.000000	55.703359
3462.000000	55.590252
3461.000000	55.474156
3460.000000	55.350895
3459.000000	55.219363
3458.000000	55.081062
3457.000000	54.938801
3456.000000	54.796042
3455.000000	54.655321
3454.000000	54.516706
3453.000000	54.378976
3452.000000	54.241709
3451.000000	54.104563
3450.000000	53.965076
3449.000000	53.819689
3448.000000	53.667218
3447.000000	53.509293
3446.000000	53.347569
3445.000000	53.182677
3444.000000	53.015891
3443.000000	52.849565
3442.000000	52.685422
3441.000000	52.523941
3440.000000	52.365066
3439.000000	52.207500
3438.000000	52.047265
3437.000000	51.878741
3436.000000	51.698189
3435.000000	51.505459
3434.000000	51.302956
3433.000000	51.094798
3432.000000	50.885538
3431.000000	50.677541
3430.000000	50.469345
3429.000000	50.257929
3428.000000	50.042250
3427.000000	49.822770
3426.000000	49.599096
3425.000000	49.370137
3424.000000	49.135695
3423.000000	48.896039
3422.000000	48.650394
3421.000000	48.398112
3420.000000	48.140677
3419.000000	47.880581
3418.000000	47.619077
3417.000000	47.356294
3416.000000	47.092232
3415.000000	46.825410
3414.000000	46.551518
3413.000000	46.266380
3412.000000	45.969417
3411.000000	45.662580
3410.000000	45.346896
3409.000000	45.022177
3408.000000	44.689779
3407.000000	44.352916
3406.000000	44.014661
3405.000000	43.676991
3404.000000	43.340199
3403.000000	43.001299
3402.000000	42.653433
3401.000000	42.289396
3400.000000	41.906408
3399.000000	41.506964
3398.000000	41.096559
3397.000000	40.681302
3396.000000	40.265664
3395.000000	39.850422
3394.000000	39.432476
3393.000000	39.007776
3392.000000	38.573862
3391.000000	38.129275
3390.000000	37.673338
3389.000000	37.207033
3388.000000	36.732573
3387.000000	36.250807
3386.000000	35.760668
3385.000000	35.262668
3384.000000	34.759931
3383.000000	34.254866
3382.000000	33.746763
3381.000000	33.233885
3380.000000	32.715910
3379.000000	32.192586
3378.000000	31.662368
3377.000000	31.124159
3376.000000	30.578603
3375.000000	30.026855
3374.000000	29.469734
3373.000000	28.908936
3372.000000	28.347029
3371.000000	27.784688
3370.000000	27.220332
3369.000000	26.652825
3368.000000	26.082528
3367.000000	25.509456
3366.000000	24.933046
3365.000000	24.354517
3364.000000	23.776481
3363.000000	23.199591
3362.000000	22.622442
3361.000000	22.045279
3360.000000	21.470805
3359.000000	20.900696
3358.000000	20.334457
3357.000000	19.772334
3356.000000	19.216107
3355.000000	18.666018
3354.000000	18.120219
3353.000000	17.578008
3352.000000	17.040627
3351.000000	16.508762
3350.000000	15.982244
3349.000000	15.462572
3348.000000	14.952585
3347.000000	14.452723
3346.000000	13.961338
3345.000000	13.478514
3344.000000	13.006191
3343.000000	12.544654
3342.000000	12.092032
3341.000000	11.647954
3340.000000	11.213942
3339.000000	10.790058
3338.000000	10.375301
3337.000000	9.970796
3336.000000	9.579365
3335.000000	9.201411
3334.000000	8.834686
3333.000000	8.478670
3332.000000	8.134755
3331.000000	7.802765
3330.000000	7.480799
3329.000000	7.168188
3328.000000	6.865934
3327.000000	6.573718
3326.000000	6.290803
3325.000000	6.019171
3324.000000	5.761477
3323.000000	5.516807
3322.000000	5.281713
3321.000000	5.055168
3320.000000	4.839028
3319.000000	4.633278
3318.000000	4.436084
3317.000000	4.247210
3316.000000	4.067883
3315.000000	3.897544
3314.000000	3.734144
3313.000000	3.577691
3312.000000	3.429458
3311.000000	3.288304
3310.000000	3.152186
3309.000000	3.022118
3308.000000	2.901353
3307.000000	2.790932
3306.000000	2.689661
3305.000000	2.597990
3304.000000	2.516782
3303.000000	2.443642
3302.000000	2.374283
3301.000000	2.307203
3300.000000	2.243649
3299.000000	2.183523
3298.000000	2.125615
3297.000000	2.071071
3296.000000	2.022187
3295.000000	1.978621
3294.000000	1.938390
3293.000000	1.902067
3292.000000	1.872045
3291.000000	1.847804
3290.000000	1.826383
3289.000000	1.806560
3288.000000	1.789080
3287.000000	1.773448
3286.000000	1.758169
3285.000000	1.743984
3284.000000	1.732803
3283.000000	1.724157
3282.000000	1.716054
3281.000000	1.708526
3280.000000	1.702965
3279.000000	1.698665
3278.000000	1.693717
3277.000000	1.688482
3276.000000	1.684620
3275.000000	1.681570
3274.000000	1.677535
3273.000000	1.673298
3272.000000	1.671521
3271.000000	1.672987
3270.000000	1.676727
3269.000000	1.682713
3268.000000	1.690998
3267.000000	1.699346
3266.000000	1.705240
3265.000000	1.709368
3264.000000	1.714051
3263.000000	1.719301
3262.000000	1.723806
3261.000000	1.728222
3260.000000	1.733930
3259.000000	1.739890
3258.000000	1.744345
3257.000000	1.748544
3256.000000	1.755032
3255.000000	1.763504
3254.000000	1.771738
3253.000000	1.779478
3252.000000	1.787720
3251.000000	1.795504
3250.000000	1.801178
3249.000000	1.805857
3248.000000	1.812078
3247.000000	1.820003
3246.000000	1.828377
3245.000000	1.837876
3244.000000	1.849856
3243.000000	1.862716
3242.000000	1.873365
3241.000000	1.881452
3240.000000	1.888980
3239.000000	1.896589
3238.000000	1.903518
3237.000000	1.910179
3236.000000	1.917557
3235.000000	1.925011
3234.000000	1.931737
3233.000000	1.939285
3232.000000	1.949511
3231.000000	1.961189
3230.000000	1.971687
3229.000000	1.980731
3228.000000	1.989481
3227.000000	1.997488
3226.000000	2.003789
3225.000000	2.009664
3224.000000	2.016905
3223.000000	2.024620
3222.000000	2.030840
3221.000000	2.035963
3220.000000	2.041504
3219.000000	2.046871
3218.000000	2.050657
3217.000000	2.053723
3216.000000	2.057709
3215.000000	2.061880
3214.000000	2.064551
3213.000000	2.066347
3212.000000	2.068841
3211.000000	2.071377
3210.000000	2.072369
3209.000000	2.072347
3208.000000	2.072623
3207.000000	2.072382
3206.000000	2.070196
3205.000000	2.067049
3204.000000	2.064700
3203.000000	2.062533
3202.000000	2.059054
3201.000000	2.054999
3200.000000	2.051865
3199.000000	2.048783
3198.000000	2.044014
3197.000000	2.038063
3196.000000	2.032290
3195.000000	2.025910
3194.000000	2.017495
3193.000000	2.007978
3192.000000	1.999194
3191.000000	1.990823
3190.000000	1.981751
3189.000000	1.972833
3188.000000	1.965363
3187.000000	1.958314
3186.000000	1.950068
3185.000000	1.941342
3184.000000	1.933497
3183.000000	1.925605
3182.000000	1.916141
3181.000000	1.906009
3180.000000	1.896924
3179.000000	1.888443
3178.000000	1.879434
3177.000000	1.870837
3176.000000	1.864008
3175.000000	1.857981
3174.000000	1.851242
3173.000000	1.844546
3172.000000	1.839166
3171.000000	1.834152
3170.000000	1.828214
3169.000000	1.822540
3168.000000	1.818872
3167.000000	1.816480
3166.000000	1.813934
3165.000000	1.811983
3164.000000	1.811819
3163.000000	1.812340
3162.000000	1.812049
3161.000000	1.811923
3160.000000	1.813489
3159.000000	1.815848
3158.000000	1.817449
3157.000000	1.818935
3156.000000	1.821441
3155.000000	1.824015
3154.000000	1.825705
3153.000000	1.828436
3152.000000	1.834721
3151.000000	1.844198
3150.000000	1.855021
3149.000000	1.866847
3148.000000	1.879763
3147.000000	1.892267
3146.000000	1.903269
3145.000000	1.914287
3144.000000	1.926880
3143.000000	1.939849
3142.000000	1.951653
3141.000000	1.963631
3140.000000	1.977996
3139.000000	1.994539
3138.000000	2.012116
3137.000000	2.031321
3136.000000	2.052806
3135.000000	2.074910
3134.000000	2.095767
3133.000000	2.116140
3132.000000	2.137476
3131.000000	2.159214
3130.000000	2.180745
3129.000000	2.203823
3128.000000	2.230171
3127.000000	2.258436
3126.000000	2.286302
3125.000000	2.313663
3124.000000	2.341094
3123.000000	2.367423
3122.000000	2.391897
3121.000000	2.416850
3120.000000	2.445251
3119.000000	2.477095
3118.000000	2.510932
3117.000000	2.546994
3116.000000	2.586011
3115.000000	2.626762
3114.000000	2.667468
3113.000000	2.708136
3112.000000	2.749151
3111.000000	2.789511
3110.000000	2.828911
3109.000000	2.869545
3108.000000	2.913309
3107.000000	2.959110
3106.000000	3.005212
3105.000000	3.052150
3104.000000	3.100824
3103.000000	3.149975
3102.000000	3.198278
3101.000000	3.246957
3100.000000	3.297810
3099.000000	3.350394
3098.000000	3.403646
3097.000000	3.458266
3096.000000	3.514905
3095.000000	3.572048
3094.000000	3.628143
3093.000000	3.684137
3092.000000	3.741684
3091.000000	3.800683
3090.000000	3.860655
3089.000000	3.922325
3088.000000	3.985658
3087.000000	4.048609
3086.000000	4.110171
3085.000000	4.172565
3084.000000	4.238022
3083.000000	4.305523
3082.000000	4.373119
3081.000000	4.441183
3080.000000	4.511063
3079.000000	4.582606
3078.000000	4.655442
3077.000000	4.730601
3076.000000	4.808361
3075.000000	4.886533
3074.000000	4.963205
3073.000000	5.039198
3072.000000	5.115772
3071.000000	5.192116
3070.000000	5.267517
3069.000000	5.343806
3068.000000	5.423082
3067.000000	5.504924
3066.000000	5.587951
3065.000000	5.672178
3064.000000	5.757576
3063.000000	5.842462
3062.000000	5.925687
3061.000000	6.008495
3060.000000	6.092178
3059.000000	6.175999
3058.000000	6.259435
3057.000000	6.344228
3056.000000	6.431848
3055.000000	6.520896
3054.000000	6.609301
3053.000000	6.697143
3052.000000	6.785326
3051.000000	6.873511
3050.000000	6.961451
3049.000000	7.050265
3048.000000	7.140338
3047.000000	7.230010
3046.000000	7.318378
3045.000000	7.407249
3044.000000	7.498431
3043.000000	7.591276
3042.000000	7.684836
3041.000000	7.779952
3040.000000	7.876908
3039.000000	7.973362
3038.000000	8.067094
3037.000000	8.158922
3036.000000	8.250873
3035.000000	8.343538
3034.000000	8.437283
3033.000000	8.533728
3032.000000	8.633489
3031.000000	8.734336
3030.000000	8.833841
3029.000000	8.932067
3028.000000	9.029796
3027.000000	9.126303
3026.000000	9.221113
3025.000000	9.315858
3024.000000	9.412085
3023.000000	9.509038
3022.000000	9.605695
3021.000000	9.703077
3020.000000	9.802347
3019.000000	9.902424
3018.000000	10.001600
3017.000000	10.099834
3016.000000	10.197578
3015.000000	10.294213
3014.000000	10.389693
3013.000000	10.486002
3012.000000	10.584972
3011.000000	10.686270
3010.000000	10.789023
3009.000000	10.893494
3008.000000	10.999437
3007.000000	11.104920
3006.000000	11.208592
3005.000000	11.311264
3004.000000	11.413631
3003.000000	11.514402
3002.000000	11.612422
3001.000000	11.708617
3000.000000	11.804330
2999.000000	11.899891
2998.000000	11.996484
2997.000000	12.096753
2996.000000	12.201303
2995.000000	12.306788
2994.000000	12.409835
2993.000000	12.511000
2992.000000	12.612686
2991.000000	12.715202
2990.000000	12.817221
2989.000000	12.918406
2988.000000	13.019100
2987.000000	13.118953
2986.000000	13.217993
2985.000000	13.317748
2984.000000	13.419319
2983.000000	13.521693
2982.000000	13.623697
2981.000000	13.726018
2980.000000	13.829435
2979.000000	13.932623
2978.000000	14.033770
2977.000000	14.133089
2976.000000	14.232043
2975.000000	14.331502
2974.000000	14.432329
2973.000000	14.536073
2972.000000	14.643168
2971.000000	14.751704
2970.000000	14.859622
2969.000000	14.966714
2968.000000	15.072942
2967.000000	15.176678
2966.000000	15.276600
2965.000000	15.373896
2964.000000	15.470789
2963.000000	15.568262
2962.000000	15.666919
2961.000000	15.768193
2960.000000	15.872695
2959.000000	15.978751
2958.000000	16.084287
2957.000000	16.188686
2956.000000	16.291400
2955.000000	16.390806
2954.000000	16.486509
2953.000000	16.580985
2952.000000	16.676924
2951.000000	16.774264
2950.000000	16.871684
2949.000000	16.969331
2948.000000	17.068241
2947.000000	17.168477
2946.000000	17.269738
2945.000000	17.372521
2944.000000	17.476862
2943.000000	17.581021
2942.000000	17.682963
2941.000000	17.782273
2940.000000	17.879395
2939.000000	17.974519
2938.000000	18.068559
2937.000000	18.163776
2936.000000	18.261706
2935.000000	18.361408
2934.000000	18.460940
2933.000000	18.559242
2932.000000	18.655643
2931.000000	18.749324
2930.000000	18.840755
2929.000000	18.932067
2928.000000	19.024562
2927.000000	19.117369
2926.000000	19.209808
2925.000000	19.303117
2924.000000	19.398442
2923.000000	19.494923
2922.000000	19.591311
2921.000000	19.687546
2920.000000	19.783248
2919.000000	19.876546
2918.000000	19.966111
2917.000000	20.052891
2916.000000	20.138606
2915.000000	20.224253
2914.000000	20.311215
2913.000000	20.401741
2912.000000	20.496583
2911.000000	20.593691
2910.000000	20.690618
2909.000000	20.786796
2908.000000	20.882100
2907.000000	20.975066
2906.000000	21.064268
2905.000000	21.150277
2904.000000	21.234713
2903.000000	21.318563
2902.000000	21.402669
2901.000000	21.488653
2900.000000	21.577499
2899.000000	21.668489
2898.000000	21.760298
2897.000000	21.852145
2896.000000	21.942983
2895.000000	22.031075
2894.000000	22.115720
2893.000000	22.198241
2892.000000	22.280173
2891.000000	22.361808
2890.000000	22.443485
2889.000000	22.526753
2888.000000	22.612731
2887.000000	22.700521
2886.000000	22.788438
2885.000000	22.875710
2884.000000	22.961866
2883.000000	23.045910
2882.000000	23.127504
2881.000000	23.207830
2880.000000	23.288072
2879.000000	23.368294
2878.000000	23.449132
2877.000000	23.533059
2876.000000	23.621967
2875.000000	23.714160
2874.000000	23.805383
2873.000000	23.892397
2872.000000	23.974537
2871.000000	24.052741
2870.000000	24.128669
2869.000000	24.204322
2868.000000	24.281046
2867.000000	24.358885
2866.000000	24.437607
2865.000000	24.517779
2864.000000	24.600189
2863.000000	24.684747
2862.000000	24.770566
2861.000000	24.856286
2860.000000	24.939880
2859.000000	25.019325
2858.000000	25.094471
2857.000000	25.167439
2856.000000	25.240532
2855.000000	25.314683
2854.000000	25.390468
2853.000000	25.469163
2852.000000	25.551650
2851.000000	25.637161
2850.000000	25.723869
2849.000000	25.809857
2848.000000	25.893153
2847.000000	25.972270
2846.000000	26.047708
2845.000000	26.121943
2844.000000	26.197376
2843.000000	26.275213
2842.000000	26.356497
2841.000000	26.442149
2840.000000	26.530859
2839.000000	26.618616
2838.000000	26.701991
2837.000000	26.781015
2836.000000	26.857739
2835.000000	26.933189
2834.000000	27.007116
2833.000000	27.079757
2832.000000	27.152337
2831.000000	27.226263
2830.000000	27.302929
2829.000000	27.383654
2828.000000	27.468656
2827.000000	27.556424
2826.000000	27.644952
2825.000000	27.733088
2824.000000	27.820107
2823.000000	27.904903
2822.000000	27.986733
2821.000000	28.066165
2820.000000	28.144380
2819.000000	28.222158
2818.000000	28.300285
2817.000000	28.380117
2816.000000	28.462574
2815.000000	28.547050
2814.000000	28.632125
2813.000000	28.716728
2812.000000	28.799732
2811.000000	28.879244
2810.000000	28.953630
2809.000000	29.023078
2808.000000	29.089324
2807.000000	29.154240
2806.000000	29.219413
2805.000000	29.286392
2804.000000	29.356121
2803.000000	29.428215
2802.000000	29.501456
2801.000000	29.574647
2800.000000	29.646377
2799.000000	29.714721
2798.000000	29.778372
2797.000000	29.838012
2796.000000	29.895829
2795.000000	29.953949
2794.000000	30.013906
2793.000000	30.076992
2792.000000	30.143908
2791.000000	30.214039
2790.000000	30.285791
2789.000000	30.357542
2788.000000	30.427916
2787.000000	30.495732
2786.000000	30.560592
2785.000000	30.623341
2784.000000	30.685279
2783.000000	30.747129
2782.000000	30.809252
2781.000000	30.872397
2780.000000	30.937275
2779.000000	31.003481
2778.000000	31.069476
2777.000000	31.133404
2776.000000	31.193546
2775.000000	31.248304
2774.000000	31.296610
2773.000000	31.338443
2772.000000	31.374413
2771.000000	31.405203
2770.000000	31.431711
2769.000000	31.455135
2768.000000	31.476224
2767.000000	31.494439
2766.000000	31.508575
2765.000000	31.517957
2764.000000	31.522492
2763.000000	31.522196
2762.000000	31.517347
2761.000000	31.508971
2760.000000	31.498486
2759.000000	31.486908
2758.000000	31.475053
2757.000000	31.464022
2756.000000	31.454688
2755.000000	31.446850
2754.000000	31.439278
2753.000000	31.430401
2752.000000	31.418445
2751.000000	31.401510
2750.000000	31.378230
2749.000000	31.347996
2748.000000	31.310310
2747.000000	31.264468
2746.000000	31.210731
2745.000000	31.151199
2744.000000	31.088183
2743.000000	31.022319
2742.000000	30.953169
2741.000000	30.881363
2740.000000	30.809379
2739.000000	30.740513
2738.000000	30.678108
2737.000000	30.625859
2736.000000	30.587666
2735.000000	30.566815
2734.000000	30.566079
2733.000000	30.587483
2732.000000	30.631604
2731.000000	30.697331
2730.000000	30.782354
2729.000000	30.884442
2728.000000	31.001016
2727.000000	31.128369
2726.000000	31.262725
2725.000000	31.401477
2724.000000	31.543565
2723.000000	31.688450
2722.000000	31.835083
2721.000000	31.981850
2720.000000	32.126616
2719.000000	32.266916
2718.000000	32.400587
2717.000000	32.526233
2716.000000	32.642913
2715.000000	32.749955
2714.000000	32.847131
2713.000000	32.934932
2712.000000	33.014363
2711.000000	33.086189
2710.000000	33.151139
2709.000000	33.210029
2708.000000	33.263222
2707.000000	33.310387
2706.000000	33.350840
2705.000000	33.384453
2704.000000	33.411550
2703.000000	33.432306
2702.000000	33.447210
2701.000000	33.457564
2700.000000	33.465191
2699.000000	33.471513
2698.000000	33.477321
2697.000000	33.483259
2696.000000	33.489463
2695.000000	33.494981
2694.000000	33.498270
2693.000000	33.498394
2692.000000	33.495365
2691.000000	33.489442
2690.000000	33.480932
2689.000000	33.470699
2688.000000	33.460058
2687.000000	33.450023
2686.000000	33.441086
2685.000000	33.433681
2684.000000	33.428196
2683.000000	33.424357
2682.000000	33.421113
2681.000000	33.417293
2680.000000	33.412075
2679.000000	33.405072
2678.000000	33.396700
2677.000000	33.388494
2676.000000	33.382612
2675.000000	33.380815
2674.000000	33.384162
2673.000000	33.393519
2672.000000	33.409499
2671.000000	33.431947
2670.000000	33.459863
2669.000000	33.491775
2668.000000	33.526164
2667.000000	33.561481
2666.000000	33.596375
2665.000000	33.629969
2664.000000	33.661643
2663.000000	33.690864
2662.000000	33.717535
2661.000000	33.742210
2660.000000	33.765446
2659.000000	33.787094
2658.000000	33.806568
2657.000000	33.823663
2656.000000	33.838593
2655.000000	33.851399
2654.000000	33.862171
2653.000000	33.871827
2652.000000	33.882173
2651.000000	33.895247
2650.000000	33.913062
2649.000000	33.937775
2648.000000	33.971587
2647.000000	34.016061
2646.000000	34.071664
2645.000000	34.138136
2644.000000	34.214339
2643.000000	34.298457
2642.000000	34.388586
2641.000000	34.483129
2640.000000	34.580850
2639.000000	34.680263
2638.000000	34.779913
2637.000000	34.878986
2636.000000	34.977046
2635.000000	35.073156
2634.000000	35.165706
2633.000000	35.253169
2632.000000	35.334607
2631.000000	35.409481
2630.000000	35.477267
2629.000000	35.537962
2628.000000	35.592339
2627.000000	35.641394
2626.000000	35.686075
2625.000000	35.727150
2624.000000	35.765235
2623.000000	35.800378
2622.000000	35.832030
2621.000000	35.860043
2620.000000	35.884851
2619.000000	35.906486
2618.000000	35.923641
2617.000000	35.934152
2616.000000	35.936727
2615.000000	35.931520
2614.000000	35.919569
2613.000000	35.902031
2612.000000	35.879642
2611.000000	35.852932
2610.000000	35.822533
2609.000000	35.789588
2608.000000	35.755893
2607.000000	35.723518
2606.000000	35.694610
2605.000000	35.671443
2604.000000	35.656292
2603.000000	35.651007
2602.000000	35.657186
2601.000000	35.676007
2600.000000	35.707976
2599.000000	35.752689
2598.000000	35.808742
2597.000000	35.874649
2596.000000	35.948732
2595.000000	36.028982
2594.000000	36.113574
2593.000000	36.201247
2592.000000	36.291549
2591.000000	36.384036
2590.000000	36.477923
2589.000000	36.572643
2588.000000	36.668107
2587.000000	36.764454
2586.000000	36.861698
2585.000000	36.959982
2584.000000	37.059907
2583.000000	37.162097
2582.000000	37.266721
2581.000000	37.373537
2580.000000	37.482175
2579.000000	37.592145
2578.000000	37.702692
2577.000000	37.813097
2576.000000	37.922909
2575.000000	38.031596
2574.000000	38.138151
2573.000000	38.241440
2572.000000	38.340640
2571.000000	38.435141
2570.000000	38.524295
2569.000000	38.607393
2568.000000	38.684055
2567.000000	38.753821
2566.000000	38.815772
2565.000000	38.869141
2564.000000	38.913356
2563.000000	38.947741
2562.000000	38.970879
2561.000000	38.981116
2560.000000	38.977879
2559.000000	38.961313
2558.000000	38.932207
2557.000000	38.892425
2556.000000	38.845726
2555.000000	38.798020
2554.000000	38.756654
2553.000000	38.729724
2552.000000	38.724790
2551.000000	38.747142
2550.000000	38.798055
2549.000000	38.875701
2548.000000	38.976038
2547.000000	39.093395
2546.000000	39.221519
2545.000000	39.354319
2544.000000	39.487532
2543.000000	39.618520
2542.000000	39.745424
2541.000000	39.867203
2540.000000	39.983700
2539.000000	40.094942
2538.000000	40.200394
2537.000000	40.299585
2536.000000	40.392950
2535.000000	40.481640
2534.000000	40.566269
2533.000000	40.646843
2532.000000	40.723640
2531.000000	40.796978
2530.000000	40.866806
2529.000000	40.932985
2528.000000	40.996032
2527.000000	41.056853
2526.000000	41.115713
2525.000000	41.172598
2524.000000	41.227985
2523.000000	41.282446
2522.000000	41.335836
2521.000000	41.387679
2520.000000	41.438229
2519.000000	41.488039
2518.000000	41.536779
2517.000000	41.583582
2516.000000	41.628241
2515.000000	41.671223
2514.000000	41.712787
2513.000000	41.753147
2512.000000	41.793281
2511.000000	41.834262
2510.000000	41.876014
2509.000000	41.917610
2508.000000	41.958525
2507.000000	41.998598
2506.000000	42.037108
2505.000000	42.073219
2504.000000	42.107139
2503.000000	42.139679
2502.000000	42.171092
2501.000000	42.201419
2500.000000	42.231637
2499.000000	42.262986
2498.000000	42.295263
2497.000000	42.327239
2496.000000	42.358486
2495.000000	42.389430
2494.000000	42.419723
2493.000000	42.448009
2492.000000	42.473552
2491.000000	42.496814
2490.000000	42.518540
2489.000000	42.539519
2488.000000	42.561166
2487.000000	42.584897
2486.000000	42.610659
2485.000000	42.637095
2484.000000	42.663207
2483.000000	42.688642
2482.000000	42.712568
2481.000000	42.733661
2480.000000	42.751470
2479.000000	42.766787
2478.000000	42.780579
2477.000000	42.793732
2476.000000	42.807687
2475.000000	42.824026
2474.000000	42.843182
2473.000000	42.864359
2472.000000	42.886549
2471.000000	42.908659
2470.000000	42.928994
2469.000000	42.946016
2468.000000	42.959701
2467.000000	42.971208
2466.000000	42.981509
2465.000000	42.991415
2464.000000	43.002539
2463.000000	43.016671
2462.000000	43.034196
2461.000000	43.054176
2460.000000	43.075715
2459.000000	43.097911
2458.000000	43.118858
2457.000000	43.136351
2456.000000	43.149805
2455.000000	43.160354
2454.000000	43.169268
2453.000000	43.177583
2452.000000	43.187035
2451.000000	43.199707
2450.000000	43.216475
2449.000000	43.236781
2448.000000	43.259698
2447.000000	43.283966
2446.000000	43.307233
2445.000000	43.326930
2444.000000	43.342176
2443.000000	43.353881
2442.000000	43.363251
2441.000000	43.371522
2440.000000	43.380884
2439.000000	43.393978
2438.000000	43.412125
2437.000000	43.434951
2436.000000	43.461357
2435.000000	43.489601
2434.000000	43.516694
2433.000000	43.539501
2432.000000	43.556872
2431.000000	43.569807
2430.000000	43.579839
2429.000000	43.588611
2428.000000	43.598642
2427.000000	43.612767
2426.000000	43.632395
2425.000000	43.657149
2424.000000	43.685862
2423.000000	43.716687
2422.000000	43.746638
2421.000000	43.772640
2420.000000	43.793373
2419.000000	43.809262
2418.000000	43.821288
2417.000000	43.831176
2416.000000	43.842231
2415.000000	43.858081
2414.000000	43.880335
2413.000000	43.908357
2412.000000	43.940835
2411.000000	43.975980
2410.000000	44.010738
2409.000000	44.041708
2408.000000	44.067203
2407.000000	44.087492
2406.000000	44.103553
2405.000000	44.117152
2404.000000	44.131642
2403.000000	44.150747
2402.000000	44.176303
2401.000000	44.208105
2400.000000	44.245246
2399.000000	44.286045
2398.000000	44.327118
2397.000000	44.364610
2396.000000	44.396583
2395.000000	44.423256
2394.000000	44.445566
2393.000000	44.465245
2392.000000	44.485724
2391.000000	44.510965
2390.000000	44.543095
2389.000000	44.582114
2388.000000	44.627371
2387.000000	44.677347
2386.000000	44.728639
2385.000000	44.777385
2384.000000	44.821288
2383.000000	44.860234
2382.000000	44.894993
2381.000000	44.927882
2380.000000	44.964118
2379.000000	45.009249
2378.000000	45.066110
2377.000000	45.134555
2376.000000	45.213516
2375.000000	45.300087
2374.000000	45.388327
2373.000000	45.471034
2372.000000	45.544343
2371.000000	45.608169
2370.000000	45.662839
2369.000000	45.709395
2368.000000	45.752491
2367.000000	45.798369
2366.000000	45.850092
2365.000000	45.907832
2364.000000	45.975040
2363.000000	46.051160
2362.000000	46.129388
2361.000000	46.205845
2360.000000	46.277303
2359.000000	46.344344
2358.000000	46.406848
2357.000000	46.461586
2356.000000	46.514672
2355.000000	46.567584
2354.000000	46.623625
2353.000000	46.683586
2352.000000	46.752908
2351.000000	46.834800
2350.000000	46.913505
2349.000000	46.976583
2348.000000	47.025320
2347.000000	47.078436
2346.000000	47.152826
2345.000000	47.235788
2344.000000	47.312608
2343.000000	47.370130
2342.000000	47.420277
2341.000000	47.475010
2340.000000	47.537287
2339.000000	47.608047
2338.000000	47.682069
2337.000000	47.757572
2336.000000	47.828159
2335.000000	47.895323
2334.000000	47.954557
2333.000000	48.010146
2332.000000	48.059933
2331.000000	48.117895
2330.000000	48.179040
2329.000000	48.250910
2328.000000	48.325683
2327.000000	48.405479
2326.000000	48.486148
2325.000000	48.563113
2324.000000	48.637130
2323.000000	48.705857
2322.000000	48.768690
2321.000000	48.823602
2320.000000	48.871580
2319.000000	48.921399
2318.000000	48.973548
2317.000000	49.033098
2316.000000	49.095272
2315.000000	49.166389
2314.000000	49.239370
2313.000000	49.314588
2312.000000	49.382654
2311.000000	49.446919
2310.000000	49.502607
2309.000000	49.553452
2308.000000	49.598982
2307.000000	49.647711
2306.000000	49.701011
2305.000000	49.761761
2304.000000	49.827289
2303.000000	49.899286
2302.000000	49.972619
2301.000000	50.044734
2300.000000	50.110101
2299.000000	50.170375
2298.000000	50.223291
2297.000000	50.270403
2296.000000	50.312731
2295.000000	50.356430
2294.000000	50.404045
2293.000000	50.456459
2292.000000	50.513287
2291.000000	50.574546
2290.000000	50.637620
2289.000000	50.697395
2288.000000	50.751152
2287.000000	50.798964
2286.000000	50.841945
2285.000000	50.880153
2284.000000	50.916306
2283.000000	50.954532
2282.000000	50.997752
2281.000000	51.045866
2280.000000	51.098777
2279.000000	51.156214
2278.000000	51.215100
2277.000000	51.270359
2276.000000	51.318932
2275.000000	51.361604
2274.000000	51.399240
2273.000000	51.432550
2272.000000	51.464231
2271.000000	51.498966
2270.000000	51.539136
2269.000000	51.583981
2268.000000	51.632552
2267.000000	51.684266
2266.000000	51.735702
2265.000000	51.781311
2264.000000	51.817957
2263.000000	51.846517
2262.000000	51.868870
2261.000000	51.886385
2260.000000	51.902676
2259.000000	51.922397
2258.000000	51.947508
2257.000000	51.976129
2256.000000	52.006016
2255.000000	52.035340
2254.000000	52.059655
2253.000000	52.073008
2252.000000	52.072078
2251.000000	52.058093
2250.000000	52.032991
2249.000000	51.998549
2248.000000	51.958846
2247.000000	51.918603
2246.000000	51.879686
2245.000000	51.840358
2244.000000	51.798500
2243.000000	51.751904
2242.000000	51.695654
2241.000000	51.623832
2240.000000	51.534846
2239.000000	51.432589
2238.000000	51.322632
2237.000000	51.210995
2236.000000	51.106382
2235.000000	51.018669
2234.000000	50.953812
2233.000000	50.912186
2232.000000	50.891801
2231.000000	50.888948
2230.000000	50.895920
2229.000000	50.902541
2228.000000	50.901991
2227.000000	50.893191
2226.000000	50.877575
2225.000000	50.857630
2224.000000	50.838497
2223.000000	50.826708
2222.000000	50.825518
2221.000000	50.833778
2220.000000	50.849269
2219.000000	50.869445
2218.000000	50.888730
2217.000000	50.899441
2216.000000	50.897169
2215.000000	50.882840
2214.000000	50.859557
2213.000000	50.831190
2212.000000	50.804156
2211.000000	50.786289
2210.000000	50.782011
2209.000000	50.791001
2208.000000	50.811135
2207.000000	50.839233
2206.000000	50.868656
2205.000000	50.890686
2204.000000	50.900007
2203.000000	50.896555
2202.000000	50.882341
2201.000000	50.860437
2200.000000	50.837340
2199.000000	50.821631
2198.000000	50.818459
2197.000000	50.827562
2196.000000	50.846550
2195.000000	50.872191
2194.000000	50.898073
2193.000000	50.915366
2192.000000	50.917949
2191.000000	50.904598
2190.000000	50.876679
2189.000000	50.837550
2188.000000	50.794642
2187.000000	50.757671
2186.000000	50.733187
2185.000000	50.722924
2184.000000	50.726758
2183.000000	50.743153
2182.000000	50.766324
2181.000000	50.787473
2180.000000	50.800520
2179.000000	50.804342
2178.000000	50.799858
2177.000000	50.789248
2176.000000	50.778576
2175.000000	50.776707
2174.000000	50.789852
2173.000000	50.819483
2172.000000	50.864979
2171.000000	50.923974
2170.000000	50.989611
2169.000000	51.051925
2168.000000	51.103850
2167.000000	51.143619
2166.000000	51.171748
2165.000000	51.190189
2164.000000	51.204917
2163.000000	51.224705
2162.000000	51.255588
2161.000000	51.299125
2160.000000	51.355381
2159.000000	51.423078
2158.000000	51.496259
2157.000000	51.565639
2156.000000	51.624850
2155.000000	51.672411
2154.000000	51.708024
2153.000000	51.732034
2152.000000	51.749310
2151.000000	51.768662
2150.000000	51.796669
2149.000000	51.835023
2148.000000	51.883870
2147.000000	51.942737
2146.000000	52.007132
2145.000000	52.068995
2144.000000	52.122651
2143.000000	52.166802
2142.000000	52.201152
2141.000000	52.226104
2140.000000	52.246802
2139.000000	52.272251
2138.000000	52.308630
2137.000000	52.356826
2136.000000	52.416357
2135.000000	52.486481
2134.000000	52.562395
2133.000000	52.635543
2132.000000	52.699553
2131.000000	52.752637
2130.000000	52.794048
2129.000000	52.823678
2128.000000	52.846132
2127.000000	52.870188
2126.000000	52.902262
2125.000000	52.943803
2124.000000	52.994995
2123.000000	53.055535
2122.000000	53.120699
2121.000000	53.182072
2120.000000	53.234324
2119.000000	53.277598
2118.000000	53.313078
2117.000000	53.341451
2116.000000	53.366741
2115.000000	53.396171
2114.000000	53.434426
2113.000000	53.481751
2112.000000	53.537853
2111.000000	53.602332
2110.000000	53.670213
2109.000000	53.732507
2108.000000	53.783016
2107.000000	53.820790
2106.000000	53.846082
2105.000000	53.859436
2104.000000	53.865427
2103.000000	53.871960
2102.000000	53.883565
2101.000000	53.900026
2100.000000	53.920858
2099.000000	53.945655
2098.000000	53.969728
2097.000000	53.984055
2096.000000	53.982053
2095.000000	53.963062
2094.000000	53.929592
2093.000000	53.886447
2092.000000	53.842682
2091.000000	53.808509
2090.000000	53.788802
2089.000000	53.783162
2088.000000	53.791504
2087.000000	53.814387
2086.000000	53.847618
2085.000000	53.882751
2084.000000	53.914237
2083.000000	53.941917
2082.000000	53.966429
2081.000000	53.988498
2080.000000	54.012839
2079.000000	54.047194
2078.000000	54.096350
2077.000000	54.160096
2076.000000	54.237842
2075.000000	54.328312
2074.000000	54.424706
2073.000000	54.517194
2072.000000	54.599739
2071.000000	54.670422
2070.000000	54.727346
2069.000000	54.772517
2068.000000	54.818659
2067.000000	54.882531
2066.000000	54.969690
2065.000000	55.073107
2064.000000	55.186197
2063.000000	55.307911
2062.000000	55.434405
2061.000000	55.555485
2060.000000	55.663125
2059.000000	55.756634
2058.000000	55.837519
2057.000000	55.906814
2056.000000	55.970545
2055.000000	56.039727
2054.000000	56.120991
2053.000000	56.213838
2052.000000	56.317050
2051.000000	56.429587
2050.000000	56.544844
2049.000000	56.652029
2048.000000	56.744073
2047.000000	56.819554
2046.000000	56.878629
2045.000000	56.925161
2044.000000	56.972020
2043.000000	57.034703
2042.000000	57.118325
2041.000000	57.217723
2040.000000	57.329145
2039.000000	57.452745
2038.000000	57.583609
2037.000000	57.710135
2036.000000	57.824001
2035.000000	57.924704
2034.000000	58.013171
2033.000000	58.089527
2032.000000	58.160157
2031.000000	58.237073
2030.000000	58.328199
2029.000000	58.433983
2028.000000	58.553613
2027.000000	58.686639
2026.000000	58.825594
2025.000000	58.958106
2024.000000	59.074744
2023.000000	59.170213
2022.000000	59.240458
2021.000000	59.289278
2020.000000	59.336546
2019.000000	59.406730
2018.000000	59.507021
2017.000000	59.626799
2016.000000	59.756964
2015.000000	59.896429
2014.000000	60.040912
2013.000000	60.179155
2012.000000	60.303668
2011.000000	60.415438
2010.000000	60.516217
2009.000000	60.605270
2008.000000	60.687521
2007.000000	60.775551
2006.000000	60.877032
2005.000000	60.992076
2004.000000	61.119762
2003.000000	61.261273
2002.000000	61.411953
2001.000000	61.558567
2000.000000	61.693680
1999.000000	61.815088
1998.000000	61.912666
1997.000000	61.973661
1996.000000	62.007443
1995.000000	62.048384
1994.000000	62.124085
1993.000000	62.230051
1992.000000	62.349026
1991.000000	62.477715
1990.000000	62.617972
1989.000000	62.759775
1988.000000	62.886700
1987.000000	62.990258
1986.000000	63.069964
1985.000000	63.128473
1984.000000	63.173262
1983.000000	63.217970
1982.000000	63.272929
1981.000000	63.338166
1980.000000	63.414423
1979.000000	63.504966
1978.000000	63.605096
1977.000000	63.699931
1976.000000	63.779894
1975.000000	63.846259
1974.000000	63.897571
1973.000000	63.923453
1972.000000	63.920175
1971.000000	63.903631
1970.000000	63.902065
1969.000000	63.938921
1968.000000	64.018715
1967.000000	64.125763
1966.000000	64.234915
1965.000000	64.326885
1964.000000	64.398979
1963.000000	64.458012
1962.000000	64.503323
1961.000000	64.528375
1960.000000	64.536668
1959.000000	64.543319
1958.000000	64.561590
1957.000000	64.596129
1956.000000	64.649660
1955.000000	64.722045
1954.000000	64.802719
1953.000000	64.876527
1952.000000	64.931453
1951.000000	64.963966
1950.000000	64.975726
1949.000000	64.969557
1948.000000	64.950068
1947.000000	64.923175
1946.000000	64.899845
1945.000000	64.904308
1944.000000	64.958460
1943.000000	65.051654
1942.000000	65.149501
1941.000000	65.228274
1940.000000	65.287070
1939.000000	65.332323
1938.000000	65.359151
1937.000000	65.360536
1936.000000	65.348476
1935.000000	65.344199
1934.000000	65.355302
1933.000000	65.379134
1932.000000	65.412341
1931.000000	65.459005
1930.000000	65.515430
1929.000000	65.559665
1928.000000	65.568839
1927.000000	65.533806
1926.000000	65.480090
1925.000000	65.453258
1924.000000	65.475847
1923.000000	65.529504
1922.000000	65.583662
1921.000000	65.624208
1920.000000	65.661931
1919.000000	65.701339
1918.000000	65.729879
1917.000000	65.746093
1916.000000	65.761834
1915.000000	65.774279
1914.000000	65.761977
1913.000000	65.717573
1912.000000	65.668594
1911.000000	65.655077
1910.000000	65.683664
1909.000000	65.730356
1908.000000	65.782050
1907.000000	65.836843
1906.000000	65.893510
1905.000000	65.941814
1904.000000	65.974095
1903.000000	65.995015
1902.000000	66.005234
1901.000000	65.993379
1900.000000	65.956670
1899.000000	65.906853
1898.000000	65.868849
1897.000000	65.865592
1896.000000	65.898349
1895.000000	65.942147
1894.000000	65.963392
1893.000000	65.948880
1892.000000	65.926016
1891.000000	65.925381
1890.000000	65.929091
1889.000000	65.906525
1888.000000	65.867408
1887.000000	65.842684
1886.000000	65.842851
1885.000000	65.853364
1884.000000	65.861558
1883.000000	65.872988
1882.000000	65.889980
1881.000000	65.900258
1880.000000	65.899339
1879.000000	65.892866
1878.000000	65.880168
1877.000000	65.857509
1876.000000	65.831000
1875.000000	65.811110
1874.000000	65.789638
1873.000000	65.734279
1872.000000	65.630260
1871.000000	65.524238
1870.000000	65.476222
1869.000000	65.484985
1868.000000	65.523188
1867.000000	65.575460
1866.000000	65.618204
1865.000000	65.625975
1864.000000	65.600110
1863.000000	65.565255
1862.000000	65.538764
1861.000000	65.521458
1860.000000	65.514180
1859.000000	65.520304
1858.000000	65.529038
1857.000000	65.520227
1856.000000	65.488551
1855.000000	65.445638
1854.000000	65.395297
1853.000000	65.317773
1852.000000	65.215812
1851.000000	65.123014
1850.000000	65.075920
1849.000000	65.083357
1848.000000	65.126011
1847.000000	65.172875
1846.000000	65.189144
1845.000000	65.130746
1844.000000	64.998076
1843.000000	64.866895
1842.000000	64.777453
1841.000000	64.703805
1840.000000	64.627527
1839.000000	64.561415
1838.000000	64.522268
1837.000000	64.502580
1836.000000	64.486573
1835.000000	64.461449
1834.000000	64.394859
1833.000000	64.258545
1832.000000	64.108920
1831.000000	64.010555
1830.000000	63.933356
1829.000000	63.839553
1828.000000	63.743737
1827.000000	63.677387
1826.000000	63.636706
1825.000000	63.589952
1824.000000	63.542539
1823.000000	63.519978
1822.000000	63.506119
1821.000000	63.460832
1820.000000	63.374989
1819.000000	63.266946
1818.000000	63.147210
1817.000000	63.003997
1816.000000	62.834056
1815.000000	62.658421
1814.000000	62.497065
1813.000000	62.373668
1812.000000	62.301941
1811.000000	62.268727
1810.000000	62.248434
1809.000000	62.218623
1808.000000	62.170456
1807.000000	62.102219
1806.000000	62.005223
1805.000000	61.868536
1804.000000	61.704287
1803.000000	61.557551
1802.000000	61.448323
1801.000000	61.362543
1800.000000	61.286551
1799.000000	61.234380
1798.000000	61.222667
1797.000000	61.238819
1796.000000	61.241157
1795.000000	61.195619
1794.000000	61.101577
1793.000000	60.973050
1792.000000	60.825589
1791.000000	60.713834
1790.000000	60.667080
1789.000000	60.654382
1788.000000	60.633391
1787.000000	60.582775
1786.000000	60.487227
1785.000000	60.330761
1784.000000	60.129360
1783.000000	59.948748
1782.000000	59.816456
1781.000000	59.698740
1780.000000	59.557872
1779.000000	59.412670
1778.000000	59.294486
1777.000000	59.193620
1776.000000	59.077838
1775.000000	58.942029
1774.000000	58.823859
1773.000000	58.713755
1772.000000	58.580017
1771.000000	58.457584
1770.000000	58.359500
1769.000000	58.244324
1768.000000	58.090207
1767.000000	57.941950
1766.000000	57.831425
1765.000000	57.734146
1764.000000	57.626093
1763.000000	57.507385
1762.000000	57.360239
1761.000000	57.198957
1760.000000	57.054037
1759.000000	56.949089
1758.000000	56.860693
1757.000000	56.733332
1756.000000	56.582251
1755.000000	56.453068
1754.000000	56.311208
1753.000000	56.075982
1752.000000	55.745868
1751.000000	55.416888
1750.000000	55.189219
1749.000000	55.048256
1748.000000	54.925213
1747.000000	54.798350
1746.000000	54.675010
1745.000000	54.565904
1744.000000	54.470112
1743.000000	54.371890
1742.000000	54.244083
1741.000000	54.078000
1740.000000	53.897928
1739.000000	53.775058
1738.000000	53.720715
1737.000000	53.620458
1736.000000	53.386625
1735.000000	52.998403
1734.000000	52.472190
1733.000000	51.995464
1732.000000	51.696339
1731.000000	51.547349
1730.000000	51.437298
1729.000000	51.269050
1728.000000	51.035686
1727.000000	50.779749
1726.000000	50.512158
1725.000000	50.229054
1724.000000	49.943991
1723.000000	49.686391
1722.000000	49.433590
1721.000000	49.099795
1720.000000	48.675753
1719.000000	48.255211
1718.000000	47.855408
1717.000000	47.466747
1716.000000	47.125708
1715.000000	46.832974
1714.000000	46.550966
1713.000000	46.249134
1712.000000	45.927331
1711.000000	45.598300
1710.000000	45.248323
1709.000000	44.848528
1708.000000	44.426873
1707.000000	44.057179
1706.000000	43.771569
1705.000000	43.584061
1704.000000	43.499680
1703.000000	43.399890
1702.000000	43.089656
1701.000000	42.461532
1700.000000	41.675433
1699.000000	41.085288
1698.000000	40.790875
1697.000000	40.578828
1696.000000	40.188582
1695.000000	39.682742
1694.000000	39.238903
1693.000000	38.872763
1692.000000	38.524721
1691.000000	38.173416
1690.000000	37.834842
1689.000000	37.522057
1688.000000	37.224201
1687.000000	36.878180
1686.000000	36.503197
1685.000000	36.073525
1684.000000	35.494176
1683.000000	34.972578
1682.000000	34.640300
1681.000000	34.430024
1680.000000	34.255825
1679.000000	34.081613
1678.000000	33.870820
1677.000000	33.562382
1676.000000	33.118155
1675.000000	32.606512
1674.000000	32.149652
1673.000000	31.781871
1672.000000	31.469736
1671.000000	31.187969
1670.000000	30.889725
1669.000000	30.552353
1668.000000	30.229942
1667.000000	29.964035
1666.000000	29.719557
1665.000000	29.441545
1664.000000	29.112018
1663.000000	28.748426
1662.000000	28.385833
1661.000000	28.050139
1660.000000	27.753513
1659.000000	27.515019
1658.000000	27.341402
1657.000000	27.189188
1656.000000	26.984225
1655.000000	26.775239
1654.000000	26.477308
1653.000000	25.911640
1652.000000	25.358101
1651.000000	24.986254
1650.000000	24.728873
1649.000000	24.527436
1648.000000	24.355929
1647.000000	24.132752
1646.000000	23.855240
1645.000000	23.586892
1644.000000	23.350783
1643.000000	23.143838
1642.000000	22.943110
1641.000000	22.721727
1640.000000	22.483118
1639.000000	22.252097
1638.000000	22.058005
1637.000000	21.882152
1636.000000	21.633880
1635.000000	21.336287
1634.000000	21.093359
1633.000000	20.915547
1632.000000	20.761178
1631.000000	20.603733
1630.000000	20.438867
1629.000000	20.264979
1628.000000	20.082142
1627.000000	19.905191
1626.000000	19.740158
1625.000000	19.582620
1624.000000	19.430272
1623.000000	19.293013
1622.000000	19.190568
1621.000000	19.117735
1620.000000	19.053061
1619.000000	18.990067
1618.000000	18.929884
1617.000000	18.839763
1616.000000	18.716951
1615.000000	18.612473
1614.000000	18.546812
1613.000000	18.496771
1612.000000	18.444154
1611.000000	18.402304
1610.000000	18.388420
1609.000000	18.393959
1608.000000	18.400210
1607.000000	18.405960
1606.000000	18.412738
1605.000000	18.412623
1604.000000	18.405986
1603.000000	18.406716
1602.000000	18.421395
1601.000000	18.438799
1600.000000	18.451749
1599.000000	18.469873
1598.000000	18.501543
1597.000000	18.542357
1596.000000	18.586597
1595.000000	18.635796
1594.000000	18.686862
1593.000000	18.727619
1592.000000	18.753974
1591.000000	18.778303
1590.000000	18.810024
1589.000000	18.843510
1588.000000	18.874256
1587.000000	18.910181
1586.000000	18.958281
1585.000000	19.007300
1584.000000	19.046192
1583.000000	19.077855
1582.000000	19.106227
1581.000000	19.122492
1580.000000	19.118801
1579.000000	19.103962
1578.000000	19.104000
1577.000000	19.114458
1576.000000	19.100797
1575.000000	19.086832
1574.000000	19.101674
1573.000000	19.125135
1572.000000	19.131975
1571.000000	19.135537
1570.000000	19.142108
1569.000000	19.132307
1568.000000	19.110227
1567.000000	19.100238
1566.000000	19.125257
1565.000000	19.190944
1564.000000	19.300822
1563.000000	19.438490
1562.000000	19.516265
1561.000000	19.505247
1560.000000	19.602849
1559.000000	19.731337
1558.000000	19.826599
1557.000000	19.926592
1556.000000	20.041392
1555.000000	20.172880
1554.000000	20.306408
1553.000000	20.434183
1552.000000	20.576811
1551.000000	20.768733
1550.000000	21.013712
1549.000000	21.269753
1548.000000	21.490419
1547.000000	21.668454
1546.000000	21.844006
1545.000000	22.044481
1544.000000	22.241123
1543.000000	22.396205
1542.000000	22.584915
1541.000000	22.908727
1540.000000	23.276259
1539.000000	23.610169
1538.000000	23.917549
1537.000000	24.195600
1536.000000	24.448927
1535.000000	24.734846
1534.000000	25.090282
1533.000000	25.466995
1532.000000	25.813220
1531.000000	26.130718
1530.000000	26.449498
1529.000000	26.795867
1528.000000	27.185359
1527.000000	27.626249
1526.000000	28.102501
1525.000000	28.569619
1524.000000	29.010166
1523.000000	29.496377
1522.000000	30.061520
1521.000000	30.605725
1520.000000	31.042933
1519.000000	31.429447
1518.000000	31.902850
1517.000000	32.494802
1516.000000	33.116832
1515.000000	33.705146
1514.000000	34.250049
1513.000000	34.762455
1512.000000	35.244917
1511.000000	35.677622
1510.000000	36.040908
1509.000000	36.458069
1508.000000	37.173917
1507.000000	37.984428
1506.000000	38.638708
1505.000000	39.158646
1504.000000	39.617727
1503.000000	40.097032
1502.000000	40.631783
1501.000000	41.188963
1500.000000	41.727765
1499.000000	42.256329
1498.000000	42.805601
1497.000000	43.352104
1496.000000	43.843031
1495.000000	44.277005
1494.000000	44.663048
1493.000000	44.973891
1492.000000	45.236134
1491.000000	45.584690
1490.000000	46.090113
1489.000000	46.680231
1488.000000	47.253694
1487.000000	47.765644
1486.000000	48.213693
1485.000000	48.576823
1484.000000	48.858923
1483.000000	49.120044
1482.000000	49.413837
1481.000000	49.727908
1480.000000	50.020167
1479.000000	50.280403
1478.000000	50.525756
1477.000000	50.761819
1476.000000	50.958070
1475.000000	51.113986
1474.000000	51.269553
1473.000000	51.371929
1472.000000	51.347802
1471.000000	51.268021
1470.000000	51.206878
1469.000000	51.141492
1468.000000	51.018893
1467.000000	50.825855
1466.000000	50.565087
1465.000000	50.189537
1464.000000	49.709508
1463.000000	49.222639
1462.000000	48.762415
1461.000000	48.261567
1460.000000	47.660420
1459.000000	46.987069
1458.000000	46.150576
1457.000000	44.931157
1456.000000	43.546568
1455.000000	42.343806
1454.000000	41.262646
1453.000000	40.066523
1452.000000	38.646216
1451.000000	37.045934
1450.000000	35.268724
1449.000000	33.232693
1448.000000	30.943482
1447.000000	28.568682
1446.000000	26.219956
1445.000000	23.861950
1444.000000	21.467467
1443.000000	19.076704
1442.000000	16.727065
1441.000000	14.463613
1440.000000	12.378444
1439.000000	10.492311
1438.000000	8.662593
1437.000000	6.789239
1436.000000	5.111081
1435.000000	3.922331
1434.000000	3.140797
1433.000000	2.538417
1432.000000	2.049394
1431.000000	1.709266
1430.000000	1.481356
1429.000000	1.294367
1428.000000	1.175052
1427.000000	1.174752
1426.000000	1.256114
1425.000000	1.370545
1424.000000	1.558986
1423.000000	1.866449
1422.000000	2.247005
1421.000000	2.673261
1420.000000	3.242858
1419.000000	4.036165
1418.000000	4.936432
1417.000000	5.819440
1416.000000	6.738312
1415.000000	7.774009
1414.000000	8.902791
1413.000000	10.082350
1412.000000	11.344145
1411.000000	12.716767
1410.000000	14.143735
1409.000000	15.566470
1408.000000	17.009459
1407.000000	18.525727
1406.000000	20.126920
1405.000000	21.788738
1404.000000	23.466527
1403.000000	25.082207
1402.000000	26.578355
1401.000000	28.002149
1400.000000	29.459133
1399.000000	30.957054
1398.000000	32.406425
1397.000000	33.801374
1396.000000	35.244818
1395.000000	36.780075
1394.000000	38.316680
1393.000000	39.764595
1392.000000	41.117371
1391.000000	42.382892
1390.000000	43.549587
1389.000000	44.637795
1388.000000	45.688049
1387.000000	46.682440
1386.000000	47.570431
1385.000000	48.350699
1384.000000	49.050883
1383.000000	49.664336
1382.000000	50.155947
1381.000000	50.494117
1380.000000	50.637801
1379.000000	50.518150
1378.000000	50.072762
1377.000000	49.278516
1376.000000	48.115458
1375.000000	46.529742
1374.000000	44.490240
1373.000000	42.101413
1372.000000	39.561471
1371.000000	37.056904
1370.000000	34.778829
1369.000000	32.960577
1368.000000	31.819264
1367.000000	31.437188
1366.000000	31.743933
1365.000000	32.622330
1364.000000	33.984557
1363.000000	35.722985
1362.000000	37.648387
1361.000000	39.560174
1360.000000	41.333746
1359.000000	42.909385
1358.000000	44.247386
1357.000000	45.309598
1356.000000	46.055235
1355.000000	46.441214
1354.000000	46.435418
1353.000000	46.030378
1352.000000	45.238177
1351.000000	44.076772
1350.000000	42.565404
1349.000000	40.727802
1348.000000	38.586797
1347.000000	36.165703
1346.000000	33.491648
1345.000000	30.602666
1344.000000	27.566436
1343.000000	24.474625
1342.000000	21.418644
1341.000000	18.487185
1340.000000	15.797124
1339.000000	13.499062
1338.000000	11.710632
1337.000000	10.442019
1336.000000	9.611680
1335.000000	9.099664
1334.000000	8.762983
1333.000000	8.454816
1332.000000	8.057907
1331.000000	7.504228
1330.000000	6.773603
1329.000000	5.887398
1328.000000	4.910917
1327.000000	3.938435
1326.000000	3.054194
1325.000000	2.307829
1324.000000	1.722549
1323.000000	1.303639
1322.000000	1.029543
1321.000000	0.857627
1320.000000	0.752709
1319.000000	0.694163
1318.000000	0.660453
1317.000000	0.628519
1316.000000	0.590885
1315.000000	0.556101
1314.000000	0.526455
1313.000000	0.494550
1312.000000	0.461416
1311.000000	0.437495
1310.000000	0.424694
1309.000000	0.415492
1308.000000	0.411575
1307.000000	0.424873
1306.000000	0.459219
1305.000000	0.509150
1304.000000	0.577766
1303.000000	0.676900
1302.000000	0.808704
1301.000000	0.964390
1300.000000	1.143770
1299.000000	1.355685
1298.000000	1.599939
1297.000000	1.867895
1296.000000	2.158839
1295.000000	2.479359
1294.000000	2.825709
1293.000000	3.185093
1292.000000	3.552741
1291.000000	3.929891
1290.000000	4.306518
1289.000000	4.662010
1288.000000	4.979932
1287.000000	5.246952
1286.000000	5.444268
1285.000000	5.558728
1284.000000	5.606079
1283.000000	5.631867
1282.000000	5.689669
1281.000000	5.825586
1280.000000	6.075323
1279.000000	6.453483
1278.000000	6.942072
1277.000000	7.505844
1276.000000	8.116789
1275.000000	8.757913
1274.000000	9.412858
1273.000000	10.066634
1272.000000	10.714849
1271.000000	11.356890
1270.000000	11.984559
1269.000000	12.588089
1268.000000	13.168868
1267.000000	13.735193
1266.000000	14.290605
1265.000000	14.835972
1264.000000	15.377799
1263.000000	15.925040
1262.000000	16.479314
1261.000000	17.036288
1260.000000	17.591826
1259.000000	18.139880
1258.000000	18.670703
1257.000000	19.178593
1256.000000	19.667883
1255.000000	20.146489
1254.000000	20.618830
1253.000000	21.089360
1252.000000	21.566123
1251.000000	22.054870
1250.000000	22.553390
1249.000000	23.054978
1248.000000	23.553523
1247.000000	24.042284
1246.000000	24.513103
1245.000000	24.961522
1244.000000	25.389455
1243.000000	25.801934
1242.000000	26.204809
1241.000000	26.606484
1240.000000	27.016417
1239.000000	27.438694
1238.000000	27.870384
1237.000000	28.305792
1236.000000	28.738179
1235.000000	29.158348
1234.000000	29.557152
1233.000000	29.931581
1232.000000	30.285212
1231.000000	30.624150
1230.000000	30.956708
1229.000000	31.294556
1228.000000	31.648898
1227.000000	32.024559
1226.000000	32.419666
1225.000000	32.828408
1224.000000	33.240417
1223.000000	33.641184
1222.000000	34.019356
1221.000000	34.372871
1220.000000	34.706144
1219.000000	35.025114
1218.000000	35.338824
1217.000000	35.660488
1216.000000	36.000652
1215.000000	36.361445
1214.000000	36.739405
1213.000000	37.128960
1212.000000	37.519213
1211.000000	37.893035
1210.000000	38.236957
1209.000000	38.549130
1208.000000	38.835387
1207.000000	39.103998
1206.000000	39.367527
1205.000000	39.642757
1204.000000	39.941233
1203.000000	40.262957
1202.000000	40.601542
1201.000000	40.948494
1200.000000	41.289598
1199.000000	41.604569
1198.000000	41.876612
1197.000000	42.099737
1196.000000	42.272467
1195.000000	42.394208
1194.000000	42.469248
1193.000000	42.504233
1192.000000	42.499298
1191.000000	42.444378
1190.000000	42.333174
1189.000000	42.174894
1188.000000	41.992504
1187.000000	41.818113
1186.000000	41.689629
1185.000000	41.641076
1184.000000	41.688665
1183.000000	41.831038
1182.000000	42.060058
1181.000000	42.370341
1180.000000	42.752907
1179.000000	43.189093
1178.000000	43.658977
1177.000000	44.144646
1176.000000	44.625087
1175.000000	45.074849
1174.000000	45.475781
1173.000000	45.824062
1172.000000	46.124535
1171.000000	46.386735
1170.000000	46.629841
1169.000000	46.880318
1168.000000	47.156530
1167.000000	47.462265
1166.000000	47.794276
1165.000000	48.145723
1164.000000	48.499730
1163.000000	48.831465
1162.000000	49.124419
1161.000000	49.377220
1160.000000	49.593699
1159.000000	49.779790
1158.000000	49.951967
1157.000000	50.135816
1156.000000	50.349178
1155.000000	50.594452
1154.000000	50.868017
1153.000000	51.163800
1152.000000	51.464941
1151.000000	51.745520
1150.000000	51.987494
1149.000000	52.188226
1148.000000	52.350100
1147.000000	52.477913
1146.000000	52.589269
1145.000000	52.711771
1144.000000	52.864066
1143.000000	53.048228
1142.000000	53.260842
1141.000000	53.497013
1140.000000	53.740531
1139.000000	53.965981
1138.000000	54.156814
1137.000000	54.311670
1136.000000	54.432797
1135.000000	54.523451
1134.000000	54.600082
1133.000000	54.690295
1132.000000	54.812747
1131.000000	54.969110
1130.000000	55.155842
1129.000000	55.368653
1128.000000	55.592573
1127.000000	55.803045
1126.000000	55.983749
1125.000000	56.132695
1124.000000	56.250801
1123.000000	56.340226
1122.000000	56.416371
1121.000000	56.505018
1120.000000	56.621713
1119.000000	56.766033
1118.000000	56.935595
1117.000000	57.129389
1116.000000	57.334258
1115.000000	57.525458
1114.000000	57.686702
1113.000000	57.817710
1112.000000	57.920527
1111.000000	57.996930
1110.000000	58.061163
1109.000000	58.137451
1108.000000	58.240118
1107.000000	58.367420
1106.000000	58.516058
1105.000000	58.683951
1104.000000	58.856847
1103.000000	59.010189
1102.000000	59.130271
1101.000000	59.220314
1100.000000	59.283765
1099.000000	59.323565
1098.000000	59.355567
1097.000000	59.406722
1096.000000	59.492653
1095.000000	59.610861
1094.000000	59.756410
1093.000000	59.926300
1092.000000	60.106045
1091.000000	60.271068
1090.000000	60.407753
1089.000000	60.519143
1088.000000	60.608886
1087.000000	60.678553
1086.000000	60.742543
1085.000000	60.825778
1084.000000	60.940562
1083.000000	61.080396
1082.000000	61.237181
1081.000000	61.406579
1080.000000	61.574492
1079.000000	61.717995
1078.000000	61.826415
1077.000000	61.905317
1076.000000	61.959978
1075.000000	61.993181
1074.000000	62.019761
1073.000000	62.062551
1072.000000	62.128588
1071.000000	62.205245
1070.000000	62.279897
1069.000000	62.343701
1068.000000	62.377436
1067.000000	62.354643
1066.000000	62.266636
1065.000000	62.129692
1064.000000	61.966749
1063.000000	61.802410
1062.000000	61.674027
1061.000000	61.624485
1060.000000	61.673883
1059.000000	61.813096
1058.000000	62.021471
1057.000000	62.276518
1056.000000	62.546177
1055.000000	62.793526
1054.000000	63.000696
1053.000000	63.171975
1052.000000	63.314499
1051.000000	63.433188
1050.000000	63.546215
1049.000000	63.680509
1048.000000	63.846277
1047.000000	64.032354
1046.000000	64.227521
1045.000000	64.426485
1044.000000	64.614377
1043.000000	64.769191
1042.000000	64.884676
1041.000000	64.973864
1040.000000	65.048854
1039.000000	65.116936
1038.000000	65.196236
1037.000000	65.312359
1036.000000	65.473338
1035.000000	65.665003
1034.000000	65.871923
1033.000000	66.084070
1032.000000	66.282302
1031.000000	66.440690
1030.000000	66.550488
1029.000000	66.624102
1028.000000	66.674856
1027.000000	66.712435
1026.000000	66.758369
1025.000000	66.841589
1024.000000	66.972312
1023.000000	67.136531
1022.000000	67.317882
1021.000000	67.505026
1020.000000	67.677149
1019.000000	67.806648
1018.000000	67.883767
1017.000000	67.921885
1016.000000	67.936331
1015.000000	67.939292
1014.000000	67.954107
1013.000000	68.010732
1012.000000	68.119699
1011.000000	68.267832
1010.000000	68.438917
1009.000000	68.620098
1008.000000	68.787591
1007.000000	68.910829
1006.000000	68.977750
1005.000000	69.000425
1004.000000	68.995254
1003.000000	68.976321
1002.000000	68.968406
1001.000000	69.002211
1000.000000	69.090562
999.000000	69.222711
998.000000	69.382587
997.000000	69.554039
996.000000	69.709749
995.000000	69.817934
994.000000	69.867525
993.000000	69.871053
992.000000	69.843983
991.000000	69.800225
990.000000	69.766071
989.000000	69.774482
988.000000	69.838742
987.000000	69.947780
986.000000	70.085817
985.000000	70.238118
984.000000	70.377472
983.000000	70.469786
982.000000	70.500518
981.000000	70.480585
980.000000	70.426235
979.000000	70.353011
978.000000	70.288237
977.000000	70.265297
976.000000	70.298538
975.000000	70.378194
974.000000	70.489835
973.000000	70.619170
972.000000	70.738396
971.000000	70.811878
970.000000	70.823280
969.000000	70.782074
968.000000	70.703609
967.000000	70.603657
966.000000	70.510916
965.000000	70.460498
964.000000	70.467765
963.000000	70.523596
962.000000	70.613395
961.000000	70.722106
960.000000	70.820647
959.000000	70.872575
958.000000	70.861273
957.000000	70.796001
956.000000	70.691834
955.000000	70.563747
954.000000	70.440333
953.000000	70.357514
952.000000	70.332065
951.000000	70.355630
950.000000	70.414693
949.000000	70.495248
948.000000	70.568798
947.000000	70.597622
946.000000	70.563017
945.000000	70.471941
944.000000	70.338162
943.000000	70.177106
942.000000	70.018436
941.000000	69.898896
940.000000	69.835456
939.000000	69.820659
938.000000	69.841797
937.000000	69.885112
936.000000	69.921072
935.000000	69.910920
934.000000	69.835075
933.000000	69.700671
932.000000	69.521483
931.000000	69.312676
930.000000	69.103465
929.000000	68.930459
928.000000	68.810676
927.000000	68.735631
926.000000	68.691296
925.000000	68.662775
924.000000	68.620451
923.000000	68.525980
922.000000	68.360051
921.000000	68.129590
920.000000	67.848453
919.000000	67.531861
918.000000	67.208907
917.000000	66.914894
916.000000	66.665783
915.000000	66.452878
914.000000	66.261291
913.000000	66.075422
912.000000	65.865647
911.000000	65.594891
910.000000	65.244695
909.000000	64.821779
908.000000	64.340561
907.000000	63.816515
906.000000	63.276927
905.000000	62.753529
904.000000	62.258346
903.000000	61.781009
902.000000	61.305969
901.000000	60.817008
900.000000	60.286214
899.000000	59.680290
898.000000	58.984819
897.000000	58.207405
896.000000	57.361417
895.000000	56.461601
894.000000	55.531518
893.000000	54.597486
892.000000	53.667492
891.000000	52.729577
890.000000	51.767588
889.000000	50.764686
888.000000	49.697829
887.000000	48.543511
886.000000	47.294908
885.000000	45.963908
884.000000	44.565938
883.000000	43.116822
882.000000	41.636360
881.000000	40.142960
880.000000	38.642958
879.000000	37.131358
878.000000	35.603049
877.000000	34.055614
876.000000	32.487459
875.000000	30.901475
874.000000	29.311227
873.000000	27.738020
872.000000	26.204907
871.000000	24.735019
870.000000	23.347670
869.000000	22.056147
868.000000	20.864780
867.000000	19.771404
866.000000	18.771183
865.000000	17.855837
864.000000	17.019299
863.000000	16.257188
862.000000	15.564766
861.000000	14.937863
860.000000	14.372622
859.000000	13.867784
858.000000	13.420032
857.000000	13.022544
856.000000	12.669801
855.000000	12.357602
854.000000	12.082489
853.000000	11.841083
852.000000	11.632915
851.000000	11.461897
850.000000	11.330398
849.000000	11.238657
848.000000	11.188953
847.000000	11.187157
846.000000	11.239910
845.000000	11.349418
844.000000	11.517278
843.000000	11.747865
842.000000	12.043973
841.000000	12.404921
840.000000	12.828686
839.000000	13.318438
838.000000	13.879984
837.000000	14.513324
836.000000	15.216373
835.000000	15.989760
834.000000	16.833147
833.000000	17.726577
832.000000	18.616274
831.000000	19.366743
830.000000	19.692003
829.000000	19.148652
828.000000	17.361131
827.000000	14.426034
826.000000	11.089567
825.000000	8.401460
824.000000	7.084913
823.000000	7.208376
822.000000	8.395233
821.000000	10.229069
820.000000	12.411378
819.000000	14.700244
818.000000	16.894930
817.000000	18.887036
816.000000	20.675697
815.000000	22.292975
814.000000	23.764314
813.000000	25.119152
812.000000	26.392112
811.000000	27.595464
810.000000	28.723257
809.000000	29.779961
808.000000	30.777530
807.000000	31.717116
806.000000	32.596657
805.000000	33.433137
804.000000	34.249861
803.000000	35.048258
802.000000	35.819648
801.000000	36.572238
800.000000	37.323437
799.000000	38.075056
798.000000	38.819351
797.000000	39.559698
796.000000	40.301148
795.000000	41.032038
794.000000	41.737483
793.000000	42.420238
792.000000	43.089532
791.000000	43.742463
790.000000	44.375918
789.000000	45.002543
788.000000	45.634611
787.000000	46.265522
786.000000	46.884242
785.000000	47.493463
784.000000	48.096619
783.000000	48.682204
782.000000	49.239231
781.000000	49.773947
780.000000	50.295262
779.000000	50.799839
778.000000	51.286376
777.000000	51.767767
776.000000	52.252114
775.000000	52.727516
774.000000	53.181533
773.000000	53.618719
772.000000	54.044998
771.000000	54.452893
770.000000	54.837507
769.000000	55.209828
768.000000	55.578054
767.000000	55.933890
766.000000	56.271990
765.000000	56.603386
764.000000	56.934923
763.000000	57.253675
762.000000	57.547627
761.000000	57.823472
760.000000	58.089749
759.000000	58.342411
758.000000	58.581957
757.000000	58.825085
756.000000	59.083504
755.000000	59.349186
754.000000	59.614267
753.000000	59.884783
752.000000	60.160741
751.000000	60.424004
750.000000	60.660779
749.000000	60.877471
748.000000	61.081887
747.000000	61.271298
746.000000	61.451924
745.000000	61.646719
744.000000	61.867651
743.000000	62.101213
742.000000	62.333809
741.000000	62.567465
740.000000	62.796359
739.000000	62.994076
738.000000	63.142501
737.000000	63.251169
736.000000	63.334691
735.000000	63.394549
734.000000	63.438252
733.000000	63.489596
732.000000	63.562158
731.000000	63.644249
730.000000	63.724032
729.000000	63.804072
728.000000	63.877947
727.000000	63.920769
726.000000	63.920692
725.000000	63.897984
724.000000	63.878481
723.000000	63.873278
722.000000	63.898653
721.000000	63.987291
720.000000	64.157225
719.000000	64.392422
718.000000	64.671204
717.000000	64.987411
716.000000	65.325797
715.000000	65.647713
714.000000	65.924299
713.000000	66.160426
712.000000	66.370559
711.000000	66.558627
710.000000	66.739417
709.000000	66.947932
708.000000	67.205674
707.000000	67.501649
706.000000	67.820156
705.000000	68.157547
704.000000	68.494937
703.000000	68.786733
702.000000	69.001166
701.000000	69.147950
700.000000	69.249625
699.000000	69.319501
698.000000	69.382612
697.000000	69.483729
696.000000	69.648408
695.000000	69.861504
694.000000	70.102728
693.000000	70.368321
692.000000	70.637197
691.000000	70.859897
690.000000	71.007292
689.000000	71.099026
688.000000	71.162500
687.000000	71.200105
686.000000	71.226181
685.000000	71.289883
684.000000	71.425144
683.000000	71.615592
682.000000	71.837368
681.000000	72.090732
680.000000	72.359022
679.000000	72.585561
678.000000	72.732436
677.000000	72.814607
676.000000	72.856243
675.000000	72.870114
674.000000	72.884858
673.000000	72.948565
672.000000	73.087212
671.000000	73.297004
670.000000	73.589402
669.000000	73.994135
668.000000	74.431697
667.000000	74.679298
666.000000	74.676059
665.000000	74.567404
664.000000	74.469729
663.000000	74.415550
662.000000	74.407054
661.000000	74.454220
660.000000	74.567387
659.000000	74.740723
658.000000	74.958976
657.000000	75.201023
656.000000	75.430642
655.000000	75.610008
654.000000	75.720897
653.000000	75.769341
652.000000	75.776025
651.000000	75.767424
650.000000	75.774453
649.000000	75.824112
648.000000	75.926273
647.000000	76.073944
646.000000	76.254652
645.000000	76.454192
644.000000	76.644831
643.000000	76.787823
642.000000	76.864437
641.000000	76.889566
640.000000	76.887885
639.000000	76.877502
638.000000	76.881136
637.000000	76.928926
636.000000	77.037269
635.000000	77.195751
634.000000	77.383031
633.000000	77.578005
632.000000	77.749992
631.000000	77.862525
630.000000	77.903032
629.000000	77.892282
628.000000	77.859255
627.000000	77.828912
626.000000	77.834173
625.000000	77.908191
624.000000	78.049211
623.000000	78.217818
622.000000	78.378212
621.000000	78.515178
620.000000	78.607363
619.000000	78.624448
618.000000	78.568425
617.000000	78.485925
616.000000	78.420583
615.000000	78.382181
614.000000	78.370927
613.000000	78.393756
612.000000	78.438033
611.000000	78.459884
610.000000	78.412700
609.000000	78.259993
608.000000	77.954840
607.000000	77.433839
606.000000	76.648560
605.000000	75.556293
604.000000	74.048633
603.000000	71.920760
602.000000	68.879995
601.000000	64.631985
600.000000	59.066534
599.000000	52.528893
598.000000	45.915462
597.000000	40.376212
596.000000	36.841062
595.000000	35.697553
594.000000	36.738500
593.000000	39.357443
592.000000	42.887460
591.000000	46.766286
590.000000	50.569308
589.000000	54.071140
588.000000	57.215662
587.000000	60.015953
586.000000	62.478092
585.000000	64.604852
584.000000	66.398075
583.000000	67.870067
582.000000	69.069197
581.000000	70.084229
580.000000	70.990871
579.000000	71.806822
578.000000	72.545903
577.000000	73.257037
576.000000	73.971983
575.000000	74.650115
574.000000	75.220223
573.000000	75.655366
572.000000	75.959297
571.000000	76.134806
570.000000	76.216034
569.000000	76.285856
568.000000	76.416532
567.000000	76.622207
566.000000	76.890974
565.000000	77.223783
564.000000	77.603072
563.000000	77.966402
562.000000	78.251431
561.000000	78.438755
560.000000	78.525506
559.000000	78.503188
558.000000	78.400998
557.000000	78.302903
556.000000	78.285412
555.000000	78.367515
554.000000	78.540041
553.000000	78.795926
552.000000	79.102229
551.000000	79.383475
550.000000	79.573050
549.000000	79.653657
548.000000	79.628927
547.000000	79.509164
546.000000	79.349634
545.000000	79.244530
544.000000	79.247809
543.000000	79.348076
542.000000	79.529619
541.000000	79.799574
540.000000	80.125633
539.000000	80.411300
538.000000	80.573385
537.000000	80.603115
536.000000	80.523478
535.000000	80.350591
534.000000	80.134306
533.000000	79.971514
532.000000	79.933716
531.000000	80.018979
530.000000	80.196342
529.000000	80.441424
528.000000	80.700009
527.000000	80.877680
526.000000	80.912787
525.000000	80.809486
524.000000	80.577827
523.000000	80.202264
522.000000	79.699279
521.000000	79.144508
520.000000	78.606513
519.000000	78.096531
518.000000	77.612106
517.000000	77.176700
516.000000	76.798773
515.000000	76.453220
514.000000	76.133918
513.000000	75.871689
512.000000	75.666197
511.000000	75.456286
510.000000	75.188202
509.000000	74.866327
508.000000	74.492959
507.000000	74.006143
506.000000	73.307990
505.000000	72.312773
504.000000	70.956717
503.000000	69.263580
502.000000	67.466886
501.000000	65.948144
500.000000	64.987048
499.000000	64.634317
498.000000	64.807718
497.000000	65.380487
496.000000	66.186814
495.000000	67.050263
494.000000	67.856982
493.000000	68.597483
492.000000	69.292647
491.000000	69.933762
490.000000	70.517852
489.000000	71.077226
488.000000	71.626014
487.000000	72.136694
486.000000	72.610559
485.000000	73.122767
484.000000	73.747512
483.000000	74.478401
482.000000	75.269691
481.000000	76.089883
480.000000	76.875996
479.000000	77.514627
478.000000	77.933007
477.000000	78.160280
476.000000	78.253345
475.000000	78.232970
474.000000	78.164200
473.000000	78.224160
472.000000	78.535954
471.000000	79.000597
470.000000	79.448599
469.000000	79.819701
468.000000	80.101638
467.000000	80.230401
466.000000	80.153633
465.000000	79.923523
464.000000	79.628270
463.000000	79.324399
462.000000	79.088246
461.000000	79.020961
460.000000	79.130899
459.000000	79.308054
458.000000	79.478870
457.000000	79.637237
456.000000	79.712317
455.000000	79.588878
454.000000	79.234960
453.000000	78.752972
452.000000	78.283376
451.000000	77.871611
450.000000	77.502378
449.000000	77.190673
448.000000	76.941688
447.000000	76.650050
446.000000	76.141892
445.000000	75.272501
444.000000	73.914110
443.000000	71.963259
442.000000	69.441902
441.000000	66.525441
440.000000	63.407801
439.000000	60.238250
438.000000	57.205353
437.000000	54.636507
436.000000	52.910130
435.000000	52.232444
434.000000	52.522947
433.000000	53.549988
432.000000	55.114340
431.000000	57.011490
430.000000	59.030873
429.000000	61.073432
428.000000	63.132846
427.000000	65.168610
426.000000	67.126693
425.000000	69.048361
424.000000	70.959509
423.000000	72.706109
422.000000	74.092430
421.000000	75.100367
420.000000	75.798640
419.000000	76.307821
418.000000	76.690724
417.000000	77.010383
416.000000	77.410619
415.000000	77.869016
414.000000	78.292575
413.000000	78.760750
412.000000	79.345502
411.000000	79.864707
410.000000	80.108545
409.000000	80.156986
408.000000	80.163694
407.000000	80.072294
406.000000	79.844213
405.000000	79.698628
404.000000	79.801117
403.000000	79.993170
402.000000	80.097720
401.000000	80.266954
400.000000	80.577705
