PE IR       SUBTECH     SPECTRUM    ASCII       PEDS        4.00        
   -1
23ms219_nitro.asc
24/09/09
16:44:13.00
24/09/09
16:44:13.00
Administrator
Sample 1145 By Administrator Date Monday, September 09 2024
400.000000
#HDR
-1
-1
#GR
cm-1
%T
1.0
0.0
4000.000000
-1.000000
3601
8
81.464653
3.823478
#DATA
4000.000000	48.810488
3999.000000	48.851048
3998.000000	48.892402
3997.000000	48.933546
3996.000000	48.973391
3995.000000	49.010594
3994.000000	49.044261
3993.000000	49.075063
3992.000000	49.105291
3991.000000	49.137519
3990.000000	49.173023
3989.000000	49.211562
3988.000000	49.252155
3987.000000	49.293477
3986.000000	49.333874
3985.000000	49.371740
3984.000000	49.406322
3983.000000	49.438010
3982.000000	49.467832
3981.000000	49.496792
3980.000000	49.525599
3979.000000	49.554848
3978.000000	49.585091
3977.000000	49.616512
3976.000000	49.648609
3975.000000	49.680534
3974.000000	49.711612
3973.000000	49.741682
3972.000000	49.771215
3971.000000	49.801230
3970.000000	49.832628
3969.000000	49.865396
3968.000000	49.898664
3967.000000	49.931023
3966.000000	49.960932
3965.000000	49.987327
3964.000000	50.010540
3963.000000	50.032534
3962.000000	50.056032
3961.000000	50.082918
3960.000000	50.113636
3959.000000	50.147840
3958.000000	50.184402
3957.000000	50.221206
3956.000000	50.256314
3955.000000	50.288645
3954.000000	50.317723
3953.000000	50.343004
3952.000000	50.364436
3951.000000	50.383549
3950.000000	50.403519
3949.000000	50.427887
3948.000000	50.457933
3947.000000	50.491015
3946.000000	50.523042
3945.000000	50.552834
3944.000000	50.582339
3943.000000	50.613924
3942.000000	50.648504
3941.000000	50.686034
3940.000000	50.726754
3939.000000	50.770410
3938.000000	50.813719
3937.000000	50.851180
3936.000000	50.879542
3935.000000	50.899532
3934.000000	50.914890
3933.000000	50.930559
3932.000000	50.951934
3931.000000	50.982823
3930.000000	51.022156
3929.000000	51.064203
3928.000000	51.101772
3927.000000	51.131491
3926.000000	51.156284
3925.000000	51.180653
3924.000000	51.205655
3923.000000	51.230847
3922.000000	51.258099
3921.000000	51.288453
3920.000000	51.318634
3919.000000	51.346156
3918.000000	51.374906
3917.000000	51.410155
3916.000000	51.450790
3915.000000	51.491383
3914.000000	51.529662
3913.000000	51.566888
3912.000000	51.603006
3911.000000	51.637060
3910.000000	51.670619
3909.000000	51.704549
3908.000000	51.737681
3907.000000	51.766334
3906.000000	51.787468
3905.000000	51.800689
3904.000000	51.809118
3903.000000	51.817428
3902.000000	51.830545
3901.000000	51.853223
3900.000000	51.887243
3899.000000	51.927639
3898.000000	51.966673
3897.000000	52.002741
3896.000000	52.038402
3895.000000	52.073845
3894.000000	52.106274
3893.000000	52.134823
3892.000000	52.165392
3891.000000	52.205150
3890.000000	52.251439
3889.000000	52.293935
3888.000000	52.329234
3887.000000	52.354053
3886.000000	52.365487
3885.000000	52.370266
3884.000000	52.375734
3883.000000	52.384285
3882.000000	52.398154
3881.000000	52.416255
3880.000000	52.440232
3879.000000	52.473953
3878.000000	52.514130
3877.000000	52.554111
3876.000000	52.587834
3875.000000	52.613463
3874.000000	52.638383
3873.000000	52.668649
3872.000000	52.702938
3871.000000	52.739469
3870.000000	52.778163
3869.000000	52.816702
3868.000000	52.850158
3867.000000	52.880209
3866.000000	52.909037
3865.000000	52.925265
3864.000000	52.926814
3863.000000	52.932728
3862.000000	52.955251
3861.000000	52.986234
3860.000000	53.018580
3859.000000	53.063015
3858.000000	53.140989
3857.000000	53.258425
3856.000000	53.389742
3855.000000	53.484765
3854.000000	53.519907
3853.000000	53.534033
3852.000000	53.552484
3851.000000	53.544211
3850.000000	53.506497
3849.000000	53.464942
3848.000000	53.431227
3847.000000	53.416118
3846.000000	53.425679
3845.000000	53.450653
3844.000000	53.479508
3843.000000	53.512311
3842.000000	53.554414
3841.000000	53.608422
3840.000000	53.672295
3839.000000	53.733893
3838.000000	53.782368
3837.000000	53.818406
3836.000000	53.846570
3835.000000	53.865671
3834.000000	53.873765
3833.000000	53.874364
3832.000000	53.876195
3831.000000	53.885809
3830.000000	53.903820
3829.000000	53.926830
3828.000000	53.951682
3827.000000	53.979364
3826.000000	54.013882
3825.000000	54.057055
3824.000000	54.107864
3823.000000	54.156799
3822.000000	54.192257
3821.000000	54.223956
3820.000000	54.268624
3819.000000	54.320558
3818.000000	54.371178
3817.000000	54.409495
3816.000000	54.422309
3815.000000	54.418322
3814.000000	54.412946
3813.000000	54.416508
3812.000000	54.432777
3811.000000	54.456748
3810.000000	54.488979
3809.000000	54.533088
3808.000000	54.581677
3807.000000	54.626991
3806.000000	54.669180
3805.000000	54.709489
3804.000000	54.750417
3803.000000	54.784416
3802.000000	54.796674
3801.000000	54.794755
3800.000000	54.796015
3799.000000	54.802957
3798.000000	54.813907
3797.000000	54.820517
3796.000000	54.818204
3795.000000	54.819245
3794.000000	54.834837
3793.000000	54.863702
3792.000000	54.894764
3791.000000	54.920531
3790.000000	54.944424
3789.000000	54.972186
3788.000000	55.002414
3787.000000	55.030260
3786.000000	55.054330
3785.000000	55.078309
3784.000000	55.105580
3783.000000	55.136360
3782.000000	55.170233
3781.000000	55.206217
3780.000000	55.241531
3779.000000	55.274791
3778.000000	55.306047
3777.000000	55.334945
3776.000000	55.363593
3775.000000	55.393019
3774.000000	55.421913
3773.000000	55.451255
3772.000000	55.484267
3771.000000	55.520067
3770.000000	55.554163
3769.000000	55.584389
3768.000000	55.611795
3767.000000	55.637568
3766.000000	55.661835
3765.000000	55.684422
3764.000000	55.707392
3763.000000	55.734082
3762.000000	55.765178
3761.000000	55.794825
3760.000000	55.816526
3759.000000	55.834865
3758.000000	55.862753
3757.000000	55.905715
3756.000000	55.962473
3755.000000	56.033649
3754.000000	56.117271
3753.000000	56.198627
3752.000000	56.259269
3751.000000	56.299251
3750.000000	56.336563
3749.000000	56.377612
3748.000000	56.413273
3747.000000	56.443574
3746.000000	56.466912
3745.000000	56.469078
3744.000000	56.463446
3743.000000	56.468847
3742.000000	56.472850
3741.000000	56.474598
3740.000000	56.474526
3739.000000	56.461408
3738.000000	56.442708
3737.000000	56.433607
3736.000000	56.445967
3735.000000	56.486842
3734.000000	56.550884
3733.000000	56.623676
3732.000000	56.688773
3731.000000	56.732422
3730.000000	56.752486
3729.000000	56.757455
3728.000000	56.754985
3727.000000	56.749842
3726.000000	56.750515
3725.000000	56.767061
3724.000000	56.802062
3723.000000	56.848798
3722.000000	56.896387
3721.000000	56.940633
3720.000000	56.982824
3719.000000	57.023267
3718.000000	57.063290
3717.000000	57.104978
3716.000000	57.151955
3715.000000	57.207612
3714.000000	57.265763
3713.000000	57.311436
3712.000000	57.341003
3711.000000	57.369091
3710.000000	57.404048
3709.000000	57.436636
3708.000000	57.459398
3707.000000	57.475612
3706.000000	57.491916
3705.000000	57.512860
3704.000000	57.538847
3703.000000	57.567926
3702.000000	57.600046
3701.000000	57.636348
3700.000000	57.673863
3699.000000	57.706707
3698.000000	57.734295
3697.000000	57.758635
3696.000000	57.781722
3695.000000	57.810392
3694.000000	57.853712
3693.000000	57.913826
3692.000000	57.984783
3691.000000	58.058076
3690.000000	58.123228
3689.000000	58.170889
3688.000000	58.198708
3687.000000	58.207955
3686.000000	58.203201
3685.000000	58.195213
3684.000000	58.190951
3683.000000	58.191767
3682.000000	58.203869
3681.000000	58.236176
3680.000000	58.291576
3679.000000	58.360368
3678.000000	58.422718
3677.000000	58.459799
3676.000000	58.473629
3675.000000	58.495566
3674.000000	58.537974
3673.000000	58.582289
3672.000000	58.617343
3671.000000	58.629558
3670.000000	58.618983
3669.000000	58.614595
3668.000000	58.628035
3667.000000	58.646878
3666.000000	58.659820
3665.000000	58.664780
3664.000000	58.670401
3663.000000	58.687415
3662.000000	58.720473
3661.000000	58.765316
3660.000000	58.811746
3659.000000	58.848681
3658.000000	58.868523
3657.000000	58.873842
3656.000000	58.878417
3655.000000	58.894195
3654.000000	58.923170
3653.000000	58.964002
3652.000000	59.002133
3651.000000	59.011596
3650.000000	58.988067
3649.000000	58.959484
3648.000000	58.951262
3647.000000	58.960725
3646.000000	58.972818
3645.000000	58.982002
3644.000000	58.992019
3643.000000	59.006355
3642.000000	59.026812
3641.000000	59.052954
3640.000000	59.081911
3639.000000	59.109056
3638.000000	59.129163
3637.000000	59.137971
3636.000000	59.136964
3635.000000	59.136303
3634.000000	59.148441
3633.000000	59.178468
3632.000000	59.219727
3631.000000	59.253085
3630.000000	59.258080
3629.000000	59.246122
3628.000000	59.249703
3627.000000	59.266723
3626.000000	59.277960
3625.000000	59.280943
3624.000000	59.277300
3623.000000	59.274721
3622.000000	59.281701
3621.000000	59.292680
3620.000000	59.295734
3619.000000	59.291649
3618.000000	59.289365
3617.000000	59.287803
3616.000000	59.281096
3615.000000	59.270579
3614.000000	59.263414
3613.000000	59.267780
3612.000000	59.286238
3611.000000	59.311856
3610.000000	59.333658
3609.000000	59.346385
3608.000000	59.355029
3607.000000	59.368035
3606.000000	59.387292
3605.000000	59.408207
3604.000000	59.425383
3603.000000	59.437429
3602.000000	59.448131
3601.000000	59.461023
3600.000000	59.473815
3599.000000	59.480622
3598.000000	59.477986
3597.000000	59.465550
3596.000000	59.448191
3595.000000	59.438294
3594.000000	59.445807
3593.000000	59.469064
3592.000000	59.496637
3591.000000	59.515219
3590.000000	59.515186
3589.000000	59.497719
3588.000000	59.480148
3587.000000	59.484896
3586.000000	59.515598
3585.000000	59.557870
3584.000000	59.598666
3583.000000	59.631855
3582.000000	59.656741
3581.000000	59.676418
3580.000000	59.693890
3579.000000	59.709789
3578.000000	59.722819
3577.000000	59.731203
3576.000000	59.734959
3575.000000	59.737946
3574.000000	59.744776
3573.000000	59.756342
3572.000000	59.768512
3571.000000	59.772738
3570.000000	59.758890
3569.000000	59.723466
3568.000000	59.679409
3567.000000	59.653396
3566.000000	59.662682
3565.000000	59.701144
3564.000000	59.752463
3563.000000	59.803680
3562.000000	59.847517
3561.000000	59.883294
3560.000000	59.914193
3559.000000	59.942171
3558.000000	59.965794
3557.000000	59.981613
3556.000000	59.987633
3555.000000	59.986244
3554.000000	59.983788
3553.000000	59.986315
3552.000000	59.995967
3551.000000	60.009919
3550.000000	60.022247
3549.000000	60.027726
3548.000000	60.025441
3547.000000	60.021088
3546.000000	60.024249
3545.000000	60.040402
3544.000000	60.067779
3543.000000	60.101420
3542.000000	60.136255
3541.000000	60.167263
3540.000000	60.190835
3539.000000	60.206684
3538.000000	60.217245
3537.000000	60.224606
3536.000000	60.229944
3535.000000	60.234999
3534.000000	60.241776
3533.000000	60.250638
3532.000000	60.259642
3531.000000	60.266534
3530.000000	60.270225
3529.000000	60.270829
3528.000000	60.269418
3527.000000	60.268083
3526.000000	60.268884
3525.000000	60.272660
3524.000000	60.279278
3523.000000	60.289076
3522.000000	60.302632
3521.000000	60.319036
3520.000000	60.335846
3519.000000	60.350469
3518.000000	60.361218
3517.000000	60.367453
3516.000000	60.369787
3515.000000	60.369355
3514.000000	60.365551
3513.000000	60.356266
3512.000000	60.341739
3511.000000	60.326775
3510.000000	60.317510
3509.000000	60.316616
3508.000000	60.321857
3507.000000	60.328871
3506.000000	60.333956
3505.000000	60.335083
3504.000000	60.333000
3503.000000	60.331419
3502.000000	60.333985
3501.000000	60.341177
3500.000000	60.350724
3499.000000	60.359278
3498.000000	60.363179
3497.000000	60.359657
3496.000000	60.348934
3495.000000	60.334573
3494.000000	60.320210
3493.000000	60.306507
3492.000000	60.292380
3491.000000	60.277476
3490.000000	60.261976
3489.000000	60.245408
3488.000000	60.226963
3487.000000	60.206165
3486.000000	60.182368
3485.000000	60.154746
3484.000000	60.124340
3483.000000	60.095093
3482.000000	60.070768
3481.000000	60.050872
3480.000000	60.030689
3479.000000	60.005226
3478.000000	59.972194
3477.000000	59.932333
3476.000000	59.888583
3475.000000	59.844584
3474.000000	59.802933
3473.000000	59.764693
3472.000000	59.730215
3471.000000	59.698643
3470.000000	59.665972
3469.000000	59.626069
3468.000000	59.575314
3467.000000	59.515157
3466.000000	59.449788
3465.000000	59.382898
3464.000000	59.317242
3463.000000	59.254715
3462.000000	59.194822
3461.000000	59.134335
3460.000000	59.070041
3459.000000	59.001480
3458.000000	58.930356
3457.000000	58.858432
3456.000000	58.786963
3455.000000	58.716372
3454.000000	58.645597
3453.000000	58.572513
3452.000000	58.495182
3451.000000	58.412509
3450.000000	58.323669
3449.000000	58.228628
3448.000000	58.129917
3447.000000	58.032429
3446.000000	57.939913
3445.000000	57.852239
3444.000000	57.766419
3443.000000	57.679178
3442.000000	57.588582
3441.000000	57.494452
3440.000000	57.397758
3439.000000	57.299099
3438.000000	57.197382
3437.000000	57.090326
3436.000000	56.976456
3435.000000	56.855883
3434.000000	56.729845
3433.000000	56.600353
3432.000000	56.468941
3431.000000	56.335001
3430.000000	56.195495
3429.000000	56.047650
3428.000000	55.892229
3427.000000	55.732997
3426.000000	55.573279
3425.000000	55.413880
3424.000000	55.253825
3423.000000	55.091565
3422.000000	54.925004
3421.000000	54.752232
3420.000000	54.573171
3419.000000	54.389565
3418.000000	54.203287
3417.000000	54.015280
3416.000000	53.825874
3415.000000	53.634468
3414.000000	53.438501
3413.000000	53.234529
3412.000000	53.020741
3411.000000	52.797675
3410.000000	52.566357
3409.000000	52.327027
3408.000000	52.080596
3407.000000	51.829841
3406.000000	51.578353
3405.000000	51.328605
3404.000000	51.080607
3403.000000	50.831045
3402.000000	50.572990
3401.000000	50.298460
3400.000000	50.003505
3399.000000	49.691148
3398.000000	49.369501
3397.000000	49.047061
3396.000000	48.728757
3395.000000	48.414516
3394.000000	48.099679
3393.000000	47.777421
3392.000000	47.441946
3391.000000	47.090398
3390.000000	46.723688
3389.000000	46.345889
3388.000000	45.962379
3387.000000	45.577109
3386.000000	45.191101
3385.000000	44.803864
3384.000000	44.414699
3383.000000	44.022117
3382.000000	43.623002
3381.000000	43.213910
3380.000000	42.793528
3379.000000	42.362979
3378.000000	41.924440
3377.000000	41.480423
3376.000000	41.033413
3375.000000	40.585217
3374.000000	40.136296
3373.000000	39.685952
3372.000000	39.232492
3371.000000	38.772573
3370.000000	38.302410
3369.000000	37.820651
3368.000000	37.329689
3367.000000	36.833835
3366.000000	36.336837
3365.000000	35.841374
3364.000000	35.348603
3363.000000	34.857017
3362.000000	34.363088
3361.000000	33.863914
3360.000000	33.358909
3359.000000	32.848990
3358.000000	32.335821
3357.000000	31.822377
3356.000000	31.312147
3355.000000	30.806803
3354.000000	30.305489
3353.000000	29.806309
3352.000000	29.307097
3351.000000	28.805080
3350.000000	28.298329
3349.000000	27.788309
3348.000000	27.279214
3347.000000	26.774320
3346.000000	26.274576
3345.000000	25.780256
3344.000000	25.291516
3343.000000	24.807164
3342.000000	24.325130
3341.000000	23.844736
3340.000000	23.366617
3339.000000	22.890656
3338.000000	22.416536
3337.000000	21.946153
3336.000000	21.482952
3335.000000	21.028389
3334.000000	20.581199
3333.000000	20.140225
3332.000000	19.705153
3331.000000	19.274839
3330.000000	18.847625
3329.000000	18.423664
3328.000000	18.005141
3327.000000	17.593812
3326.000000	17.190642
3325.000000	16.797183
3324.000000	16.414339
3323.000000	16.040441
3322.000000	15.672576
3321.000000	15.309941
3320.000000	14.953801
3319.000000	14.604567
3318.000000	14.262267
3317.000000	13.928609
3316.000000	13.605790
3315.000000	13.293774
3314.000000	12.990829
3313.000000	12.696621
3312.000000	12.411647
3311.000000	12.134614
3310.000000	11.863967
3309.000000	11.600922
3308.000000	11.348932
3307.000000	11.110318
3306.000000	10.885959
3305.000000	10.677377
3304.000000	10.484852
3303.000000	10.305088
3302.000000	10.133539
3301.000000	9.968508
3300.000000	9.810956
3299.000000	9.660953
3298.000000	9.518186
3297.000000	9.384620
3296.000000	9.262761
3295.000000	9.152518
3294.000000	9.052176
3293.000000	8.961939
3292.000000	8.883195
3291.000000	8.814542
3290.000000	8.752738
3289.000000	8.696246
3288.000000	8.645419
3287.000000	8.600052
3286.000000	8.559398
3285.000000	8.524388
3284.000000	8.496127
3283.000000	8.473250
3282.000000	8.453447
3281.000000	8.436454
3280.000000	8.423145
3279.000000	8.412478
3278.000000	8.402632
3277.000000	8.394216
3276.000000	8.389099
3275.000000	8.387034
3274.000000	8.386275
3273.000000	8.386929
3272.000000	8.390873
3271.000000	8.398781
3270.000000	8.409839
3269.000000	8.423435
3268.000000	8.438687
3267.000000	8.453510
3266.000000	8.466640
3265.000000	8.479712
3264.000000	8.494997
3263.000000	8.512134
3262.000000	8.529491
3261.000000	8.547027
3260.000000	8.565256
3259.000000	8.582975
3258.000000	8.599008
3257.000000	8.615088
3256.000000	8.633986
3255.000000	8.655868
3254.000000	8.679032
3253.000000	8.702920
3252.000000	8.727567
3251.000000	8.751362
3250.000000	8.772474
3249.000000	8.791833
3248.000000	8.812079
3247.000000	8.834349
3246.000000	8.858307
3245.000000	8.884077
3244.000000	8.911630
3243.000000	8.939319
3242.000000	8.965498
3241.000000	8.990604
3240.000000	9.015554
3239.000000	9.039395
3238.000000	9.060859
3237.000000	9.080881
3236.000000	9.101301
3235.000000	9.122426
3234.000000	9.144069
3233.000000	9.167344
3232.000000	9.192801
3231.000000	9.218290
3230.000000	9.241288
3229.000000	9.262058
3228.000000	9.282218
3227.000000	9.301720
3226.000000	9.319744
3225.000000	9.337053
3224.000000	9.354715
3223.000000	9.371802
3222.000000	9.386826
3221.000000	9.400239
3220.000000	9.413179
3219.000000	9.425069
3218.000000	9.434914
3217.000000	9.443585
3216.000000	9.452388
3215.000000	9.460687
3214.000000	9.467191
3213.000000	9.472324
3212.000000	9.476941
3211.000000	9.480127
3210.000000	9.480693
3209.000000	9.479347
3208.000000	9.477251
3207.000000	9.473837
3206.000000	9.468256
3205.000000	9.461518
3204.000000	9.454723
3203.000000	9.446790
3202.000000	9.436221
3201.000000	9.423621
3200.000000	9.410298
3199.000000	9.395846
3198.000000	9.379469
3197.000000	9.362082
3196.000000	9.344678
3195.000000	9.326290
3194.000000	9.305771
3193.000000	9.284067
3192.000000	9.262437
3191.000000	9.240018
3190.000000	9.215643
3189.000000	9.190356
3188.000000	9.165721
3187.000000	9.141219
3186.000000	9.115660
3185.000000	9.089709
3184.000000	9.064571
3183.000000	9.039644
3182.000000	9.013850
3181.000000	8.987883
3180.000000	8.962947
3179.000000	8.938719
3178.000000	8.914653
3177.000000	8.891735
3176.000000	8.870840
3175.000000	8.850938
3174.000000	8.830982
3173.000000	8.811885
3172.000000	8.794600
3171.000000	8.778173
3170.000000	8.761719
3169.000000	8.746489
3168.000000	8.733868
3167.000000	8.723119
3166.000000	8.713303
3165.000000	8.705395
3164.000000	8.700314
3163.000000	8.696819
3162.000000	8.693538
3161.000000	8.691316
3160.000000	8.691319
3159.000000	8.692806
3158.000000	8.695034
3157.000000	8.699175
3156.000000	8.706212
3155.000000	8.714882
3154.000000	8.724088
3153.000000	8.735457
3152.000000	8.750948
3151.000000	8.769897
3150.000000	8.790578
3149.000000	8.812835
3148.000000	8.837048
3147.000000	8.862343
3146.000000	8.888217
3145.000000	8.916016
3144.000000	8.946506
3143.000000	8.977985
3142.000000	9.008892
3141.000000	9.040588
3140.000000	9.075408
3139.000000	9.113721
3138.000000	9.155004
3137.000000	9.199646
3136.000000	9.247512
3135.000000	9.296628
3134.000000	9.345393
3133.000000	9.394628
3132.000000	9.445480
3131.000000	9.497380
3130.000000	9.549994
3129.000000	9.604959
3128.000000	9.663649
3127.000000	9.724987
3126.000000	9.787432
3125.000000	9.851100
3124.000000	9.915966
3123.000000	9.980397
3122.000000	10.043672
3121.000000	10.107906
3120.000000	10.175388
3119.000000	10.245908
3118.000000	10.318842
3117.000000	10.395501
3116.000000	10.476998
3115.000000	10.561710
3114.000000	10.646963
3113.000000	10.731710
3112.000000	10.815728
3111.000000	10.898405
3110.000000	10.980541
3109.000000	11.065246
3108.000000	11.154771
3107.000000	11.247941
3106.000000	11.342432
3105.000000	11.437758
3104.000000	11.534115
3103.000000	11.630590
3102.000000	11.726669
3101.000000	11.823636
3100.000000	11.922621
3099.000000	12.022917
3098.000000	12.124015
3097.000000	12.227238
3096.000000	12.333381
3095.000000	12.440748
3094.000000	12.547382
3093.000000	12.653492
3092.000000	12.759954
3091.000000	12.866398
3090.000000	12.972686
3089.000000	13.080287
3088.000000	13.190265
3087.000000	13.301658
3086.000000	13.413507
3085.000000	13.526636
3084.000000	13.641581
3083.000000	13.756699
3082.000000	13.870335
3081.000000	13.983183
3080.000000	14.096870
3079.000000	14.211864
3078.000000	14.328339
3077.000000	14.447238
3076.000000	14.568638
3075.000000	14.690693
3074.000000	14.811737
3073.000000	14.931825
3072.000000	15.050937
3071.000000	15.167760
3070.000000	15.282012
3069.000000	15.396062
3068.000000	15.512468
3067.000000	15.631476
3066.000000	15.752275
3065.000000	15.874760
3064.000000	15.998306
3063.000000	16.120705
3062.000000	16.240234
3061.000000	16.357438
3060.000000	16.473574
3059.000000	16.588981
3058.000000	16.704262
3057.000000	16.821140
3056.000000	16.940488
3055.000000	17.060976
3054.000000	17.181055
3053.000000	17.300684
3052.000000	17.419837
3051.000000	17.537262
3050.000000	17.652313
3049.000000	17.766366
3048.000000	17.881009
3047.000000	17.996256
3046.000000	18.111786
3045.000000	18.228180
3044.000000	18.345539
3043.000000	18.462505
3042.000000	18.578003
3041.000000	18.692489
3040.000000	18.806435
3039.000000	18.919281
3038.000000	19.031138
3037.000000	19.143693
3036.000000	19.258063
3035.000000	19.373350
3034.000000	19.488442
3033.000000	19.603525
3032.000000	19.718558
3031.000000	19.832085
3030.000000	19.943126
3029.000000	20.052724
3028.000000	20.162374
3027.000000	20.272447
3026.000000	20.383288
3025.000000	20.495981
3024.000000	20.610473
3023.000000	20.724494
3022.000000	20.835856
3021.000000	20.944505
3020.000000	21.051275
3019.000000	21.156279
3018.000000	21.259944
3017.000000	21.364022
3016.000000	21.470023
3015.000000	21.577843
3014.000000	21.686978
3013.000000	21.797645
3012.000000	21.909494
3011.000000	22.020703
3010.000000	22.129646
3009.000000	22.236330
3008.000000	22.341313
3007.000000	22.444760
3006.000000	22.547590
3005.000000	22.651880
3004.000000	22.758748
3003.000000	22.866919
3002.000000	22.974466
3001.000000	23.080692
3000.000000	23.185496
2999.000000	23.288476
2998.000000	23.389815
2997.000000	23.490773
2996.000000	23.592200
2995.000000	23.693795
2994.000000	23.795644
2993.000000	23.898982
2992.000000	24.004298
2991.000000	24.110058
2990.000000	24.214448
2989.000000	24.317171
2988.000000	24.418631
2987.000000	24.518751
2986.000000	24.617664
2985.000000	24.716347
2984.000000	24.815451
2983.000000	24.914563
2982.000000	25.013452
2981.000000	25.112777
2980.000000	25.212703
2979.000000	25.312119
2978.000000	25.410245
2977.000000	25.507860
2976.000000	25.606032
2975.000000	25.704870
2974.000000	25.804352
2973.000000	25.904956
2972.000000	26.006434
2971.000000	26.107170
2970.000000	26.205827
2969.000000	26.302618
2968.000000	26.398138
2967.000000	26.492316
2966.000000	26.585481
2965.000000	26.679190
2964.000000	26.774809
2963.000000	26.872139
2962.000000	26.970249
2961.000000	27.068446
2960.000000	27.165644
2959.000000	27.260244
2958.000000	27.351703
2957.000000	27.441245
2956.000000	27.530192
2955.000000	27.618907
2954.000000	27.708040
2953.000000	27.799151
2952.000000	27.892893
2951.000000	27.987713
2950.000000	28.081464
2949.000000	28.173273
2948.000000	28.263126
2947.000000	28.350970
2946.000000	28.437321
2945.000000	28.523661
2944.000000	28.611209
2943.000000	28.700014
2942.000000	28.789861
2941.000000	28.880914
2940.000000	28.972648
2939.000000	29.063330
2938.000000	29.151477
2937.000000	29.236993
2936.000000	29.320365
2935.000000	29.401964
2934.000000	29.482968
2933.000000	29.565591
2932.000000	29.651231
2931.000000	29.739136
2930.000000	29.827490
2929.000000	29.914823
2928.000000	29.999815
2927.000000	30.081311
2926.000000	30.159596
2925.000000	30.236632
2924.000000	30.314194
2923.000000	30.392755
2922.000000	30.472723
2921.000000	30.555088
2920.000000	30.639759
2919.000000	30.724494
2918.000000	30.806662
2917.000000	30.885306
2916.000000	30.960857
2915.000000	31.034068
2914.000000	31.106129
2913.000000	31.178845
2912.000000	31.253597
2911.000000	31.330532
2910.000000	31.409132
2909.000000	31.488608
2908.000000	31.567328
2907.000000	31.643076
2906.000000	31.714803
2905.000000	31.783648
2904.000000	31.851788
2903.000000	31.921006
2902.000000	31.992657
2901.000000	32.067710
2900.000000	32.145970
2899.000000	32.225609
2898.000000	32.304137
2897.000000	32.379386
2896.000000	32.449720
2895.000000	32.514823
2894.000000	32.576913
2893.000000	32.640067
2892.000000	32.707367
2891.000000	32.779124
2890.000000	32.853862
2889.000000	32.929793
2888.000000	33.004814
2887.000000	33.076485
2886.000000	33.143423
2885.000000	33.206410
2884.000000	33.267693
2883.000000	33.329758
2882.000000	33.394835
2881.000000	33.464286
2880.000000	33.537480
2879.000000	33.612030
2878.000000	33.685966
2877.000000	33.759034
2876.000000	33.831262
2875.000000	33.901216
2874.000000	33.966857
2873.000000	34.027933
2872.000000	34.086835
2871.000000	34.147161
2870.000000	34.211592
2869.000000	34.280325
2868.000000	34.350693
2867.000000	34.418696
2866.000000	34.481687
2865.000000	34.539996
2864.000000	34.596397
2863.000000	34.654468
2862.000000	34.717051
2861.000000	34.784875
2860.000000	34.855927
2859.000000	34.926768
2858.000000	34.994845
2857.000000	35.059247
2856.000000	35.119685
2855.000000	35.176183
2854.000000	35.230325
2853.000000	35.285679
2852.000000	35.345971
2851.000000	35.412898
2850.000000	35.485441
2849.000000	35.560207
2848.000000	35.632349
2847.000000	35.697726
2846.000000	35.755345
2845.000000	35.807649
2844.000000	35.858658
2843.000000	35.912441
2842.000000	35.972626
2841.000000	36.040964
2840.000000	36.115139
2839.000000	36.189246
2838.000000	36.257909
2837.000000	36.319641
2836.000000	36.375954
2835.000000	36.428642
2834.000000	36.479203
2833.000000	36.529988
2832.000000	36.584130
2831.000000	36.643945
2830.000000	36.709870
2829.000000	36.780512
2828.000000	36.853021
2827.000000	36.923831
2826.000000	36.990197
2825.000000	37.051527
2824.000000	37.109283
2823.000000	37.165963
2822.000000	37.224294
2821.000000	37.286460
2820.000000	37.353015
2819.000000	37.422417
2818.000000	37.491906
2817.000000	37.558721
2816.000000	37.620688
2815.000000	37.676836
2814.000000	37.728426
2813.000000	37.778907
2812.000000	37.831843
2811.000000	37.888626
2810.000000	37.948291
2809.000000	38.008899
2808.000000	38.068363
2807.000000	38.124429
2806.000000	38.175116
2805.000000	38.219713
2804.000000	38.259322
2803.000000	38.296664
2802.000000	38.335453
2801.000000	38.379045
2800.000000	38.428403
2799.000000	38.481117
2798.000000	38.532946
2797.000000	38.580540
2796.000000	38.622851
2795.000000	38.660777
2794.000000	38.696442
2793.000000	38.732775
2792.000000	38.772657
2791.000000	38.817668
2790.000000	38.867493
2789.000000	38.920327
2788.000000	38.973576
2787.000000	39.024533
2786.000000	39.071230
2785.000000	39.113171
2784.000000	39.151363
2783.000000	39.187820
2782.000000	39.224994
2781.000000	39.265025
2780.000000	39.308640
2779.000000	39.354535
2778.000000	39.399935
2777.000000	39.441628
2776.000000	39.476667
2775.000000	39.502954
2774.000000	39.520272
2773.000000	39.530904
2772.000000	39.538418
2771.000000	39.545538
2770.000000	39.553044
2769.000000	39.560093
2768.000000	39.564920
2767.000000	39.565228
2766.000000	39.558978
2765.000000	39.545460
2764.000000	39.525595
2763.000000	39.501456
2762.000000	39.475664
2761.000000	39.450931
2760.000000	39.429299
2759.000000	39.411280
2758.000000	39.395919
2757.000000	39.381561
2756.000000	39.366448
2755.000000	39.349057
2754.000000	39.328644
2753.000000	39.305631
2752.000000	39.280961
2751.000000	39.254988
2750.000000	39.227055
2749.000000	39.195750
2748.000000	39.159221
2747.000000	39.115431
2746.000000	39.063010
2745.000000	39.002242
2744.000000	38.934808
2743.000000	38.862933
2742.000000	38.789185
2741.000000	38.716688
2740.000000	38.648770
2739.000000	38.588124
2738.000000	38.536606
2737.000000	38.496066
2736.000000	38.468729
2735.000000	38.456676
2734.000000	38.461711
2733.000000	38.485155
2732.000000	38.527625
2731.000000	38.588907
2730.000000	38.667652
2729.000000	38.761658
2728.000000	38.867739
2727.000000	38.981889
2726.000000	39.100457
2725.000000	39.220866
2724.000000	39.341559
2723.000000	39.461330
2722.000000	39.578924
2721.000000	39.693294
2720.000000	39.803688
2719.000000	39.909324
2718.000000	40.009289
2717.000000	40.102742
2716.000000	40.188887
2715.000000	40.266990
2714.000000	40.336382
2713.000000	40.396713
2712.000000	40.448144
2711.000000	40.490883
2710.000000	40.525188
2709.000000	40.551593
2708.000000	40.571062
2707.000000	40.585032
2706.000000	40.594965
2705.000000	40.602106
2704.000000	40.607151
2703.000000	40.610034
2702.000000	40.610327
2701.000000	40.607569
2700.000000	40.601424
2699.000000	40.591843
2698.000000	40.579520
2697.000000	40.566214
2696.000000	40.553977
2695.000000	40.543974
2694.000000	40.536120
2693.000000	40.529541
2692.000000	40.522903
2691.000000	40.514467
2690.000000	40.502636
2689.000000	40.486951
2688.000000	40.468413
2687.000000	40.448920
2686.000000	40.430535
2685.000000	40.414997
2684.000000	40.403114
2683.000000	40.394244
2682.000000	40.386577
2681.000000	40.378133
2680.000000	40.367502
2679.000000	40.354142
2678.000000	40.338793
2677.000000	40.323780
2676.000000	40.312451
2675.000000	40.307728
2674.000000	40.310912
2673.000000	40.321546
2672.000000	40.337744
2671.000000	40.356888
2670.000000	40.376679
2669.000000	40.396003
2668.000000	40.415155
2667.000000	40.435194
2666.000000	40.457270
2665.000000	40.482166
2664.000000	40.509656
2663.000000	40.538010
2662.000000	40.564353
2661.000000	40.585688
2660.000000	40.599854
2659.000000	40.606191
2658.000000	40.606013
2657.000000	40.602712
2656.000000	40.600824
2655.000000	40.604308
2654.000000	40.615252
2653.000000	40.633497
2652.000000	40.656850
2651.000000	40.681901
2650.000000	40.705707
2649.000000	40.727516
2648.000000	40.749568
2647.000000	40.776360
2646.000000	40.813104
2645.000000	40.864287
2644.000000	40.931827
2643.000000	41.014090
2642.000000	41.106306
2641.000000	41.202042
2640.000000	41.295050
2639.000000	41.380577
2638.000000	41.456638
2637.000000	41.524759
2636.000000	41.589022
2635.000000	41.653562
2634.000000	41.720358
2633.000000	41.788527
2632.000000	41.854767
2631.000000	41.914346
2630.000000	41.962363
2629.000000	41.995968
2628.000000	42.015981
2627.000000	42.026556
2626.000000	42.033641
2625.000000	42.042972
2624.000000	42.058470
2623.000000	42.080768
2622.000000	42.106606
2621.000000	42.130190
2620.000000	42.145480
2619.000000	42.148360
2618.000000	42.137865
2617.000000	42.116393
2616.000000	42.088973
2615.000000	42.061179
2614.000000	42.036867
2613.000000	42.016894
2612.000000	41.998889
2611.000000	41.978274
2610.000000	41.950080
2609.000000	41.911428
2608.000000	41.863546
2607.000000	41.812096
2606.000000	41.765596
2605.000000	41.732832
2604.000000	41.720045
2603.000000	41.728995
2602.000000	41.757218
2601.000000	41.799235
2600.000000	41.848404
2599.000000	41.898880
2598.000000	41.947356
2597.000000	41.994776
2596.000000	42.045550
2595.000000	42.104934
2594.000000	42.176336
2593.000000	42.259656
2592.000000	42.351315
2591.000000	42.445037
2590.000000	42.533708
2589.000000	42.612109
2588.000000	42.679049
2587.000000	42.737682
2586.000000	42.794121
2585.000000	42.855452
2584.000000	42.927514
2583.000000	43.012596
2582.000000	43.108295
2581.000000	43.208554
2580.000000	43.306274
2579.000000	43.395924
2578.000000	43.475249
2577.000000	43.546109
2576.000000	43.613878
2575.000000	43.685040
2574.000000	43.764153
2573.000000	43.852049
2572.000000	43.945632
2571.000000	44.038729
2570.000000	44.123846
2569.000000	44.194658
2568.000000	44.248612
2567.000000	44.287572
2566.000000	44.316628
2565.000000	44.342247
2564.000000	44.369656
2563.000000	44.400399
2562.000000	44.430722
2561.000000	44.452620
2560.000000	44.457194
2559.000000	44.437339
2558.000000	44.390254
2557.000000	44.319021
2556.000000	44.232834
2555.000000	44.145164
2554.000000	44.070205
2553.000000	44.019777
2552.000000	44.001031
2551.000000	44.015120
2550.000000	44.057121
2549.000000	44.119064
2548.000000	44.193300
2547.000000	44.274744
2546.000000	44.361636
2545.000000	44.454307
2544.000000	44.554256
2543.000000	44.661958
2542.000000	44.774801
2541.000000	44.887118
2540.000000	44.991990
2539.000000	45.083592
2538.000000	45.158920
2537.000000	45.218975
2536.000000	45.268600
2535.000000	45.314811
2534.000000	45.363963
2533.000000	45.419716
2532.000000	45.482215
2531.000000	45.547680
2530.000000	45.609663
2529.000000	45.661941
2528.000000	45.701731
2527.000000	45.730704
2526.000000	45.753570
2525.000000	45.776361
2524.000000	45.804815
2523.000000	45.842288
2522.000000	45.888080
2521.000000	45.937697
2520.000000	45.984991
2519.000000	46.024362
2518.000000	46.052394
2517.000000	46.069410
2516.000000	46.079841
2515.000000	46.090387
2514.000000	46.106919
2513.000000	46.132497
2512.000000	46.166934
2511.000000	46.206789
2510.000000	46.246132
2509.000000	46.278921
2508.000000	46.301791
2507.000000	46.315049
2506.000000	46.321835
2505.000000	46.327159
2504.000000	46.336710
2503.000000	46.354485
2502.000000	46.380638
2501.000000	46.411642
2500.000000	46.442419
2499.000000	46.468192
2498.000000	46.485603
2497.000000	46.494115
2496.000000	46.496842
2495.000000	46.499089
2494.000000	46.505527
2493.000000	46.518553
2492.000000	46.538262
2491.000000	46.562406
2490.000000	46.586512
2489.000000	46.605674
2488.000000	46.617156
2487.000000	46.621455
2486.000000	46.621377
2485.000000	46.620923
2484.000000	46.624306
2483.000000	46.634289
2482.000000	46.650638
2481.000000	46.670373
2480.000000	46.689507
2479.000000	46.704437
2478.000000	46.712699
2477.000000	46.714080
2476.000000	46.711328
2475.000000	46.708858
2474.000000	46.710386
2473.000000	46.717733
2472.000000	46.730853
2471.000000	46.747731
2470.000000	46.764511
2469.000000	46.777244
2468.000000	46.784086
2467.000000	46.785783
2466.000000	46.784622
2465.000000	46.783684
2464.000000	46.786287
2463.000000	46.794433
2462.000000	46.807403
2461.000000	46.822422
2460.000000	46.836588
2459.000000	46.847736
2458.000000	46.854363
2457.000000	46.856429
2456.000000	46.856253
2455.000000	46.857433
2454.000000	46.862493
2453.000000	46.871933
2452.000000	46.884928
2451.000000	46.899759
2450.000000	46.913831
2449.000000	46.924692
2448.000000	46.931516
2447.000000	46.935260
2446.000000	46.937689
2445.000000	46.940965
2444.000000	46.947427
2443.000000	46.958309
2442.000000	46.972529
2441.000000	46.987587
2440.000000	47.001472
2439.000000	47.013110
2438.000000	47.021733
2437.000000	47.027349
2436.000000	47.031707
2435.000000	47.037490
2434.000000	47.046287
2433.000000	47.057996
2432.000000	47.071728
2431.000000	47.086172
2430.000000	47.099433
2429.000000	47.110024
2428.000000	47.118350
2427.000000	47.126372
2426.000000	47.135770
2425.000000	47.147151
2424.000000	47.160507
2423.000000	47.175218
2422.000000	47.189668
2421.000000	47.202066
2420.000000	47.211874
2419.000000	47.219869
2418.000000	47.227198
2417.000000	47.235294
2416.000000	47.246137
2415.000000	47.261193
2414.000000	47.279886
2413.000000	47.299909
2412.000000	47.318861
2411.000000	47.334942
2410.000000	47.346842
2409.000000	47.354546
2408.000000	47.360235
2407.000000	47.367258
2406.000000	47.378057
2405.000000	47.393593
2404.000000	47.413916
2403.000000	47.437863
2402.000000	47.462481
2401.000000	47.484227
2400.000000	47.501139
2399.000000	47.513440
2398.000000	47.522694
2397.000000	47.531519
2396.000000	47.543386
2395.000000	47.560894
2394.000000	47.583847
2393.000000	47.609871
2392.000000	47.636461
2391.000000	47.661723
2390.000000	47.684093
2389.000000	47.702980
2388.000000	47.719964
2387.000000	47.737901
2386.000000	47.758909
2385.000000	47.784002
2384.000000	47.813260
2383.000000	47.845842
2382.000000	47.879450
2381.000000	47.912037
2380.000000	47.944220
2379.000000	47.978405
2378.000000	48.016925
2377.000000	48.061184
2376.000000	48.112518
2375.000000	48.170679
2374.000000	48.232915
2373.000000	48.294483
2372.000000	48.351275
2371.000000	48.400916
2370.000000	48.442104
2369.000000	48.475725
2368.000000	48.506552
2367.000000	48.540591
2366.000000	48.580278
2365.000000	48.623753
2364.000000	48.672146
2363.000000	48.723572
2362.000000	48.769544
2361.000000	48.808169
2360.000000	48.840726
2359.000000	48.870933
2358.000000	48.903189
2357.000000	48.934879
2356.000000	48.972158
2355.000000	49.014465
2354.000000	49.058987
2353.000000	49.103154
2352.000000	49.151709
2351.000000	49.214055
2350.000000	49.273611
2349.000000	49.308112
2348.000000	49.313068
2347.000000	49.310410
2346.000000	49.339499
2345.000000	49.406023
2344.000000	49.495053
2343.000000	49.573227
2342.000000	49.629888
2341.000000	49.673371
2340.000000	49.706922
2339.000000	49.736194
2338.000000	49.760514
2337.000000	49.787305
2336.000000	49.817443
2335.000000	49.857271
2334.000000	49.900527
2333.000000	49.948678
2332.000000	49.991483
2331.000000	50.037666
2330.000000	50.077166
2329.000000	50.115397
2328.000000	50.149322
2327.000000	50.182317
2326.000000	50.217922
2325.000000	50.254059
2324.000000	50.295973
2323.000000	50.341732
2322.000000	50.387430
2321.000000	50.429115
2320.000000	50.462429
2319.000000	50.495280
2318.000000	50.525625
2317.000000	50.559728
2316.000000	50.592561
2315.000000	50.632154
2314.000000	50.673478
2313.000000	50.718424
2312.000000	50.757454
2311.000000	50.792120
2310.000000	50.818555
2309.000000	50.842133
2308.000000	50.864716
2307.000000	50.894205
2306.000000	50.930966
2305.000000	50.975353
2304.000000	51.021628
2303.000000	51.068253
2302.000000	51.108924
2301.000000	51.142375
2300.000000	51.166032
2299.000000	51.185138
2298.000000	51.202463
2297.000000	51.223308
2296.000000	51.249746
2295.000000	51.284120
2294.000000	51.324275
2293.000000	51.365598
2292.000000	51.403658
2291.000000	51.435783
2290.000000	51.461173
2289.000000	51.479890
2288.000000	51.495503
2287.000000	51.512647
2286.000000	51.534835
2285.000000	51.561681
2284.000000	51.591836
2283.000000	51.623299
2282.000000	51.653846
2281.000000	51.681230
2280.000000	51.705319
2279.000000	51.727948
2278.000000	51.750612
2277.000000	51.774431
2276.000000	51.800419
2275.000000	51.829442
2274.000000	51.859514
2273.000000	51.887129
2272.000000	51.910128
2271.000000	51.928848
2270.000000	51.944391
2269.000000	51.958373
2268.000000	51.974011
2267.000000	51.994856
2266.000000	52.021372
2265.000000	52.050899
2264.000000	52.080343
2263.000000	52.106868
2262.000000	52.127068
2261.000000	52.137663
2260.000000	52.139499
2259.000000	52.137038
2258.000000	52.134873
2257.000000	52.135565
2256.000000	52.140476
2255.000000	52.149855
2254.000000	52.160391
2253.000000	52.166590
2252.000000	52.163981
2251.000000	52.151281
2250.000000	52.128306
2249.000000	52.095714
2248.000000	52.056235
2247.000000	52.013807
2246.000000	51.970388
2245.000000	51.924998
2244.000000	51.876031
2243.000000	51.822160
2242.000000	51.761342
2241.000000	51.691760
2240.000000	51.614516
2239.000000	51.533631
2238.000000	51.453115
2237.000000	51.375785
2236.000000	51.304671
2235.000000	51.242825
2234.000000	51.191291
2233.000000	51.148955
2232.000000	51.115021
2231.000000	51.089727
2230.000000	51.072833
2229.000000	51.063396
2228.000000	51.061040
2227.000000	51.065519
2226.000000	51.074310
2225.000000	51.082907
2224.000000	51.087588
2223.000000	51.086626
2222.000000	51.079171
2221.000000	51.065603
2220.000000	51.049299
2219.000000	51.035585
2218.000000	51.028015
2217.000000	51.026876
2216.000000	51.030934
2215.000000	51.038299
2214.000000	51.045504
2213.000000	51.048393
2212.000000	51.045020
2211.000000	51.036476
2210.000000	51.024982
2209.000000	51.013074
2208.000000	51.004236
2207.000000	51.001602
2206.000000	51.005135
2205.000000	51.011712
2204.000000	51.018175
2203.000000	51.022748
2202.000000	51.023981
2201.000000	51.021003
2200.000000	51.015287
2199.000000	51.009946
2198.000000	51.006734
2197.000000	51.005220
2196.000000	51.004525
2195.000000	51.003622
2194.000000	50.999955
2193.000000	50.990498
2192.000000	50.974861
2191.000000	50.955632
2190.000000	50.935600
2189.000000	50.916570
2188.000000	50.900507
2187.000000	50.888960
2186.000000	50.880653
2185.000000	50.871846
2184.000000	50.859779
2183.000000	50.844415
2182.000000	50.827090
2181.000000	50.810079
2180.000000	50.797494
2179.000000	50.794046
2178.000000	50.801709
2177.000000	50.818889
2176.000000	50.842677
2175.000000	50.869958
2174.000000	50.896733
2173.000000	50.919316
2172.000000	50.937276
2171.000000	50.953565
2170.000000	50.971580
2169.000000	50.993814
2168.000000	51.022736
2167.000000	51.059828
2166.000000	51.102790
2165.000000	51.145990
2164.000000	51.184657
2163.000000	51.217268
2162.000000	51.244234
2161.000000	51.267078
2160.000000	51.289392
2159.000000	51.315907
2158.000000	51.349200
2157.000000	51.388428
2156.000000	51.431017
2155.000000	51.473633
2154.000000	51.511862
2153.000000	51.542012
2152.000000	51.564320
2151.000000	51.582797
2150.000000	51.601739
2149.000000	51.623961
2148.000000	51.651619
2147.000000	51.685502
2146.000000	51.722881
2145.000000	51.758462
2144.000000	51.788334
2143.000000	51.811610
2142.000000	51.829261
2141.000000	51.844117
2140.000000	51.861815
2139.000000	51.888491
2138.000000	51.926396
2137.000000	51.973121
2136.000000	52.024380
2135.000000	52.075214
2134.000000	52.119478
2133.000000	52.152235
2132.000000	52.173822
2131.000000	52.189521
2130.000000	52.204982
2129.000000	52.224219
2128.000000	52.250715
2127.000000	52.286305
2126.000000	52.327967
2125.000000	52.368707
2124.000000	52.402713
2123.000000	52.427901
2122.000000	52.444402
2121.000000	52.454193
2120.000000	52.462526
2119.000000	52.476103
2118.000000	52.498470
2117.000000	52.528850
2116.000000	52.564919
2115.000000	52.603799
2114.000000	52.640662
2113.000000	52.670485
2112.000000	52.692538
2111.000000	52.710828
2110.000000	52.729818
2109.000000	52.752168
2108.000000	52.779682
2107.000000	52.812393
2106.000000	52.845909
2105.000000	52.872882
2104.000000	52.888292
2103.000000	52.891623
2102.000000	52.884505
2101.000000	52.869990
2100.000000	52.854131
2099.000000	52.843975
2098.000000	52.842495
2097.000000	52.846816
2096.000000	52.851636
2095.000000	52.851182
2094.000000	52.838801
2093.000000	52.809666
2092.000000	52.765973
2091.000000	52.716980
2090.000000	52.673378
2089.000000	52.643193
2088.000000	52.631624
2087.000000	52.640260
2086.000000	52.664766
2085.000000	52.696285
2084.000000	52.726706
2083.000000	52.751546
2082.000000	52.768848
2081.000000	52.779464
2080.000000	52.788977
2079.000000	52.805830
2078.000000	52.835698
2077.000000	52.878944
2076.000000	52.933298
2075.000000	52.995165
2074.000000	53.058531
2073.000000	53.116863
2072.000000	53.167552
2071.000000	53.213136
2070.000000	53.257218
2069.000000	53.301958
2068.000000	53.349851
2067.000000	53.404474
2066.000000	53.467796
2065.000000	53.538219
2064.000000	53.611754
2063.000000	53.683682
2062.000000	53.750078
2061.000000	53.810740
2060.000000	53.870795
2059.000000	53.936589
2058.000000	54.009761
2057.000000	54.087338
2056.000000	54.166078
2055.000000	54.243157
2054.000000	54.313694
2053.000000	54.372775
2052.000000	54.420381
2051.000000	54.461598
2050.000000	54.501941
2049.000000	54.545569
2048.000000	54.597022
2047.000000	54.659624
2046.000000	54.730508
2045.000000	54.801211
2044.000000	54.864636
2043.000000	54.918680
2042.000000	54.963855
2041.000000	55.002001
2040.000000	55.038076
2039.000000	55.078941
2038.000000	55.129072
2037.000000	55.189728
2036.000000	55.261503
2035.000000	55.343504
2034.000000	55.430192
2033.000000	55.513572
2032.000000	55.589230
2031.000000	55.657167
2030.000000	55.717865
2029.000000	55.772377
2028.000000	55.825393
2027.000000	55.883457
2026.000000	55.948299
2025.000000	56.017097
2024.000000	56.087556
2023.000000	56.159092
2022.000000	56.228359
2021.000000	56.289493
2020.000000	56.340984
2019.000000	56.388340
2018.000000	56.438961
2017.000000	56.497256
2016.000000	56.564057
2015.000000	56.636624
2014.000000	56.709243
2013.000000	56.777696
2012.000000	56.843405
2011.000000	56.910411
2010.000000	56.979546
2009.000000	57.049916
2008.000000	57.123981
2007.000000	57.205499
2006.000000	57.292840
2005.000000	57.380898
2004.000000	57.467298
2003.000000	57.552453
2002.000000	57.634110
2001.000000	57.708065
2000.000000	57.775548
1999.000000	57.841590
1998.000000	57.909361
1997.000000	57.978400
1996.000000	58.047734
1995.000000	58.116778
1994.000000	58.185139
1993.000000	58.254909
1992.000000	58.330268
1991.000000	58.409245
1990.000000	58.480755
1989.000000	58.537036
1988.000000	58.583886
1987.000000	58.632245
1986.000000	58.684482
1985.000000	58.737051
1984.000000	58.792039
1983.000000	58.855292
1982.000000	58.924874
1981.000000	58.991124
1980.000000	59.048712
1979.000000	59.097799
1978.000000	59.137563
1977.000000	59.166084
1976.000000	59.188023
1975.000000	59.213130
1974.000000	59.246700
1973.000000	59.287825
1972.000000	59.335431
1971.000000	59.387486
1970.000000	59.435633
1969.000000	59.471073
1968.000000	59.496654
1967.000000	59.523856
1966.000000	59.556208
1965.000000	59.586695
1964.000000	59.613193
1963.000000	59.643937
1962.000000	59.684736
1961.000000	59.731525
1960.000000	59.777590
1959.000000	59.819209
1958.000000	59.852176
1957.000000	59.872508
1956.000000	59.884586
1955.000000	59.899897
1954.000000	59.924738
1953.000000	59.957139
1952.000000	59.995142
1951.000000	60.040025
1950.000000	60.086379
1949.000000	60.122569
1948.000000	60.143864
1947.000000	60.154099
1946.000000	60.154840
1945.000000	60.145058
1944.000000	60.134511
1943.000000	60.144859
1942.000000	60.187348
1941.000000	60.247927
1940.000000	60.304351
1939.000000	60.346739
1938.000000	60.373323
1937.000000	60.381933
1936.000000	60.374595
1935.000000	60.361974
1934.000000	60.356807
1933.000000	60.367023
1932.000000	60.396264
1931.000000	60.445224
1930.000000	60.504288
1929.000000	60.557138
1928.000000	60.593508
1927.000000	60.608651
1926.000000	60.598881
1925.000000	60.563750
1924.000000	60.522927
1923.000000	60.508865
1922.000000	60.535473
1921.000000	60.587446
1920.000000	60.645141
1919.000000	60.700938
1918.000000	60.749366
1917.000000	60.775802
1916.000000	60.770477
1915.000000	60.744433
1914.000000	60.718890
1913.000000	60.706409
1912.000000	60.710426
1911.000000	60.733157
1910.000000	60.773159
1909.000000	60.821868
1908.000000	60.867015
1907.000000	60.897332
1906.000000	60.907890
1905.000000	60.899905
1904.000000	60.886681
1903.000000	60.885799
1902.000000	60.904691
1901.000000	60.940016
1900.000000	60.984959
1899.000000	61.028620
1898.000000	61.055686
1897.000000	61.053202
1896.000000	61.025940
1895.000000	60.993460
1894.000000	60.969617
1893.000000	60.955948
1892.000000	60.954649
1891.000000	60.974481
1890.000000	61.019356
1889.000000	61.075809
1888.000000	61.117234
1887.000000	61.123295
1886.000000	61.091595
1885.000000	61.035606
1884.000000	60.978245
1883.000000	60.940596
1882.000000	60.931590
1881.000000	60.951919
1880.000000	60.999432
1879.000000	61.063746
1878.000000	61.123441
1877.000000	61.155433
1876.000000	61.150938
1875.000000	61.118494
1874.000000	61.071379
1873.000000	61.023057
1872.000000	60.990776
1871.000000	60.988066
1870.000000	61.014817
1869.000000	61.061131
1868.000000	61.112748
1867.000000	61.149338
1866.000000	61.153431
1865.000000	61.123350
1864.000000	61.074187
1863.000000	61.026818
1862.000000	60.994755
1861.000000	60.983665
1860.000000	60.996862
1859.000000	61.030574
1858.000000	61.067087
1857.000000	61.084612
1856.000000	61.074377
1855.000000	61.042140
1854.000000	60.997501
1853.000000	60.951197
1852.000000	60.918526
1851.000000	60.906393
1850.000000	60.910710
1849.000000	60.923569
1848.000000	60.945507
1847.000000	60.978490
1846.000000	61.005953
1845.000000	60.999327
1844.000000	60.951578
1843.000000	60.881362
1842.000000	60.808917
1841.000000	60.756967
1840.000000	60.743246
1839.000000	60.763146
1838.000000	60.790307
1837.000000	60.792689
1836.000000	60.757425
1835.000000	60.692142
1834.000000	60.611021
1833.000000	60.528700
1832.000000	60.461847
1831.000000	60.426970
1830.000000	60.434320
1829.000000	60.465168
1828.000000	60.480803
1827.000000	60.463095
1826.000000	60.416296
1825.000000	60.349493
1824.000000	60.271927
1823.000000	60.191269
1822.000000	60.114793
1821.000000	60.052226
1820.000000	60.012681
1819.000000	59.996959
1818.000000	59.991957
1817.000000	59.977479
1816.000000	59.942743
1815.000000	59.883468
1814.000000	59.795452
1813.000000	59.687669
1812.000000	59.588901
1811.000000	59.530565
1810.000000	59.513594
1809.000000	59.514383
1808.000000	59.518990
1807.000000	59.522034
1806.000000	59.506061
1805.000000	59.450220
1804.000000	59.358676
1803.000000	59.261862
1802.000000	59.191156
1801.000000	59.165429
1800.000000	59.181142
1799.000000	59.214179
1798.000000	59.232456
1797.000000	59.224848
1796.000000	59.210023
1795.000000	59.202799
1794.000000	59.182778
1793.000000	59.122374
1792.000000	59.037997
1791.000000	58.973903
1790.000000	58.941860
1789.000000	58.929443
1788.000000	58.925956
1787.000000	58.918831
1786.000000	58.888431
1785.000000	58.821758
1784.000000	58.725683
1783.000000	58.613536
1782.000000	58.493271
1781.000000	58.384645
1780.000000	58.312302
1779.000000	58.282832
1778.000000	58.270062
1777.000000	58.250738
1776.000000	58.234944
1775.000000	58.237219
1774.000000	58.234226
1773.000000	58.177978
1772.000000	58.059899
1771.000000	57.913879
1770.000000	57.770539
1769.000000	57.652650
1768.000000	57.580800
1767.000000	57.553346
1766.000000	57.532949
1765.000000	57.486000
1764.000000	57.412405
1763.000000	57.331431
1762.000000	57.255444
1761.000000	57.179803
1760.000000	57.097968
1759.000000	57.025571
1758.000000	56.972950
1757.000000	56.932573
1756.000000	56.892018
1755.000000	56.840942
1754.000000	56.772009
1753.000000	56.676030
1752.000000	56.554090
1751.000000	56.433394
1750.000000	56.337650
1749.000000	56.257637
1748.000000	56.188781
1747.000000	56.128792
1746.000000	56.053614
1745.000000	55.940664
1744.000000	55.807075
1743.000000	55.699992
1742.000000	55.631339
1741.000000	55.562457
1740.000000	55.467358
1739.000000	55.371452
1738.000000	55.304310
1737.000000	55.272531
1736.000000	55.253380
1735.000000	55.189082
1734.000000	55.037286
1733.000000	54.789067
1732.000000	54.466034
1731.000000	54.152547
1730.000000	53.917402
1729.000000	53.757951
1728.000000	53.636860
1727.000000	53.521719
1726.000000	53.389342
1725.000000	53.220626
1724.000000	53.018004
1723.000000	52.812916
1722.000000	52.628460
1721.000000	52.467044
1720.000000	52.322809
1719.000000	52.177897
1718.000000	52.005837
1717.000000	51.786266
1716.000000	51.520557
1715.000000	51.238192
1714.000000	50.964984
1713.000000	50.698219
1712.000000	50.434751
1711.000000	50.185266
1710.000000	49.954904
1709.000000	49.737518
1708.000000	49.524564
1707.000000	49.304369
1706.000000	49.065498
1705.000000	48.820613
1704.000000	48.614340
1703.000000	48.480583
1702.000000	48.377476
1701.000000	48.202411
1700.000000	47.937730
1699.000000	47.652499
1698.000000	47.378475
1697.000000	47.119033
1696.000000	46.856502
1695.000000	46.564018
1694.000000	46.217522
1693.000000	45.838832
1692.000000	45.478809
1691.000000	45.155909
1690.000000	44.863340
1689.000000	44.612283
1688.000000	44.436156
1687.000000	44.342240
1686.000000	44.261641
1685.000000	44.075327
1684.000000	43.766745
1683.000000	43.413354
1682.000000	43.041133
1681.000000	42.677859
1680.000000	42.367878
1679.000000	42.135300
1678.000000	41.966234
1677.000000	41.810073
1676.000000	41.621240
1675.000000	41.399033
1674.000000	41.160492
1673.000000	40.908400
1672.000000	40.654008
1671.000000	40.411117
1670.000000	40.171309
1669.000000	39.918468
1668.000000	39.653381
1667.000000	39.400599
1666.000000	39.180218
1665.000000	38.979363
1664.000000	38.771050
1663.000000	38.550192
1662.000000	38.322053
1661.000000	38.079985
1660.000000	37.825245
1659.000000	37.581661
1658.000000	37.373290
1657.000000	37.215787
1656.000000	37.122966
1655.000000	37.078240
1654.000000	37.007566
1653.000000	36.845438
1652.000000	36.564338
1651.000000	36.183225
1650.000000	35.814137
1649.000000	35.523898
1648.000000	35.297389
1647.000000	35.112656
1646.000000	34.945491
1645.000000	34.741895
1644.000000	34.488232
1643.000000	34.230552
1642.000000	33.998210
1641.000000	33.785057
1640.000000	33.586652
1639.000000	33.421540
1638.000000	33.298425
1637.000000	33.185988
1636.000000	33.051634
1635.000000	32.891429
1634.000000	32.694786
1633.000000	32.459838
1632.000000	32.225522
1631.000000	32.024637
1630.000000	31.853396
1629.000000	31.689194
1628.000000	31.527569
1627.000000	31.386105
1626.000000	31.271277
1625.000000	31.166907
1624.000000	31.058070
1623.000000	30.949761
1622.000000	30.844430
1621.000000	30.736139
1620.000000	30.639709
1619.000000	30.580565
1618.000000	30.552458
1617.000000	30.514210
1616.000000	30.433490
1615.000000	30.316221
1614.000000	30.194913
1613.000000	30.095581
1612.000000	30.022913
1611.000000	29.971861
1610.000000	29.934032
1609.000000	29.897838
1608.000000	29.859124
1607.000000	29.827160
1606.000000	29.808317
1605.000000	29.796094
1604.000000	29.784432
1603.000000	29.780640
1602.000000	29.790230
1601.000000	29.802065
1600.000000	29.805343
1599.000000	29.805092
1598.000000	29.809496
1597.000000	29.816124
1596.000000	29.823098
1595.000000	29.839616
1594.000000	29.870289
1593.000000	29.903359
1592.000000	29.927322
1591.000000	29.945966
1590.000000	29.965543
1589.000000	29.981324
1588.000000	29.988657
1587.000000	29.996003
1586.000000	30.013066
1585.000000	30.036684
1584.000000	30.059983
1583.000000	30.083938
1582.000000	30.109875
1581.000000	30.129018
1580.000000	30.139589
1579.000000	30.160402
1578.000000	30.206365
1577.000000	30.258009
1576.000000	30.277771
1575.000000	30.245038
1574.000000	30.172952
1573.000000	30.103575
1572.000000	30.068578
1571.000000	30.069197
1570.000000	30.087926
1569.000000	30.096458
1568.000000	30.071265
1567.000000	30.025500
1566.000000	29.996252
1565.000000	29.999717
1564.000000	30.033113
1563.000000	30.102033
1562.000000	30.221019
1561.000000	30.379561
1560.000000	30.537786
1559.000000	30.707760
1558.000000	30.869745
1557.000000	30.912077
1556.000000	30.875167
1555.000000	30.881975
1554.000000	30.965017
1553.000000	31.075856
1552.000000	31.170026
1551.000000	31.270386
1550.000000	31.415090
1549.000000	31.591694
1548.000000	31.754949
1547.000000	31.891030
1546.000000	32.028376
1545.000000	32.199149
1544.000000	32.416270
1543.000000	32.679559
1542.000000	32.986766
1541.000000	33.327685
1540.000000	33.674253
1539.000000	33.946377
1538.000000	34.068427
1537.000000	34.088612
1536.000000	34.123128
1535.000000	34.248754
1534.000000	34.487431
1533.000000	34.800034
1532.000000	35.103269
1531.000000	35.360814
1530.000000	35.601332
1529.000000	35.852258
1528.000000	36.123245
1527.000000	36.423027
1526.000000	36.751904
1525.000000	37.087630
1524.000000	37.418854
1523.000000	37.780095
1522.000000	38.216052
1521.000000	38.691455
1520.000000	39.089023
1519.000000	39.372137
1518.000000	39.630163
1517.000000	39.941853
1516.000000	40.300754
1515.000000	40.656555
1514.000000	40.992785
1513.000000	41.325583
1512.000000	41.657779
1511.000000	41.983910
1510.000000	42.312066
1509.000000	42.673204
1508.000000	43.120381
1507.000000	43.720900
1506.000000	44.378612
1505.000000	44.825558
1504.000000	45.020917
1503.000000	45.160923
1502.000000	45.385990
1501.000000	45.708402
1500.000000	46.077802
1499.000000	46.459397
1498.000000	46.844094
1497.000000	47.211027
1496.000000	47.526015
1495.000000	47.775007
1494.000000	47.976939
1493.000000	48.166639
1492.000000	48.372563
1491.000000	48.616701
1490.000000	48.905043
1489.000000	49.199755
1488.000000	49.450198
1487.000000	49.650140
1486.000000	49.813079
1485.000000	49.943031
1484.000000	50.052732
1483.000000	50.171070
1482.000000	50.318201
1481.000000	50.475205
1480.000000	50.607348
1479.000000	50.698373
1478.000000	50.743518
1477.000000	50.739163
1476.000000	50.703986
1475.000000	50.669883
1474.000000	50.632811
1473.000000	50.561713
1472.000000	50.449450
1471.000000	50.301826
1470.000000	50.106722
1469.000000	49.859185
1468.000000	49.571932
1467.000000	49.246823
1466.000000	48.841079
1465.000000	48.308533
1464.000000	47.686382
1463.000000	47.070032
1462.000000	46.512250
1461.000000	46.015846
1460.000000	45.583121
1459.000000	45.197422
1458.000000	44.764601
1457.000000	44.178623
1456.000000	43.469546
1455.000000	42.732433
1454.000000	41.986100
1453.000000	41.189087
1452.000000	40.323854
1451.000000	39.409691
1450.000000	38.417950
1449.000000	37.268754
1448.000000	35.956855
1447.000000	34.575289
1446.000000	33.170678
1445.000000	31.704464
1444.000000	30.154182
1443.000000	28.536953
1442.000000	26.850829
1441.000000	25.105689
1440.000000	23.366108
1439.000000	21.636883
1438.000000	19.749396
1437.000000	17.569133
1436.000000	15.354249
1435.000000	13.507404
1434.000000	12.058572
1433.000000	10.817274
1432.000000	9.725129
1431.000000	8.839378
1430.000000	8.167011
1429.000000	7.676277
1428.000000	7.411298
1427.000000	7.421508
1426.000000	7.668356
1425.000000	8.112736
1424.000000	8.780340
1423.000000	9.650375
1422.000000	10.623467
1421.000000	11.684031
1420.000000	12.956251
1419.000000	14.469521
1418.000000	15.995595
1417.000000	17.346223
1416.000000	18.594405
1415.000000	19.861845
1414.000000	21.151571
1413.000000	22.428584
1412.000000	23.711220
1411.000000	25.018161
1410.000000	26.305904
1409.000000	27.528241
1408.000000	28.698355
1407.000000	29.850357
1406.000000	30.996146
1405.000000	32.141185
1404.000000	33.278304
1403.000000	34.364174
1402.000000	35.368804
1401.000000	36.334811
1400.000000	37.332539
1399.000000	38.354207
1398.000000	39.317849
1397.000000	40.199129
1396.000000	41.072458
1395.000000	41.998646
1394.000000	42.942753
1393.000000	43.833647
1392.000000	44.653360
1391.000000	45.429622
1390.000000	46.189791
1389.000000	46.951590
1388.000000	47.715811
1387.000000	48.443489
1386.000000	49.073231
1385.000000	49.583071
1384.000000	49.996450
1383.000000	50.331778
1382.000000	50.583553
1381.000000	50.735814
1380.000000	50.766915
1379.000000	50.644829
1378.000000	50.338870
1377.000000	49.824642
1376.000000	49.063510
1375.000000	48.016095
1374.000000	46.706987
1373.000000	45.240290
1372.000000	43.733737
1371.000000	42.286509
1370.000000	41.019955
1369.000000	40.102526
1368.000000	39.689134
1367.000000	39.829183
1366.000000	40.464378
1365.000000	41.504849
1364.000000	42.873572
1363.000000	44.481022
1362.000000	46.183985
1361.000000	47.814374
1360.000000	49.251050
1359.000000	50.437445
1358.000000	51.351829
1357.000000	51.983850
1356.000000	52.322125
1355.000000	52.357653
1354.000000	52.096227
1353.000000	51.550575
1352.000000	50.728972
1351.000000	49.633070
1350.000000	48.269982
1349.000000	46.663343
1348.000000	44.839651
1347.000000	42.825287
1346.000000	40.651757
1345.000000	38.357062
1344.000000	35.985548
1343.000000	33.574930
1342.000000	31.143320
1341.000000	28.708361
1340.000000	26.340342
1339.000000	24.181707
1338.000000	22.381401
1337.000000	21.010936
1336.000000	20.056316
1335.000000	19.446774
1334.000000	19.058239
1333.000000	18.728148
1332.000000	18.298069
1331.000000	17.649662
1330.000000	16.715709
1329.000000	15.481694
1328.000000	13.993114
1327.000000	12.350467
1326.000000	10.676759
1325.000000	9.086001
1324.000000	7.678594
1323.000000	6.535857
1322.000000	5.691079
1321.000000	5.119450
1320.000000	4.768579
1319.000000	4.578013
1318.000000	4.477437
1317.000000	4.399866
1316.000000	4.310909
1315.000000	4.213507
1314.000000	4.115780
1313.000000	4.017080
1312.000000	3.924851
1311.000000	3.856948
1310.000000	3.823478
1309.000000	3.825000
1308.000000	3.874021
1307.000000	3.996205
1306.000000	4.205369
1305.000000	4.499803
1304.000000	4.880759
1303.000000	5.353449
1302.000000	5.908399
1301.000000	6.520324
1300.000000	7.171142
1299.000000	7.853686
1298.000000	8.555510
1297.000000	9.259974
1296.000000	9.961609
1295.000000	10.664840
1294.000000	11.366947
1293.000000	12.057046
1292.000000	12.729054
1291.000000	13.380373
1290.000000	13.995865
1289.000000	14.547169
1288.000000	15.005906
1287.000000	15.345646
1286.000000	15.541753
1285.000000	15.586947
1284.000000	15.516346
1283.000000	15.410547
1282.000000	15.366484
1281.000000	15.463463
1280.000000	15.744336
1279.000000	16.205470
1278.000000	16.798348
1277.000000	17.457469
1276.000000	18.133034
1275.000000	18.799659
1274.000000	19.445831
1273.000000	20.067460
1272.000000	20.668912
1271.000000	21.255658
1270.000000	21.824079
1269.000000	22.364834
1268.000000	22.873921
1267.000000	23.352794
1266.000000	23.802712
1265.000000	24.226304
1264.000000	24.632520
1263.000000	25.034224
1262.000000	25.439172
1261.000000	25.848560
1260.000000	26.260637
1259.000000	26.669384
1258.000000	27.063741
1257.000000	27.433615
1256.000000	27.777065
1255.000000	28.099302
1254.000000	28.407605
1253.000000	28.710695
1252.000000	29.018599
1251.000000	29.337932
1250.000000	29.667234
1249.000000	29.998611
1248.000000	30.322888
1247.000000	30.631745
1246.000000	30.919074
1245.000000	31.184466
1244.000000	31.434435
1243.000000	31.678682
1242.000000	31.925015
1241.000000	32.177719
1240.000000	32.437315
1239.000000	32.698929
1238.000000	32.953459
1237.000000	33.192504
1236.000000	33.412467
1235.000000	33.615107
1234.000000	33.806306
1233.000000	33.995067
1232.000000	34.190652
1231.000000	34.398229
1230.000000	34.616653
1229.000000	34.839406
1228.000000	35.057275
1227.000000	35.261608
1226.000000	35.448414
1225.000000	35.621160
1224.000000	35.789243
1223.000000	35.964047
1222.000000	36.156101
1221.000000	36.372530
1220.000000	36.613086
1219.000000	36.868012
1218.000000	37.121605
1217.000000	37.358560
1216.000000	37.568159
1215.000000	37.747294
1214.000000	37.903351
1213.000000	38.052998
1212.000000	38.214918
1211.000000	38.401813
1210.000000	38.617194
1209.000000	38.855452
1208.000000	39.102661
1207.000000	39.340196
1206.000000	39.552181
1205.000000	39.731714
1204.000000	39.881423
1203.000000	40.011959
1202.000000	40.140535
1201.000000	40.284900
1200.000000	40.454357
1199.000000	40.645506
1198.000000	40.845573
1197.000000	41.037296
1196.000000	41.200329
1195.000000	41.316161
1194.000000	41.375670
1193.000000	41.380721
1192.000000	41.338936
1191.000000	41.258168
1190.000000	41.148442
1189.000000	41.024298
1188.000000	40.903194
1187.000000	40.804112
1186.000000	40.746872
1185.000000	40.747560
1184.000000	40.811881
1183.000000	40.934524
1182.000000	41.104401
1181.000000	41.312743
1180.000000	41.554248
1179.000000	41.822534
1178.000000	42.106862
1177.000000	42.389493
1176.000000	42.648114
1175.000000	42.865121
1174.000000	43.038310
1173.000000	43.181852
1172.000000	43.317344
1171.000000	43.465701
1170.000000	43.643273
1169.000000	43.856261
1168.000000	44.094166
1167.000000	44.333038
1166.000000	44.547860
1165.000000	44.722177
1164.000000	44.850753
1163.000000	44.941748
1162.000000	45.018353
1161.000000	45.110672
1160.000000	45.241092
1159.000000	45.416887
1158.000000	45.632070
1157.000000	45.869411
1156.000000	46.101193
1155.000000	46.297866
1154.000000	46.443185
1153.000000	46.540085
1152.000000	46.604371
1151.000000	46.658867
1150.000000	46.730701
1149.000000	46.842260
1148.000000	46.997924
1147.000000	47.182248
1146.000000	47.371174
1145.000000	47.541716
1144.000000	47.675599
1143.000000	47.765420
1142.000000	47.822203
1141.000000	47.870903
1140.000000	47.934971
1139.000000	48.027142
1138.000000	48.149969
1137.000000	48.295630
1136.000000	48.444197
1135.000000	48.571226
1134.000000	48.663197
1133.000000	48.723654
1132.000000	48.766652
1131.000000	48.811115
1130.000000	48.878720
1129.000000	48.985233
1128.000000	49.128510
1127.000000	49.288640
1126.000000	49.440554
1125.000000	49.563139
1124.000000	49.641633
1123.000000	49.674149
1122.000000	49.679659
1121.000000	49.691666
1120.000000	49.740036
1119.000000	49.840024
1118.000000	49.992187
1117.000000	50.181308
1116.000000	50.374831
1115.000000	50.533727
1114.000000	50.632810
1113.000000	50.670387
1112.000000	50.663103
1111.000000	50.640943
1110.000000	50.643363
1109.000000	50.704735
1108.000000	50.835379
1107.000000	51.018313
1106.000000	51.221922
1105.000000	51.410291
1104.000000	51.548194
1103.000000	51.613746
1102.000000	51.613933
1101.000000	51.581495
1100.000000	51.555210
1099.000000	51.566107
1098.000000	51.634386
1097.000000	51.763342
1096.000000	51.931935
1095.000000	52.103183
1094.000000	52.245383
1093.000000	52.343698
1092.000000	52.397544
1091.000000	52.420114
1090.000000	52.440317
1089.000000	52.490952
1088.000000	52.588045
1087.000000	52.724856
1086.000000	52.882590
1085.000000	53.038214
1084.000000	53.165563
1083.000000	53.245114
1082.000000	53.279428
1081.000000	53.292763
1080.000000	53.314358
1079.000000	53.366748
1078.000000	53.463597
1077.000000	53.602282
1076.000000	53.755792
1075.000000	53.882630
1074.000000	53.950096
1073.000000	53.947031
1072.000000	53.878490
1071.000000	53.762661
1070.000000	53.629885
1069.000000	53.506291
1068.000000	53.393970
1067.000000	53.267603
1066.000000	53.091535
1065.000000	52.837247
1064.000000	52.494318
1063.000000	52.084990
1062.000000	51.671502
1061.000000	51.336370
1060.000000	51.146460
1059.000000	51.135305
1058.000000	51.302066
1057.000000	51.615871
1056.000000	52.019964
1055.000000	52.444086
1054.000000	52.828790
1053.000000	53.136838
1052.000000	53.352769
1051.000000	53.485968
1050.000000	53.573780
1049.000000	53.665876
1048.000000	53.797268
1047.000000	53.977004
1046.000000	54.194862
1045.000000	54.427560
1044.000000	54.640266
1043.000000	54.800834
1042.000000	54.900957
1041.000000	54.958684
1040.000000	55.002402
1039.000000	55.059826
1038.000000	55.155720
1037.000000	55.302129
1036.000000	55.485913
1035.000000	55.675126
1034.000000	55.840040
1033.000000	55.964282
1032.000000	56.042814
1031.000000	56.084928
1030.000000	56.119786
1029.000000	56.184282
1028.000000	56.299360
1027.000000	56.461557
1026.000000	56.652232
1025.000000	56.843661
1024.000000	57.000066
1023.000000	57.091842
1022.000000	57.117381
1021.000000	57.104084
1020.000000	57.089297
1019.000000	57.107434
1018.000000	57.186642
1017.000000	57.337711
1016.000000	57.540487
1015.000000	57.750976
1014.000000	57.925967
1013.000000	58.038437
1012.000000	58.078199
1011.000000	58.056204
1010.000000	58.009885
1009.000000	57.988936
1008.000000	58.028507
1007.000000	58.138081
1006.000000	58.307748
1005.000000	58.511100
1004.000000	58.705458
1003.000000	58.847898
1002.000000	58.919930
1001.000000	58.932764
1000.000000	58.913021
999.000000	58.893066
998.000000	58.908101
997.000000	58.982889
996.000000	59.114397
995.000000	59.274425
994.000000	59.430362
993.000000	59.557746
992.000000	59.639992
991.000000	59.674385
990.000000	59.681485
989.000000	59.695744
988.000000	59.742686
987.000000	59.830170
986.000000	59.954341
985.000000	60.100015
984.000000	60.237479
983.000000	60.335406
982.000000	60.383165
981.000000	60.394766
980.000000	60.393953
979.000000	60.405762
978.000000	60.456613
977.000000	60.563191
976.000000	60.715370
975.000000	60.879342
974.000000	61.020063
973.000000	61.114108
972.000000	61.148603
971.000000	61.126587
970.000000	61.076124
969.000000	61.040016
968.000000	61.051583
967.000000	61.124165
966.000000	61.255691
965.000000	61.428174
964.000000	61.604190
963.000000	61.740711
962.000000	61.814049
961.000000	61.826936
960.000000	61.796300
959.000000	61.747905
958.000000	61.718023
957.000000	61.740206
956.000000	61.823437
955.000000	61.950649
954.000000	62.096527
953.000000	62.236532
952.000000	62.344692
951.000000	62.402190
950.000000	62.413106
949.000000	62.401014
948.000000	62.389756
947.000000	62.395958
946.000000	62.433596
945.000000	62.507807
944.000000	62.603366
943.000000	62.693071
942.000000	62.760526
941.000000	62.805535
940.000000	62.831277
939.000000	62.842336
938.000000	62.853719
937.000000	62.884583
936.000000	62.939330
935.000000	63.005315
934.000000	63.068133
933.000000	63.117743
932.000000	63.143080
931.000000	63.137516
930.000000	63.111394
929.000000	63.087068
928.000000	63.080920
927.000000	63.099374
926.000000	63.146585
925.000000	63.218866
924.000000	63.293059
923.000000	63.336551
922.000000	63.331307
921.000000	63.278585
920.000000	63.185292
919.000000	63.063263
918.000000	62.939396
917.000000	62.846199
916.000000	62.798322
915.000000	62.786649
914.000000	62.791807
913.000000	62.790481
912.000000	62.751468
911.000000	62.646265
910.000000	62.468441
909.000000	62.233649
908.000000	61.963511
907.000000	61.680272
906.000000	61.411835
905.000000	61.180360
904.000000	60.982339
903.000000	60.792081
902.000000	60.581615
901.000000	60.328297
900.000000	60.009301
899.000000	59.608546
898.000000	59.133950
897.000000	58.612725
896.000000	58.071391
895.000000	57.527325
894.000000	56.991434
893.000000	56.464581
892.000000	55.928165
891.000000	55.352427
890.000000	54.714910
889.000000	54.004064
888.000000	53.215208
887.000000	52.353999
886.000000	51.441996
885.000000	50.504506
884.000000	49.551043
883.000000	48.577135
882.000000	47.575175
881.000000	46.535303
880.000000	45.442201
879.000000	44.283353
878.000000	43.063361
877.000000	41.801653
876.000000	40.520723
875.000000	39.241391
874.000000	37.982187
873.000000	36.754292
872.000000	35.558352
871.000000	34.390762
870.000000	33.250152
869.000000	32.139238
868.000000	31.064056
867.000000	30.036990
866.000000	29.076240
865.000000	28.196277
864.000000	27.403791
863.000000	26.696339
862.000000	26.062620
861.000000	25.484711
860.000000	24.941998
859.000000	24.420623
858.000000	23.916099
857.000000	23.431537
856.000000	22.977131
855.000000	22.566546
854.000000	22.212830
853.000000	21.922597
852.000000	21.694927
851.000000	21.524912
850.000000	21.402859
849.000000	21.317415
848.000000	21.262644
847.000000	21.244131
846.000000	21.278311
845.000000	21.381778
844.000000	21.567743
843.000000	21.846754
842.000000	22.222852
841.000000	22.689202
840.000000	23.226611
839.000000	23.815488
838.000000	24.445321
837.000000	25.114133
836.000000	25.825171
835.000000	26.586107
834.000000	27.397380
833.000000	28.223080
832.000000	28.963880
831.000000	29.428314
830.000000	29.317505
829.000000	28.262324
828.000000	26.022802
827.000000	22.812403
826.000000	19.424551
825.000000	16.903035
824.000000	15.944021
823.000000	16.545906
822.000000	18.185240
821.000000	20.266642
820.000000	22.384250
819.000000	24.314990
818.000000	25.952625
817.000000	27.287466
816.000000	28.390291
815.000000	29.349797
814.000000	30.229815
813.000000	31.072904
812.000000	31.906317
811.000000	32.725582
810.000000	33.495251
809.000000	34.179397
808.000000	34.759993
807.000000	35.236966
806.000000	35.629743
805.000000	35.984078
804.000000	36.355792
803.000000	36.778544
802.000000	37.254834
801.000000	37.769087
800.000000	38.294209
799.000000	38.790567
798.000000	39.221302
797.000000	39.577137
796.000000	39.878447
795.000000	40.157957
794.000000	40.450891
793.000000	40.790823
792.000000	41.194025
791.000000	41.643823
790.000000	42.099920
789.000000	42.523131
788.000000	42.887355
787.000000	43.181798
786.000000	43.419941
785.000000	43.642706
784.000000	43.897845
783.000000	44.212832
782.000000	44.587975
781.000000	45.003116
780.000000	45.419845
779.000000	45.788187
778.000000	46.070848
777.000000	46.266114
776.000000	46.404804
775.000000	46.532504
774.000000	46.698299
773.000000	46.942980
772.000000	47.277276
771.000000	47.669603
770.000000	48.062379
769.000000	48.399904
768.000000	48.642582
767.000000	48.775192
766.000000	48.820180
765.000000	48.836746
764.000000	48.892572
763.000000	49.032533
762.000000	49.269673
761.000000	49.588212
760.000000	49.942767
759.000000	50.267002
758.000000	50.503381
757.000000	50.630944
756.000000	50.667194
755.000000	50.656561
754.000000	50.661208
753.000000	50.742652
752.000000	50.930743
751.000000	51.208211
750.000000	51.527432
749.000000	51.835254
748.000000	52.083159
747.000000	52.238164
746.000000	52.304454
745.000000	52.328076
744.000000	52.367995
743.000000	52.464550
742.000000	52.633123
741.000000	52.867252
740.000000	53.133060
739.000000	53.374238
738.000000	53.542324
737.000000	53.623584
736.000000	53.636273
735.000000	53.616163
734.000000	53.610214
733.000000	53.663542
732.000000	53.791840
731.000000	53.968461
730.000000	54.144134
729.000000	54.272065
728.000000	54.315856
727.000000	54.258521
726.000000	54.122203
725.000000	53.969136
724.000000	53.868903
723.000000	53.866127
722.000000	53.976022
721.000000	54.187271
720.000000	54.454150
719.000000	54.704644
718.000000	54.880039
717.000000	54.966362
716.000000	54.986523
715.000000	54.981128
714.000000	55.004161
713.000000	55.111834
712.000000	55.330649
711.000000	55.638812
710.000000	55.986091
709.000000	56.320414
708.000000	56.593388
707.000000	56.768401
706.000000	56.846019
705.000000	56.871675
704.000000	56.904975
703.000000	56.986632
702.000000	57.136056
701.000000	57.356023
700.000000	57.620917
699.000000	57.878113
698.000000	58.080982
697.000000	58.215574
696.000000	58.291586
695.000000	58.328098
694.000000	58.360631
693.000000	58.436834
692.000000	58.580747
691.000000	58.773493
690.000000	58.979408
689.000000	59.173290
688.000000	59.332287
687.000000	59.430691
686.000000	59.470390
685.000000	59.495410
684.000000	59.553829
683.000000	59.663063
682.000000	59.824094
681.000000	60.036907
680.000000	60.277711
679.000000	60.490864
678.000000	60.634728
677.000000	60.710680
676.000000	60.738167
675.000000	60.742905
674.000000	60.768123
673.000000	60.861583
672.000000	61.040523
671.000000	61.291834
670.000000	61.606059
669.000000	61.979942
668.000000	62.341526
667.000000	62.518753
666.000000	62.459484
665.000000	62.310589
664.000000	62.213156
663.000000	62.219646
662.000000	62.327216
661.000000	62.508880
660.000000	62.732509
659.000000	62.963191
658.000000	63.169918
657.000000	63.333116
656.000000	63.445924
655.000000	63.521343
654.000000	63.587284
653.000000	63.667494
652.000000	63.774702
651.000000	63.913376
650.000000	64.079124
649.000000	64.255884
648.000000	64.422081
647.000000	64.564041
646.000000	64.684161
645.000000	64.797064
644.000000	64.916622
643.000000	65.047753
642.000000	65.189688
641.000000	65.339154
640.000000	65.488104
639.000000	65.625752
638.000000	65.746485
637.000000	65.853989
636.000000	65.958497
635.000000	66.073926
634.000000	66.216113
633.000000	66.394210
632.000000	66.600198
631.000000	66.813211
630.000000	67.015223
629.000000	67.195987
628.000000	67.346651
627.000000	67.463540
626.000000	67.560883
625.000000	67.665776
624.000000	67.794655
623.000000	67.946293
622.000000	68.119334
621.000000	68.318812
620.000000	68.540206
619.000000	68.764788
618.000000	68.978914
617.000000	69.183809
616.000000	69.379656
615.000000	69.557593
614.000000	69.714208
613.000000	69.857119
612.000000	69.988160
611.000000	70.098947
610.000000	70.186386
609.000000	70.249962
608.000000	70.266306
607.000000	70.174418
606.000000	69.895228
605.000000	69.333771
604.000000	68.350289
603.000000	66.759449
602.000000	64.358601
601.000000	60.998652
600.000000	56.704079
599.000000	51.816921
598.000000	47.010690
597.000000	43.072623
596.000000	40.601378
595.000000	39.806051
594.000000	40.475714
593.000000	42.127125
592.000000	44.259591
591.000000	46.494806
590.000000	48.596687
589.000000	50.474701
588.000000	52.140617
587.000000	53.641808
586.000000	55.013494
585.000000	56.273088
584.000000	57.426363
583.000000	58.474138
582.000000	59.420164
581.000000	60.274686
580.000000	61.044115
579.000000	61.721383
578.000000	62.309430
577.000000	62.835222
576.000000	63.325847
575.000000	63.784041
574.000000	64.198619
573.000000	64.571000
572.000000	64.911529
571.000000	65.226670
570.000000	65.528846
569.000000	65.839930
568.000000	66.168366
567.000000	66.495466
566.000000	66.798042
565.000000	67.070880
564.000000	67.311361
563.000000	67.505706
562.000000	67.650205
561.000000	67.769323
560.000000	67.897460
559.000000	68.056859
558.000000	68.262300
557.000000	68.523400
556.000000	68.825873
555.000000	69.127510
554.000000	69.388600
553.000000	69.592881
552.000000	69.732922
551.000000	69.804507
550.000000	69.832801
549.000000	69.874162
548.000000	69.973551
547.000000	70.140141
546.000000	70.367915
545.000000	70.648458
544.000000	70.950358
543.000000	71.218681
542.000000	71.416298
541.000000	71.546416
540.000000	71.624092
539.000000	71.658600
538.000000	71.677814
537.000000	71.733355
536.000000	71.857935
535.000000	72.041930
534.000000	72.263437
533.000000	72.513277
532.000000	72.773096
531.000000	73.002204
530.000000	73.174298
529.000000	73.300974
528.000000	73.401229
527.000000	73.480981
526.000000	73.558169
525.000000	73.663507
524.000000	73.790708
523.000000	73.882353
522.000000	73.884060
521.000000	73.773307
520.000000	73.527413
519.000000	73.108993
518.000000	72.516956
517.000000	71.831490
516.000000	71.178257
515.000000	70.669143
514.000000	70.380382
513.000000	70.340513
512.000000	70.503348
511.000000	70.757597
510.000000	70.990951
509.000000	71.129536
508.000000	71.097118
507.000000	70.786084
506.000000	70.103513
505.000000	69.012338
504.000000	67.523163
503.000000	65.730774
502.000000	63.902625
501.000000	62.412355
500.000000	61.515778
499.000000	61.250127
498.000000	61.525388
497.000000	62.193741
496.000000	63.053869
495.000000	63.889653
494.000000	64.551422
493.000000	65.010439
492.000000	65.327300
491.000000	65.601142
490.000000	65.938219
489.000000	66.413168
488.000000	67.029360
487.000000	67.736061
486.000000	68.492918
485.000000	69.292035
484.000000	70.111035
483.000000	70.891309
482.000000	71.590475
481.000000	72.211133
480.000000	72.752995
479.000000	73.191001
478.000000	73.525107
477.000000	73.807339
476.000000	74.086406
475.000000	74.363333
474.000000	74.635230
473.000000	74.928702
472.000000	75.247035
471.000000	75.533174
470.000000	75.743926
469.000000	75.912413
468.000000	76.088489
467.000000	76.277670
466.000000	76.464724
465.000000	76.652612
464.000000	76.834833
463.000000	76.971812
462.000000	77.045866
461.000000	77.093807
460.000000	77.144243
459.000000	77.181648
458.000000	77.216922
457.000000	77.315377
456.000000	77.482968
455.000000	77.633177
454.000000	77.706083
453.000000	77.715935
452.000000	77.670013
451.000000	77.509279
450.000000	77.177384
449.000000	76.698364
448.000000	76.130658
447.000000	75.495302
446.000000	74.783543
445.000000	73.965495
444.000000	72.941598
443.000000	71.545434
442.000000	69.666409
441.000000	67.351254
440.000000	64.745327
439.000000	62.021432
438.000000	59.400016
437.000000	57.185059
436.000000	55.687285
435.000000	55.069033
434.000000	55.267907
433.000000	56.096505
432.000000	57.374455
431.000000	58.904913
430.000000	60.494933
429.000000	62.067775
428.000000	63.637867
427.000000	65.185929
426.000000	66.663710
425.000000	68.093452
424.000000	69.505244
423.000000	70.808420
422.000000	71.873238
421.000000	72.713014
420.000000	73.444702
419.000000	74.173026
418.000000	74.954474
417.000000	75.770101
416.000000	76.561337
415.000000	77.235694
414.000000	77.725448
413.000000	78.094451
412.000000	78.420234
411.000000	78.653235
410.000000	78.783540
409.000000	78.990435
408.000000	79.418977
407.000000	79.945367
406.000000	80.414521
405.000000	80.845459
404.000000	81.259195
403.000000	81.464653
402.000000	81.280722
401.000000	80.839276
400.000000	80.371842
