PE IR       SUBTECH     SPECTRUM    ASCII       PEDS        4.00        
   -1
23ms026.asc
24/09/03
16:02:27.00
24/09/03
16:02:27.00
Administrator
Sample 1092 By Administrator Date Tuesday, September 03 2024
400.000000
#HDR
-1
-1
#GR
cm-1
%T
1.0
0.0
4000.000000
-1.000000
3601
8
92.061793
11.065442
#DATA
4000.000000	78.535137
3999.000000	78.583899
3998.000000	78.633326
3997.000000	78.682257
3996.000000	78.729641
3995.000000	78.775011
3994.000000	78.818806
3993.000000	78.862235
3992.000000	78.906551
3991.000000	78.952246
3990.000000	78.998794
3989.000000	79.045291
3988.000000	79.091266
3987.000000	79.136672
3986.000000	79.181332
3985.000000	79.224722
3984.000000	79.266571
3983.000000	79.307494
3982.000000	79.348827
3981.000000	79.391843
3980.000000	79.437012
3979.000000	79.483868
3978.000000	79.531339
3977.000000	79.578218
3976.000000	79.623629
3975.000000	79.667209
3974.000000	79.709022
3973.000000	79.749381
3972.000000	79.788738
3971.000000	79.827699
3970.000000	79.866653
3969.000000	79.905419
3968.000000	79.943544
3967.000000	79.980936
3966.000000	80.018180
3965.000000	80.056245
3964.000000	80.095735
3963.000000	80.136201
3962.000000	80.176382
3961.000000	80.215143
3960.000000	80.252283
3959.000000	80.288654
3958.000000	80.325185
3957.000000	80.362192
3956.000000	80.399815
3955.000000	80.438443
3954.000000	80.478515
3953.000000	80.519876
3952.000000	80.561768
3951.000000	80.603467
3950.000000	80.644456
3949.000000	80.684378
3948.000000	80.723543
3947.000000	80.763295
3946.000000	80.805466
3945.000000	80.851130
3944.000000	80.899280
3943.000000	80.946824
3942.000000	80.991172
3941.000000	81.032638
3940.000000	81.073273
3939.000000	81.114319
3938.000000	81.154787
3937.000000	81.193088
3936.000000	81.229888
3935.000000	81.267968
3934.000000	81.309880
3933.000000	81.355400
3932.000000	81.402179
3931.000000	81.448276
3930.000000	81.492827
3929.000000	81.536301
3928.000000	81.579777
3927.000000	81.624133
3926.000000	81.668910
3925.000000	81.711800
3924.000000	81.751073
3923.000000	81.787838
3922.000000	81.824645
3921.000000	81.863121
3920.000000	81.903645
3919.000000	81.946229
3918.000000	81.990516
3917.000000	82.034973
3916.000000	82.077514
3915.000000	82.117264
3914.000000	82.155377
3913.000000	82.193446
3912.000000	82.231403
3911.000000	82.268016
3910.000000	82.302581
3909.000000	82.336347
3908.000000	82.372830
3907.000000	82.415061
3906.000000	82.463022
3905.000000	82.513075
3904.000000	82.561338
3903.000000	82.608046
3902.000000	82.655776
3901.000000	82.704473
3900.000000	82.750282
3899.000000	82.789061
3898.000000	82.820422
3897.000000	82.848011
3896.000000	82.876107
3895.000000	82.908281
3894.000000	82.946624
3893.000000	82.990792
3892.000000	83.036683
3891.000000	83.079201
3890.000000	83.117184
3889.000000	83.154377
3888.000000	83.196540
3887.000000	83.245899
3886.000000	83.296705
3885.000000	83.340257
3884.000000	83.374872
3883.000000	83.406901
3882.000000	83.441457
3881.000000	83.476770
3880.000000	83.508965
3879.000000	83.539430
3878.000000	83.573510
3877.000000	83.613861
3876.000000	83.657677
3875.000000	83.698988
3874.000000	83.734256
3873.000000	83.767278
3872.000000	83.806079
3871.000000	83.853845
3870.000000	83.904007
3869.000000	83.948403
3868.000000	83.987152
3867.000000	84.025670
3866.000000	84.065787
3865.000000	84.103058
3864.000000	84.133465
3863.000000	84.160795
3862.000000	84.191645
3861.000000	84.226862
3860.000000	84.263157
3859.000000	84.299573
3858.000000	84.339523
3857.000000	84.386110
3856.000000	84.439391
3855.000000	84.499417
3854.000000	84.565695
3853.000000	84.633219
3852.000000	84.693668
3851.000000	84.739432
3850.000000	84.767867
3849.000000	84.782248
3848.000000	84.789175
3847.000000	84.797724
3846.000000	84.816227
3845.000000	84.847845
3844.000000	84.889865
3843.000000	84.937909
3842.000000	84.989554
3841.000000	85.044646
3840.000000	85.102090
3839.000000	85.158080
3838.000000	85.209335
3837.000000	85.254799
3836.000000	85.295229
3835.000000	85.332215
3834.000000	85.367184
3833.000000	85.400876
3832.000000	85.433409
3831.000000	85.465092
3830.000000	85.497415
3829.000000	85.532283
3828.000000	85.570090
3827.000000	85.609607
3826.000000	85.649066
3825.000000	85.688921
3824.000000	85.732416
3823.000000	85.782681
3822.000000	85.837331
3821.000000	85.888401
3820.000000	85.934364
3819.000000	85.983024
3818.000000	86.038948
3817.000000	86.095999
3816.000000	86.143942
3815.000000	86.180381
3814.000000	86.211697
3813.000000	86.242116
3812.000000	86.269584
3811.000000	86.292630
3810.000000	86.316391
3809.000000	86.349445
3808.000000	86.395517
3807.000000	86.449300
3806.000000	86.502410
3805.000000	86.552844
3804.000000	86.602972
3803.000000	86.653153
3802.000000	86.698950
3801.000000	86.738093
3800.000000	86.777102
3799.000000	86.823317
3798.000000	86.874099
3797.000000	86.918865
3796.000000	86.951332
3795.000000	86.977037
3794.000000	87.006151
3793.000000	87.043160
3792.000000	87.085771
3791.000000	87.130661
3790.000000	87.176539
3789.000000	87.222851
3788.000000	87.268356
3787.000000	87.311339
3786.000000	87.350261
3785.000000	87.385068
3784.000000	87.418940
3783.000000	87.457875
3782.000000	87.506541
3781.000000	87.563686
3780.000000	87.621603
3779.000000	87.672134
3778.000000	87.713528
3777.000000	87.749511
3776.000000	87.783980
3775.000000	87.818982
3774.000000	87.856092
3773.000000	87.897295
3772.000000	87.943796
3771.000000	87.993821
3770.000000	88.042340
3769.000000	88.086078
3768.000000	88.127350
3767.000000	88.170028
3766.000000	88.214411
3765.000000	88.257956
3764.000000	88.300549
3763.000000	88.345584
3762.000000	88.394269
3761.000000	88.442746
3760.000000	88.485492
3759.000000	88.521684
3758.000000	88.556953
3757.000000	88.597298
3756.000000	88.645291
3755.000000	88.700151
3754.000000	88.758270
3753.000000	88.814866
3752.000000	88.866771
3751.000000	88.915081
3750.000000	88.964248
3749.000000	89.016939
3748.000000	89.073712
3747.000000	89.133541
3746.000000	89.191241
3745.000000	89.239073
3744.000000	89.276828
3743.000000	89.315102
3742.000000	89.360929
3741.000000	89.410046
3740.000000	89.454170
3739.000000	89.490452
3738.000000	89.525472
3737.000000	89.568134
3736.000000	89.620572
3735.000000	89.676518
3734.000000	89.728082
3733.000000	89.771535
3732.000000	89.807034
3731.000000	89.838877
3730.000000	89.873533
3729.000000	89.914773
3728.000000	89.961515
3727.000000	90.008894
3726.000000	90.052619
3725.000000	90.092551
3724.000000	90.131785
3723.000000	90.172514
3722.000000	90.214430
3721.000000	90.258383
3720.000000	90.306715
3719.000000	90.359268
3718.000000	90.411585
3717.000000	90.458487
3716.000000	90.499242
3715.000000	90.536855
3714.000000	90.573696
3713.000000	90.610622
3712.000000	90.649999
3711.000000	90.696599
3710.000000	90.752586
3709.000000	90.812196
3708.000000	90.865781
3707.000000	90.908272
3706.000000	90.941932
3705.000000	90.973320
3704.000000	91.009046
3703.000000	91.052324
3702.000000	91.101389
3701.000000	91.152236
3700.000000	91.202149
3699.000000	91.249011
3698.000000	91.289419
3697.000000	91.320714
3696.000000	91.345136
3695.000000	91.370318
3694.000000	91.404490
3693.000000	91.452419
3692.000000	91.514176
3691.000000	91.583655
3690.000000	91.647577
3689.000000	91.693118
3688.000000	91.719714
3687.000000	91.737218
3686.000000	91.754513
3685.000000	91.773271
3684.000000	91.790383
3683.000000	91.804181
3682.000000	91.817206
3681.000000	91.833029
3680.000000	91.853882
3679.000000	91.879877
3678.000000	91.907419
3677.000000	91.930910
3676.000000	91.947499
3675.000000	91.964920
3674.000000	91.994461
3673.000000	92.033216
3672.000000	92.061793
3671.000000	92.061716
3670.000000	92.034752
3669.000000	92.006249
3668.000000	92.001095
3667.000000	92.019231
3666.000000	92.040512
3665.000000	92.047192
3664.000000	92.036581
3663.000000	92.017588
3662.000000	91.999525
3661.000000	91.984785
3660.000000	91.970739
3659.000000	91.952116
3658.000000	91.922161
3657.000000	91.878161
3656.000000	91.829005
3655.000000	91.791577
3654.000000	91.773822
3653.000000	91.766346
3652.000000	91.749043
3651.000000	91.704194
3650.000000	91.628621
3649.000000	91.539176
3648.000000	91.461244
3647.000000	91.404571
3646.000000	91.358542
3645.000000	91.308501
3644.000000	91.247914
3643.000000	91.178686
3642.000000	91.106064
3641.000000	91.034191
3640.000000	90.964692
3639.000000	90.896336
3638.000000	90.825015
3637.000000	90.745784
3636.000000	90.656676
3635.000000	90.562444
3634.000000	90.473164
3633.000000	90.397188
3632.000000	90.331671
3631.000000	90.258722
3630.000000	90.157218
3629.000000	90.028128
3628.000000	89.903270
3627.000000	89.810541
3626.000000	89.744546
3625.000000	89.683609
3624.000000	89.615604
3623.000000	89.541245
3622.000000	89.461268
3621.000000	89.368589
3620.000000	89.256414
3619.000000	89.132283
3618.000000	89.015794
3617.000000	88.919236
3616.000000	88.837240
3615.000000	88.754912
3614.000000	88.660860
3613.000000	88.555603
3612.000000	88.448869
3611.000000	88.346682
3610.000000	88.244986
3609.000000	88.139395
3608.000000	88.035862
3607.000000	87.946594
3606.000000	87.875777
3605.000000	87.814206
3604.000000	87.748181
3603.000000	87.668815
3602.000000	87.574379
3601.000000	87.469533
3600.000000	87.362978
3599.000000	87.261859
3598.000000	87.167257
3597.000000	87.075258
3596.000000	86.982460
3595.000000	86.888877
3594.000000	86.796506
3593.000000	86.707911
3592.000000	86.624460
3591.000000	86.543420
3590.000000	86.458090
3589.000000	86.363973
3588.000000	86.265248
3587.000000	86.172376
3586.000000	86.090862
3585.000000	86.014994
3584.000000	85.934846
3583.000000	85.845150
3582.000000	85.747045
3581.000000	85.645691
3580.000000	85.547379
3579.000000	85.455483
3578.000000	85.367465
3577.000000	85.277502
3576.000000	85.182164
3575.000000	85.083029
3574.000000	84.984756
3573.000000	84.892880
3572.000000	84.811798
3571.000000	84.739964
3570.000000	84.666769
3569.000000	84.578446
3568.000000	84.470107
3567.000000	84.352042
3566.000000	84.241270
3565.000000	84.147171
3564.000000	84.066785
3563.000000	83.990810
3562.000000	83.909571
3561.000000	83.817564
3560.000000	83.715930
3559.000000	83.609897
3558.000000	83.503688
3557.000000	83.399090
3556.000000	83.297523
3555.000000	83.199833
3554.000000	83.104263
3553.000000	83.007671
3552.000000	82.909771
3551.000000	82.813003
3550.000000	82.717849
3549.000000	82.622246
3548.000000	82.525387
3547.000000	82.429128
3546.000000	82.335007
3545.000000	82.242548
3544.000000	82.150220
3543.000000	82.055643
3542.000000	81.955592
3541.000000	81.849172
3540.000000	81.740762
3539.000000	81.636441
3538.000000	81.537895
3537.000000	81.442055
3536.000000	81.346842
3535.000000	81.253456
3534.000000	81.162669
3533.000000	81.072588
3532.000000	80.980742
3531.000000	80.886273
3530.000000	80.789617
3529.000000	80.693211
3528.000000	80.602300
3527.000000	80.521278
3526.000000	80.447916
3525.000000	80.373554
3524.000000	80.289973
3523.000000	80.195077
3522.000000	80.092849
3521.000000	79.989907
3520.000000	79.892080
3519.000000	79.801461
3518.000000	79.715892
3517.000000	79.631898
3516.000000	79.547334
3515.000000	79.460206
3514.000000	79.367231
3513.000000	79.266588
3512.000000	79.161111
3511.000000	79.056099
3510.000000	78.954696
3509.000000	78.857625
3508.000000	78.765339
3507.000000	78.677029
3506.000000	78.588469
3505.000000	78.494343
3504.000000	78.392911
3503.000000	78.286650
3502.000000	78.179214
3501.000000	78.073709
3500.000000	77.972315
3499.000000	77.873793
3498.000000	77.772282
3497.000000	77.662083
3496.000000	77.543828
3495.000000	77.423521
3494.000000	77.306147
3493.000000	77.192895
3492.000000	77.083304
3491.000000	76.976049
3490.000000	76.867762
3489.000000	76.754682
3488.000000	76.635981
3487.000000	76.513564
3486.000000	76.389478
3485.000000	76.265863
3484.000000	76.146227
3483.000000	76.033159
3482.000000	75.924435
3481.000000	75.813925
3480.000000	75.696320
3479.000000	75.569761
3478.000000	75.435538
3477.000000	75.298029
3476.000000	75.163730
3475.000000	75.037061
3474.000000	74.917468
3473.000000	74.802050
3472.000000	74.689254
3471.000000	74.577521
3470.000000	74.462298
3469.000000	74.338264
3468.000000	74.204215
3467.000000	74.063318
3466.000000	73.919559
3465.000000	73.776088
3464.000000	73.635473
3463.000000	73.498185
3462.000000	73.361340
3461.000000	73.221565
3460.000000	73.078712
3459.000000	72.935092
3458.000000	72.792499
3457.000000	72.651677
3456.000000	72.512959
3455.000000	72.374621
3454.000000	72.232431
3453.000000	72.083775
3452.000000	71.931306
3451.000000	71.780153
3450.000000	71.632375
3449.000000	71.486330
3448.000000	71.339954
3447.000000	71.191978
3446.000000	71.040951
3445.000000	70.885675
3444.000000	70.726383
3443.000000	70.564342
3442.000000	70.401435
3441.000000	70.241168
3440.000000	70.087561
3439.000000	69.940373
3438.000000	69.792805
3437.000000	69.636154
3436.000000	69.466183
3435.000000	69.284049
3434.000000	69.093839
3433.000000	68.901536
3432.000000	68.713047
3431.000000	68.529730
3430.000000	68.346477
3429.000000	68.156632
3428.000000	67.957919
3427.000000	67.751932
3426.000000	67.540883
3425.000000	67.327528
3424.000000	67.115704
3423.000000	66.907206
3422.000000	66.698930
3421.000000	66.485835
3420.000000	66.265599
3419.000000	66.038302
3418.000000	65.804026
3417.000000	65.563674
3416.000000	65.320392
3415.000000	65.076892
3414.000000	64.832094
3413.000000	64.582912
3412.000000	64.327509
3411.000000	64.064728
3410.000000	63.792262
3409.000000	63.508471
3408.000000	63.215526
3407.000000	62.918262
3406.000000	62.620916
3405.000000	62.326074
3404.000000	62.034048
3403.000000	61.740712
3402.000000	61.437356
3401.000000	61.115778
3400.000000	60.773771
3399.000000	60.415216
3398.000000	60.047236
3397.000000	59.677898
3396.000000	59.312896
3395.000000	58.951390
3394.000000	58.585750
3393.000000	58.207411
3392.000000	57.812226
3391.000000	57.400190
3390.000000	56.974133
3389.000000	56.539575
3388.000000	56.102513
3387.000000	55.664365
3386.000000	55.220843
3385.000000	54.767746
3384.000000	54.304587
3383.000000	53.832029
3382.000000	53.349464
3381.000000	52.857210
3380.000000	52.358100
3379.000000	51.853928
3378.000000	51.342889
3377.000000	50.822335
3376.000000	50.291275
3375.000000	49.749524
3374.000000	49.197424
3373.000000	48.638007
3372.000000	48.076265
3371.000000	47.513634
3370.000000	46.946436
3369.000000	46.370284
3368.000000	45.783138
3367.000000	45.183664
3366.000000	44.570692
3365.000000	43.946613
3364.000000	43.317248
3363.000000	42.686645
3362.000000	42.055119
3361.000000	41.422649
3360.000000	40.790223
3359.000000	40.156518
3358.000000	39.517483
3357.000000	38.871584
3356.000000	38.221623
3355.000000	37.570593
3354.000000	36.919360
3353.000000	36.269148
3352.000000	35.622054
3351.000000	34.977629
3350.000000	34.332844
3349.000000	33.686667
3348.000000	33.041139
3347.000000	32.397533
3346.000000	31.755791
3345.000000	31.118121
3344.000000	30.488459
3343.000000	29.867431
3342.000000	29.251843
3341.000000	28.639941
3340.000000	28.033047
3339.000000	27.432007
3338.000000	26.836945
3337.000000	26.250611
3336.000000	25.677274
3335.000000	25.117382
3334.000000	24.567549
3333.000000	24.026337
3332.000000	23.494993
3331.000000	22.973148
3330.000000	22.458739
3329.000000	21.952409
3328.000000	21.458023
3327.000000	20.977852
3326.000000	20.511969
3325.000000	20.061635
3324.000000	19.627948
3323.000000	19.208197
3322.000000	18.797967
3321.000000	18.397055
3320.000000	18.009053
3319.000000	17.635012
3318.000000	17.273530
3317.000000	16.925086
3316.000000	16.591214
3315.000000	16.270052
3314.000000	15.957477
3313.000000	15.652972
3312.000000	15.359046
3311.000000	15.075751
3310.000000	14.801631
3309.000000	14.538508
3308.000000	14.290586
3307.000000	14.058891
3306.000000	13.841451
3305.000000	13.638453
3304.000000	13.450670
3303.000000	13.274808
3302.000000	13.105621
3301.000000	12.942028
3300.000000	12.786515
3299.000000	12.639043
3298.000000	12.497425
3297.000000	12.362533
3296.000000	12.237079
3295.000000	12.120625
3294.000000	12.010827
3293.000000	11.909132
3292.000000	11.819597
3291.000000	11.741973
3290.000000	11.671997
3289.000000	11.607088
3288.000000	11.547135
3287.000000	11.490784
3286.000000	11.436049
3285.000000	11.384563
3284.000000	11.339604
3283.000000	11.301030
3282.000000	11.266605
3281.000000	11.236709
3280.000000	11.212905
3279.000000	11.192957
3278.000000	11.172912
3277.000000	11.153087
3276.000000	11.136687
3275.000000	11.123862
3274.000000	11.112357
3273.000000	11.103159
3272.000000	11.100079
3271.000000	11.104084
3270.000000	11.112941
3269.000000	11.125387
3268.000000	11.140918
3267.000000	11.156868
3266.000000	11.170624
3265.000000	11.183954
3264.000000	11.200479
3263.000000	11.219762
3262.000000	11.238606
3261.000000	11.256493
3260.000000	11.275018
3259.000000	11.293514
3258.000000	11.310404
3257.000000	11.327921
3256.000000	11.350190
3255.000000	11.377410
3254.000000	11.406222
3253.000000	11.434707
3252.000000	11.462597
3251.000000	11.488120
3250.000000	11.509782
3249.000000	11.530379
3248.000000	11.554606
3247.000000	11.583459
3246.000000	11.614757
3245.000000	11.647451
3244.000000	11.681162
3243.000000	11.713219
3242.000000	11.741155
3241.000000	11.766897
3240.000000	11.794153
3239.000000	11.822797
3238.000000	11.849989
3237.000000	11.875140
3236.000000	11.899642
3235.000000	11.923489
3234.000000	11.946525
3233.000000	11.971280
3232.000000	11.999969
3231.000000	12.030280
3230.000000	12.058494
3229.000000	12.084941
3228.000000	12.111973
3227.000000	12.138554
3226.000000	12.161567
3225.000000	12.180904
3224.000000	12.198591
3223.000000	12.214649
3222.000000	12.228311
3221.000000	12.241695
3220.000000	12.257508
3219.000000	12.274298
3218.000000	12.288365
3217.000000	12.298935
3216.000000	12.307406
3215.000000	12.313473
3214.000000	12.316295
3213.000000	12.317840
3212.000000	12.320523
3211.000000	12.322990
3210.000000	12.322393
3209.000000	12.318929
3208.000000	12.314198
3207.000000	12.307137
3206.000000	12.295935
3205.000000	12.282230
3204.000000	12.268860
3203.000000	12.255321
3202.000000	12.239524
3201.000000	12.221981
3200.000000	12.204008
3199.000000	12.183768
3198.000000	12.158792
3197.000000	12.130637
3196.000000	12.102632
3195.000000	12.074876
3194.000000	12.045649
3193.000000	12.015712
3192.000000	11.986680
3191.000000	11.956887
3190.000000	11.923542
3189.000000	11.887360
3188.000000	11.851022
3187.000000	11.814769
3186.000000	11.777629
3185.000000	11.741056
3184.000000	11.706978
3183.000000	11.673956
3182.000000	11.639379
3181.000000	11.603739
3180.000000	11.568917
3179.000000	11.534376
3178.000000	11.499031
3177.000000	11.464720
3176.000000	11.433638
3175.000000	11.404297
3174.000000	11.374077
3173.000000	11.343658
3172.000000	11.314994
3171.000000	11.287323
3170.000000	11.259303
3169.000000	11.232866
3168.000000	11.210678
3167.000000	11.191722
3166.000000	11.173460
3165.000000	11.156143
3164.000000	11.141028
3163.000000	11.126748
3162.000000	11.111605
3161.000000	11.097444
3160.000000	11.087179
3159.000000	11.080476
3158.000000	11.075537
3157.000000	11.072483
3156.000000	11.071363
3155.000000	11.069674
3154.000000	11.066289
3153.000000	11.065442
3152.000000	11.072205
3151.000000	11.086262
3150.000000	11.103927
3149.000000	11.123760
3148.000000	11.146065
3147.000000	11.169279
3146.000000	11.191625
3145.000000	11.214463
3144.000000	11.239899
3143.000000	11.267158
3142.000000	11.294969
3141.000000	11.325433
3140.000000	11.361588
3139.000000	11.402984
3138.000000	11.447394
3137.000000	11.494428
3136.000000	11.544054
3135.000000	11.594162
3134.000000	11.643299
3133.000000	11.693776
3132.000000	11.748337
3131.000000	11.806247
3130.000000	11.865978
3129.000000	11.928685
3128.000000	11.995487
3127.000000	12.064074
3126.000000	12.131917
3125.000000	12.200163
3124.000000	12.270548
3123.000000	12.341579
3122.000000	12.411697
3121.000000	12.483353
3120.000000	12.559831
3119.000000	12.640472
3118.000000	12.723295
3117.000000	12.809628
3116.000000	12.901857
3115.000000	12.998879
3114.000000	13.097542
3113.000000	13.196517
3112.000000	13.295234
3111.000000	13.391851
3110.000000	13.486292
3109.000000	13.582751
3108.000000	13.685222
3107.000000	13.792643
3106.000000	13.901730
3105.000000	14.011938
3104.000000	14.123869
3103.000000	14.235838
3102.000000	14.346274
3101.000000	14.457224
3100.000000	14.571576
3099.000000	14.688719
3098.000000	14.806705
3097.000000	14.926310
3096.000000	15.049001
3095.000000	15.173177
3094.000000	15.296213
3093.000000	15.418531
3092.000000	15.542303
3091.000000	15.668008
3090.000000	15.795438
3089.000000	15.925718
3088.000000	16.059032
3087.000000	16.192600
3086.000000	16.324164
3085.000000	16.455406
3084.000000	16.588781
3083.000000	16.723453
3082.000000	16.857783
3081.000000	16.993341
3080.000000	17.132969
3079.000000	17.276825
3078.000000	17.423504
3077.000000	17.572836
3076.000000	17.724233
3075.000000	17.874663
3074.000000	18.021697
3073.000000	18.166700
3072.000000	18.312088
3071.000000	18.457596
3070.000000	18.602388
3069.000000	18.748501
3068.000000	18.898645
3067.000000	19.052404
3066.000000	19.207558
3065.000000	19.363401
3064.000000	19.519871
3063.000000	19.675501
3062.000000	19.829214
3061.000000	19.982239
3060.000000	20.135695
3059.000000	20.288390
3058.000000	20.439552
3057.000000	20.591381
3056.000000	20.745989
3055.000000	20.902043
3054.000000	21.057384
3053.000000	21.212741
3052.000000	21.369866
3051.000000	21.527983
3050.000000	21.684969
3049.000000	21.840246
3048.000000	21.993979
3047.000000	22.145477
3046.000000	22.295026
3045.000000	22.445299
3044.000000	22.598397
3043.000000	22.753434
3042.000000	22.909144
3041.000000	23.066313
3040.000000	23.225060
3039.000000	23.382361
3038.000000	23.535386
3037.000000	23.685246
3036.000000	23.834857
3035.000000	23.985203
3034.000000	24.136203
3033.000000	24.288783
3032.000000	24.443042
3031.000000	24.596534
3030.000000	24.747327
3029.000000	24.896805
3028.000000	25.046919
3027.000000	25.196900
3026.000000	25.345367
3025.000000	25.493306
3024.000000	25.641916
3023.000000	25.789674
3022.000000	25.934626
3021.000000	26.077815
3020.000000	26.221554
3019.000000	26.365986
3018.000000	26.510078
3017.000000	26.654218
3016.000000	26.799108
3015.000000	26.943822
3014.000000	27.087673
3013.000000	27.232388
3012.000000	27.379763
3011.000000	27.528737
3010.000000	27.677062
3009.000000	27.824168
3008.000000	27.970151
3007.000000	28.113991
3006.000000	28.255360
3005.000000	28.396407
3004.000000	28.539227
3003.000000	28.682973
3002.000000	28.825656
3001.000000	28.966994
3000.000000	29.107418
2999.000000	29.246212
2998.000000	29.382988
2997.000000	29.519168
2996.000000	29.655760
2995.000000	29.791707
2994.000000	29.926741
2993.000000	30.063676
2992.000000	30.204987
2991.000000	30.348910
2990.000000	30.491619
2989.000000	30.631685
2988.000000	30.769885
2987.000000	30.906417
2986.000000	31.041092
2985.000000	31.174871
2984.000000	31.308568
2983.000000	31.441275
2982.000000	31.572448
2981.000000	31.704097
2980.000000	31.838470
2979.000000	31.974867
2978.000000	32.111115
2977.000000	32.246865
2976.000000	32.383049
2975.000000	32.519370
2974.000000	32.654707
2973.000000	32.788827
2972.000000	32.921693
2971.000000	33.052424
2970.000000	33.181092
2969.000000	33.310130
2968.000000	33.441672
2967.000000	33.574867
2966.000000	33.707678
2965.000000	33.839715
2964.000000	33.971128
2963.000000	34.100602
2962.000000	34.227108
2961.000000	34.352070
2960.000000	34.477305
2959.000000	34.602346
2958.000000	34.725973
2957.000000	34.848635
2956.000000	34.970872
2955.000000	35.091387
2954.000000	35.209493
2953.000000	35.327712
2952.000000	35.449025
2951.000000	35.572812
2950.000000	35.696163
2949.000000	35.817716
2948.000000	35.937620
2947.000000	36.055291
2946.000000	36.170209
2945.000000	36.283964
2944.000000	36.398839
2943.000000	36.515125
2942.000000	36.631940
2941.000000	36.749441
2940.000000	36.867795
2939.000000	36.985216
2938.000000	37.099531
2937.000000	37.210812
2936.000000	37.320387
2935.000000	37.428591
2934.000000	37.535894
2933.000000	37.644597
2932.000000	37.756427
2931.000000	37.869435
2930.000000	37.979988
2929.000000	38.087069
2928.000000	38.192156
2927.000000	38.296232
2926.000000	38.399763
2925.000000	38.504483
2924.000000	38.612057
2923.000000	38.721489
2922.000000	38.830422
2921.000000	38.938187
2920.000000	39.045233
2919.000000	39.150825
2918.000000	39.254172
2917.000000	39.356978
2916.000000	39.461839
2915.000000	39.568286
2914.000000	39.672702
2913.000000	39.771909
2912.000000	39.864985
2911.000000	39.952350
2910.000000	40.035519
2909.000000	40.117602
2908.000000	40.201924
2907.000000	40.289763
2906.000000	40.380384
2905.000000	40.472482
2904.000000	40.564285
2903.000000	40.653170
2902.000000	40.737701
2901.000000	40.819349
2900.000000	40.901227
2899.000000	40.985240
2898.000000	41.071198
2897.000000	41.157590
2896.000000	41.241678
2895.000000	41.320202
2894.000000	41.392037
2893.000000	41.459762
2892.000000	41.527260
2891.000000	41.596607
2890.000000	41.668234
2889.000000	41.742365
2888.000000	41.818141
2887.000000	41.892321
2886.000000	41.961145
2885.000000	42.023141
2884.000000	42.078848
2883.000000	42.129071
2882.000000	42.175204
2881.000000	42.220102
2880.000000	42.266235
2879.000000	42.313433
2878.000000	42.360219
2877.000000	42.406441
2876.000000	42.452588
2875.000000	42.497351
2874.000000	42.538593
2873.000000	42.576720
2872.000000	42.615288
2871.000000	42.658344
2870.000000	42.708508
2869.000000	42.766943
2868.000000	42.833125
2867.000000	42.905118
2866.000000	42.982029
2865.000000	43.065983
2864.000000	43.160215
2863.000000	43.265405
2862.000000	43.379037
2861.000000	43.497333
2860.000000	43.616266
2859.000000	43.731802
2858.000000	43.841804
2857.000000	43.947977
2856.000000	44.054414
2855.000000	44.164308
2854.000000	44.278768
2853.000000	44.397541
2852.000000	44.518776
2851.000000	44.638556
2850.000000	44.752713
2849.000000	44.859435
2848.000000	44.959461
2847.000000	45.054663
2846.000000	45.147682
2845.000000	45.241728
2844.000000	45.338568
2843.000000	45.436752
2842.000000	45.533206
2841.000000	45.626206
2840.000000	45.715780
2839.000000	45.802439
2838.000000	45.887360
2837.000000	45.973014
2836.000000	46.061321
2835.000000	46.151030
2834.000000	46.238315
2833.000000	46.319966
2832.000000	46.395126
2831.000000	46.464927
2830.000000	46.532379
2829.000000	46.602210
2828.000000	46.678489
2827.000000	46.761616
2826.000000	46.848302
2825.000000	46.934126
2824.000000	47.015372
2823.000000	47.089651
2822.000000	47.157042
2821.000000	47.220858
2820.000000	47.285689
2819.000000	47.354240
2818.000000	47.426574
2817.000000	47.501541
2816.000000	47.577292
2815.000000	47.651084
2814.000000	47.720863
2813.000000	47.787530
2812.000000	47.854346
2811.000000	47.923934
2810.000000	47.996729
2809.000000	48.071703
2808.000000	48.146817
2807.000000	48.218991
2806.000000	48.285632
2805.000000	48.347028
2804.000000	48.406462
2803.000000	48.468012
2802.000000	48.534797
2801.000000	48.608225
2800.000000	48.686865
2799.000000	48.766016
2798.000000	48.840103
2797.000000	48.906241
2796.000000	48.965168
2795.000000	49.019651
2794.000000	49.073462
2793.000000	49.131049
2792.000000	49.195523
2791.000000	49.265988
2790.000000	49.337965
2789.000000	49.406811
2788.000000	49.470185
2787.000000	49.528045
2786.000000	49.582287
2785.000000	49.636423
2784.000000	49.693662
2783.000000	49.754316
2782.000000	49.815738
2781.000000	49.874792
2780.000000	49.929518
2779.000000	49.979224
2778.000000	50.025168
2777.000000	50.071367
2776.000000	50.122759
2775.000000	50.181477
2774.000000	50.245396
2773.000000	50.310029
2772.000000	50.370742
2771.000000	50.423840
2770.000000	50.468040
2769.000000	50.506024
2768.000000	50.543517
2767.000000	50.585940
2766.000000	50.635989
2765.000000	50.693426
2764.000000	50.755264
2763.000000	50.816237
2762.000000	50.871265
2761.000000	50.918741
2760.000000	50.961053
2759.000000	51.002004
2758.000000	51.044683
2757.000000	51.091080
2756.000000	51.141473
2755.000000	51.193425
2754.000000	51.242886
2753.000000	51.287395
2752.000000	51.327752
2751.000000	51.366753
2750.000000	51.407549
2749.000000	51.452865
2748.000000	51.503592
2747.000000	51.557040
2746.000000	51.607762
2745.000000	51.651105
2744.000000	51.685850
2743.000000	51.714179
2742.000000	51.740754
2741.000000	51.771639
2740.000000	51.811692
2739.000000	51.861233
2738.000000	51.915571
2737.000000	51.968138
2736.000000	52.013761
2735.000000	52.049961
2734.000000	52.077498
2733.000000	52.100604
2732.000000	52.125196
2731.000000	52.155441
2730.000000	52.191899
2729.000000	52.232353
2728.000000	52.273223
2727.000000	52.310519
2726.000000	52.341675
2725.000000	52.367808
2724.000000	52.393338
2723.000000	52.422670
2722.000000	52.457417
2721.000000	52.496148
2720.000000	52.535197
2719.000000	52.569725
2718.000000	52.596184
2717.000000	52.615255
2716.000000	52.631884
2715.000000	52.652042
2714.000000	52.679702
2713.000000	52.715884
2712.000000	52.758244
2711.000000	52.800957
2710.000000	52.836950
2709.000000	52.861895
2708.000000	52.876321
2707.000000	52.884463
2706.000000	52.892121
2705.000000	52.904887
2704.000000	52.925647
2703.000000	52.952408
2702.000000	52.979507
2701.000000	53.001624
2700.000000	53.016418
2699.000000	53.024157
2698.000000	53.026996
2697.000000	53.028928
2696.000000	53.034020
2695.000000	53.043218
2694.000000	53.053525
2693.000000	53.060715
2692.000000	53.062124
2691.000000	53.057192
2690.000000	53.047566
2689.000000	53.037567
2688.000000	53.032605
2687.000000	53.035461
2686.000000	53.044261
2685.000000	53.054081
2684.000000	53.059522
2683.000000	53.056173
2682.000000	53.042370
2681.000000	53.021165
2680.000000	52.999529
2679.000000	52.984313
2678.000000	52.978813
2677.000000	52.982389
2676.000000	52.991388
2675.000000	53.000109
2674.000000	53.003185
2673.000000	52.999151
2672.000000	52.991557
2671.000000	52.986541
2670.000000	52.989733
2669.000000	53.004572
2668.000000	53.031335
2667.000000	53.066465
2666.000000	53.104531
2665.000000	53.142193
2664.000000	53.180064
2663.000000	53.221432
2662.000000	53.270051
2661.000000	53.328941
2660.000000	53.398825
2659.000000	53.476054
2658.000000	53.553576
2657.000000	53.625115
2656.000000	53.688469
2655.000000	53.745362
2654.000000	53.799870
2653.000000	53.857442
2652.000000	53.922946
2651.000000	53.997373
2650.000000	54.076546
2649.000000	54.153675
2648.000000	54.222898
2647.000000	54.281102
2646.000000	54.328689
2645.000000	54.369889
2644.000000	54.411048
2643.000000	54.456738
2642.000000	54.507359
2641.000000	54.560140
2640.000000	54.610991
2639.000000	54.655645
2638.000000	54.691354
2637.000000	54.719396
2636.000000	54.745108
2635.000000	54.773978
2634.000000	54.807950
2633.000000	54.845207
2632.000000	54.881879
2631.000000	54.913307
2630.000000	54.935533
2629.000000	54.947970
2628.000000	54.954578
2627.000000	54.961642
2626.000000	54.974508
2625.000000	54.995731
2624.000000	55.024204
2623.000000	55.054797
2622.000000	55.080297
2621.000000	55.095695
2620.000000	55.100900
2619.000000	55.099718
2618.000000	55.097475
2617.000000	55.099534
2616.000000	55.109507
2615.000000	55.126678
2614.000000	55.145771
2613.000000	55.160526
2612.000000	55.167444
2611.000000	55.166577
2610.000000	55.160465
2609.000000	55.153228
2608.000000	55.148798
2607.000000	55.147838
2606.000000	55.146706
2605.000000	55.139905
2604.000000	55.123413
2603.000000	55.096146
2602.000000	55.060101
2601.000000	55.020545
2600.000000	54.984346
2599.000000	54.956137
2598.000000	54.935857
2597.000000	54.919824
2596.000000	54.903294
2595.000000	54.882347
2594.000000	54.855897
2593.000000	54.827743
2592.000000	54.806109
2591.000000	54.799285
2590.000000	54.811724
2589.000000	54.843764
2588.000000	54.892590
2587.000000	54.953156
2586.000000	55.019400
2585.000000	55.087152
2584.000000	55.156453
2583.000000	55.230150
2582.000000	55.311386
2581.000000	55.401727
2580.000000	55.500134
2579.000000	55.602687
2578.000000	55.703920
2577.000000	55.800289
2576.000000	55.892304
2575.000000	55.983433
2574.000000	56.077821
2573.000000	56.178724
2572.000000	56.287079
2571.000000	56.399841
2570.000000	56.510454
2569.000000	56.612446
2568.000000	56.702993
2567.000000	56.783476
2566.000000	56.858337
2565.000000	56.934030
2564.000000	57.016839
2563.000000	57.109334
2562.000000	57.208608
2561.000000	57.308501
2560.000000	57.403119
2559.000000	57.488338
2558.000000	57.562550
2557.000000	57.627915
2556.000000	57.690061
2555.000000	57.754652
2554.000000	57.823803
2553.000000	57.896063
2552.000000	57.968417
2551.000000	58.037529
2550.000000	58.100892
2549.000000	58.158632
2548.000000	58.213954
2547.000000	58.270523
2546.000000	58.329455
2545.000000	58.389139
2544.000000	58.446205
2543.000000	58.496091
2542.000000	58.534547
2541.000000	58.560718
2540.000000	58.578808
2539.000000	58.595133
2538.000000	58.614129
2537.000000	58.636980
2536.000000	58.661627
2535.000000	58.682790
2534.000000	58.692867
2533.000000	58.685656
2532.000000	58.659685
2531.000000	58.617534
2530.000000	58.564036
2529.000000	58.505329
2528.000000	58.447645
2527.000000	58.394591
2526.000000	58.345728
2525.000000	58.299199
2524.000000	58.254738
2523.000000	58.213689
2522.000000	58.178011
2521.000000	58.151135
2520.000000	58.137722
2519.000000	58.140772
2518.000000	58.159359
2517.000000	58.189861
2516.000000	58.229415
2515.000000	58.276451
2514.000000	58.330205
2513.000000	58.391617
2512.000000	58.463073
2511.000000	58.546010
2510.000000	58.638046
2509.000000	58.733633
2508.000000	58.826933
2507.000000	58.913099
2506.000000	58.988930
2505.000000	59.054552
2504.000000	59.114360
2503.000000	59.174576
2502.000000	59.239632
2501.000000	59.310737
2500.000000	59.386311
2499.000000	59.462267
2498.000000	59.533011
2497.000000	59.594522
2496.000000	59.646503
2495.000000	59.691293
2494.000000	59.731730
2493.000000	59.770549
2492.000000	59.810253
2491.000000	59.851385
2490.000000	59.891854
2489.000000	59.929453
2488.000000	59.964115
2487.000000	59.997135
2486.000000	60.029504
2485.000000	60.062297
2484.000000	60.096950
2483.000000	60.133046
2482.000000	60.167098
2481.000000	60.195181
2480.000000	60.216184
2479.000000	60.231597
2478.000000	60.243736
2477.000000	60.255993
2476.000000	60.272939
2475.000000	60.297439
2474.000000	60.328027
2473.000000	60.360472
2472.000000	60.391004
2471.000000	60.416958
2470.000000	60.436196
2469.000000	60.448519
2468.000000	60.456953
2467.000000	60.465657
2466.000000	60.476954
2465.000000	60.491398
2464.000000	60.509304
2463.000000	60.530267
2462.000000	60.552341
2461.000000	60.573652
2460.000000	60.594157
2459.000000	60.614412
2458.000000	60.633827
2457.000000	60.651688
2456.000000	60.668541
2455.000000	60.684721
2454.000000	60.698839
2453.000000	60.709744
2452.000000	60.719066
2451.000000	60.730044
2450.000000	60.744781
2449.000000	60.764101
2448.000000	60.788470
2447.000000	60.816719
2446.000000	60.844891
2445.000000	60.868674
2444.000000	60.886583
2443.000000	60.899576
2442.000000	60.908972
2441.000000	60.916671
2440.000000	60.926090
2439.000000	60.940329
2438.000000	60.959772
2437.000000	60.982896
2436.000000	61.008370
2435.000000	61.034733
2434.000000	61.059375
2433.000000	61.080088
2432.000000	61.097018
2431.000000	61.111502
2430.000000	61.124084
2429.000000	61.135392
2428.000000	61.147655
2427.000000	61.163279
2426.000000	61.182721
2425.000000	61.205396
2424.000000	61.231420
2423.000000	61.260631
2422.000000	61.291131
2421.000000	61.320707
2420.000000	61.348723
2419.000000	61.374945
2418.000000	61.397859
2417.000000	61.416217
2416.000000	61.431178
2415.000000	61.445096
2414.000000	61.459442
2413.000000	61.475665
2412.000000	61.496403
2411.000000	61.523356
2410.000000	61.554854
2409.000000	61.587425
2408.000000	61.618627
2407.000000	61.646710
2406.000000	61.669337
2405.000000	61.685406
2404.000000	61.697290
2403.000000	61.709116
2402.000000	61.723693
2401.000000	61.742667
2400.000000	61.767787
2399.000000	61.799369
2398.000000	61.834513
2397.000000	61.869272
2396.000000	61.901874
2395.000000	61.932298
2394.000000	61.960232
2393.000000	61.985729
2392.000000	62.010546
2391.000000	62.036487
2390.000000	62.063492
2389.000000	62.091049
2388.000000	62.120704
2387.000000	62.154573
2386.000000	62.193188
2385.000000	62.236838
2384.000000	62.286467
2383.000000	62.342198
2382.000000	62.400734
2381.000000	62.457670
2380.000000	62.511398
2379.000000	62.561895
2378.000000	62.609688
2377.000000	62.657105
2376.000000	62.709095
2375.000000	62.769437
2374.000000	62.837013
2373.000000	62.908111
2372.000000	62.979656
2371.000000	63.048380
2370.000000	63.109317
2369.000000	63.160598
2368.000000	63.205544
2367.000000	63.248949
2366.000000	63.293788
2365.000000	63.341671
2364.000000	63.396011
2363.000000	63.455564
2362.000000	63.514366
2361.000000	63.570765
2360.000000	63.625215
2359.000000	63.680807
2358.000000	63.736961
2357.000000	63.792112
2356.000000	63.847839
2355.000000	63.900012
2354.000000	63.944716
2353.000000	63.978813
2352.000000	64.005630
2351.000000	64.032988
2350.000000	64.066807
2349.000000	64.118504
2348.000000	64.197058
2347.000000	64.305157
2346.000000	64.424739
2345.000000	64.525141
2344.000000	64.592075
2343.000000	64.629814
2342.000000	64.656623
2341.000000	64.683758
2340.000000	64.717229
2339.000000	64.761601
2338.000000	64.819591
2337.000000	64.889745
2336.000000	64.967751
2335.000000	65.047165
2334.000000	65.123168
2333.000000	65.192141
2332.000000	65.254043
2331.000000	65.313329
2330.000000	65.370349
2329.000000	65.427492
2328.000000	65.482255
2327.000000	65.535945
2326.000000	65.588467
2325.000000	65.638606
2324.000000	65.690066
2323.000000	65.744823
2322.000000	65.806747
2321.000000	65.873312
2320.000000	65.942414
2319.000000	66.009287
2318.000000	66.067656
2317.000000	66.113139
2316.000000	66.147138
2315.000000	66.177921
2314.000000	66.212701
2313.000000	66.257067
2312.000000	66.313545
2311.000000	66.382228
2310.000000	66.456331
2309.000000	66.525940
2308.000000	66.584494
2307.000000	66.632070
2306.000000	66.672532
2305.000000	66.710421
2304.000000	66.751798
2303.000000	66.801012
2302.000000	66.857263
2301.000000	66.915206
2300.000000	66.970114
2299.000000	67.021055
2298.000000	67.068425
2297.000000	67.114779
2296.000000	67.165025
2295.000000	67.223945
2294.000000	67.290050
2293.000000	67.355827
2292.000000	67.413475
2291.000000	67.458646
2290.000000	67.490790
2289.000000	67.513962
2288.000000	67.538183
2287.000000	67.574499
2286.000000	67.627780
2285.000000	67.694494
2284.000000	67.767229
2283.000000	67.837209
2282.000000	67.895333
2281.000000	67.935934
2280.000000	67.961928
2279.000000	67.982939
2278.000000	68.008112
2277.000000	68.042438
2276.000000	68.087542
2275.000000	68.141281
2274.000000	68.196289
2273.000000	68.244270
2272.000000	68.282794
2271.000000	68.316005
2270.000000	68.349223
2269.000000	68.385906
2268.000000	68.428153
2267.000000	68.474821
2266.000000	68.518921
2265.000000	68.551623
2264.000000	68.569982
2263.000000	68.578975
2262.000000	68.586810
2261.000000	68.601597
2260.000000	68.630674
2259.000000	68.676540
2258.000000	68.732452
2257.000000	68.784933
2256.000000	68.822413
2255.000000	68.839902
2254.000000	68.838214
2253.000000	68.824074
2252.000000	68.810026
2251.000000	68.808845
2250.000000	68.824752
2249.000000	68.852597
2248.000000	68.883445
2247.000000	68.908618
2246.000000	68.921091
2245.000000	68.918454
2244.000000	68.906190
2243.000000	68.893701
2242.000000	68.886353
2241.000000	68.883288
2240.000000	68.881004
2239.000000	68.874920
2238.000000	68.859161
2237.000000	68.830727
2236.000000	68.794957
2235.000000	68.762905
2234.000000	68.742818
2233.000000	68.736134
2232.000000	68.739137
2231.000000	68.743495
2230.000000	68.736405
2229.000000	68.706870
2228.000000	68.654370
2227.000000	68.589300
2226.000000	68.525607
2225.000000	68.475238
2224.000000	68.446231
2223.000000	68.439083
2222.000000	68.443714
2221.000000	68.444504
2220.000000	68.430391
2219.000000	68.399155
2218.000000	68.354659
2217.000000	68.304711
2216.000000	68.260036
2215.000000	68.228927
2214.000000	68.210906
2213.000000	68.198285
2212.000000	68.183812
2211.000000	68.164485
2210.000000	68.140380
2209.000000	68.115245
2208.000000	68.097478
2207.000000	68.094861
2206.000000	68.106576
2205.000000	68.123087
2204.000000	68.133433
2203.000000	68.130191
2202.000000	68.110296
2201.000000	68.077502
2200.000000	68.044498
2199.000000	68.027339
2198.000000	68.035293
2197.000000	68.066846
2196.000000	68.113020
2195.000000	68.160518
2194.000000	68.194198
2193.000000	68.203980
2192.000000	68.192206
2191.000000	68.171591
2190.000000	68.155829
2189.000000	68.153816
2188.000000	68.169271
2187.000000	68.199400
2186.000000	68.233716
2185.000000	68.259827
2184.000000	68.272643
2183.000000	68.276029
2182.000000	68.276730
2181.000000	68.280383
2180.000000	68.291218
2179.000000	68.309146
2178.000000	68.326346
2177.000000	68.331593
2176.000000	68.319749
2175.000000	68.295124
2174.000000	68.267311
2173.000000	68.247619
2172.000000	68.246899
2171.000000	68.269600
2170.000000	68.307973
2169.000000	68.345548
2168.000000	68.367421
2167.000000	68.366074
2166.000000	68.341199
2165.000000	68.300533
2164.000000	68.260267
2163.000000	68.237736
2162.000000	68.240582
2161.000000	68.264167
2160.000000	68.297599
2159.000000	68.328880
2158.000000	68.347162
2157.000000	68.347624
2156.000000	68.336010
2155.000000	68.324291
2154.000000	68.320764
2153.000000	68.326300
2152.000000	68.337601
2151.000000	68.348942
2150.000000	68.352369
2149.000000	68.342928
2148.000000	68.325332
2147.000000	68.311666
2146.000000	68.311910
2145.000000	68.328938
2144.000000	68.359749
2143.000000	68.395188
2142.000000	68.419753
2141.000000	68.419272
2140.000000	68.391840
2139.000000	68.348815
2138.000000	68.306218
2137.000000	68.278349
2136.000000	68.275771
2135.000000	68.300701
2134.000000	68.342489
2133.000000	68.382632
2132.000000	68.406457
2131.000000	68.408950
2130.000000	68.392437
2129.000000	68.364998
2128.000000	68.339950
2127.000000	68.329283
2126.000000	68.334713
2125.000000	68.348043
2124.000000	68.360247
2123.000000	68.366805
2122.000000	68.366641
2121.000000	68.362564
2120.000000	68.363129
2119.000000	68.377726
2118.000000	68.407358
2117.000000	68.443022
2116.000000	68.472889
2115.000000	68.487975
2114.000000	68.483649
2113.000000	68.463154
2112.000000	68.440841
2111.000000	68.435974
2110.000000	68.460652
2109.000000	68.514845
2108.000000	68.589898
2107.000000	68.671665
2106.000000	68.742535
2105.000000	68.788988
2104.000000	68.811054
2103.000000	68.821786
2102.000000	68.837026
2101.000000	68.868568
2100.000000	68.923068
2099.000000	68.999831
2098.000000	69.088566
2097.000000	69.174530
2096.000000	69.248938
2095.000000	69.312645
2094.000000	69.371531
2093.000000	69.432522
2092.000000	69.501841
2091.000000	69.580206
2090.000000	69.658658
2089.000000	69.724174
2088.000000	69.770742
2087.000000	69.802296
2086.000000	69.827406
2085.000000	69.856624
2084.000000	69.901901
2083.000000	69.969777
2082.000000	70.052702
2081.000000	70.131806
2080.000000	70.188869
2079.000000	70.213606
2078.000000	70.204308
2077.000000	70.168959
2076.000000	70.126507
2075.000000	70.098258
2074.000000	70.094669
2073.000000	70.112844
2072.000000	70.142486
2071.000000	70.169676
2070.000000	70.179692
2069.000000	70.165943
2068.000000	70.136948
2067.000000	70.108453
2066.000000	70.089312
2065.000000	70.079625
2064.000000	70.078180
2063.000000	70.083303
2062.000000	70.088506
2061.000000	70.086797
2060.000000	70.081099
2059.000000	70.083832
2058.000000	70.105222
2057.000000	70.146810
2056.000000	70.204748
2055.000000	70.270600
2054.000000	70.329483
2053.000000	70.367183
2052.000000	70.381829
2051.000000	70.384846
2050.000000	70.391984
2049.000000	70.418122
2048.000000	70.475612
2047.000000	70.567862
2046.000000	70.683642
2045.000000	70.803696
2044.000000	70.913862
2043.000000	71.008514
2042.000000	71.086167
2041.000000	71.151056
2040.000000	71.216953
2039.000000	71.299633
2038.000000	71.403886
2037.000000	71.522822
2036.000000	71.648445
2035.000000	71.776415
2034.000000	71.902698
2033.000000	72.024937
2032.000000	72.148623
2031.000000	72.282566
2030.000000	72.427562
2029.000000	72.574323
2028.000000	72.712874
2027.000000	72.837499
2026.000000	72.944234
2025.000000	73.034740
2024.000000	73.120798
2023.000000	73.218262
2022.000000	73.335916
2021.000000	73.474893
2020.000000	73.634133
2019.000000	73.806128
2018.000000	73.970112
2017.000000	74.102978
2016.000000	74.199513
2015.000000	74.273961
2014.000000	74.343991
2013.000000	74.421748
2012.000000	74.516805
2011.000000	74.633418
2010.000000	74.763149
2009.000000	74.889010
2008.000000	75.000622
2007.000000	75.098906
2006.000000	75.186233
2005.000000	75.264998
2004.000000	75.341257
2003.000000	75.422124
2002.000000	75.504734
2001.000000	75.577794
2000.000000	75.638066
1999.000000	75.690291
1998.000000	75.734933
1997.000000	75.771685
1996.000000	75.814931
1995.000000	75.887288
1994.000000	75.992042
1993.000000	76.104209
1992.000000	76.196467
1991.000000	76.260587
1990.000000	76.299932
1989.000000	76.319787
1988.000000	76.332206
1987.000000	76.356810
1986.000000	76.406109
1985.000000	76.477485
1984.000000	76.560609
1983.000000	76.646016
1982.000000	76.721505
1981.000000	76.774091
1980.000000	76.804543
1979.000000	76.826579
1978.000000	76.850618
1977.000000	76.877313
1976.000000	76.907989
1975.000000	76.945770
1974.000000	76.983928
1973.000000	77.007744
1972.000000	77.014280
1971.000000	77.019809
1970.000000	77.043988
1969.000000	77.093884
1968.000000	77.163302
1967.000000	77.238229
1966.000000	77.299853
1965.000000	77.332805
1964.000000	77.337411
1963.000000	77.327821
1962.000000	77.317756
1961.000000	77.316504
1960.000000	77.334512
1959.000000	77.379397
1958.000000	77.444974
1957.000000	77.512338
1956.000000	77.566195
1955.000000	77.600553
1954.000000	77.613347
1953.000000	77.606686
1952.000000	77.589654
1951.000000	77.577422
1950.000000	77.579021
1949.000000	77.589168
1948.000000	77.596835
1947.000000	77.597604
1946.000000	77.598613
1945.000000	77.614870
1944.000000	77.655189
1943.000000	77.711276
1942.000000	77.765674
1941.000000	77.806477
1940.000000	77.832550
1939.000000	77.844652
1938.000000	77.837364
1937.000000	77.809946
1936.000000	77.779582
1935.000000	77.767594
1934.000000	77.781077
1933.000000	77.815011
1932.000000	77.859777
1931.000000	77.908875
1930.000000	77.947333
1929.000000	77.953061
1928.000000	77.915401
1927.000000	77.846248
1926.000000	77.779331
1925.000000	77.743903
1924.000000	77.744107
1923.000000	77.767356
1922.000000	77.800721
1921.000000	77.839156
1920.000000	77.880396
1919.000000	77.907691
1918.000000	77.904678
1917.000000	77.880426
1916.000000	77.855732
1915.000000	77.833884
1914.000000	77.800785
1913.000000	77.751079
1912.000000	77.699644
1911.000000	77.666168
1910.000000	77.650232
1909.000000	77.643123
1908.000000	77.647489
1907.000000	77.666969
1906.000000	77.695915
1905.000000	77.718174
1904.000000	77.721815
1903.000000	77.707695
1902.000000	77.675229
1901.000000	77.621377
1900.000000	77.555101
1899.000000	77.496570
1898.000000	77.467216
1897.000000	77.475236
1896.000000	77.509175
1895.000000	77.544773
1894.000000	77.560483
1893.000000	77.555442
1892.000000	77.551744
1891.000000	77.562186
1890.000000	77.570171
1889.000000	77.560243
1888.000000	77.543310
1887.000000	77.537895
1886.000000	77.545139
1885.000000	77.552882
1884.000000	77.558029
1883.000000	77.571444
1882.000000	77.595480
1881.000000	77.619508
1880.000000	77.639089
1879.000000	77.654258
1878.000000	77.657948
1877.000000	77.642239
1876.000000	77.608451
1875.000000	77.563365
1874.000000	77.508204
1873.000000	77.442891
1872.000000	77.386570
1871.000000	77.371372
1870.000000	77.399362
1869.000000	77.441373
1868.000000	77.480528
1867.000000	77.513267
1866.000000	77.526127
1865.000000	77.505544
1864.000000	77.459218
1863.000000	77.409926
1862.000000	77.370929
1861.000000	77.342147
1860.000000	77.325680
1859.000000	77.326771
1858.000000	77.337953
1857.000000	77.344882
1856.000000	77.342679
1855.000000	77.336992
1854.000000	77.321262
1853.000000	77.276658
1852.000000	77.207525
1851.000000	77.138214
1850.000000	77.088179
1849.000000	77.063932
1848.000000	77.068434
1847.000000	77.103393
1846.000000	77.145029
1845.000000	77.134188
1844.000000	77.058288
1843.000000	76.980130
1842.000000	76.932352
1841.000000	76.891905
1840.000000	76.837396
1839.000000	76.772329
1838.000000	76.710120
1837.000000	76.651135
1836.000000	76.589658
1835.000000	76.526529
1834.000000	76.458579
1833.000000	76.393626
1832.000000	76.363901
1831.000000	76.361959
1830.000000	76.335847
1829.000000	76.267554
1828.000000	76.191387
1827.000000	76.142056
1826.000000	76.102717
1825.000000	76.040001
1824.000000	75.968095
1823.000000	75.918911
1822.000000	75.886533
1821.000000	75.847875
1820.000000	75.803331
1819.000000	75.765953
1818.000000	75.731850
1817.000000	75.676628
1816.000000	75.591637
1815.000000	75.492558
1814.000000	75.393038
1813.000000	75.303060
1812.000000	75.227911
1811.000000	75.167647
1810.000000	75.119056
1809.000000	75.074974
1808.000000	75.032471
1807.000000	74.988236
1806.000000	74.933088
1805.000000	74.858251
1804.000000	74.776247
1803.000000	74.710380
1802.000000	74.655009
1801.000000	74.587037
1800.000000	74.501325
1799.000000	74.420578
1798.000000	74.369955
1797.000000	74.350468
1796.000000	74.345253
1795.000000	74.341370
1794.000000	74.326145
1793.000000	74.274215
1792.000000	74.185507
1791.000000	74.101327
1790.000000	74.038671
1789.000000	73.978721
1788.000000	73.913866
1787.000000	73.849705
1786.000000	73.779650
1785.000000	73.685554
1784.000000	73.583048
1783.000000	73.516809
1782.000000	73.491022
1781.000000	73.468344
1780.000000	73.424563
1779.000000	73.385053
1778.000000	73.382058
1777.000000	73.406927
1776.000000	73.422202
1775.000000	73.403885
1774.000000	73.337078
1773.000000	73.196145
1772.000000	73.026113
1771.000000	72.921801
1770.000000	72.896635
1769.000000	72.881954
1768.000000	72.828119
1767.000000	72.752666
1766.000000	72.680877
1765.000000	72.606815
1764.000000	72.528660
1763.000000	72.437790
1762.000000	72.316812
1761.000000	72.187920
1760.000000	72.093038
1759.000000	72.059656
1758.000000	72.056951
1757.000000	72.027522
1756.000000	71.981651
1755.000000	71.953256
1754.000000	71.907572
1753.000000	71.779776
1752.000000	71.562922
1751.000000	71.334492
1750.000000	71.177370
1749.000000	71.073907
1748.000000	70.971179
1747.000000	70.866909
1746.000000	70.782130
1745.000000	70.724904
1744.000000	70.691271
1743.000000	70.674376
1742.000000	70.655892
1741.000000	70.598269
1740.000000	70.492038
1739.000000	70.419488
1738.000000	70.431503
1737.000000	70.463993
1736.000000	70.434051
1735.000000	70.212322
1734.000000	69.779803
1733.000000	69.350493
1732.000000	69.078069
1731.000000	68.940753
1730.000000	68.832802
1729.000000	68.669308
1728.000000	68.459189
1727.000000	68.249783
1726.000000	68.056063
1725.000000	67.863430
1724.000000	67.668156
1723.000000	67.506021
1722.000000	67.401779
1721.000000	67.324842
1720.000000	67.229749
1719.000000	67.042686
1718.000000	66.702123
1717.000000	66.284751
1716.000000	65.920875
1715.000000	65.639192
1714.000000	65.385318
1713.000000	65.112696
1712.000000	64.824045
1711.000000	64.536644
1710.000000	64.243573
1709.000000	63.942578
1708.000000	63.669182
1707.000000	63.450642
1706.000000	63.269090
1705.000000	63.135201
1704.000000	63.054666
1703.000000	62.979857
1702.000000	62.841231
1701.000000	62.485779
1700.000000	61.979198
1699.000000	61.619417
1698.000000	61.437999
1697.000000	61.188388
1696.000000	60.680868
1695.000000	60.054713
1694.000000	59.543142
1693.000000	59.160765
1692.000000	58.823683
1691.000000	58.515462
1690.000000	58.283318
1689.000000	58.148112
1688.000000	58.034379
1687.000000	57.823512
1686.000000	57.480039
1685.000000	56.923755
1684.000000	56.194339
1683.000000	55.592631
1682.000000	55.226041
1681.000000	54.965499
1680.000000	54.716058
1679.000000	54.463225
1678.000000	54.202731
1677.000000	53.879226
1676.000000	53.423786
1675.000000	52.882697
1674.000000	52.399660
1673.000000	52.028154
1672.000000	51.725266
1671.000000	51.431863
1670.000000	51.078705
1669.000000	50.647377
1668.000000	50.209134
1667.000000	49.832760
1666.000000	49.505660
1665.000000	49.190087
1664.000000	48.833394
1663.000000	48.460552
1662.000000	48.035361
1661.000000	47.659029
1660.000000	47.311876
1659.000000	47.005545
1658.000000	46.571083
1657.000000	46.500341
1656.000000	46.725028
1655.000000	46.592678
1654.000000	46.334866
1653.000000	45.582943
1652.000000	44.805287
1651.000000	44.262779
1650.000000	43.951598
1649.000000	43.742598
1648.000000	43.515168
1647.000000	43.192249
1646.000000	42.808716
1645.000000	42.442508
1644.000000	42.122116
1643.000000	41.842518
1642.000000	41.571951
1641.000000	41.294100
1640.000000	41.036673
1639.000000	40.829269
1638.000000	40.669816
1637.000000	40.486667
1636.000000	40.186678
1635.000000	39.818576
1634.000000	39.498234
1633.000000	39.236532
1632.000000	38.996326
1631.000000	38.770831
1630.000000	38.572002
1629.000000	38.393368
1628.000000	38.221776
1627.000000	38.063493
1626.000000	37.917769
1625.000000	37.763995
1624.000000	37.580165
1623.000000	37.391584
1622.000000	37.263927
1621.000000	37.223636
1620.000000	37.237868
1619.000000	37.257192
1618.000000	37.227186
1617.000000	37.098789
1616.000000	36.908605
1615.000000	36.752000
1614.000000	36.660382
1613.000000	36.599604
1612.000000	36.548308
1611.000000	36.526845
1610.000000	36.549408
1609.000000	36.590149
1608.000000	36.621502
1607.000000	36.648209
1606.000000	36.679171
1605.000000	36.709639
1604.000000	36.744901
1603.000000	36.805007
1602.000000	36.894111
1601.000000	36.987288
1600.000000	37.064118
1599.000000	37.128660
1598.000000	37.188651
1597.000000	37.243270
1596.000000	37.299120
1595.000000	37.376144
1594.000000	37.482286
1593.000000	37.601126
1592.000000	37.716095
1591.000000	37.825969
1590.000000	37.926191
1589.000000	38.002521
1588.000000	38.054629
1587.000000	38.105410
1586.000000	38.174621
1585.000000	38.259294
1584.000000	38.351887
1583.000000	38.454862
1582.000000	38.574619
1581.000000	38.716546
1580.000000	38.880123
1579.000000	39.046235
1578.000000	39.181358
1577.000000	39.241086
1576.000000	39.226514
1575.000000	39.216530
1574.000000	39.253355
1573.000000	39.305471
1572.000000	39.349728
1571.000000	39.401997
1570.000000	39.468305
1569.000000	39.531872
1568.000000	39.595709
1567.000000	39.684715
1566.000000	39.823601
1565.000000	40.021685
1564.000000	40.271933
1563.000000	40.516995
1562.000000	40.644046
1561.000000	40.701173
1560.000000	40.800251
1559.000000	40.908196
1558.000000	41.024701
1557.000000	41.135936
1556.000000	41.229130
1555.000000	41.317060
1554.000000	41.382338
1553.000000	41.439463
1552.000000	41.527795
1551.000000	41.685954
1550.000000	41.910004
1549.000000	42.153622
1548.000000	42.374036
1547.000000	42.579354
1546.000000	42.814442
1545.000000	43.104213
1544.000000	43.436134
1543.000000	43.788221
1542.000000	44.184091
1541.000000	44.621918
1540.000000	45.009994
1539.000000	45.291107
1538.000000	45.487411
1537.000000	45.644473
1536.000000	45.815409
1535.000000	46.067711
1534.000000	46.428342
1533.000000	46.851803
1532.000000	47.269924
1531.000000	47.654949
1530.000000	48.033092
1529.000000	48.428545
1528.000000	48.846350
1527.000000	49.290586
1526.000000	49.758850
1525.000000	50.227892
1524.000000	50.685390
1523.000000	51.161877
1522.000000	51.651418
1521.000000	52.079530
1520.000000	52.410048
1519.000000	52.710745
1518.000000	53.074279
1517.000000	53.503872
1516.000000	53.947767
1515.000000	54.371742
1514.000000	54.754091
1513.000000	55.096956
1512.000000	55.429506
1511.000000	55.785447
1510.000000	56.161726
1509.000000	56.598578
1508.000000	57.151401
1507.000000	57.718511
1506.000000	58.167125
1505.000000	58.473698
1504.000000	58.727865
1503.000000	59.036346
1502.000000	59.419234
1501.000000	59.856238
1500.000000	60.343271
1499.000000	60.885126
1498.000000	61.453848
1497.000000	61.986240
1496.000000	62.447057
1495.000000	62.852236
1494.000000	63.201709
1493.000000	63.477570
1492.000000	63.727356
1491.000000	64.045068
1490.000000	64.454173
1489.000000	64.895879
1488.000000	65.315328
1487.000000	65.699742
1486.000000	66.028023
1485.000000	66.254089
1484.000000	66.388808
1483.000000	66.491078
1482.000000	66.576499
1481.000000	66.608465
1480.000000	66.579162
1479.000000	66.524517
1478.000000	66.446800
1477.000000	66.293221
1476.000000	66.014701
1475.000000	65.599495
1474.000000	64.972837
1473.000000	63.987293
1472.000000	62.695111
1471.000000	61.345523
1470.000000	60.013594
1469.000000	58.579561
1468.000000	56.931893
1467.000000	54.977393
1466.000000	52.545401
1465.000000	49.532775
1464.000000	46.222584
1463.000000	43.064624
1462.000000	40.198759
1461.000000	37.519607
1460.000000	34.934404
1459.000000	32.361685
1458.000000	29.589862
1457.000000	26.648777
1456.000000	24.189641
1455.000000	22.632025
1454.000000	21.702595
1453.000000	21.081747
1452.000000	20.710787
1451.000000	20.630158
1450.000000	20.818523
1449.000000	21.248935
1448.000000	21.948945
1447.000000	22.886022
1446.000000	23.937168
1445.000000	25.038605
1444.000000	26.231803
1443.000000	27.539298
1442.000000	28.901338
1441.000000	30.245177
1440.000000	31.549847
1439.000000	32.857052
1438.000000	34.275131
1437.000000	35.895031
1436.000000	37.620658
1435.000000	39.224114
1434.000000	40.634078
1433.000000	41.968665
1432.000000	43.341521
1431.000000	44.758108
1430.000000	46.144824
1429.000000	47.429736
1428.000000	48.562486
1427.000000	49.532721
1426.000000	50.400054
1425.000000	51.250964
1424.000000	52.100135
1423.000000	52.867442
1422.000000	53.484370
1421.000000	53.992397
1420.000000	54.501911
1419.000000	55.063515
1418.000000	55.661296
1417.000000	56.280427
1416.000000	56.905397
1415.000000	57.514928
1414.000000	58.108410
1413.000000	58.709535
1412.000000	59.329276
1411.000000	59.951515
1410.000000	60.563647
1409.000000	61.169743
1408.000000	61.764085
1407.000000	62.343098
1406.000000	62.927207
1405.000000	63.524504
1404.000000	64.088136
1403.000000	64.554366
1402.000000	64.927378
1401.000000	65.274607
1400.000000	65.635962
1399.000000	65.986570
1398.000000	66.306031
1397.000000	66.614404
1396.000000	66.916501
1395.000000	67.179587
1394.000000	67.387263
1393.000000	67.563063
1392.000000	67.715244
1391.000000	67.814993
1390.000000	67.833520
1389.000000	67.746830
1388.000000	67.507311
1387.000000	67.100725
1386.000000	66.644850
1385.000000	66.320635
1384.000000	66.227270
1383.000000	66.350988
1382.000000	66.609514
1381.000000	66.887259
1380.000000	67.067126
1379.000000	67.083898
1378.000000	66.958871
1377.000000	66.764535
1376.000000	66.560439
1375.000000	66.372977
1374.000000	66.209803
1373.000000	66.064541
1372.000000	65.905734
1371.000000	65.707394
1370.000000	65.477932
1369.000000	65.228180
1368.000000	64.943333
1367.000000	64.602921
1366.000000	64.212553
1365.000000	63.792950
1364.000000	63.346035
1363.000000	62.855039
1362.000000	62.326222
1361.000000	61.790508
1360.000000	61.267299
1359.000000	60.776125
1358.000000	60.364710
1357.000000	60.087234
1356.000000	59.967711
1355.000000	59.996761
1354.000000	60.145275
1353.000000	60.363509
1352.000000	60.576955
1351.000000	60.715603
1350.000000	60.736973
1349.000000	60.609736
1348.000000	60.298263
1347.000000	59.776481
1346.000000	59.040890
1345.000000	58.094800
1344.000000	56.942133
1343.000000	55.597356
1342.000000	54.087127
1341.000000	52.424981
1340.000000	50.607746
1339.000000	48.654182
1338.000000	46.603814
1337.000000	44.470063
1336.000000	42.236583
1335.000000	39.904738
1334.000000	37.513017
1333.000000	35.108410
1332.000000	32.737308
1331.000000	30.465359
1330.000000	28.365657
1329.000000	26.477873
1328.000000	24.804522
1327.000000	23.334562
1326.000000	22.041884
1325.000000	20.879010
1324.000000	19.801773
1323.000000	18.800337
1322.000000	17.884190
1321.000000	17.055053
1320.000000	16.325946
1319.000000	15.742202
1318.000000	15.361345
1317.000000	15.218367
1316.000000	15.327181
1315.000000	15.701453
1314.000000	16.336859
1313.000000	17.194377
1312.000000	18.220501
1311.000000	19.371469
1310.000000	20.616414
1309.000000	21.924182
1308.000000	23.265251
1307.000000	24.618447
1306.000000	25.962742
1305.000000	27.272103
1304.000000	28.524576
1303.000000	29.711300
1302.000000	30.832718
1301.000000	31.891075
1300.000000	32.888925
1299.000000	33.830759
1298.000000	34.718093
1297.000000	35.544903
1296.000000	36.308956
1295.000000	37.027965
1294.000000	37.740646
1293.000000	38.491490
1292.000000	39.316617
1291.000000	40.239629
1290.000000	41.270629
1289.000000	42.401152
1288.000000	43.601793
1287.000000	44.830987
1286.000000	46.047903
1285.000000	47.218714
1284.000000	48.316903
1283.000000	49.327488
1282.000000	50.250758
1281.000000	51.094371
1280.000000	51.857904
1279.000000	52.533101
1278.000000	53.116482
1277.000000	53.609349
1276.000000	54.015868
1275.000000	54.353680
1274.000000	54.664659
1273.000000	55.003552
1272.000000	55.412193
1271.000000	55.910349
1270.000000	56.502290
1269.000000	57.176925
1268.000000	57.904846
1267.000000	58.652449
1266.000000	59.401236
1265.000000	60.146107
1264.000000	60.879192
1263.000000	61.588322
1262.000000	62.267030
1261.000000	62.908116
1260.000000	63.488527
1259.000000	63.980430
1258.000000	64.381256
1257.000000	64.713761
1256.000000	65.001453
1255.000000	65.259582
1254.000000	65.499202
1253.000000	65.720230
1252.000000	65.896203
1251.000000	65.987736
1250.000000	65.973616
1249.000000	65.856012
1248.000000	65.648147
1247.000000	65.370521
1246.000000	65.053538
1245.000000	64.721383
1244.000000	64.367194
1243.000000	63.961829
1242.000000	63.480610
1241.000000	62.912856
1240.000000	62.258497
1239.000000	61.532635
1238.000000	60.772340
1237.000000	60.019162
1236.000000	59.295134
1235.000000	58.603401
1234.000000	57.943157
1233.000000	57.314144
1232.000000	56.716735
1231.000000	56.162365
1230.000000	55.678461
1229.000000	55.296338
1228.000000	55.030997
1227.000000	54.878143
1226.000000	54.823248
1225.000000	54.841747
1224.000000	54.904904
1223.000000	54.994558
1222.000000	55.115640
1221.000000	55.290953
1220.000000	55.540442
1219.000000	55.872466
1218.000000	56.282247
1217.000000	56.747445
1216.000000	57.229670
1215.000000	57.691076
1214.000000	58.117014
1213.000000	58.518131
1212.000000	58.915131
1211.000000	59.329359
1210.000000	59.778794
1209.000000	60.266773
1208.000000	60.771884
1207.000000	61.259291
1206.000000	61.705714
1205.000000	62.110233
1204.000000	62.486611
1203.000000	62.857628
1202.000000	63.251756
1201.000000	63.686159
1200.000000	64.148681
1199.000000	64.604906
1198.000000	65.023770
1197.000000	65.391930
1196.000000	65.711781
1195.000000	66.003422
1194.000000	66.306061
1193.000000	66.657700
1192.000000	67.066283
1191.000000	67.505406
1190.000000	67.935851
1189.000000	68.322056
1188.000000	68.637744
1187.000000	68.880417
1186.000000	69.083534
1185.000000	69.298592
1184.000000	69.559273
1183.000000	69.866887
1182.000000	70.201487
1181.000000	70.529412
1180.000000	70.808501
1179.000000	71.011802
1178.000000	71.152447
1177.000000	71.273306
1176.000000	71.411915
1175.000000	71.584467
1174.000000	71.790347
1173.000000	72.008605
1172.000000	72.196122
1171.000000	72.311745
1170.000000	72.350795
1169.000000	72.347014
1168.000000	72.344102
1167.000000	72.377337
1166.000000	72.469148
1165.000000	72.615560
1164.000000	72.774583
1163.000000	72.886980
1162.000000	72.918150
1161.000000	72.873693
1160.000000	72.784279
1159.000000	72.694197
1158.000000	72.654639
1157.000000	72.698803
1156.000000	72.814466
1155.000000	72.952177
1154.000000	73.061973
1153.000000	73.115566
1152.000000	73.106182
1151.000000	73.052784
1150.000000	73.003783
1149.000000	73.010738
1148.000000	73.089553
1147.000000	73.214660
1146.000000	73.345800
1145.000000	73.448036
1144.000000	73.497272
1143.000000	73.494350
1142.000000	73.477141
1141.000000	73.499198
1140.000000	73.589625
1139.000000	73.739137
1138.000000	73.915289
1137.000000	74.075039
1136.000000	74.172268
1135.000000	74.182567
1134.000000	74.129695
1133.000000	74.073459
1132.000000	74.068051
1131.000000	74.137471
1130.000000	74.275121
1129.000000	74.443768
1128.000000	74.578811
1127.000000	74.619175
1126.000000	74.548619
1125.000000	74.399541
1124.000000	74.223122
1123.000000	74.066934
1122.000000	73.965444
1121.000000	73.922208
1120.000000	73.893744
1119.000000	73.812788
1118.000000	73.634194
1117.000000	73.353042
1116.000000	72.991361
1115.000000	72.585121
1114.000000	72.177635
1113.000000	71.795479
1112.000000	71.419987
1111.000000	70.998417
1110.000000	70.478947
1109.000000	69.833376
1108.000000	69.059364
1107.000000	68.179682
1106.000000	67.240714
1105.000000	66.281557
1104.000000	65.301123
1103.000000	64.260458
1102.000000	63.106266
1101.000000	61.794943
1100.000000	60.301339
1099.000000	58.630937
1098.000000	56.823211
1097.000000	54.923202
1096.000000	52.956750
1095.000000	50.923224
1094.000000	48.802429
1093.000000	46.567717
1092.000000	44.201176
1091.000000	41.717417
1090.000000	39.165980
1089.000000	36.611846
1088.000000	34.117929
1087.000000	31.738080
1086.000000	29.505551
1085.000000	27.428984
1084.000000	25.509417
1083.000000	23.749646
1082.000000	22.155596
1081.000000	20.729185
1080.000000	19.473287
1079.000000	18.393492
1078.000000	17.474783
1077.000000	16.684809
1076.000000	15.992976
1075.000000	15.378508
1074.000000	14.823755
1073.000000	14.310114
1072.000000	13.836637
1071.000000	13.418534
1070.000000	13.062864
1069.000000	12.763354
1068.000000	12.514314
1067.000000	12.317009
1066.000000	12.166205
1065.000000	12.049269
1064.000000	11.967334
1063.000000	11.935174
1062.000000	11.961768
1061.000000	12.044448
1060.000000	12.181799
1059.000000	12.376793
1058.000000	12.619914
1057.000000	12.891122
1056.000000	13.181971
1055.000000	13.499806
1054.000000	13.852974
1053.000000	14.244266
1052.000000	14.681686
1051.000000	15.176476
1050.000000	15.723808
1049.000000	16.304707
1048.000000	16.905925
1047.000000	17.527208
1046.000000	18.171770
1045.000000	18.843691
1044.000000	19.557711
1043.000000	20.331248
1042.000000	21.165116
1041.000000	22.043019
1040.000000	22.946716
1039.000000	23.864852
1038.000000	24.788482
1037.000000	25.713387
1036.000000	26.649521
1035.000000	27.614589
1034.000000	28.617500
1033.000000	29.650973
1032.000000	30.697769
1031.000000	31.737441
1030.000000	32.750678
1029.000000	33.728744
1028.000000	34.681652
1027.000000	35.632790
1026.000000	36.602673
1025.000000	37.597594
1024.000000	38.606762
1023.000000	39.605305
1022.000000	40.564058
1021.000000	41.462910
1020.000000	42.301799
1019.000000	43.100955
1018.000000	43.891222
1017.000000	44.700216
1016.000000	45.538621
1015.000000	46.395549
1014.000000	47.243891
1013.000000	48.052479
1012.000000	48.800300
1011.000000	49.486489
1010.000000	50.132582
1009.000000	50.770810
1008.000000	51.424521
1007.000000	52.098078
1006.000000	52.778454
1005.000000	53.442790
1004.000000	54.067767
1003.000000	54.642795
1002.000000	55.180158
1001.000000	55.707785
1000.000000	56.250530
999.000000	56.818069
998.000000	57.403360
997.000000	57.984454
996.000000	58.528206
995.000000	59.007448
994.000000	59.422585
993.000000	59.802789
992.000000	60.187281
991.000000	60.608204
990.000000	61.082084
989.000000	61.601374
988.000000	62.129901
987.000000	62.619770
986.000000	63.039804
985.000000	63.388886
984.000000	63.688080
983.000000	63.970439
982.000000	64.274126
981.000000	64.625181
980.000000	65.018787
979.000000	65.425094
978.000000	65.813839
977.000000	66.169024
976.000000	66.486222
975.000000	66.772066
974.000000	67.047632
973.000000	67.335881
972.000000	67.640624
971.000000	67.944379
970.000000	68.227137
969.000000	68.479724
968.000000	68.702120
967.000000	68.905737
966.000000	69.117868
965.000000	69.367557
964.000000	69.661041
963.000000	69.976453
962.000000	70.280599
961.000000	70.542806
960.000000	70.739465
959.000000	70.866820
958.000000	70.953303
957.000000	71.046316
956.000000	71.181319
955.000000	71.368347
954.000000	71.600718
953.000000	71.857855
952.000000	72.102769
951.000000	72.298184
950.000000	72.433292
949.000000	72.526068
948.000000	72.601438
947.000000	72.678652
946.000000	72.774733
945.000000	72.898795
944.000000	73.040484
943.000000	73.177967
942.000000	73.301448
941.000000	73.417855
940.000000	73.534210
939.000000	73.651282
938.000000	73.770848
937.000000	73.891653
936.000000	73.998080
935.000000	74.068683
934.000000	74.099623
933.000000	74.107765
932.000000	74.112192
931.000000	74.127446
930.000000	74.169674
929.000000	74.248388
928.000000	74.348375
927.000000	74.435019
926.000000	74.481985
925.000000	74.482022
924.000000	74.436941
923.000000	74.355537
922.000000	74.260423
921.000000	74.178031
920.000000	74.116203
919.000000	74.063321
918.000000	74.008109
917.000000	73.945202
916.000000	73.865286
915.000000	73.757759
914.000000	73.624807
913.000000	73.477277
912.000000	73.314594
911.000000	73.125185
910.000000	72.904307
909.000000	72.657221
908.000000	72.387022
907.000000	72.095110
906.000000	71.793837
905.000000	71.499521
904.000000	71.210333
903.000000	70.905880
902.000000	70.566564
901.000000	70.182138
900.000000	69.744613
899.000000	69.250960
898.000000	68.715029
897.000000	68.158645
896.000000	67.590758
895.000000	67.004589
894.000000	66.391308
893.000000	65.744988
892.000000	65.054772
891.000000	64.310944
890.000000	63.518578
889.000000	62.690797
888.000000	61.830962
887.000000	60.929491
886.000000	59.977105
885.000000	58.969582
884.000000	57.901066
883.000000	56.769587
882.000000	55.586703
881.000000	54.372879
880.000000	53.142224
879.000000	51.895595
878.000000	50.626299
877.000000	49.321686
876.000000	47.965189
875.000000	46.548381
874.000000	45.081084
873.000000	43.587005
872.000000	42.090276
871.000000	40.607783
870.000000	39.147449
869.000000	37.706864
868.000000	36.275944
867.000000	34.845153
866.000000	33.413822
865.000000	31.991628
864.000000	30.595644
863.000000	29.242452
862.000000	27.939995
861.000000	26.687575
860.000000	25.481839
859.000000	24.324323
858.000000	23.222819
857.000000	22.195255
856.000000	21.276219
855.000000	20.504693
854.000000	19.907796
853.000000	19.490115
852.000000	19.234736
851.000000	19.107494
850.000000	19.057003
849.000000	19.033005
848.000000	19.006088
847.000000	18.970194
846.000000	18.932560
845.000000	18.904906
844.000000	18.902754
843.000000	18.938243
842.000000	19.011861
841.000000	19.119144
840.000000	19.262308
839.000000	19.451656
838.000000	19.697957
837.000000	20.009208
836.000000	20.392914
835.000000	20.848324
834.000000	21.359544
833.000000	21.902652
832.000000	22.460055
831.000000	23.029100
830.000000	23.620319
829.000000	24.254481
828.000000	24.954284
827.000000	25.728855
826.000000	26.566400
825.000000	27.440492
824.000000	28.320746
823.000000	29.180022
822.000000	30.003450
821.000000	30.798306
820.000000	31.589210
819.000000	32.399921
818.000000	33.238430
817.000000	34.094359
816.000000	34.940969
815.000000	35.742935
814.000000	36.474594
813.000000	37.136801
812.000000	37.755710
811.000000	38.366879
810.000000	39.001096
809.000000	39.674201
808.000000	40.377182
807.000000	41.077733
806.000000	41.740144
805.000000	42.349925
804.000000	42.920815
803.000000	43.485699
802.000000	44.083548
801.000000	44.742022
800.000000	45.456703
799.000000	46.186783
798.000000	46.877356
797.000000	47.489779
796.000000	48.016232
795.000000	48.482514
794.000000	48.943673
793.000000	49.462459
792.000000	50.073413
791.000000	50.761489
790.000000	51.472104
789.000000	52.138093
788.000000	52.704382
787.000000	53.152651
786.000000	53.518001
785.000000	53.872826
784.000000	54.282229
783.000000	54.770535
782.000000	55.319833
781.000000	55.882275
780.000000	56.394646
779.000000	56.807765
778.000000	57.122540
777.000000	57.393844
776.000000	57.692397
775.000000	58.064264
774.000000	58.516427
773.000000	59.014505
772.000000	59.487593
771.000000	59.860497
770.000000	60.106392
769.000000	60.268750
768.000000	60.430604
767.000000	60.670062
766.000000	61.034084
765.000000	61.518987
764.000000	62.056681
763.000000	62.536465
762.000000	62.868421
761.000000	63.034916
760.000000	63.089806
759.000000	63.126536
758.000000	63.244425
757.000000	63.507648
756.000000	63.906078
755.000000	64.354629
754.000000	64.744220
753.000000	64.999371
752.000000	65.104963
751.000000	65.108030
750.000000	65.102871
749.000000	65.185328
748.000000	65.393249
747.000000	65.684015
746.000000	65.968435
745.000000	66.160170
744.000000	66.209700
743.000000	66.129298
742.000000	66.002809
741.000000	65.946963
740.000000	66.038190
739.000000	66.269336
738.000000	66.565695
737.000000	66.823031
736.000000	66.941920
735.000000	66.873802
734.000000	66.666583
733.000000	66.450490
732.000000	66.361111
731.000000	66.470986
730.000000	66.773981
729.000000	67.194192
728.000000	67.603378
727.000000	67.874484
726.000000	67.959948
725.000000	67.920949
724.000000	67.876223
723.000000	67.933975
722.000000	68.157043
721.000000	68.542667
720.000000	69.006119
719.000000	69.412898
718.000000	69.666005
717.000000	69.768048
716.000000	69.801734
715.000000	69.875127
714.000000	70.081209
713.000000	70.457992
712.000000	70.947824
711.000000	71.410881
710.000000	71.711215
709.000000	71.798822
708.000000	71.722727
707.000000	71.601573
706.000000	71.584200
705.000000	71.789542
704.000000	72.232989
703.000000	72.803438
702.000000	73.327654
701.000000	73.661564
700.000000	73.739826
699.000000	73.599322
698.000000	73.379807
697.000000	73.265245
696.000000	73.377247
695.000000	73.710784
694.000000	74.163476
693.000000	74.599253
692.000000	74.890517
691.000000	74.970071
690.000000	74.886265
689.000000	74.787401
688.000000	74.815657
687.000000	75.013527
686.000000	75.331605
685.000000	75.675011
684.000000	75.922573
683.000000	75.971909
682.000000	75.829995
681.000000	75.636973
680.000000	75.565904
679.000000	75.710162
678.000000	76.069301
677.000000	76.563318
676.000000	77.020412
675.000000	77.256427
674.000000	77.192135
673.000000	76.906663
672.000000	76.589028
671.000000	76.439497
670.000000	76.599472
669.000000	77.106555
668.000000	77.785904
667.000000	78.290665
666.000000	78.437830
665.000000	78.295561
664.000000	77.999020
663.000000	77.678684
662.000000	77.471585
661.000000	77.484403
660.000000	77.720463
659.000000	78.071286
658.000000	78.384109
657.000000	78.539936
656.000000	78.500397
655.000000	78.347573
654.000000	78.235274
653.000000	78.283805
652.000000	78.522946
651.000000	78.887091
650.000000	79.234847
649.000000	79.404751
648.000000	79.307799
647.000000	78.995293
646.000000	78.638691
645.000000	78.435516
644.000000	78.513620
643.000000	78.882223
642.000000	79.424789
641.000000	79.935638
640.000000	80.207422
639.000000	80.137567
638.000000	79.785159
637.000000	79.336750
636.000000	79.009296
635.000000	78.954801
634.000000	79.199600
633.000000	79.633410
632.000000	80.061773
631.000000	80.305623
630.000000	80.293749
629.000000	80.087324
628.000000	79.832031
627.000000	79.684508
626.000000	79.740568
625.000000	79.983056
624.000000	80.283151
623.000000	80.473660
622.000000	80.455539
621.000000	80.254404
620.000000	79.993626
619.000000	79.829497
618.000000	79.885045
617.000000	80.187262
616.000000	80.634068
615.000000	81.032306
614.000000	81.198362
613.000000	81.056412
612.000000	80.672199
611.000000	80.222193
610.000000	79.920141
609.000000	79.918233
608.000000	80.229504
607.000000	80.722571
606.000000	81.190369
605.000000	81.445672
604.000000	81.396576
603.000000	81.086834
602.000000	80.684258
601.000000	80.391996
600.000000	80.332080
599.000000	80.486068
598.000000	80.727196
597.000000	80.897499
596.000000	80.879459
595.000000	80.654006
594.000000	80.330660
593.000000	80.094662
592.000000	80.092243
591.000000	80.346224
590.000000	80.754202
589.000000	81.145987
588.000000	81.355624
587.000000	81.295509
586.000000	81.014809
585.000000	80.682733
584.000000	80.490392
583.000000	80.558067
582.000000	80.899577
581.000000	81.413843
580.000000	81.900980
579.000000	82.149777
578.000000	82.071272
577.000000	81.747955
576.000000	81.364428
575.000000	81.104349
574.000000	81.077332
573.000000	81.283709
572.000000	81.616634
571.000000	81.910634
570.000000	82.034399
569.000000	81.963576
568.000000	81.771164
567.000000	81.579019
566.000000	81.509211
565.000000	81.622142
564.000000	81.863557
563.000000	82.086647
562.000000	82.147115
561.000000	81.991590
560.000000	81.672955
559.000000	81.321816
558.000000	81.102045
557.000000	81.134264
556.000000	81.417138
555.000000	81.817249
554.000000	82.143282
553.000000	82.242984
552.000000	82.058443
551.000000	81.650106
550.000000	81.189228
549.000000	80.877749
548.000000	80.835971
547.000000	81.056862
546.000000	81.434582
545.000000	81.816908
544.000000	82.055634
543.000000	82.071712
542.000000	81.909143
541.000000	81.706989
540.000000	81.593439
539.000000	81.616132
538.000000	81.748331
537.000000	81.917949
536.000000	82.029458
535.000000	82.014712
534.000000	81.897677
533.000000	81.791032
532.000000	81.809786
531.000000	81.996496
530.000000	82.312352
529.000000	82.658118
528.000000	82.895482
527.000000	82.899434
526.000000	82.648203
525.000000	82.253979
524.000000	81.881896
523.000000	81.662913
522.000000	81.673444
521.000000	81.920890
520.000000	82.308507
519.000000	82.653900
518.000000	82.792068
517.000000	82.667051
516.000000	82.324206
515.000000	81.862626
514.000000	81.406110
513.000000	81.058123
512.000000	80.840473
511.000000	80.681047
510.000000	80.478963
509.000000	80.174967
508.000000	79.763021
507.000000	79.278615
506.000000	78.791289
505.000000	78.360202
504.000000	77.982403
503.000000	77.605299
502.000000	77.188173
501.000000	76.728584
500.000000	76.245906
499.000000	75.787256
498.000000	75.462256
497.000000	75.404085
496.000000	75.666748
495.000000	76.180404
494.000000	76.807455
493.000000	77.415130
492.000000	77.891390
491.000000	78.168383
490.000000	78.276476
489.000000	78.341001
488.000000	78.498064
487.000000	78.825041
486.000000	79.336204
485.000000	79.981028
484.000000	80.628070
483.000000	81.106099
482.000000	81.320448
481.000000	81.307604
480.000000	81.162639
479.000000	80.965209
478.000000	80.777543
477.000000	80.645817
476.000000	80.567587
475.000000	80.502127
474.000000	80.450580
473.000000	80.491839
472.000000	80.693467
471.000000	81.027810
470.000000	81.430944
469.000000	81.864789
468.000000	82.270534
467.000000	82.533156
466.000000	82.567644
465.000000	82.414103
464.000000	82.194819
463.000000	82.037843
462.000000	82.053085
461.000000	82.295383
460.000000	82.714585
459.000000	83.181447
458.000000	83.567782
457.000000	83.779277
456.000000	83.757169
455.000000	83.514628
454.000000	83.162740
453.000000	82.879862
452.000000	82.801158
451.000000	82.918472
450.000000	83.140387
449.000000	83.404157
448.000000	83.666744
447.000000	83.864819
446.000000	83.970876
445.000000	84.039615
444.000000	84.127016
443.000000	84.218629
442.000000	84.278530
441.000000	84.308983
440.000000	84.304972
439.000000	84.233556
438.000000	84.122305
437.000000	84.103916
436.000000	84.286766
435.000000	84.630444
434.000000	85.024607
433.000000	85.405025
432.000000	85.693481
431.000000	85.745907
430.000000	85.499962
429.000000	85.090805
428.000000	84.718146
427.000000	84.497053
426.000000	84.481844
425.000000	84.716789
424.000000	85.163743
423.000000	85.645219
422.000000	85.974779
421.000000	86.058920
420.000000	85.853992
419.000000	85.429506
418.000000	85.026337
417.000000	84.876531
416.000000	84.987070
415.000000	85.180318
414.000000	85.306955
413.000000	85.388918
412.000000	85.497266
411.000000	85.604590
410.000000	85.687881
409.000000	85.824666
408.000000	86.020575
407.000000	86.113676
406.000000	85.992528
405.000000	85.751768
404.000000	85.492476
403.000000	85.192959
402.000000	84.918825
401.000000	84.929844
400.000000	85.338093
