PE IR       SUBTECH     SPECTRUM    ASCII       PEDS        4.00        
   -1
23ms061_nitro.asc
24/09/12
15:51:13.00
24/09/12
15:51:13.00
Administrator
Sample 1171 By Administrator Date Thursday, September 12 2024
400.000000
#HDR
-1
-1
#GR
cm-1
%T
1.0
0.0
4000.000000
-1.000000
3601
8
73.801757
0.329784
#DATA
4000.000000	30.324499
3999.000000	30.365953
3998.000000	30.407759
3997.000000	30.449854
3996.000000	30.491960
3995.000000	30.533740
3994.000000	30.574995
3993.000000	30.615824
3992.000000	30.656560
3991.000000	30.697372
3990.000000	30.737922
3989.000000	30.777659
3988.000000	30.816439
3987.000000	30.854707
3986.000000	30.893060
3985.000000	30.931684
3984.000000	30.970312
3983.000000	31.008579
3982.000000	31.046347
3981.000000	31.083682
3980.000000	31.120677
3979.000000	31.157485
3978.000000	31.194261
3977.000000	31.230864
3976.000000	31.266796
3975.000000	31.301480
3974.000000	31.334808
3973.000000	31.367446
3972.000000	31.400519
3971.000000	31.434894
3970.000000	31.470463
3969.000000	31.506329
3968.000000	31.541584
3967.000000	31.575893
3966.000000	31.609532
3965.000000	31.643011
3964.000000	31.676729
3963.000000	31.710659
3962.000000	31.744359
3961.000000	31.777275
3960.000000	31.809433
3959.000000	31.841814
3958.000000	31.875520
3957.000000	31.911011
3956.000000	31.947943
3955.000000	31.985508
3954.000000	32.022945
3953.000000	32.059586
3952.000000	32.095058
3951.000000	32.129384
3950.000000	32.162939
3949.000000	32.196171
3948.000000	32.229118
3947.000000	32.261770
3946.000000	32.294871
3945.000000	32.329947
3944.000000	32.368023
3943.000000	32.407854
3942.000000	32.446805
3941.000000	32.483395
3940.000000	32.518677
3939.000000	32.555314
3938.000000	32.594247
3937.000000	32.633539
3936.000000	32.670841
3935.000000	32.705871
3934.000000	32.740481
3933.000000	32.775776
3932.000000	32.811048
3931.000000	32.844904
3930.000000	32.876766
3929.000000	32.908103
3928.000000	32.941175
3927.000000	32.977734
3926.000000	33.017224
3925.000000	33.056109
3924.000000	33.091104
3923.000000	33.122055
3922.000000	33.151180
3921.000000	33.181066
3920.000000	33.213299
3919.000000	33.248428
3918.000000	33.285652
3917.000000	33.323041
3916.000000	33.359227
3915.000000	33.394452
3914.000000	33.430675
3913.000000	33.469837
3912.000000	33.512034
3911.000000	33.555805
3910.000000	33.598224
3909.000000	33.637067
3908.000000	33.672383
3907.000000	33.704755
3906.000000	33.733904
3905.000000	33.757478
3904.000000	33.774147
3903.000000	33.786816
3902.000000	33.800972
3901.000000	33.822081
3900.000000	33.852509
3899.000000	33.889936
3898.000000	33.930503
3897.000000	33.971659
3896.000000	34.012786
3895.000000	34.055112
3894.000000	34.099143
3893.000000	34.143917
3892.000000	34.186238
3891.000000	34.221881
3890.000000	34.248508
3889.000000	34.268528
3888.000000	34.290357
3887.000000	34.322784
3886.000000	34.364705
3885.000000	34.404684
3884.000000	34.433068
3883.000000	34.451758
3882.000000	34.471354
3881.000000	34.500388
3880.000000	34.537457
3879.000000	34.574428
3878.000000	34.606690
3877.000000	34.638060
3876.000000	34.675693
3875.000000	34.720020
3874.000000	34.761726
3873.000000	34.791752
3872.000000	34.812150
3871.000000	34.832717
3870.000000	34.858912
3869.000000	34.887164
3868.000000	34.911412
3867.000000	34.933287
3866.000000	34.961316
3865.000000	34.999830
3864.000000	35.044703
3863.000000	35.088646
3862.000000	35.127924
3861.000000	35.166125
3860.000000	35.208364
3859.000000	35.256245
3858.000000	35.308353
3857.000000	35.361319
3856.000000	35.409246
3855.000000	35.440248
3854.000000	35.448148
3853.000000	35.447183
3852.000000	35.453302
3851.000000	35.469058
3850.000000	35.495035
3849.000000	35.534567
3848.000000	35.586704
3847.000000	35.646050
3846.000000	35.705158
3845.000000	35.758240
3844.000000	35.802767
3843.000000	35.837418
3842.000000	35.862857
3841.000000	35.884104
3840.000000	35.905418
3839.000000	35.929200
3838.000000	35.957621
3837.000000	35.989857
3836.000000	36.022518
3835.000000	36.053630
3834.000000	36.086344
3833.000000	36.125627
3832.000000	36.171178
3831.000000	36.217969
3830.000000	36.261880
3829.000000	36.302984
3828.000000	36.345041
3827.000000	36.390364
3826.000000	36.434528
3825.000000	36.471502
3824.000000	36.500732
3823.000000	36.528633
3822.000000	36.561546
3821.000000	36.595675
3820.000000	36.620887
3819.000000	36.634619
3818.000000	36.648253
3817.000000	36.677308
3816.000000	36.725001
3815.000000	36.780028
3814.000000	36.831297
3813.000000	36.876327
3812.000000	36.918599
3811.000000	36.962455
3810.000000	37.008407
3809.000000	37.053464
3808.000000	37.094754
3807.000000	37.129981
3806.000000	37.156180
3805.000000	37.172515
3804.000000	37.183887
3803.000000	37.203377
3802.000000	37.237960
3801.000000	37.279390
3800.000000	37.315355
3799.000000	37.342767
3798.000000	37.370553
3797.000000	37.408860
3796.000000	37.458104
3795.000000	37.510260
3794.000000	37.559198
3793.000000	37.604490
3792.000000	37.648921
3791.000000	37.694896
3790.000000	37.741348
3789.000000	37.784788
3788.000000	37.823642
3787.000000	37.859952
3786.000000	37.896892
3785.000000	37.934717
3784.000000	37.970497
3783.000000	38.002758
3782.000000	38.033821
3781.000000	38.067568
3780.000000	38.105667
3779.000000	38.146510
3778.000000	38.186899
3777.000000	38.225775
3776.000000	38.265011
3775.000000	38.306777
3774.000000	38.350240
3773.000000	38.392030
3772.000000	38.430443
3771.000000	38.466806
3770.000000	38.501888
3769.000000	38.533704
3768.000000	38.561243
3767.000000	38.589759
3766.000000	38.627364
3765.000000	38.673865
3764.000000	38.720843
3763.000000	38.762501
3762.000000	38.800622
3761.000000	38.839538
3760.000000	38.879640
3759.000000	38.919759
3758.000000	38.958390
3757.000000	38.993691
3756.000000	39.025563
3755.000000	39.055556
3754.000000	39.085831
3753.000000	39.115867
3752.000000	39.143425
3751.000000	39.171156
3750.000000	39.202765
3749.000000	39.234496
3748.000000	39.260408
3747.000000	39.284878
3746.000000	39.320489
3745.000000	39.373529
3744.000000	39.436743
3743.000000	39.496824
3742.000000	39.545790
3741.000000	39.587064
3740.000000	39.629517
3739.000000	39.679183
3738.000000	39.735015
3737.000000	39.790323
3736.000000	39.840094
3735.000000	39.882242
3734.000000	39.920540
3733.000000	39.963292
3732.000000	40.015359
3731.000000	40.073217
3730.000000	40.128458
3729.000000	40.178108
3728.000000	40.227257
3727.000000	40.279837
3726.000000	40.332966
3725.000000	40.381127
3724.000000	40.423889
3723.000000	40.465609
3722.000000	40.510461
3721.000000	40.559368
3720.000000	40.609704
3719.000000	40.660803
3718.000000	40.712443
3717.000000	40.761821
3716.000000	40.806025
3715.000000	40.843992
3714.000000	40.877716
3713.000000	40.910201
3712.000000	40.944200
3711.000000	40.982319
3710.000000	41.026305
3709.000000	41.077114
3708.000000	41.134001
3707.000000	41.193713
3706.000000	41.252750
3705.000000	41.308850
3704.000000	41.361724
3703.000000	41.412536
3702.000000	41.462565
3701.000000	41.511842
3700.000000	41.558529
3699.000000	41.603379
3698.000000	41.650804
3697.000000	41.702810
3696.000000	41.755579
3695.000000	41.803245
3694.000000	41.842837
3693.000000	41.876041
3692.000000	41.905915
3691.000000	41.934165
3690.000000	41.963124
3689.000000	41.998362
3688.000000	42.043207
3687.000000	42.092914
3686.000000	42.142823
3685.000000	42.193842
3684.000000	42.247589
3683.000000	42.303236
3682.000000	42.358425
3681.000000	42.409691
3680.000000	42.452932
3679.000000	42.483326
3678.000000	42.501915
3677.000000	42.518439
3676.000000	42.545582
3675.000000	42.587564
3674.000000	42.630540
3673.000000	42.660984
3672.000000	42.686170
3671.000000	42.726473
3670.000000	42.790472
3669.000000	42.866838
3668.000000	42.939960
3667.000000	43.004155
3666.000000	43.063898
3665.000000	43.125555
3664.000000	43.190654
3663.000000	43.257724
3662.000000	43.323267
3661.000000	43.381611
3660.000000	43.428632
3659.000000	43.463761
3658.000000	43.491782
3657.000000	43.520046
3656.000000	43.552978
3655.000000	43.587794
3654.000000	43.616406
3653.000000	43.635076
3652.000000	43.648302
3651.000000	43.661186
3650.000000	43.674423
3649.000000	43.691515
3648.000000	43.722854
3647.000000	43.773786
3646.000000	43.837083
3645.000000	43.902389
3644.000000	43.966026
3643.000000	44.030014
3642.000000	44.093474
3641.000000	44.151717
3640.000000	44.202716
3639.000000	44.248709
3638.000000	44.291612
3637.000000	44.330250
3636.000000	44.365197
3635.000000	44.400303
3634.000000	44.436423
3633.000000	44.467364
3632.000000	44.484577
3631.000000	44.486557
3630.000000	44.482654
3629.000000	44.489065
3628.000000	44.515522
3627.000000	44.557518
3626.000000	44.605333
3625.000000	44.655652
3624.000000	44.708868
3623.000000	44.761928
3622.000000	44.807976
3621.000000	44.840468
3620.000000	44.858244
3619.000000	44.867761
3618.000000	44.876784
3617.000000	44.887737
3616.000000	44.901573
3615.000000	44.921432
3614.000000	44.949112
3613.000000	44.981636
3612.000000	45.013656
3611.000000	45.042634
3610.000000	45.072020
3609.000000	45.108281
3608.000000	45.153771
3607.000000	45.205152
3606.000000	45.256681
3605.000000	45.303960
3604.000000	45.346022
3603.000000	45.384039
3602.000000	45.420014
3601.000000	45.455368
3600.000000	45.489499
3599.000000	45.520475
3598.000000	45.546978
3597.000000	45.569640
3596.000000	45.592414
3595.000000	45.619135
3594.000000	45.650496
3593.000000	45.683870
3592.000000	45.714321
3591.000000	45.738071
3590.000000	45.755895
3589.000000	45.773490
3588.000000	45.798100
3587.000000	45.833595
3586.000000	45.877692
3585.000000	45.925267
3584.000000	45.972996
3583.000000	46.020055
3582.000000	46.065521
3581.000000	46.107317
3580.000000	46.144244
3579.000000	46.177340
3578.000000	46.208822
3577.000000	46.240379
3576.000000	46.273094
3575.000000	46.308386
3574.000000	46.346739
3573.000000	46.386638
3572.000000	46.423979
3571.000000	46.452953
3570.000000	46.468954
3569.000000	46.472892
3568.000000	46.473411
3567.000000	46.483191
3566.000000	46.509590
3565.000000	46.550531
3564.000000	46.600334
3563.000000	46.655151
3562.000000	46.711648
3561.000000	46.765378
3560.000000	46.813103
3559.000000	46.855213
3558.000000	46.893995
3557.000000	46.930476
3556.000000	46.964183
3555.000000	46.995367
3554.000000	47.025443
3553.000000	47.055628
3552.000000	47.086077
3551.000000	47.115753
3550.000000	47.143269
3549.000000	47.169218
3548.000000	47.196802
3547.000000	47.229314
3546.000000	47.266028
3545.000000	47.302900
3544.000000	47.337388
3543.000000	47.370500
3542.000000	47.403737
3541.000000	47.437196
3540.000000	47.470778
3539.000000	47.504943
3538.000000	47.539057
3537.000000	47.570400
3536.000000	47.596919
3535.000000	47.619256
3534.000000	47.639924
3533.000000	47.660927
3532.000000	47.682869
3531.000000	47.704873
3530.000000	47.724664
3529.000000	47.740818
3528.000000	47.755358
3527.000000	47.772472
3526.000000	47.793862
3525.000000	47.816923
3524.000000	47.837852
3523.000000	47.855170
3522.000000	47.869665
3521.000000	47.882998
3520.000000	47.897094
3519.000000	47.913154
3518.000000	47.930508
3517.000000	47.947220
3516.000000	47.962181
3515.000000	47.974821
3514.000000	47.983099
3513.000000	47.984073
3512.000000	47.977391
3511.000000	47.966728
3510.000000	47.956914
3509.000000	47.950576
3508.000000	47.947723
3507.000000	47.947166
3506.000000	47.946968
3505.000000	47.944662
3504.000000	47.938305
3503.000000	47.927287
3502.000000	47.912174
3501.000000	47.894746
3500.000000	47.877758
3499.000000	47.862558
3498.000000	47.846848
3497.000000	47.826529
3496.000000	47.800111
3495.000000	47.769544
3494.000000	47.736738
3493.000000	47.701600
3492.000000	47.663946
3491.000000	47.624826
3490.000000	47.584989
3489.000000	47.543772
3488.000000	47.499944
3487.000000	47.452330
3486.000000	47.399530
3485.000000	47.340852
3484.000000	47.278383
3483.000000	47.216026
3482.000000	47.155541
3481.000000	47.094848
3480.000000	47.030468
3479.000000	46.960407
3478.000000	46.884385
3477.000000	46.803321
3476.000000	46.719219
3475.000000	46.634055
3474.000000	46.548577
3473.000000	46.463080
3472.000000	46.378786
3471.000000	46.296120
3470.000000	46.211629
3469.000000	46.119297
3468.000000	46.015434
3467.000000	45.900896
3466.000000	45.778857
3465.000000	45.652526
3464.000000	45.525172
3463.000000	45.399320
3462.000000	45.274490
3461.000000	45.147345
3460.000000	45.014881
3459.000000	44.876660
3458.000000	44.733878
3457.000000	44.588032
3456.000000	44.440899
3455.000000	44.293490
3454.000000	44.145004
3453.000000	43.993837
3452.000000	43.839670
3451.000000	43.682708
3450.000000	43.520750
3449.000000	43.349940
3448.000000	43.169457
3447.000000	42.983387
3446.000000	42.796805
3445.000000	42.611523
3444.000000	42.426370
3443.000000	42.239656
3442.000000	42.050242
3441.000000	41.858094
3440.000000	41.664427
3439.000000	41.469942
3438.000000	41.272558
3437.000000	41.068028
3436.000000	40.853390
3435.000000	40.628520
3434.000000	40.395178
3433.000000	40.156238
3432.000000	39.914878
3431.000000	39.672211
3430.000000	39.425312
3429.000000	39.169912
3428.000000	38.905418
3427.000000	38.635116
3426.000000	38.362122
3425.000000	38.087281
3424.000000	37.810241
3423.000000	37.529858
3422.000000	37.243349
3421.000000	36.948158
3420.000000	36.645184
3419.000000	36.337850
3418.000000	36.028349
3417.000000	35.716601
3416.000000	35.402282
3415.000000	35.085006
3414.000000	34.762561
3413.000000	34.432234
3412.000000	34.093898
3411.000000	33.749620
3410.000000	33.400140
3409.000000	33.043938
3408.000000	32.680242
3407.000000	32.310413
3406.000000	31.936337
3405.000000	31.559507
3404.000000	31.181391
3403.000000	30.802462
3402.000000	30.420312
3401.000000	30.030509
3400.000000	29.629970
3399.000000	29.218724
3398.000000	28.799365
3397.000000	28.375989
3396.000000	27.952366
3395.000000	27.529326
3394.000000	27.103919
3393.000000	26.672530
3392.000000	26.234234
3391.000000	25.790302
3390.000000	25.342363
3389.000000	24.892187
3388.000000	24.441732
3387.000000	23.991402
3386.000000	23.539374
3385.000000	23.084469
3384.000000	22.628215
3383.000000	22.172670
3382.000000	21.717762
3381.000000	21.262334
3380.000000	20.806404
3379.000000	20.350680
3378.000000	19.895222
3377.000000	19.440218
3376.000000	18.986788
3375.000000	18.535736
3374.000000	18.086845
3373.000000	17.640488
3372.000000	17.198184
3371.000000	16.760365
3370.000000	16.325200
3369.000000	15.891020
3368.000000	15.458306
3367.000000	15.028309
3366.000000	14.601781
3365.000000	14.179925
3364.000000	13.764683
3363.000000	13.356770
3362.000000	12.955034
3361.000000	12.558907
3360.000000	12.169383
3359.000000	11.786837
3358.000000	11.410161
3357.000000	11.038851
3356.000000	10.674229
3355.000000	10.317225
3354.000000	9.967272
3353.000000	9.624320
3352.000000	9.289590
3351.000000	8.963704
3350.000000	8.645836
3349.000000	8.335532
3348.000000	8.033577
3347.000000	7.739868
3346.000000	7.453187
3345.000000	7.173429
3344.000000	6.901903
3343.000000	6.638972
3342.000000	6.383241
3341.000000	6.134160
3340.000000	5.892972
3339.000000	5.660350
3338.000000	5.435637
3337.000000	5.218568
3336.000000	5.009894
3335.000000	4.809499
3334.000000	4.616015
3333.000000	4.429146
3332.000000	4.249713
3331.000000	4.077360
3330.000000	3.910416
3329.000000	3.748319
3328.000000	3.592428
3327.000000	3.443581
3326.000000	3.301332
3325.000000	3.165732
3324.000000	3.037298
3323.000000	2.915311
3322.000000	2.798100
3321.000000	2.685404
3320.000000	2.578415
3319.000000	2.476996
3318.000000	2.379713
3317.000000	2.286304
3316.000000	2.197894
3315.000000	2.114640
3314.000000	2.035267
3313.000000	1.959314
3312.000000	1.887366
3311.000000	1.818963
3310.000000	1.752898
3309.000000	1.689519
3308.000000	1.630765
3307.000000	1.577620
3306.000000	1.529605
3305.000000	1.486785
3304.000000	1.449448
3303.000000	1.416117
3302.000000	1.384223
3301.000000	1.352892
3300.000000	1.323129
3299.000000	1.295237
3298.000000	1.268514
3297.000000	1.243355
3296.000000	1.221087
3295.000000	1.201783
3294.000000	1.184389
3293.000000	1.169029
3292.000000	1.156895
3291.000000	1.147683
3290.000000	1.139680
3289.000000	1.132184
3288.000000	1.125773
3287.000000	1.120329
3286.000000	1.114959
3285.000000	1.109936
3284.000000	1.106342
3283.000000	1.103915
3282.000000	1.101385
3281.000000	1.098746
3280.000000	1.097085
3279.000000	1.096273
3278.000000	1.095088
3277.000000	1.093477
3276.000000	1.092503
3275.000000	1.092212
3274.000000	1.091714
3273.000000	1.091352
3272.000000	1.092585
3271.000000	1.095748
3270.000000	1.099880
3269.000000	1.104547
3268.000000	1.109860
3267.000000	1.115042
3266.000000	1.119053
3265.000000	1.122414
3264.000000	1.126475
3263.000000	1.131111
3262.000000	1.135146
3261.000000	1.138556
3260.000000	1.142204
3259.000000	1.145875
3258.000000	1.148723
3257.000000	1.151354
3256.000000	1.155278
3255.000000	1.160614
3254.000000	1.166251
3253.000000	1.171871
3252.000000	1.177724
3251.000000	1.182967
3250.000000	1.186496
3249.000000	1.189142
3248.000000	1.192915
3247.000000	1.198251
3246.000000	1.204009
3245.000000	1.209712
3244.000000	1.215769
3243.000000	1.221786
3242.000000	1.226840
3241.000000	1.231226
3240.000000	1.235991
3239.000000	1.240952
3238.000000	1.245032
3237.000000	1.248228
3236.000000	1.251509
3235.000000	1.255197
3234.000000	1.259153
3233.000000	1.263988
3232.000000	1.270168
3231.000000	1.276488
3230.000000	1.281352
3229.000000	1.285067
3228.000000	1.289038
3227.000000	1.293340
3226.000000	1.296974
3225.000000	1.299939
3224.000000	1.303028
3223.000000	1.306143
3222.000000	1.308670
3221.000000	1.310981
3220.000000	1.313735
3219.000000	1.316284
3218.000000	1.317645
3217.000000	1.318364
3216.000000	1.319583
3215.000000	1.321014
3214.000000	1.321680
3213.000000	1.321871
3212.000000	1.322387
3211.000000	1.322630
3210.000000	1.321548
3209.000000	1.319745
3208.000000	1.318607
3207.000000	1.317970
3206.000000	1.316628
3205.000000	1.314561
3204.000000	1.312590
3203.000000	1.310511
3202.000000	1.307567
3201.000000	1.304195
3200.000000	1.301337
3199.000000	1.298545
3198.000000	1.294730
3197.000000	1.290213
3196.000000	1.286107
3195.000000	1.282235
3194.000000	1.277596
3193.000000	1.272313
3192.000000	1.267318
3191.000000	1.262602
3190.000000	1.257559
3189.000000	1.252431
3188.000000	1.247717
3187.000000	1.242803
3186.000000	1.236953
3185.000000	1.230939
3184.000000	1.225946
3183.000000	1.221585
3182.000000	1.216746
3181.000000	1.211663
3180.000000	1.207273
3179.000000	1.203281
3178.000000	1.198687
3177.000000	1.193687
3176.000000	1.189270
3175.000000	1.185491
3174.000000	1.181753
3173.000000	1.178135
3172.000000	1.174911
3171.000000	1.171501
3170.000000	1.167429
3169.000000	1.163536
3168.000000	1.160792
3167.000000	1.158751
3166.000000	1.156660
3165.000000	1.155042
3164.000000	1.154623
3163.000000	1.154716
3162.000000	1.154281
3161.000000	1.153609
3160.000000	1.153388
3159.000000	1.153180
3158.000000	1.152420
3157.000000	1.151825
3156.000000	1.152183
3155.000000	1.152887
3154.000000	1.153346
3153.000000	1.154713
3152.000000	1.158331
3151.000000	1.163530
3150.000000	1.168730
3149.000000	1.173695
3148.000000	1.179002
3147.000000	1.184353
3146.000000	1.189297
3145.000000	1.194614
3144.000000	1.201102
3143.000000	1.207925
3142.000000	1.213894
3141.000000	1.219580
3140.000000	1.226477
3139.000000	1.234917
3138.000000	1.244393
3137.000000	1.254933
3136.000000	1.266503
3135.000000	1.278049
3134.000000	1.288719
3133.000000	1.299242
3132.000000	1.310655
3131.000000	1.322701
3130.000000	1.334897
3129.000000	1.347933
3128.000000	1.362471
3127.000000	1.377666
3126.000000	1.392443
3125.000000	1.407112
3124.000000	1.422256
3123.000000	1.437338
3122.000000	1.451964
3121.000000	1.467217
3120.000000	1.484099
3119.000000	1.501866
3118.000000	1.519610
3117.000000	1.538223
3116.000000	1.559038
3115.000000	1.581677
3114.000000	1.604883
3113.000000	1.628363
3112.000000	1.652191
3111.000000	1.675668
3110.000000	1.698521
3109.000000	1.722089
3108.000000	1.747672
3107.000000	1.774715
3106.000000	1.802078
3105.000000	1.829845
3104.000000	1.858352
3103.000000	1.886830
3102.000000	1.914755
3101.000000	1.943269
3100.000000	1.973585
3099.000000	2.005063
3098.000000	2.036531
3097.000000	2.068274
3096.000000	2.100990
3095.000000	2.134066
3094.000000	2.166671
3093.000000	2.199507
3092.000000	2.233788
3091.000000	2.269391
3090.000000	2.305588
3089.000000	2.342482
3088.000000	2.380231
3087.000000	2.418006
3086.000000	2.455279
3085.000000	2.493109
3084.000000	2.532616
3083.000000	2.573261
3082.000000	2.614120
3081.000000	2.655640
3080.000000	2.698633
3079.000000	2.742642
3078.000000	2.786864
3077.000000	2.831604
3076.000000	2.877315
3075.000000	2.923331
3074.000000	2.968997
3073.000000	3.014890
3072.000000	3.061528
3071.000000	3.108084
3070.000000	3.153910
3069.000000	3.200141
3068.000000	3.248182
3067.000000	3.297732
3066.000000	3.347752
3065.000000	3.398299
3064.000000	3.449792
3063.000000	3.501566
3062.000000	3.552715
3061.000000	3.603452
3060.000000	3.654301
3059.000000	3.705001
3058.000000	3.755480
3057.000000	3.806768
3056.000000	3.859553
3055.000000	3.912939
3054.000000	3.966029
3053.000000	4.019575
3052.000000	4.074642
3051.000000	4.130735
3050.000000	4.186648
3049.000000	4.242126
3048.000000	4.297338
3047.000000	4.351869
3046.000000	4.405651
3045.000000	4.459862
3044.000000	4.515548
3043.000000	4.572333
3042.000000	4.629658
3041.000000	4.688079
3040.000000	4.747948
3039.000000	4.808019
3038.000000	4.866868
3037.000000	4.924735
3036.000000	4.982688
3035.000000	5.040965
3034.000000	5.099426
3033.000000	5.158554
3032.000000	5.218630
3031.000000	5.278874
3030.000000	5.338635
3029.000000	5.398459
3028.000000	5.458936
3027.000000	5.519661
3026.000000	5.580417
3025.000000	5.642047
3024.000000	5.704840
3023.000000	5.767348
3022.000000	5.828241
3021.000000	5.888200
3020.000000	5.948593
3019.000000	6.009440
3018.000000	6.070086
3017.000000	6.130819
3016.000000	6.192314
3015.000000	6.254440
3014.000000	6.316996
3013.000000	6.380694
3012.000000	6.446021
3011.000000	6.512011
3010.000000	6.577386
3009.000000	6.642079
3008.000000	6.706475
3007.000000	6.770233
3006.000000	6.833138
3005.000000	6.896135
3004.000000	6.960205
3003.000000	7.024967
3002.000000	7.089557
3001.000000	7.154059
3000.000000	7.218951
2999.000000	7.283983
2998.000000	7.348682
2997.000000	7.413171
2996.000000	7.477517
2995.000000	7.541244
2994.000000	7.604553
2993.000000	7.668987
2992.000000	7.735663
2991.000000	7.803728
2990.000000	7.871645
2989.000000	7.939070
2988.000000	8.006352
2987.000000	8.073193
2986.000000	8.139094
2985.000000	8.204377
2984.000000	8.269610
2983.000000	8.334756
2982.000000	8.399893
2981.000000	8.465904
2980.000000	8.533322
2979.000000	8.601302
2978.000000	8.668853
2977.000000	8.736353
2976.000000	8.804810
2975.000000	8.874366
2974.000000	8.944523
2973.000000	9.015022
2972.000000	9.085473
2971.000000	9.154905
2970.000000	9.222782
2969.000000	9.289843
2968.000000	9.357016
2967.000000	9.424284
2966.000000	9.491439
2965.000000	9.559038
2964.000000	9.627599
2963.000000	9.696701
2962.000000	9.765887
2961.000000	9.835498
2960.000000	9.905617
2959.000000	9.975146
2958.000000	10.042962
2957.000000	10.109118
2956.000000	10.174067
2955.000000	10.237867
2954.000000	10.301172
2953.000000	10.365708
2952.000000	10.432438
2951.000000	10.500177
2950.000000	10.567266
2949.000000	10.633630
2948.000000	10.700085
2947.000000	10.766685
2946.000000	10.833136
2945.000000	10.899964
2944.000000	10.967831
2943.000000	11.036255
2942.000000	11.104219
2941.000000	11.171545
2940.000000	11.238644
2939.000000	11.305563
2938.000000	11.372299
2937.000000	11.439382
2936.000000	11.507068
2935.000000	11.574508
2934.000000	11.640772
2933.000000	11.706065
2932.000000	11.771010
2931.000000	11.835496
2930.000000	11.899352
2929.000000	11.963482
2928.000000	12.029135
2927.000000	12.096614
2926.000000	12.165639
2925.000000	12.236226
2924.000000	12.308073
2923.000000	12.379732
2922.000000	12.449517
2921.000000	12.516728
2920.000000	12.581143
2919.000000	12.642175
2918.000000	12.699580
2917.000000	12.754337
2916.000000	12.807747
2915.000000	12.860167
2914.000000	12.911532
2913.000000	12.962494
2912.000000	13.014164
2911.000000	13.067129
2910.000000	13.121482
2909.000000	13.177287
2908.000000	13.234257
2907.000000	13.291458
2906.000000	13.348025
2905.000000	13.403831
2904.000000	13.459031
2903.000000	13.513569
2902.000000	13.567891
2901.000000	13.623113
2900.000000	13.679960
2899.000000	13.737922
2898.000000	13.795938
2897.000000	13.853369
2896.000000	13.909746
2895.000000	13.964390
2894.000000	14.017068
2893.000000	14.068443
2892.000000	14.119219
2891.000000	14.169452
2890.000000	14.219325
2889.000000	14.269897
2888.000000	14.322209
2887.000000	14.376203
2886.000000	14.431190
2885.000000	14.486853
2884.000000	14.543067
2883.000000	14.599299
2882.000000	14.654992
2881.000000	14.710176
2880.000000	14.765091
2879.000000	14.819791
2878.000000	14.874843
2877.000000	14.931817
2876.000000	14.992014
2875.000000	15.054843
2874.000000	15.118195
2873.000000	15.180316
2872.000000	15.240816
2871.000000	15.300197
2870.000000	15.359070
2869.000000	15.417724
2868.000000	15.475877
2867.000000	15.532932
2866.000000	15.588835
2865.000000	15.644491
2864.000000	15.701056
2863.000000	15.759064
2862.000000	15.818445
2861.000000	15.878889
2860.000000	15.939847
2859.000000	16.000751
2858.000000	16.061658
2857.000000	16.123227
2856.000000	16.185694
2855.000000	16.248437
2854.000000	16.310933
2853.000000	16.373480
2852.000000	16.436378
2851.000000	16.498779
2850.000000	16.558881
2849.000000	16.614951
2848.000000	16.666001
2847.000000	16.712251
2846.000000	16.755475
2845.000000	16.798369
2844.000000	16.843028
2843.000000	16.890153
2842.000000	16.939628
2841.000000	16.990938
2840.000000	17.042660
2839.000000	17.092790
2838.000000	17.140654
2837.000000	17.187980
2836.000000	17.237242
2835.000000	17.289373
2834.000000	17.343658
2833.000000	17.399220
2832.000000	17.455608
2831.000000	17.512217
2830.000000	17.568254
2829.000000	17.623369
2828.000000	17.677759
2827.000000	17.731678
2826.000000	17.785392
2825.000000	17.839511
2824.000000	17.894757
2823.000000	17.951367
2822.000000	18.009100
2821.000000	18.067670
2820.000000	18.126729
2819.000000	18.185572
2818.000000	18.243319
2817.000000	18.299344
2816.000000	18.353306
2815.000000	18.405066
2814.000000	18.455072
2813.000000	18.504484
2812.000000	18.554309
2811.000000	18.604521
2810.000000	18.654525
2809.000000	18.704283
2808.000000	18.754328
2807.000000	18.804738
2806.000000	18.854722
2805.000000	18.903254
2804.000000	18.949664
2803.000000	18.993621
2802.000000	19.035165
2801.000000	19.074945
2800.000000	19.113935
2799.000000	19.152775
2798.000000	19.191751
2797.000000	19.231400
2796.000000	19.272628
2795.000000	19.316003
2794.000000	19.361212
2793.000000	19.407339
2792.000000	19.453364
2791.000000	19.498338
2790.000000	19.541484
2789.000000	19.582498
2788.000000	19.621731
2787.000000	19.660032
2786.000000	19.698505
2785.000000	19.738231
2784.000000	19.779854
2783.000000	19.823270
2782.000000	19.867776
2781.000000	19.912461
2780.000000	19.956237
2779.000000	19.997740
2778.000000	20.035616
2777.000000	20.068989
2776.000000	20.097551
2775.000000	20.121291
2774.000000	20.140529
2773.000000	20.156220
2772.000000	20.169604
2771.000000	20.181450
2770.000000	20.191774
2769.000000	20.200168
2768.000000	20.206044
2767.000000	20.208415
2766.000000	20.206046
2765.000000	20.198145
2764.000000	20.184781
2763.000000	20.166778
2762.000000	20.145403
2761.000000	20.122314
2760.000000	20.099398
2759.000000	20.078275
2758.000000	20.059999
2757.000000	20.044923
2756.000000	20.032433
2755.000000	20.020813
2754.000000	20.007775
2753.000000	19.991430
2752.000000	19.970660
2751.000000	19.944786
2750.000000	19.913287
2749.000000	19.875899
2748.000000	19.832887
2747.000000	19.785079
2746.000000	19.733777
2745.000000	19.680494
2744.000000	19.626238
2743.000000	19.571223
2742.000000	19.515578
2741.000000	19.460237
2740.000000	19.407026
2739.000000	19.358186
2738.000000	19.316120
2737.000000	19.283666
2736.000000	19.263967
2735.000000	19.259826
2734.000000	19.273579
2733.000000	19.306670
2732.000000	19.359104
2731.000000	19.429376
2730.000000	19.514729
2729.000000	19.611980
2728.000000	19.717524
2727.000000	19.827230
2726.000000	19.937411
2725.000000	20.045772
2724.000000	20.151657
2723.000000	20.255353
2722.000000	20.357218
2721.000000	20.457384
2720.000000	20.555659
2719.000000	20.651382
2718.000000	20.743568
2717.000000	20.831176
2716.000000	20.912931
2715.000000	20.987210
2714.000000	21.052271
2713.000000	21.107049
2712.000000	21.151733
2711.000000	21.187263
2710.000000	21.214984
2709.000000	21.236576
2708.000000	21.253908
2707.000000	21.268680
2706.000000	21.281772
2705.000000	21.293304
2704.000000	21.302799
2703.000000	21.309165
2702.000000	21.311086
2701.000000	21.307688
2700.000000	21.299149
2699.000000	21.286586
2698.000000	21.271468
2697.000000	21.255297
2696.000000	21.239363
2695.000000	21.224623
2694.000000	21.211731
2693.000000	21.201013
2692.000000	21.192175
2691.000000	21.184004
2690.000000	21.174804
2689.000000	21.163299
2688.000000	21.149019
2687.000000	21.131967
2686.000000	21.112423
2685.000000	21.091261
2684.000000	21.070054
2683.000000	21.050478
2682.000000	21.033650
2681.000000	21.020053
2680.000000	21.009652
2679.000000	21.001886
2678.000000	20.995847
2677.000000	20.990745
2676.000000	20.986349
2675.000000	20.982935
2674.000000	20.980995
2673.000000	20.981239
2672.000000	20.984599
2671.000000	20.992204
2670.000000	21.005203
2669.000000	21.024317
2668.000000	21.049405
2667.000000	21.079153
2666.000000	21.111355
2665.000000	21.143582
2664.000000	21.173597
2663.000000	21.199611
2662.000000	21.220544
2661.000000	21.236199
2660.000000	21.247178
2659.000000	21.254670
2658.000000	21.260297
2657.000000	21.265964
2656.000000	21.273423
2655.000000	21.283782
2654.000000	21.297541
2653.000000	21.314990
2652.000000	21.336275
2651.000000	21.361287
2650.000000	21.389959
2649.000000	21.422638
2648.000000	21.460245
2647.000000	21.503874
2646.000000	21.554385
2645.000000	21.612495
2644.000000	21.678493
2643.000000	21.752089
2642.000000	21.832432
2641.000000	21.918118
2640.000000	22.007229
2639.000000	22.097119
2638.000000	22.184759
2637.000000	22.267564
2636.000000	22.343825
2635.000000	22.412495
2634.000000	22.473070
2633.000000	22.525802
2632.000000	22.571730
2631.000000	22.612307
2630.000000	22.648750
2629.000000	22.682162
2628.000000	22.713518
2627.000000	22.743025
2626.000000	22.769944
2625.000000	22.793096
2624.000000	22.811798
2623.000000	22.825912
2622.000000	22.835303
2621.000000	22.840002
2620.000000	22.840540
2619.000000	22.837895
2618.000000	22.832944
2617.000000	22.826038
2616.000000	22.817129
2615.000000	22.805680
2614.000000	22.790706
2613.000000	22.771171
2612.000000	22.746276
2611.000000	22.715665
2610.000000	22.679531
2609.000000	22.639055
2608.000000	22.596636
2607.000000	22.555345
2606.000000	22.518275
2605.000000	22.488461
2604.000000	22.468801
2603.000000	22.461407
2602.000000	22.467140
2601.000000	22.485278
2600.000000	22.513917
2599.000000	22.550576
2598.000000	22.592650
2597.000000	22.638487
2596.000000	22.687581
2595.000000	22.740149
2594.000000	22.796561
2593.000000	22.856820
2592.000000	22.920761
2591.000000	22.988051
2590.000000	23.058270
2589.000000	23.131149
2588.000000	23.206366
2587.000000	23.283217
2586.000000	23.360533
2585.000000	23.437320
2584.000000	23.513454
2583.000000	23.589511
2582.000000	23.666357
2581.000000	23.745015
2580.000000	23.826612
2579.000000	23.911869
2578.000000	24.000519
2577.000000	24.091556
2576.000000	24.183812
2575.000000	24.275989
2574.000000	24.366477
2573.000000	24.453758
2572.000000	24.536987
2571.000000	24.615886
2570.000000	24.690281
2569.000000	24.760103
2568.000000	24.825863
2567.000000	24.888153
2566.000000	24.946790
2565.000000	25.000922
2564.000000	25.049307
2563.000000	25.090404
2562.000000	25.121972
2561.000000	25.141616
2560.000000	25.148022
2559.000000	25.140678
2558.000000	25.119685
2557.000000	25.086301
2556.000000	25.044000
2555.000000	24.998623
2554.000000	24.957107
2553.000000	24.926519
2552.000000	24.913375
2551.000000	24.922428
2550.000000	24.955155
2549.000000	25.010130
2548.000000	25.083936
2547.000000	25.171880
2546.000000	25.268669
2545.000000	25.368914
2544.000000	25.468614
2543.000000	25.565410
2542.000000	25.657941
2541.000000	25.745760
2540.000000	25.829291
2539.000000	25.909136
2538.000000	25.985243
2537.000000	26.057136
2536.000000	26.124457
2535.000000	26.186824
2534.000000	26.243164
2533.000000	26.292474
2532.000000	26.335250
2531.000000	26.373122
2530.000000	26.407667
2529.000000	26.440190
2528.000000	26.472488
2527.000000	26.506655
2526.000000	26.543855
2525.000000	26.584264
2524.000000	26.627940
2523.000000	26.674670
2522.000000	26.722971
2521.000000	26.770365
2520.000000	26.814947
2519.000000	26.856066
2518.000000	26.893731
2517.000000	26.928490
2516.000000	26.961858
2515.000000	26.995773
2514.000000	27.031253
2513.000000	27.068224
2512.000000	27.106473
2511.000000	27.145723
2510.000000	27.184894
2509.000000	27.222309
2508.000000	27.256750
2507.000000	27.287648
2506.000000	27.314500
2505.000000	27.337376
2504.000000	27.357889
2503.000000	27.378414
2502.000000	27.400342
2501.000000	27.423829
2500.000000	27.449013
2499.000000	27.476103
2498.000000	27.504174
2497.000000	27.531168
2496.000000	27.555340
2495.000000	27.576010
2494.000000	27.593085
2493.000000	27.606951
2492.000000	27.618920
2491.000000	27.630639
2490.000000	27.642992
2489.000000	27.656372
2488.000000	27.671554
2487.000000	27.689146
2486.000000	27.708260
2485.000000	27.726905
2484.000000	27.743721
2483.000000	27.758296
2482.000000	27.770247
2481.000000	27.779390
2480.000000	27.786724
2479.000000	27.793911
2478.000000	27.801729
2477.000000	27.810195
2476.000000	27.819908
2475.000000	27.831766
2474.000000	27.845353
2473.000000	27.859001
2472.000000	27.871602
2471.000000	27.883182
2470.000000	27.893734
2469.000000	27.902848
2468.000000	27.910626
2467.000000	27.917714
2466.000000	27.924346
2465.000000	27.930528
2464.000000	27.937141
2463.000000	27.945517
2462.000000	27.955845
2461.000000	27.967147
2460.000000	27.978810
2459.000000	27.990857
2458.000000	28.002801
2457.000000	28.013633
2456.000000	28.023109
2455.000000	28.031806
2454.000000	28.039892
2453.000000	28.047151
2452.000000	28.054244
2451.000000	28.062537
2450.000000	28.072468
2449.000000	28.083309
2448.000000	28.094649
2447.000000	28.106847
2446.000000	28.119882
2445.000000	28.133006
2444.000000	28.145700
2443.000000	28.157861
2442.000000	28.169010
2441.000000	28.178541
2440.000000	28.186873
2439.000000	28.195230
2438.000000	28.204292
2437.000000	28.214132
2436.000000	28.225283
2435.000000	28.238476
2434.000000	28.253291
2433.000000	28.268393
2432.000000	28.283178
2431.000000	28.297933
2430.000000	28.312436
2429.000000	28.325770
2428.000000	28.337627
2427.000000	28.348561
2426.000000	28.358924
2425.000000	28.368834
2424.000000	28.379163
2423.000000	28.391223
2422.000000	28.405395
2421.000000	28.421174
2420.000000	28.438406
2419.000000	28.457067
2418.000000	28.475940
2417.000000	28.493031
2416.000000	28.507505
2415.000000	28.520024
2414.000000	28.531318
2413.000000	28.541836
2412.000000	28.552793
2411.000000	28.565972
2410.000000	28.582195
2409.000000	28.601058
2408.000000	28.622044
2407.000000	28.644656
2406.000000	28.667483
2405.000000	28.688663
2404.000000	28.707488
2403.000000	28.724490
2402.000000	28.740168
2401.000000	28.754888
2400.000000	28.769868
2399.000000	28.786749
2398.000000	28.806149
2397.000000	28.827829
2396.000000	28.852000
2395.000000	28.879024
2394.000000	28.908031
2393.000000	28.937266
2392.000000	28.965739
2391.000000	28.993347
2390.000000	29.019811
2389.000000	29.045025
2388.000000	29.070606
2387.000000	29.099235
2386.000000	29.132746
2385.000000	29.172104
2384.000000	29.218210
2383.000000	29.271771
2382.000000	29.331563
2381.000000	29.394962
2380.000000	29.460079
2379.000000	29.525270
2378.000000	29.587912
2377.000000	29.645387
2376.000000	29.697266
2375.000000	29.745350
2374.000000	29.791709
2373.000000	29.838331
2372.000000	29.888161
2371.000000	29.943672
2370.000000	30.003724
2369.000000	30.065726
2368.000000	30.128786
2367.000000	30.192509
2366.000000	30.254026
2365.000000	30.310891
2364.000000	30.365758
2363.000000	30.419161
2362.000000	30.470016
2361.000000	30.520317
2360.000000	30.570887
2359.000000	30.625516
2358.000000	30.682132
2357.000000	30.737372
2356.000000	30.791733
2355.000000	30.842770
2354.000000	30.891032
2353.000000	30.937385
2352.000000	30.991034
2351.000000	31.055050
2350.000000	31.114890
2349.000000	31.161916
2348.000000	31.201122
2347.000000	31.255635
2346.000000	31.331581
2345.000000	31.410424
2344.000000	31.474606
2343.000000	31.518936
2342.000000	31.558058
2341.000000	31.597484
2340.000000	31.637252
2339.000000	31.675884
2338.000000	31.714325
2337.000000	31.753077
2336.000000	31.795423
2335.000000	31.843976
2334.000000	31.901828
2333.000000	31.964616
2332.000000	32.029506
2331.000000	32.095113
2330.000000	32.156908
2329.000000	32.216640
2328.000000	32.270323
2327.000000	32.322401
2326.000000	32.372694
2325.000000	32.420765
2324.000000	32.469176
2323.000000	32.516461
2322.000000	32.564896
2321.000000	32.610605
2320.000000	32.656897
2319.000000	32.706363
2318.000000	32.761163
2317.000000	32.818524
2316.000000	32.875392
2315.000000	32.930980
2314.000000	32.983177
2313.000000	33.030066
2312.000000	33.070809
2311.000000	33.109474
2310.000000	33.149013
2309.000000	33.190997
2308.000000	33.235865
2307.000000	33.284838
2306.000000	33.337336
2305.000000	33.390118
2304.000000	33.441169
2303.000000	33.489875
2302.000000	33.535574
2301.000000	33.576708
2300.000000	33.613314
2299.000000	33.648433
2298.000000	33.683895
2297.000000	33.720663
2296.000000	33.759229
2295.000000	33.801599
2294.000000	33.847112
2293.000000	33.893311
2292.000000	33.938233
2291.000000	33.981813
2290.000000	34.023018
2289.000000	34.059706
2288.000000	34.091942
2287.000000	34.122329
2286.000000	34.152948
2285.000000	34.183940
2284.000000	34.216615
2283.000000	34.253410
2282.000000	34.295013
2281.000000	34.339121
2280.000000	34.383945
2279.000000	34.429094
2278.000000	34.473342
2277.000000	34.514013
2276.000000	34.550148
2275.000000	34.583428
2274.000000	34.614934
2273.000000	34.644468
2272.000000	34.672967
2271.000000	34.702963
2270.000000	34.735366
2269.000000	34.768856
2268.000000	34.802984
2267.000000	34.838621
2266.000000	34.874715
2265.000000	34.908186
2264.000000	34.937329
2263.000000	34.963002
2262.000000	34.985204
2261.000000	35.002394
2260.000000	35.014936
2259.000000	35.025430
2258.000000	35.035470
2257.000000	35.044117
2256.000000	35.051199
2255.000000	35.057800
2254.000000	35.063243
2253.000000	35.064577
2252.000000	35.059644
2251.000000	35.048332
2250.000000	35.029160
2249.000000	34.999825
2248.000000	34.960264
2247.000000	34.912762
2246.000000	34.858736
2245.000000	34.797505
2244.000000	34.729830
2243.000000	34.658413
2242.000000	34.584287
2241.000000	34.506000
2240.000000	34.423099
2239.000000	34.337557
2238.000000	34.251069
2237.000000	34.164383
2236.000000	34.080117
2235.000000	34.002996
2234.000000	33.936406
2233.000000	33.881193
2232.000000	33.838356
2231.000000	33.809345
2230.000000	33.793074
2229.000000	33.785609
2228.000000	33.783679
2227.000000	33.785747
2226.000000	33.788993
2225.000000	33.788989
2224.000000	33.783450
2223.000000	33.773499
2222.000000	33.760458
2221.000000	33.744492
2220.000000	33.727259
2219.000000	33.712466
2218.000000	33.702460
2217.000000	33.696853
2216.000000	33.695166
2215.000000	33.697712
2214.000000	33.703005
2213.000000	33.707437
2212.000000	33.708721
2211.000000	33.707020
2210.000000	33.702206
2209.000000	33.693310
2208.000000	33.681645
2207.000000	33.671275
2206.000000	33.665174
2205.000000	33.663505
2204.000000	33.666133
2203.000000	33.673545
2202.000000	33.684303
2201.000000	33.694689
2200.000000	33.702054
2199.000000	33.705883
2198.000000	33.705157
2197.000000	33.698039
2196.000000	33.685136
2195.000000	33.669972
2194.000000	33.655196
2193.000000	33.641144
2192.000000	33.628540
2191.000000	33.619160
2190.000000	33.612817
2189.000000	33.606697
2188.000000	33.598656
2187.000000	33.588358
2186.000000	33.574774
2185.000000	33.556156
2184.000000	33.533569
2183.000000	33.511365
2182.000000	33.493180
2181.000000	33.480424
2180.000000	33.474959
2179.000000	33.479620
2178.000000	33.494802
2177.000000	33.517555
2176.000000	33.545050
2175.000000	33.575957
2174.000000	33.607953
2173.000000	33.637515
2172.000000	33.663571
2171.000000	33.688314
2170.000000	33.713553
2169.000000	33.739540
2168.000000	33.768014
2167.000000	33.802549
2166.000000	33.844426
2165.000000	33.891266
2164.000000	33.940635
2163.000000	33.991595
2162.000000	34.041828
2161.000000	34.087178
2160.000000	34.125760
2159.000000	34.159501
2158.000000	34.190548
2157.000000	34.219561
2156.000000	34.248449
2155.000000	34.280976
2154.000000	34.319004
2153.000000	34.361109
2152.000000	34.405756
2151.000000	34.452403
2150.000000	34.498614
2149.000000	34.540003
2148.000000	34.574614
2147.000000	34.604174
2146.000000	34.630332
2145.000000	34.653300
2144.000000	34.675149
2143.000000	34.700554
2142.000000	34.732673
2141.000000	34.771390
2140.000000	34.816288
2139.000000	34.867534
2138.000000	34.922822
2137.000000	34.977316
2136.000000	35.027970
2135.000000	35.074713
2134.000000	35.116943
2133.000000	35.153092
2132.000000	35.184657
2131.000000	35.216470
2130.000000	35.251533
2129.000000	35.289307
2128.000000	35.329629
2127.000000	35.373827
2126.000000	35.420712
2125.000000	35.465841
2124.000000	35.506377
2123.000000	35.542934
2122.000000	35.575801
2121.000000	35.603670
2120.000000	35.627470
2119.000000	35.651281
2118.000000	35.678088
2117.000000	35.708358
2116.000000	35.743380
2115.000000	35.785376
2114.000000	35.833020
2113.000000	35.881148
2112.000000	35.926327
2111.000000	35.968734
2110.000000	36.007824
2109.000000	36.041039
2108.000000	36.068034
2107.000000	36.091658
2106.000000	36.113361
2105.000000	36.132091
2104.000000	36.148672
2103.000000	36.166337
2102.000000	36.185619
2101.000000	36.202962
2100.000000	36.215913
2099.000000	36.224960
2098.000000	36.229182
2097.000000	36.225322
2096.000000	36.212658
2095.000000	36.194385
2094.000000	36.172920
2093.000000	36.148748
2092.000000	36.124958
2091.000000	36.107503
2090.000000	36.099175
2089.000000	36.097811
2088.000000	36.101804
2087.000000	36.112666
2086.000000	36.130520
2085.000000	36.152133
2084.000000	36.175653
2083.000000	36.202616
2082.000000	36.233734
2081.000000	36.267147
2080.000000	36.302726
2079.000000	36.343419
2078.000000	36.390128
2077.000000	36.440493
2076.000000	36.493682
2075.000000	36.552070
2074.000000	36.616089
2073.000000	36.681693
2072.000000	36.745487
2071.000000	36.807634
2070.000000	36.868170
2069.000000	36.925555
2068.000000	36.981496
2067.000000	37.042384
2066.000000	37.113143
2065.000000	37.193058
2064.000000	37.279297
2063.000000	37.370365
2062.000000	37.464470
2061.000000	37.559102
2060.000000	37.653954
2059.000000	37.750359
2058.000000	37.846579
2057.000000	37.938297
2056.000000	38.024541
2055.000000	38.108654
2054.000000	38.192650
2053.000000	38.275473
2052.000000	38.357915
2051.000000	38.443744
2050.000000	38.534009
2049.000000	38.625298
2048.000000	38.715427
2047.000000	38.805269
2046.000000	38.893843
2045.000000	38.977736
2044.000000	39.057530
2043.000000	39.138937
2042.000000	39.225532
2041.000000	39.315716
2040.000000	39.408315
2039.000000	39.505438
2038.000000	39.607989
2037.000000	39.713990
2036.000000	39.823148
2035.000000	39.937036
2034.000000	40.053393
2033.000000	40.166515
2032.000000	40.274224
2031.000000	40.379596
2030.000000	40.483778
2029.000000	40.584559
2028.000000	40.682759
2027.000000	40.783470
2026.000000	40.889198
2025.000000	40.996496
2024.000000	41.102641
2023.000000	41.208510
2022.000000	41.313173
2021.000000	41.412477
2020.000000	41.506292
2019.000000	41.601119
2018.000000	41.702627
2017.000000	41.810499
2016.000000	41.922021
2015.000000	42.035390
2014.000000	42.148179
2013.000000	42.258597
2012.000000	42.369355
2011.000000	42.485344
2010.000000	42.606183
2009.000000	42.727279
2008.000000	42.847224
2007.000000	42.967780
2006.000000	43.087873
2005.000000	43.203073
2004.000000	43.314337
2003.000000	43.426341
2002.000000	43.539719
2001.000000	43.651791
2000.000000	43.761677
1999.000000	43.871016
1998.000000	43.978569
1997.000000	44.080190
1996.000000	44.173306
1995.000000	44.257993
1994.000000	44.336340
1993.000000	44.416325
1992.000000	44.510403
1991.000000	44.621402
1990.000000	44.735448
1989.000000	44.838539
1988.000000	44.933559
1987.000000	45.030601
1986.000000	45.128444
1985.000000	45.217772
1984.000000	45.299223
1983.000000	45.380412
1982.000000	45.460829
1981.000000	45.534060
1980.000000	45.600445
1979.000000	45.666601
1978.000000	45.732321
1977.000000	45.792332
1976.000000	45.848216
1975.000000	45.906060
1974.000000	45.964123
1973.000000	46.015763
1972.000000	46.061890
1971.000000	46.107914
1970.000000	46.151888
1969.000000	46.190547
1968.000000	46.233945
1967.000000	46.296748
1966.000000	46.374333
1965.000000	46.445805
1964.000000	46.501724
1963.000000	46.550603
1962.000000	46.599254
1961.000000	46.644792
1960.000000	46.687634
1959.000000	46.734639
1958.000000	46.785337
1957.000000	46.832533
1956.000000	46.876945
1955.000000	46.927229
1954.000000	46.981625
1953.000000	47.027376
1952.000000	47.063579
1951.000000	47.100023
1950.000000	47.134829
1949.000000	47.156208
1948.000000	47.166682
1947.000000	47.181702
1946.000000	47.201360
1945.000000	47.210128
1944.000000	47.211615
1943.000000	47.236728
1942.000000	47.301662
1941.000000	47.381444
1940.000000	47.442872
1939.000000	47.480029
1938.000000	47.504273
1937.000000	47.522597
1936.000000	47.538165
1935.000000	47.559749
1934.000000	47.591725
1933.000000	47.626564
1932.000000	47.661915
1931.000000	47.700322
1930.000000	47.737801
1929.000000	47.762108
1928.000000	47.771063
1927.000000	47.774580
1926.000000	47.767540
1925.000000	47.737880
1924.000000	47.702176
1923.000000	47.700920
1922.000000	47.743553
1921.000000	47.787075
1920.000000	47.793684
1919.000000	47.787528
1918.000000	47.817647
1917.000000	47.885445
1916.000000	47.950177
1915.000000	47.988023
1914.000000	48.003184
1913.000000	48.001963
1912.000000	47.989002
1911.000000	47.975778
1910.000000	47.980184
1909.000000	48.006766
1908.000000	48.045602
1907.000000	48.089899
1906.000000	48.131965
1905.000000	48.163382
1904.000000	48.184584
1903.000000	48.202171
1902.000000	48.217661
1901.000000	48.224156
1900.000000	48.220143
1899.000000	48.215796
1898.000000	48.212057
1897.000000	48.198196
1896.000000	48.178681
1895.000000	48.179292
1894.000000	48.209050
1893.000000	48.237410
1892.000000	48.229411
1891.000000	48.192114
1890.000000	48.166316
1889.000000	48.174849
1888.000000	48.201157
1887.000000	48.219346
1886.000000	48.219216
1885.000000	48.205590
1884.000000	48.191218
1883.000000	48.185253
1882.000000	48.188012
1881.000000	48.193890
1880.000000	48.199005
1879.000000	48.207882
1878.000000	48.221017
1877.000000	48.223411
1876.000000	48.202713
1875.000000	48.167955
1874.000000	48.136526
1873.000000	48.110127
1872.000000	48.069822
1871.000000	47.999378
1870.000000	47.918234
1869.000000	47.873380
1868.000000	47.890311
1867.000000	47.949969
1866.000000	48.011383
1865.000000	48.044394
1864.000000	48.046298
1863.000000	48.031870
1862.000000	48.011231
1861.000000	47.984149
1860.000000	47.952464
1859.000000	47.924353
1858.000000	47.903890
1857.000000	47.884751
1856.000000	47.864105
1855.000000	47.842271
1854.000000	47.816478
1853.000000	47.782322
1852.000000	47.729796
1851.000000	47.651632
1850.000000	47.551284
1849.000000	47.448399
1848.000000	47.364688
1847.000000	47.287646
1846.000000	47.182761
1845.000000	47.080738
1844.000000	47.063730
1843.000000	47.138276
1842.000000	47.225749
1841.000000	47.256571
1840.000000	47.226260
1839.000000	47.172206
1838.000000	47.110656
1837.000000	47.029960
1836.000000	46.937194
1835.000000	46.865219
1834.000000	46.827413
1833.000000	46.780155
1832.000000	46.658773
1831.000000	46.479326
1830.000000	46.335770
1829.000000	46.274305
1828.000000	46.246706
1827.000000	46.189787
1826.000000	46.101461
1825.000000	46.028256
1824.000000	45.993340
1823.000000	45.967970
1822.000000	45.914505
1821.000000	45.824220
1820.000000	45.717307
1819.000000	45.617904
1818.000000	45.526925
1817.000000	45.436954
1816.000000	45.349874
1815.000000	45.268850
1814.000000	45.183846
1813.000000	45.073118
1812.000000	44.939944
1811.000000	44.818467
1810.000000	44.730062
1809.000000	44.663326
1808.000000	44.595789
1807.000000	44.515770
1806.000000	44.419042
1805.000000	44.314488
1804.000000	44.221952
1803.000000	44.150637
1802.000000	44.090211
1801.000000	44.022648
1800.000000	43.947926
1799.000000	43.876093
1798.000000	43.805838
1797.000000	43.733442
1796.000000	43.660291
1795.000000	43.569041
1794.000000	43.436039
1793.000000	43.292224
1792.000000	43.211924
1791.000000	43.215884
1790.000000	43.245304
1789.000000	43.234199
1788.000000	43.165108
1787.000000	43.062386
1786.000000	42.953743
1785.000000	42.857937
1784.000000	42.772817
1783.000000	42.669446
1782.000000	42.530343
1781.000000	42.374282
1780.000000	42.240419
1779.000000	42.126854
1778.000000	41.991852
1777.000000	41.831445
1776.000000	41.695265
1775.000000	41.583932
1774.000000	41.418682
1773.000000	41.182261
1772.000000	40.961555
1771.000000	40.822042
1770.000000	40.739526
1769.000000	40.667206
1768.000000	40.604018
1767.000000	40.567642
1766.000000	40.539287
1765.000000	40.473945
1764.000000	40.340844
1763.000000	40.165665
1762.000000	40.014078
1761.000000	39.911258
1760.000000	39.835011
1759.000000	39.740688
1758.000000	39.596252
1757.000000	39.414853
1756.000000	39.232686
1755.000000	39.066968
1754.000000	38.910813
1753.000000	38.751371
1752.000000	38.601508
1751.000000	38.487232
1750.000000	38.384146
1749.000000	38.255279
1748.000000	38.112795
1747.000000	37.983107
1746.000000	37.855210
1745.000000	37.706611
1744.000000	37.557519
1743.000000	37.436796
1742.000000	37.299228
1741.000000	37.068375
1740.000000	36.763459
1739.000000	36.464485
1738.000000	36.214962
1737.000000	35.982719
1736.000000	35.672228
1735.000000	35.319679
1734.000000	35.089400
1733.000000	34.991282
1732.000000	34.907615
1731.000000	34.779628
1730.000000	34.614662
1729.000000	34.429767
1728.000000	34.232180
1727.000000	34.023806
1726.000000	33.793177
1725.000000	33.517230
1724.000000	33.203060
1723.000000	32.881302
1722.000000	32.560398
1721.000000	32.212409
1720.000000	31.804351
1719.000000	31.370161
1718.000000	30.998771
1717.000000	30.720006
1716.000000	30.493832
1715.000000	30.291659
1714.000000	30.102836
1713.000000	29.903379
1712.000000	29.673391
1711.000000	29.421161
1710.000000	29.166918
1709.000000	28.904341
1708.000000	28.592449
1707.000000	28.198843
1706.000000	27.749980
1705.000000	27.320817
1704.000000	27.005431
1703.000000	26.788665
1702.000000	26.469340
1701.000000	25.976401
1700.000000	25.489393
1699.000000	25.156425
1698.000000	24.939876
1697.000000	24.719549
1696.000000	24.483562
1695.000000	24.287870
1694.000000	24.120598
1693.000000	23.928293
1692.000000	23.682234
1691.000000	23.372456
1690.000000	23.004144
1689.000000	22.621556
1688.000000	22.313229
1687.000000	22.107604
1686.000000	21.873744
1685.000000	21.517733
1684.000000	21.148277
1683.000000	20.889854
1682.000000	20.713645
1681.000000	20.538261
1680.000000	20.345865
1679.000000	20.164273
1678.000000	19.989373
1677.000000	19.762379
1676.000000	19.469653
1675.000000	19.184813
1674.000000	18.963363
1673.000000	18.779718
1672.000000	18.578910
1671.000000	18.330322
1670.000000	18.050416
1669.000000	17.783508
1668.000000	17.565779
1667.000000	17.407740
1666.000000	17.278043
1665.000000	17.114475
1664.000000	16.887814
1663.000000	16.636959
1662.000000	16.411392
1661.000000	16.214554
1660.000000	16.021655
1659.000000	15.809187
1658.000000	15.570085
1657.000000	15.340262
1656.000000	15.156718
1655.000000	14.942117
1654.000000	14.647233
1653.000000	14.394954
1652.000000	14.266713
1651.000000	14.208580
1650.000000	14.141916
1649.000000	14.014679
1648.000000	13.812980
1647.000000	13.592218
1646.000000	13.421655
1645.000000	13.297591
1644.000000	13.184918
1643.000000	13.070004
1642.000000	12.946058
1641.000000	12.802252
1640.000000	12.647693
1639.000000	12.510263
1638.000000	12.380474
1637.000000	12.209469
1636.000000	12.002504
1635.000000	11.831593
1634.000000	11.722547
1633.000000	11.641519
1632.000000	11.564723
1631.000000	11.485019
1630.000000	11.388627
1629.000000	11.264799
1628.000000	11.131510
1627.000000	11.021308
1626.000000	10.935960
1625.000000	10.841357
1624.000000	10.722490
1623.000000	10.605774
1622.000000	10.511855
1621.000000	10.432898
1620.000000	10.364797
1619.000000	10.308014
1618.000000	10.250139
1617.000000	10.187125
1616.000000	10.133496
1615.000000	10.102364
1614.000000	10.086885
1613.000000	10.069293
1612.000000	10.042828
1611.000000	10.014649
1610.000000	9.990256
1609.000000	9.966046
1608.000000	9.943088
1607.000000	9.929690
1606.000000	9.926218
1605.000000	9.921985
1604.000000	9.912201
1603.000000	9.905193
1602.000000	9.906106
1601.000000	9.908930
1600.000000	9.910055
1599.000000	9.915106
1598.000000	9.926136
1597.000000	9.935523
1596.000000	9.939888
1595.000000	9.946814
1594.000000	9.960668
1593.000000	9.974789
1592.000000	9.984770
1591.000000	9.995898
1590.000000	10.011539
1589.000000	10.025659
1588.000000	10.034686
1587.000000	10.044305
1586.000000	10.057535
1585.000000	10.069311
1584.000000	10.076179
1583.000000	10.080427
1582.000000	10.078717
1581.000000	10.061090
1580.000000	10.030040
1579.000000	10.004596
1578.000000	9.989857
1577.000000	9.977384
1576.000000	9.974820
1575.000000	9.989768
1574.000000	10.014628
1573.000000	10.038729
1572.000000	10.047998
1571.000000	10.032375
1570.000000	10.007879
1569.000000	9.999696
1568.000000	10.011299
1567.000000	10.030584
1566.000000	10.039848
1565.000000	10.024855
1564.000000	9.990482
1563.000000	9.976472
1562.000000	10.019270
1561.000000	10.065499
1560.000000	10.055123
1559.000000	10.064812
1558.000000	10.157924
1557.000000	10.276850
1556.000000	10.385348
1555.000000	10.500033
1554.000000	10.631829
1553.000000	10.764335
1552.000000	10.880601
1551.000000	10.992761
1550.000000	11.117443
1549.000000	11.248778
1548.000000	11.367673
1547.000000	11.470523
1546.000000	11.571505
1545.000000	11.682483
1544.000000	11.801513
1543.000000	11.925123
1542.000000	12.050993
1541.000000	12.191863
1540.000000	12.398097
1539.000000	12.679104
1538.000000	12.960689
1537.000000	13.193183
1536.000000	13.384905
1535.000000	13.559006
1534.000000	13.759540
1533.000000	14.009702
1532.000000	14.277022
1531.000000	14.530014
1530.000000	14.767005
1529.000000	15.000612
1528.000000	15.247477
1527.000000	15.520197
1526.000000	15.811949
1525.000000	16.092202
1524.000000	16.344649
1523.000000	16.603570
1522.000000	16.948763
1521.000000	17.401426
1520.000000	17.860189
1519.000000	18.246122
1518.000000	18.593918
1517.000000	18.973807
1516.000000	19.396603
1515.000000	19.815489
1514.000000	20.202659
1513.000000	20.555792
1512.000000	20.868716
1511.000000	21.141026
1510.000000	21.404667
1509.000000	21.707819
1508.000000	22.075836
1507.000000	22.594131
1506.000000	23.299737
1505.000000	23.993820
1504.000000	24.525522
1503.000000	24.945902
1502.000000	25.331730
1501.000000	25.701124
1500.000000	26.038356
1499.000000	26.365628
1498.000000	26.743702
1497.000000	27.211812
1496.000000	27.742458
1495.000000	28.255480
1494.000000	28.686968
1493.000000	29.022350
1492.000000	29.291256
1491.000000	29.573370
1490.000000	29.938573
1489.000000	30.359109
1488.000000	30.771840
1487.000000	31.168376
1486.000000	31.552272
1485.000000	31.898891
1484.000000	32.183750
1483.000000	32.418688
1482.000000	32.630050
1481.000000	32.818222
1480.000000	32.964266
1479.000000	33.053549
1478.000000	33.072740
1477.000000	33.020684
1476.000000	32.940414
1475.000000	32.868900
1474.000000	32.770615
1473.000000	32.592314
1472.000000	32.350328
1471.000000	32.068303
1470.000000	31.690799
1469.000000	31.141216
1468.000000	30.387930
1467.000000	29.394933
1466.000000	28.074698
1465.000000	26.421235
1464.000000	24.649565
1463.000000	23.025272
1462.000000	21.612654
1461.000000	20.350756
1460.000000	19.230504
1459.000000	18.278866
1458.000000	17.491213
1457.000000	16.897305
1456.000000	16.570544
1455.000000	16.466026
1454.000000	16.427218
1453.000000	16.339133
1452.000000	16.172873
1451.000000	15.926878
1450.000000	15.553160
1449.000000	14.979632
1448.000000	14.212786
1447.000000	13.340775
1446.000000	12.418555
1445.000000	11.436060
1444.000000	10.395699
1443.000000	9.331312
1442.000000	8.263361
1441.000000	7.216942
1440.000000	6.252464
1439.000000	5.396977
1438.000000	4.575805
1437.000000	3.720390
1436.000000	2.934455
1435.000000	2.367182
1434.000000	1.988032
1433.000000	1.684436
1432.000000	1.426168
1431.000000	1.236734
1430.000000	1.102096
1429.000000	0.987162
1428.000000	0.908816
1427.000000	0.896566
1426.000000	0.927978
1425.000000	0.970787
1424.000000	1.044191
1423.000000	1.174620
1422.000000	1.339006
1421.000000	1.517382
1420.000000	1.755876
1419.000000	2.101408
1418.000000	2.502244
1417.000000	2.893185
1416.000000	3.302055
1415.000000	3.775038
1414.000000	4.301083
1413.000000	4.858693
1412.000000	5.469629
1411.000000	6.156027
1410.000000	6.888152
1409.000000	7.629995
1408.000000	8.395669
1407.000000	9.216797
1406.000000	10.097394
1405.000000	11.028223
1404.000000	11.995837
1403.000000	12.960781
1402.000000	13.886683
1401.000000	14.800559
1400.000000	15.772347
1399.000000	16.811683
1398.000000	17.846727
1397.000000	18.849542
1396.000000	19.891605
1395.000000	21.033979
1394.000000	22.231822
1393.000000	23.388987
1392.000000	24.458484
1391.000000	25.449391
1390.000000	26.396454
1389.000000	27.353006
1388.000000	28.361359
1387.000000	29.389514
1386.000000	30.336214
1385.000000	31.129714
1384.000000	31.762122
1383.000000	32.240671
1382.000000	32.562861
1381.000000	32.725798
1380.000000	32.722710
1379.000000	32.529042
1378.000000	32.112875
1377.000000	31.444148
1376.000000	30.477535
1375.000000	29.169534
1374.000000	27.555040
1373.000000	25.770490
1372.000000	23.966593
1371.000000	22.244766
1370.000000	20.702389
1369.000000	19.482202
1368.000000	18.730580
1367.000000	18.510305
1366.000000	18.786196
1365.000000	19.489702
1364.000000	20.562462
1363.000000	21.929237
1362.000000	23.452033
1361.000000	24.964211
1360.000000	26.346321
1359.000000	27.540993
1358.000000	28.520475
1357.000000	29.260901
1356.000000	29.729517
1355.000000	29.889846
1354.000000	29.718863
1353.000000	29.207920
1352.000000	28.360014
1351.000000	27.187282
1350.000000	25.718621
1349.000000	24.007084
1348.000000	22.113496
1347.000000	20.096207
1346.000000	18.011552
1345.000000	15.919385
1344.000000	13.887680
1343.000000	11.981977
1342.000000	10.245497
1341.000000	8.701580
1340.000000	7.380312
1339.000000	6.325220
1338.000000	5.560367
1337.000000	5.056988
1336.000000	4.747906
1335.000000	4.558544
1334.000000	4.412377
1333.000000	4.235930
1332.000000	3.976312
1331.000000	3.616230
1330.000000	3.172506
1329.000000	2.681516
1328.000000	2.188220
1327.000000	1.736073
1326.000000	1.352626
1325.000000	1.044452
1324.000000	0.807801
1323.000000	0.637928
1322.000000	0.524855
1321.000000	0.452132
1320.000000	0.407308
1319.000000	0.384744
1318.000000	0.377143
1317.000000	0.373411
1316.000000	0.367536
1315.000000	0.361745
1314.000000	0.356960
1313.000000	0.349463
1312.000000	0.339180
1311.000000	0.331700
1310.000000	0.329784
1309.000000	0.331125
1308.000000	0.336604
1307.000000	0.351909
1306.000000	0.379029
1305.000000	0.414954
1304.000000	0.460237
1303.000000	0.520071
1302.000000	0.595236
1301.000000	0.680491
1300.000000	0.774118
1299.000000	0.879491
1298.000000	0.996387
1297.000000	1.120234
1296.000000	1.250424
1295.000000	1.390957
1294.000000	1.541564
1293.000000	1.696988
1292.000000	1.855379
1291.000000	2.018567
1290.000000	2.183475
1289.000000	2.341195
1288.000000	2.484240
1287.000000	2.606948
1286.000000	2.700540
1285.000000	2.757323
1284.000000	2.782373
1283.000000	2.795430
1282.000000	2.820760
1281.000000	2.879498
1280.000000	2.988804
1279.000000	3.157140
1278.000000	3.377625
1277.000000	3.633686
1276.000000	3.911229
1275.000000	4.201752
1274.000000	4.497460
1273.000000	4.791378
1272.000000	5.082277
1271.000000	5.371927
1270.000000	5.658703
1269.000000	5.939603
1268.000000	6.216223
1267.000000	6.492509
1266.000000	6.768286
1265.000000	7.040430
1264.000000	7.308679
1263.000000	7.575378
1262.000000	7.840727
1261.000000	8.103531
1260.000000	8.364866
1259.000000	8.626279
1258.000000	8.886580
1257.000000	9.144295
1256.000000	9.401110
1255.000000	9.659226
1254.000000	9.917824
1253.000000	10.175268
1252.000000	10.432166
1251.000000	10.689207
1250.000000	10.944590
1249.000000	11.196423
1248.000000	11.445329
1247.000000	11.692320
1246.000000	11.936730
1245.000000	12.178298
1244.000000	12.418604
1243.000000	12.658553
1242.000000	12.896743
1241.000000	13.131958
1240.000000	13.364841
1239.000000	13.595631
1238.000000	13.823087
1237.000000	14.046663
1236.000000	14.267363
1235.000000	14.485690
1234.000000	14.700999
1233.000000	14.913775
1232.000000	15.125959
1231.000000	15.338596
1230.000000	15.551583
1229.000000	15.765716
1228.000000	15.982643
1227.000000	16.202851
1226.000000	16.426024
1225.000000	16.652855
1224.000000	16.884125
1223.000000	17.118589
1222.000000	17.354339
1221.000000	17.591421
1220.000000	17.830657
1219.000000	18.071170
1218.000000	18.311567
1217.000000	18.552116
1216.000000	18.793306
1215.000000	19.034075
1214.000000	19.273954
1213.000000	19.514812
1212.000000	19.757776
1211.000000	20.000696
1210.000000	20.241411
1209.000000	20.480688
1208.000000	20.719315
1207.000000	20.955559
1206.000000	21.188382
1205.000000	21.420127
1204.000000	21.652720
1203.000000	21.884466
1202.000000	22.113530
1201.000000	22.340585
1200.000000	22.565403
1199.000000	22.784065
1198.000000	22.992287
1197.000000	23.188023
1196.000000	23.366733
1195.000000	23.519621
1194.000000	23.637950
1193.000000	23.714514
1192.000000	23.740728
1191.000000	23.706831
1190.000000	23.612484
1189.000000	23.473955
1188.000000	23.320063
1187.000000	23.185734
1186.000000	23.107227
1185.000000	23.113298
1184.000000	23.213951
1183.000000	23.399184
1182.000000	23.647794
1181.000000	23.938723
1180.000000	24.253034
1179.000000	24.573761
1178.000000	24.891621
1177.000000	25.204835
1176.000000	25.512282
1175.000000	25.810290
1174.000000	26.097796
1173.000000	26.378188
1172.000000	26.652978
1171.000000	26.919219
1170.000000	27.175928
1169.000000	27.426868
1168.000000	27.673653
1167.000000	27.913611
1166.000000	28.146836
1165.000000	28.378557
1164.000000	28.611819
1163.000000	28.844576
1162.000000	29.077037
1161.000000	29.313757
1160.000000	29.555327
1159.000000	29.795843
1158.000000	30.031307
1157.000000	30.263075
1156.000000	30.490283
1155.000000	30.707654
1154.000000	30.914437
1153.000000	31.116439
1152.000000	31.316711
1151.000000	31.512771
1150.000000	31.705486
1149.000000	31.901369
1148.000000	32.102414
1147.000000	32.303339
1146.000000	32.501522
1145.000000	32.699622
1144.000000	32.896062
1143.000000	33.083174
1142.000000	33.258524
1141.000000	33.428137
1140.000000	33.595478
1139.000000	33.758270
1138.000000	33.918329
1137.000000	34.083403
1136.000000	34.255814
1135.000000	34.429835
1134.000000	34.603461
1133.000000	34.781421
1132.000000	34.963538
1131.000000	35.141743
1130.000000	35.312315
1129.000000	35.480126
1128.000000	35.647611
1127.000000	35.811155
1126.000000	35.971718
1125.000000	36.136691
1124.000000	36.307952
1123.000000	36.479727
1122.000000	36.651234
1121.000000	36.828916
1120.000000	37.012808
1119.000000	37.193735
1118.000000	37.367260
1117.000000	37.537550
1116.000000	37.704583
1115.000000	37.861330
1114.000000	38.007775
1113.000000	38.153973
1112.000000	38.305142
1111.000000	38.457383
1110.000000	38.610733
1109.000000	38.772385
1108.000000	38.942617
1107.000000	39.111317
1106.000000	39.272322
1105.000000	39.426835
1104.000000	39.570498
1103.000000	39.692544
1102.000000	39.791890
1101.000000	39.879581
1100.000000	39.962030
1099.000000	40.037597
1098.000000	40.110540
1097.000000	40.192644
1096.000000	40.286606
1095.000000	40.382351
1094.000000	40.472323
1093.000000	40.555424
1092.000000	40.621981
1091.000000	40.653527
1090.000000	40.640663
1089.000000	40.586385
1088.000000	40.490719
1087.000000	40.344734
1086.000000	40.145357
1085.000000	39.896354
1084.000000	39.589648
1083.000000	39.204750
1082.000000	38.721856
1081.000000	38.128644
1080.000000	37.410364
1079.000000	36.548100
1078.000000	35.538957
1077.000000	34.395223
1076.000000	33.133041
1075.000000	31.771413
1074.000000	30.337938
1073.000000	28.868594
1072.000000	27.393390
1071.000000	25.933398
1070.000000	24.506669
1069.000000	23.129023
1068.000000	21.810004
1067.000000	20.557670
1066.000000	19.387658
1065.000000	18.324752
1064.000000	17.404541
1063.000000	16.663083
1062.000000	16.133048
1061.000000	15.839388
1060.000000	15.789290
1059.000000	15.976776
1058.000000	16.379754
1057.000000	16.969258
1056.000000	17.716611
1055.000000	18.588177
1054.000000	19.553051
1053.000000	20.583576
1052.000000	21.654110
1051.000000	22.739406
1050.000000	23.816812
1049.000000	24.871954
1048.000000	25.894011
1047.000000	26.872903
1046.000000	27.804895
1045.000000	28.694656
1044.000000	29.543562
1043.000000	30.345627
1042.000000	31.097857
1041.000000	31.804693
1040.000000	32.470683
1039.000000	33.095455
1038.000000	33.683451
1037.000000	34.247385
1036.000000	34.795243
1035.000000	35.326381
1034.000000	35.841462
1033.000000	36.346842
1032.000000	36.844334
1031.000000	37.326795
1030.000000	37.790280
1029.000000	38.237271
1028.000000	38.665632
1027.000000	39.067338
1026.000000	39.441593
1025.000000	39.798254
1024.000000	40.143203
1023.000000	40.473726
1022.000000	40.791896
1021.000000	41.106757
1020.000000	41.420731
1019.000000	41.726594
1018.000000	42.021901
1017.000000	42.312867
1016.000000	42.599522
1015.000000	42.872873
1014.000000	43.129749
1013.000000	43.376430
1012.000000	43.614673
1011.000000	43.838759
1010.000000	44.050126
1009.000000	44.259758
1008.000000	44.472578
1007.000000	44.684297
1006.000000	44.895589
1005.000000	45.114194
1004.000000	45.339546
1003.000000	45.559892
1002.000000	45.768586
1001.000000	45.968521
1000.000000	46.158854
999.000000	46.332719
998.000000	46.491623
997.000000	46.647300
996.000000	46.805975
995.000000	46.965011
994.000000	47.126836
993.000000	47.300097
992.000000	47.484122
991.000000	47.667223
990.000000	47.843147
989.000000	48.014666
988.000000	48.178620
987.000000	48.324962
986.000000	48.453488
985.000000	48.576091
984.000000	48.699201
983.000000	48.819521
982.000000	48.939415
981.000000	49.069201
980.000000	49.210606
979.000000	49.353829
978.000000	49.493793
977.000000	49.633322
976.000000	49.768095
975.000000	49.885686
974.000000	49.984122
973.000000	50.074248
972.000000	50.161541
971.000000	50.241729
970.000000	50.317152
969.000000	50.399819
968.000000	50.493929
967.000000	50.591959
966.000000	50.690878
965.000000	50.795628
964.000000	50.903311
963.000000	51.001361
962.000000	51.085186
961.000000	51.161565
960.000000	51.231191
959.000000	51.286229
958.000000	51.327815
957.000000	51.368992
956.000000	51.416449
955.000000	51.466063
954.000000	51.519375
953.000000	51.585803
952.000000	51.664691
951.000000	51.742145
950.000000	51.809684
949.000000	51.869175
948.000000	51.917074
947.000000	51.942515
946.000000	51.946056
945.000000	51.942148
944.000000	51.940001
943.000000	51.938319
942.000000	51.941036
941.000000	51.959387
940.000000	51.993394
939.000000	52.028842
938.000000	52.055784
937.000000	52.073842
936.000000	52.077278
935.000000	52.054073
934.000000	52.004569
933.000000	51.943907
932.000000	51.882019
931.000000	51.818613
930.000000	51.758447
929.000000	51.712219
928.000000	51.677876
927.000000	51.638143
926.000000	51.581267
925.000000	51.506694
924.000000	51.409933
923.000000	51.281041
922.000000	51.121833
921.000000	50.947353
920.000000	50.765580
919.000000	50.572510
918.000000	50.368798
917.000000	50.161300
916.000000	49.946598
915.000000	49.709900
914.000000	49.444330
913.000000	49.155169
912.000000	48.841533
911.000000	48.494438
910.000000	48.114236
909.000000	47.712349
908.000000	47.292289
907.000000	46.844103
906.000000	46.362357
905.000000	45.850904
904.000000	45.307665
903.000000	44.723577
902.000000	44.098060
901.000000	43.441855
900.000000	42.760070
899.000000	42.046436
898.000000	41.298465
897.000000	40.519181
896.000000	39.704546
895.000000	38.842347
894.000000	37.926460
893.000000	36.961834
892.000000	35.951643
891.000000	34.895520
890.000000	33.800808
889.000000	32.681347
888.000000	31.543993
887.000000	30.384641
886.000000	29.199864
885.000000	27.991960
884.000000	26.761088
883.000000	25.504147
882.000000	24.223758
881.000000	22.931333
880.000000	21.639029
879.000000	20.356081
878.000000	19.092720
877.000000	17.861963
876.000000	16.674916
875.000000	15.537154
874.000000	14.453817
873.000000	13.430489
872.000000	12.470797
871.000000	11.575421
870.000000	10.743615
869.000000	9.978293
868.000000	9.282016
867.000000	8.653060
866.000000	8.087376
865.000000	7.581003
864.000000	7.131903
863.000000	6.735063
862.000000	6.382573
861.000000	6.069397
860.000000	5.793220
859.000000	5.551551
858.000000	5.339584
857.000000	5.153619
856.000000	4.993286
855.000000	4.857127
854.000000	4.742089
853.000000	4.646504
852.000000	4.570805
851.000000	4.514669
850.000000	4.475765
849.000000	4.454202
848.000000	4.453291
847.000000	4.474868
846.000000	4.518228
845.000000	4.583173
844.000000	4.672204
843.000000	4.787842
842.000000	4.931049
841.000000	5.104652
840.000000	5.312885
839.000000	5.558524
838.000000	5.842142
837.000000	6.164479
836.000000	6.527719
835.000000	6.931919
834.000000	7.373050
833.000000	7.839227
832.000000	8.298297
831.000000	8.666497
830.000000	8.788070
829.000000	8.465407
828.000000	7.576781
827.000000	6.227614
826.000000	4.783429
825.000000	3.701117
824.000000	3.268942
823.000000	3.477829
822.000000	4.115691
821.000000	4.955092
820.000000	5.849679
819.000000	6.725316
818.000000	7.553610
817.000000	8.334261
816.000000	9.079022
815.000000	9.791844
814.000000	10.472993
813.000000	11.130696
812.000000	11.774094
811.000000	12.400075
810.000000	13.000941
809.000000	13.578490
808.000000	14.137518
807.000000	14.675566
806.000000	15.191169
805.000000	15.694488
804.000000	16.196075
803.000000	16.693026
802.000000	17.179650
801.000000	17.661636
800.000000	18.147948
799.000000	18.638574
798.000000	19.132327
797.000000	19.635791
796.000000	20.151671
795.000000	20.669084
794.000000	21.177340
793.000000	21.678097
792.000000	22.173303
791.000000	22.654889
790.000000	23.118678
789.000000	23.575307
788.000000	24.035577
787.000000	24.498064
786.000000	24.961715
785.000000	25.435767
784.000000	25.924759
783.000000	26.417059
782.000000	26.899737
781.000000	27.371520
780.000000	27.830608
779.000000	28.265896
778.000000	28.673086
777.000000	29.065322
776.000000	29.455850
775.000000	29.844411
774.000000	30.231220
773.000000	30.627372
772.000000	31.038650
771.000000	31.453624
770.000000	31.859292
769.000000	32.254041
768.000000	32.634482
767.000000	32.987158
766.000000	33.306483
765.000000	33.605039
764.000000	33.895128
763.000000	34.176055
762.000000	34.450299
761.000000	34.733298
760.000000	35.034150
759.000000	35.343257
758.000000	35.650287
757.000000	35.956906
756.000000	36.260886
755.000000	36.547196
754.000000	36.808704
753.000000	37.057675
752.000000	37.304879
751.000000	37.546442
750.000000	37.782536
749.000000	38.028497
748.000000	38.293533
747.000000	38.567685
746.000000	38.841955
745.000000	39.121392
744.000000	39.405513
743.000000	39.677076
742.000000	39.924023
741.000000	40.152665
740.000000	40.366544
739.000000	40.554781
738.000000	40.715161
737.000000	40.865719
736.000000	41.019078
735.000000	41.166445
734.000000	41.301045
733.000000	41.433634
732.000000	41.570040
731.000000	41.695947
730.000000	41.799393
729.000000	41.886280
728.000000	41.960794
727.000000	42.014361
726.000000	42.048982
725.000000	42.090013
724.000000	42.160138
723.000000	42.261692
722.000000	42.397714
721.000000	42.585957
720.000000	42.834740
719.000000	43.127877
718.000000	43.449205
717.000000	43.797947
716.000000	44.164841
715.000000	44.521248
714.000000	44.850275
713.000000	45.163834
712.000000	45.473792
711.000000	45.773869
710.000000	46.067009
709.000000	46.379398
708.000000	46.728194
707.000000	47.101194
706.000000	47.482815
705.000000	47.872052
704.000000	48.257395
703.000000	48.603476
702.000000	48.887081
701.000000	49.121211
700.000000	49.325881
699.000000	49.507664
698.000000	49.682568
697.000000	49.886557
696.000000	50.139667
695.000000	50.425427
694.000000	50.725741
693.000000	51.041792
692.000000	51.360382
691.000000	51.642184
690.000000	51.867045
689.000000	52.058383
688.000000	52.239113
687.000000	52.400500
686.000000	52.545435
685.000000	52.715206
684.000000	52.939369
683.000000	53.200860
682.000000	53.479740
681.000000	53.784937
680.000000	54.110619
679.000000	54.410621
678.000000	54.654095
677.000000	54.855217
676.000000	55.030103
675.000000	55.175879
674.000000	55.309679
673.000000	55.483985
672.000000	55.735556
671.000000	56.057111
670.000000	56.443196
669.000000	56.887015
668.000000	57.253525
667.000000	57.424566
666.000000	57.514693
665.000000	57.616065
664.000000	57.737594
663.000000	57.875134
662.000000	58.024372
661.000000	58.187987
660.000000	58.370288
659.000000	58.572427
658.000000	58.798230
657.000000	59.047855
656.000000	59.310056
655.000000	59.572547
654.000000	59.828661
653.000000	60.073026
652.000000	60.298322
651.000000	60.496748
650.000000	60.666539
649.000000	60.812528
648.000000	60.941714
647.000000	61.065100
646.000000	61.202412
645.000000	61.376011
644.000000	61.590798
643.000000	61.830356
642.000000	62.080561
641.000000	62.338792
640.000000	62.593112
639.000000	62.814627
638.000000	62.983160
637.000000	63.107851
636.000000	63.213534
635.000000	63.320511
634.000000	63.449054
633.000000	63.622084
632.000000	63.847470
631.000000	64.111454
630.000000	64.396926
629.000000	64.691367
628.000000	64.973118
627.000000	65.212889
626.000000	65.399349
625.000000	65.545692
624.000000	65.661484
623.000000	65.746896
622.000000	65.825328
621.000000	65.946233
620.000000	66.136963
619.000000	66.379878
618.000000	66.646963
617.000000	66.926723
616.000000	67.200522
615.000000	67.426932
614.000000	67.572969
613.000000	67.638258
612.000000	67.631288
611.000000	67.552132
610.000000	67.407839
609.000000	67.207354
608.000000	66.924712
607.000000	66.477118
606.000000	65.749873
605.000000	64.595583
604.000000	62.789855
603.000000	60.043809
602.000000	56.070215
601.000000	50.715974
600.000000	44.141800
599.000000	36.984638
598.000000	30.269199
597.000000	25.013295
596.000000	21.848539
595.000000	20.887747
594.000000	21.808583
593.000000	24.049185
592.000000	27.057392
591.000000	30.389737
590.000000	33.716386
589.000000	36.858834
588.000000	39.762881
587.000000	42.429753
586.000000	44.866481
585.000000	47.083268
584.000000	49.083945
583.000000	50.869267
582.000000	52.464592
581.000000	53.922501
580.000000	55.269868
579.000000	56.475198
578.000000	57.520430
577.000000	58.451802
576.000000	59.320796
575.000000	60.119200
574.000000	60.812252
573.000000	61.404931
572.000000	61.922936
571.000000	62.374056
570.000000	62.773724
569.000000	63.165688
568.000000	63.578962
567.000000	63.998512
566.000000	64.408183
565.000000	64.824745
564.000000	65.252099
563.000000	65.650132
562.000000	65.984397
561.000000	66.263955
560.000000	66.500973
559.000000	66.681262
558.000000	66.811980
557.000000	66.946996
556.000000	67.129506
555.000000	67.352954
554.000000	67.605509
553.000000	67.899112
552.000000	68.223969
551.000000	68.525509
550.000000	68.764865
549.000000	68.954585
548.000000	69.105661
547.000000	69.200320
546.000000	69.250382
545.000000	69.320669
544.000000	69.455629
543.000000	69.642285
542.000000	69.868235
541.000000	70.151870
540.000000	70.478703
539.000000	70.774244
538.000000	70.981460
537.000000	71.114370
536.000000	71.199952
535.000000	71.232974
534.000000	71.227906
533.000000	71.248143
532.000000	71.339554
531.000000	71.481431
530.000000	71.636728
529.000000	71.797327
528.000000	71.952737
527.000000	72.072344
526.000000	72.152840
525.000000	72.213017
524.000000	72.209357
523.000000	72.033256
522.000000	71.629812
521.000000	71.039966
520.000000	70.305802
519.000000	69.417683
518.000000	68.398068
517.000000	67.369762
516.000000	66.473358
515.000000	65.781834
514.000000	65.325628
513.000000	65.123044
512.000000	65.126331
511.000000	65.191667
510.000000	65.151232
509.000000	64.882748
508.000000	64.276138
507.000000	63.216069
506.000000	61.655427
505.000000	59.642018
504.000000	57.266805
503.000000	54.706449
502.000000	52.335796
501.000000	50.617130
500.000000	49.803535
499.000000	49.847193
498.000000	50.569890
497.000000	51.752147
496.000000	53.111375
495.000000	54.356722
494.000000	55.321449
493.000000	56.032942
492.000000	56.624059
491.000000	57.227793
490.000000	57.948970
489.000000	58.849442
488.000000	59.903226
487.000000	61.010365
486.000000	62.089310
485.000000	63.124086
484.000000	64.105655
483.000000	65.000719
482.000000	65.819365
481.000000	66.630576
480.000000	67.458518
479.000000	68.241440
478.000000	68.927309
477.000000	69.524954
476.000000	70.008056
475.000000	70.269724
474.000000	70.263978
473.000000	70.103570
472.000000	69.938637
471.000000	69.812940
470.000000	69.736872
469.000000	69.800982
468.000000	70.092668
467.000000	70.558728
466.000000	71.033306
465.000000	71.382498
464.000000	71.545097
463.000000	71.498959
462.000000	71.285818
461.000000	71.001725
460.000000	70.703829
459.000000	70.415045
458.000000	70.243112
457.000000	70.337389
456.000000	70.640499
455.000000	70.895006
454.000000	70.959707
453.000000	70.924530
452.000000	70.873115
451.000000	70.690020
450.000000	70.222472
449.000000	69.485313
448.000000	68.581047
447.000000	67.529093
446.000000	66.284738
445.000000	64.808274
444.000000	63.009810
443.000000	60.723944
442.000000	57.859887
441.000000	54.531695
440.000000	50.950246
439.000000	47.316404
438.000000	43.877905
437.000000	41.019005
436.000000	39.153463
435.000000	38.487749
434.000000	38.928346
433.000000	40.256573
432.000000	42.311440
431.000000	44.880955
430.000000	47.661496
429.000000	50.434363
428.000000	53.092646
427.000000	55.500745
426.000000	57.554773
425.000000	59.367272
424.000000	61.092252
423.000000	62.613150
422.000000	63.683709
421.000000	64.354330
420.000000	64.980058
419.000000	65.903359
418.000000	67.178325
417.000000	68.585377
416.000000	69.831034
415.000000	70.682420
414.000000	71.145260
413.000000	71.489300
412.000000	71.896762
411.000000	72.225803
410.000000	72.334882
409.000000	72.396810
408.000000	72.601762
407.000000	72.841839
406.000000	72.977152
405.000000	73.166915
404.000000	73.529796
403.000000	73.801757
402.000000	73.706754
401.000000	73.387143
400.000000	73.063278
