PE IR       SUBTECH     SPECTRUM    ASCII       PEDS        4.00        
   -1
23MS063_nitro.asc
24/09/12
15:46:31.00
24/09/12
15:46:31.00
Administrator
Sample 1170 By Administrator Date Thursday, September 12 2024
400.000000
#HDR
-1
-1
#GR
cm-1
%T
1.0
0.0
4000.000000
-1.000000
3601
8
78.728312
1.846020
#DATA
4000.000000	39.331332
3999.000000	39.376167
3998.000000	39.420367
3997.000000	39.463751
3996.000000	39.506664
3995.000000	39.550244
3994.000000	39.595191
3993.000000	39.640618
3992.000000	39.684875
3991.000000	39.727468
3990.000000	39.769445
3989.000000	39.811767
3988.000000	39.854116
3987.000000	39.895670
3986.000000	39.936306
3985.000000	39.976562
3984.000000	40.016849
3983.000000	40.057264
3982.000000	40.097959
3981.000000	40.139223
3980.000000	40.181010
3979.000000	40.222640
3978.000000	40.263173
3977.000000	40.302062
3976.000000	40.339339
3975.000000	40.375175
3974.000000	40.409974
3973.000000	40.444484
3972.000000	40.479581
3971.000000	40.515792
3970.000000	40.553248
3969.000000	40.591857
3968.000000	40.631114
3967.000000	40.670300
3966.000000	40.708605
3965.000000	40.745322
3964.000000	40.780244
3963.000000	40.813829
3962.000000	40.847490
3961.000000	40.882419
3960.000000	40.918357
3959.000000	40.954196
3958.000000	40.989878
3957.000000	41.026874
3956.000000	41.066214
3955.000000	41.107720
3954.000000	41.150189
3953.000000	41.191906
3952.000000	41.230999
3951.000000	41.266195
3950.000000	41.297955
3949.000000	41.328458
3948.000000	41.361027
3947.000000	41.398416
3946.000000	41.439769
3945.000000	41.480023
3944.000000	41.515528
3943.000000	41.549045
3942.000000	41.586385
3941.000000	41.628394
3940.000000	41.670969
3939.000000	41.711666
3938.000000	41.752795
3937.000000	41.797645
3936.000000	41.844395
3935.000000	41.887192
3934.000000	41.922565
3933.000000	41.953068
3932.000000	41.983881
3931.000000	42.016625
3930.000000	42.050577
3929.000000	42.087455
3928.000000	42.129831
3927.000000	42.174428
3926.000000	42.213663
3925.000000	42.246709
3924.000000	42.279855
3923.000000	42.315251
3922.000000	42.348752
3921.000000	42.378892
3920.000000	42.410587
3919.000000	42.446862
3918.000000	42.484223
3917.000000	42.519908
3916.000000	42.557524
3915.000000	42.599506
3914.000000	42.643554
3913.000000	42.687050
3912.000000	42.731277
3911.000000	42.777460
3910.000000	42.822898
3909.000000	42.865483
3908.000000	42.905756
3907.000000	42.942927
3906.000000	42.970004
3905.000000	42.982844
3904.000000	42.990764
3903.000000	43.006453
3902.000000	43.030780
3901.000000	43.055982
3900.000000	43.081766
3899.000000	43.116091
3898.000000	43.161221
3897.000000	43.209413
3896.000000	43.256793
3895.000000	43.307363
3894.000000	43.363001
3893.000000	43.413765
3892.000000	43.448890
3891.000000	43.473605
3890.000000	43.501510
3889.000000	43.539650
3888.000000	43.580042
3887.000000	43.610220
3886.000000	43.636353
3885.000000	43.673404
3884.000000	43.717022
3883.000000	43.749781
3882.000000	43.764232
3881.000000	43.774012
3880.000000	43.800818
3879.000000	43.847792
3878.000000	43.901959
3877.000000	43.951309
3876.000000	43.988129
3875.000000	44.015738
3874.000000	44.050383
3873.000000	44.099299
3872.000000	44.142289
3871.000000	44.156024
3870.000000	44.157887
3869.000000	44.182422
3868.000000	44.229292
3867.000000	44.270780
3866.000000	44.294202
3865.000000	44.318682
3864.000000	44.364256
3863.000000	44.419346
3862.000000	44.465032
3861.000000	44.501190
3860.000000	44.536398
3859.000000	44.578138
3858.000000	44.634921
3857.000000	44.713661
3856.000000	44.794904
3855.000000	44.830629
3854.000000	44.824618
3853.000000	44.831882
3852.000000	44.855347
3851.000000	44.867585
3850.000000	44.872493
3849.000000	44.893427
3848.000000	44.943794
3847.000000	45.014131
3846.000000	45.085587
3845.000000	45.144355
3844.000000	45.186129
3843.000000	45.216767
3842.000000	45.247307
3841.000000	45.279742
3840.000000	45.306881
3839.000000	45.329826
3838.000000	45.357252
3837.000000	45.390497
3836.000000	45.423066
3835.000000	45.453962
3834.000000	45.488051
3833.000000	45.527359
3832.000000	45.572650
3831.000000	45.624557
3830.000000	45.681132
3829.000000	45.735696
3828.000000	45.778609
3827.000000	45.808064
3826.000000	45.837885
3825.000000	45.883330
3824.000000	45.940041
3823.000000	45.981621
3822.000000	45.994721
3821.000000	46.006894
3820.000000	46.041206
3819.000000	46.088654
3818.000000	46.127300
3817.000000	46.149829
3816.000000	46.182588
3815.000000	46.244366
3814.000000	46.311616
3813.000000	46.355188
3812.000000	46.379608
3811.000000	46.414114
3810.000000	46.475590
3809.000000	46.543283
3808.000000	46.584988
3807.000000	46.602994
3806.000000	46.624243
3805.000000	46.661207
3804.000000	46.702013
3803.000000	46.724881
3802.000000	46.737126
3801.000000	46.770689
3800.000000	46.821726
3799.000000	46.862391
3798.000000	46.885516
3797.000000	46.909436
3796.000000	46.955611
3795.000000	47.021754
3794.000000	47.087182
3793.000000	47.139113
3792.000000	47.183799
3791.000000	47.231715
3790.000000	47.283205
3789.000000	47.332260
3788.000000	47.376539
3787.000000	47.417094
3786.000000	47.453539
3785.000000	47.485759
3784.000000	47.518874
3783.000000	47.557699
3782.000000	47.599272
3781.000000	47.635697
3780.000000	47.667532
3779.000000	47.705606
3778.000000	47.754321
3777.000000	47.804313
3776.000000	47.844923
3775.000000	47.879564
3774.000000	47.921887
3773.000000	47.975041
3772.000000	48.023774
3771.000000	48.057224
3770.000000	48.087242
3769.000000	48.126806
3768.000000	48.169910
3767.000000	48.204612
3766.000000	48.231966
3765.000000	48.265406
3764.000000	48.313802
3763.000000	48.369614
3762.000000	48.418519
3761.000000	48.457532
3760.000000	48.497553
3759.000000	48.542033
3758.000000	48.580123
3757.000000	48.609902
3756.000000	48.642485
3755.000000	48.683595
3754.000000	48.724811
3753.000000	48.757902
3752.000000	48.788692
3751.000000	48.821701
3750.000000	48.846538
3749.000000	48.862524
3748.000000	48.891726
3747.000000	48.944526
3746.000000	48.989052
3745.000000	49.022033
3744.000000	49.088491
3743.000000	49.176890
3742.000000	49.237031
3741.000000	49.262948
3740.000000	49.290928
3739.000000	49.351022
3738.000000	49.425216
3737.000000	49.476032
3736.000000	49.504036
3735.000000	49.540154
3734.000000	49.594602
3733.000000	49.654143
3732.000000	49.714258
3731.000000	49.779284
3730.000000	49.847545
3729.000000	49.910244
3728.000000	49.960171
3727.000000	50.004734
3726.000000	50.058273
3725.000000	50.118224
3724.000000	50.170962
3723.000000	50.214714
3722.000000	50.261040
3721.000000	50.316117
3720.000000	50.374944
3719.000000	50.428881
3718.000000	50.473852
3717.000000	50.516274
3716.000000	50.562809
3715.000000	50.609569
3714.000000	50.647553
3713.000000	50.675676
3712.000000	50.706937
3711.000000	50.752345
3710.000000	50.809881
3709.000000	50.872159
3708.000000	50.932863
3707.000000	50.991258
3706.000000	51.050589
3705.000000	51.111822
3704.000000	51.170674
3703.000000	51.223573
3702.000000	51.274975
3701.000000	51.331974
3700.000000	51.394023
3699.000000	51.453638
3698.000000	51.503942
3697.000000	51.548030
3696.000000	51.594986
3695.000000	51.643367
3694.000000	51.684347
3693.000000	51.717704
3692.000000	51.752723
3691.000000	51.792711
3690.000000	51.835542
3689.000000	51.887172
3688.000000	51.950765
3687.000000	52.015343
3686.000000	52.068871
3685.000000	52.110766
3684.000000	52.151238
3683.000000	52.202813
3682.000000	52.260802
3681.000000	52.306610
3680.000000	52.337782
3679.000000	52.373188
3678.000000	52.416094
3677.000000	52.436568
3676.000000	52.441528
3675.000000	52.479075
3674.000000	52.549868
3673.000000	52.617407
3672.000000	52.658189
3671.000000	52.682983
3670.000000	52.736466
3669.000000	52.831943
3668.000000	52.932015
3667.000000	53.009778
3666.000000	53.071262
3665.000000	53.133167
3664.000000	53.203400
3663.000000	53.277645
3662.000000	53.345443
3661.000000	53.402745
3660.000000	53.453954
3659.000000	53.501675
3658.000000	53.538676
3657.000000	53.562396
3656.000000	53.587502
3655.000000	53.623678
3654.000000	53.663546
3653.000000	53.694554
3652.000000	53.709834
3651.000000	53.717052
3650.000000	53.737772
3649.000000	53.782154
3648.000000	53.842855
3647.000000	53.913906
3646.000000	53.991991
3645.000000	54.070012
3644.000000	54.141912
3643.000000	54.208620
3642.000000	54.274954
3641.000000	54.342298
3640.000000	54.404501
3639.000000	54.457691
3638.000000	54.507138
3637.000000	54.558137
3636.000000	54.605587
3635.000000	54.640499
3634.000000	54.667115
3633.000000	54.698427
3632.000000	54.735361
3631.000000	54.755593
3630.000000	54.749451
3629.000000	54.765781
3628.000000	54.840369
3627.000000	54.935550
3626.000000	55.008794
3625.000000	55.059276
3624.000000	55.108012
3623.000000	55.168151
3622.000000	55.229374
3621.000000	55.271482
3620.000000	55.293195
3619.000000	55.314776
3618.000000	55.348580
3617.000000	55.388512
3616.000000	55.423770
3615.000000	55.449162
3614.000000	55.471803
3613.000000	55.506200
3612.000000	55.557297
3611.000000	55.614633
3610.000000	55.666910
3609.000000	55.717505
3608.000000	55.778765
3607.000000	55.852835
3606.000000	55.928091
3605.000000	55.994343
3604.000000	56.050527
3603.000000	56.100641
3602.000000	56.146814
3601.000000	56.191498
3600.000000	56.237857
3599.000000	56.283979
3598.000000	56.324335
3597.000000	56.358394
3596.000000	56.391414
3595.000000	56.429312
3594.000000	56.475901
3593.000000	56.528400
3592.000000	56.580540
3591.000000	56.626514
3590.000000	56.661047
3589.000000	56.685516
3588.000000	56.717299
3587.000000	56.775665
3586.000000	56.855944
3585.000000	56.937662
3584.000000	57.008119
3583.000000	57.068487
3582.000000	57.124128
3581.000000	57.177433
3580.000000	57.228545
3579.000000	57.277246
3578.000000	57.324152
3577.000000	57.370101
3576.000000	57.416521
3575.000000	57.464682
3574.000000	57.515131
3573.000000	57.566481
3572.000000	57.615955
3571.000000	57.660099
3570.000000	57.692110
3569.000000	57.705975
3568.000000	57.711621
3567.000000	57.735054
3566.000000	57.789570
3565.000000	57.862904
3564.000000	57.937632
3563.000000	58.006925
3562.000000	58.071893
3561.000000	58.133766
3560.000000	58.192677
3559.000000	58.249258
3558.000000	58.303733
3557.000000	58.354815
3556.000000	58.400978
3555.000000	58.441667
3554.000000	58.477488
3553.000000	58.511867
3552.000000	58.550203
3551.000000	58.594309
3550.000000	58.639491
3549.000000	58.680055
3548.000000	58.716847
3547.000000	58.756816
3546.000000	58.804276
3545.000000	58.856195
3544.000000	58.906899
3543.000000	58.953501
3542.000000	58.995813
3541.000000	59.035186
3540.000000	59.074000
3539.000000	59.113986
3538.000000	59.153839
3537.000000	59.191374
3536.000000	59.226650
3535.000000	59.261051
3534.000000	59.294415
3533.000000	59.325428
3532.000000	59.354975
3531.000000	59.385117
3530.000000	59.415507
3529.000000	59.444508
3528.000000	59.474277
3527.000000	59.509395
3526.000000	59.549469
3525.000000	59.588044
3524.000000	59.620430
3523.000000	59.648563
3522.000000	59.676386
3521.000000	59.704941
3520.000000	59.733372
3519.000000	59.762145
3518.000000	59.792663
3517.000000	59.824883
3516.000000	59.856430
3515.000000	59.883910
3514.000000	59.904196
3513.000000	59.914706
3512.000000	59.915327
3511.000000	59.910617
3510.000000	59.908301
3509.000000	59.914252
3508.000000	59.928742
3507.000000	59.947039
3506.000000	59.962852
3505.000000	59.972357
3504.000000	59.976116
3503.000000	59.976477
3502.000000	59.973703
3501.000000	59.966971
3500.000000	59.957682
3499.000000	59.948199
3498.000000	59.938296
3497.000000	59.925756
3496.000000	59.909612
3495.000000	59.890199
3494.000000	59.866746
3493.000000	59.837571
3492.000000	59.802777
3491.000000	59.764772
3490.000000	59.725403
3489.000000	59.684799
3488.000000	59.643073
3487.000000	59.600205
3486.000000	59.553889
3485.000000	59.500780
3484.000000	59.441161
3483.000000	59.379855
3482.000000	59.321071
3481.000000	59.263538
3480.000000	59.201844
3479.000000	59.131442
3478.000000	59.051419
3477.000000	58.964335
3476.000000	58.874774
3475.000000	58.786393
3474.000000	58.699800
3473.000000	58.613901
3472.000000	58.528324
3471.000000	58.442575
3470.000000	58.353125
3469.000000	58.254080
3468.000000	58.141893
3467.000000	58.017970
3466.000000	57.886076
3465.000000	57.749448
3464.000000	57.611112
3463.000000	57.474021
3462.000000	57.338505
3461.000000	57.201024
3460.000000	57.057009
3459.000000	56.904780
3458.000000	56.746038
3457.000000	56.584107
3456.000000	56.422308
3455.000000	56.262046
3454.000000	56.101218
3453.000000	55.935925
3452.000000	55.764545
3451.000000	55.587585
3450.000000	55.403709
3449.000000	55.209931
3448.000000	55.007512
3447.000000	54.803331
3446.000000	54.602390
3445.000000	54.402434
3444.000000	54.198428
3443.000000	53.989102
3442.000000	53.776523
3441.000000	53.562269
3440.000000	53.346262
3439.000000	53.127808
3438.000000	52.905124
3437.000000	52.674686
3436.000000	52.433464
3435.000000	52.181151
3434.000000	51.919563
3433.000000	51.651446
3432.000000	51.379757
3431.000000	51.105424
3430.000000	50.825403
3429.000000	50.535384
3428.000000	50.235197
3427.000000	49.928914
3426.000000	49.620075
3425.000000	49.309407
3424.000000	48.996332
3423.000000	48.679801
3422.000000	48.357213
3421.000000	48.025871
3420.000000	47.685967
3419.000000	47.339837
3418.000000	46.988960
3417.000000	46.633668
3416.000000	46.275204
3415.000000	45.914807
3414.000000	45.550725
3413.000000	45.179455
3412.000000	44.799546
3411.000000	44.411786
3410.000000	44.015993
3409.000000	43.610509
3408.000000	43.195346
3407.000000	42.773077
3406.000000	42.346856
3405.000000	41.919556
3404.000000	41.493484
3403.000000	41.068379
3402.000000	40.639520
3401.000000	40.199977
3400.000000	39.745402
3399.000000	39.276133
3398.000000	38.796434
3397.000000	38.312597
3396.000000	37.829730
3395.000000	37.348430
3394.000000	36.864735
3393.000000	36.374495
3392.000000	35.876629
3391.000000	35.371673
3390.000000	34.860160
3389.000000	34.343616
3388.000000	33.824793
3387.000000	33.304903
3386.000000	32.782503
3385.000000	32.257072
3384.000000	31.731010
3383.000000	31.206431
3382.000000	30.682288
3381.000000	30.156499
3380.000000	29.628943
3379.000000	29.100284
3378.000000	28.570032
3377.000000	28.037833
3376.000000	27.505115
3375.000000	26.973974
3374.000000	26.445897
3373.000000	25.922393
3372.000000	25.404557
3371.000000	24.890755
3370.000000	24.376910
3369.000000	23.860561
3368.000000	23.342821
3367.000000	22.825764
3366.000000	22.310562
3365.000000	21.799027
3364.000000	21.294115
3363.000000	20.797259
3362.000000	20.307331
3361.000000	19.823511
3360.000000	19.346574
3359.000000	18.876439
3358.000000	18.411245
3357.000000	17.950016
3356.000000	17.494192
3355.000000	17.045175
3354.000000	16.603025
3353.000000	16.168425
3352.000000	15.742922
3351.000000	15.326665
3350.000000	14.918077
3349.000000	14.516691
3348.000000	14.123929
3347.000000	13.740010
3346.000000	13.363371
3345.000000	12.993532
3344.000000	12.631778
3343.000000	12.278667
3342.000000	11.933306
3341.000000	11.596106
3340.000000	11.269037
3339.000000	10.952344
3338.000000	10.644125
3337.000000	10.343291
3336.000000	10.050691
3335.000000	9.766683
3334.000000	9.490369
3333.000000	9.222076
3332.000000	8.963107
3331.000000	8.713017
3330.000000	8.469780
3329.000000	8.232825
3328.000000	8.003704
3327.000000	7.783011
3326.000000	7.569871
3325.000000	7.364489
3324.000000	7.167858
3323.000000	6.979326
3322.000000	6.796894
3321.000000	6.620302
3320.000000	6.451042
3319.000000	6.288974
3318.000000	6.132519
3317.000000	5.981662
3316.000000	5.837840
3315.000000	5.701012
3314.000000	5.569472
3313.000000	5.442962
3312.000000	5.322641
3311.000000	5.208078
3310.000000	5.097662
3309.000000	4.991676
3308.000000	4.892483
3307.000000	4.801320
3306.000000	4.717573
3305.000000	4.641122
3304.000000	4.571933
3303.000000	4.508117
3302.000000	4.447203
3301.000000	4.389043
3300.000000	4.334994
3299.000000	4.284542
3298.000000	4.236091
3297.000000	4.190486
3296.000000	4.150200
3295.000000	4.115552
3294.000000	4.084644
3293.000000	4.056876
3292.000000	4.033304
3291.000000	4.013457
3290.000000	3.995425
3289.000000	3.978795
3288.000000	3.964750
3287.000000	3.953358
3286.000000	3.943368
3285.000000	3.934706
3284.000000	3.928148
3283.000000	3.923017
3282.000000	3.917972
3281.000000	3.913553
3280.000000	3.911263
3279.000000	3.910502
3278.000000	3.909331
3277.000000	3.907713
3276.000000	3.907035
3275.000000	3.907052
3274.000000	3.906386
3273.000000	3.905773
3272.000000	3.907726
3271.000000	3.913032
3270.000000	3.920301
3269.000000	3.928540
3268.000000	3.937476
3267.000000	3.945825
3266.000000	3.952157
3265.000000	3.957290
3264.000000	3.963292
3263.000000	3.970402
3262.000000	3.977431
3261.000000	3.984383
3260.000000	3.992081
3259.000000	3.999932
3258.000000	4.006796
3257.000000	4.013455
3256.000000	4.021464
3255.000000	4.030244
3254.000000	4.037984
3253.000000	4.044782
3252.000000	4.052104
3251.000000	4.059896
3250.000000	4.067074
3249.000000	4.074222
3248.000000	4.082903
3247.000000	4.092741
3246.000000	4.101890
3245.000000	4.109999
3244.000000	4.118194
3243.000000	4.126637
3242.000000	4.134685
3241.000000	4.142786
3240.000000	4.151699
3239.000000	4.160451
3238.000000	4.167537
3237.000000	4.173481
3236.000000	4.179926
3235.000000	4.186994
3234.000000	4.193880
3233.000000	4.201071
3232.000000	4.209383
3231.000000	4.217745
3230.000000	4.224542
3229.000000	4.230265
3228.000000	4.236345
3227.000000	4.242375
3226.000000	4.247074
3225.000000	4.251038
3224.000000	4.255764
3223.000000	4.260837
3222.000000	4.264728
3221.000000	4.267550
3220.000000	4.270494
3219.000000	4.273355
3218.000000	4.275187
3217.000000	4.276439
3216.000000	4.277927
3215.000000	4.278716
3214.000000	4.277607
3213.000000	4.275728
3212.000000	4.274955
3211.000000	4.274681
3210.000000	4.272864
3209.000000	4.269353
3208.000000	4.265578
3207.000000	4.261786
3206.000000	4.257232
3205.000000	4.252334
3204.000000	4.247998
3203.000000	4.243543
3202.000000	4.237735
3201.000000	4.231048
3200.000000	4.224560
3199.000000	4.217465
3198.000000	4.208235
3197.000000	4.197413
3196.000000	4.186877
3195.000000	4.177128
3194.000000	4.167511
3193.000000	4.158143
3192.000000	4.149287
3191.000000	4.139806
3190.000000	4.128596
3189.000000	4.116632
3188.000000	4.105413
3187.000000	4.094433
3186.000000	4.082410
3185.000000	4.069824
3184.000000	4.057975
3183.000000	4.046698
3182.000000	4.035275
3181.000000	4.024348
3180.000000	4.014572
3179.000000	4.004638
3178.000000	3.993016
3177.000000	3.980573
3176.000000	3.969117
3175.000000	3.958586
3174.000000	3.948043
3173.000000	3.938096
3172.000000	3.929822
3171.000000	3.922460
3170.000000	3.914588
3169.000000	3.906547
3168.000000	3.899444
3167.000000	3.892896
3166.000000	3.886035
3165.000000	3.879507
3164.000000	3.874211
3163.000000	3.869353
3162.000000	3.863966
3161.000000	3.859087
3160.000000	3.856111
3159.000000	3.854262
3158.000000	3.851968
3157.000000	3.849420
3156.000000	3.847594
3155.000000	3.846131
3154.000000	3.844589
3153.000000	3.844436
3152.000000	3.847263
3151.000000	3.852181
3150.000000	3.857244
3149.000000	3.862257
3148.000000	3.868053
3147.000000	3.874316
3146.000000	3.880447
3145.000000	3.887268
3144.000000	3.895541
3143.000000	3.904159
3142.000000	3.911982
3141.000000	3.920227
3140.000000	3.930763
3139.000000	3.943297
3138.000000	3.956535
3137.000000	3.970669
3136.000000	3.986391
3135.000000	4.002753
3134.000000	4.018316
3133.000000	4.033500
3132.000000	4.049665
3131.000000	4.067024
3130.000000	4.085331
3129.000000	4.105217
3128.000000	4.126941
3127.000000	4.149157
3126.000000	4.170804
3125.000000	4.192779
3124.000000	4.215878
3123.000000	4.238889
3122.000000	4.260824
3121.000000	4.283388
3120.000000	4.308947
3119.000000	4.337387
3118.000000	4.367218
3117.000000	4.398231
3116.000000	4.430870
3115.000000	4.464444
3114.000000	4.498105
3113.000000	4.532370
3112.000000	4.567728
3111.000000	4.603170
3110.000000	4.638066
3109.000000	4.673919
3108.000000	4.712324
3107.000000	4.752645
3106.000000	4.793566
3105.000000	4.835353
3104.000000	4.878497
3103.000000	4.921870
3102.000000	4.964467
3101.000000	5.007535
3100.000000	5.052848
3099.000000	5.100047
3098.000000	5.147753
3097.000000	5.195871
3096.000000	5.244782
3095.000000	5.293803
3094.000000	5.342473
3093.000000	5.392063
3092.000000	5.443928
3091.000000	5.497577
3090.000000	5.552097
3089.000000	5.607853
3088.000000	5.665046
3087.000000	5.722313
3086.000000	5.778697
3085.000000	5.835480
3084.000000	5.893999
3083.000000	5.953250
3082.000000	6.011762
3081.000000	6.070287
3080.000000	6.130583
3079.000000	6.192882
3078.000000	6.256588
3077.000000	6.322041
3076.000000	6.389435
3075.000000	6.457334
3074.000000	6.524249
3073.000000	6.590565
3072.000000	6.657216
3071.000000	6.723787
3070.000000	6.789806
3069.000000	6.856508
3068.000000	6.925311
3067.000000	6.995693
3066.000000	7.066313
3065.000000	7.137068
3064.000000	7.208377
3063.000000	7.279732
3062.000000	7.350721
3061.000000	7.422184
3060.000000	7.494715
3059.000000	7.567293
3058.000000	7.638959
3057.000000	7.710533
3056.000000	7.783082
3055.000000	7.856160
3054.000000	7.929251
3053.000000	8.003426
3052.000000	8.079740
3051.000000	8.157155
3050.000000	8.233815
3049.000000	8.309295
3048.000000	8.384072
3047.000000	8.458111
3046.000000	8.531544
3045.000000	8.605542
3044.000000	8.680988
3043.000000	8.757431
3042.000000	8.834562
3041.000000	8.913229
3040.000000	8.993593
3039.000000	9.073865
3038.000000	9.152445
3037.000000	9.229958
3036.000000	9.307757
3035.000000	9.385834
3034.000000	9.463640
3033.000000	9.541414
3032.000000	9.619249
3031.000000	9.696403
3030.000000	9.773020
3029.000000	9.850928
3028.000000	9.931221
3027.000000	10.012641
3026.000000	10.093756
3025.000000	10.174990
3024.000000	10.256889
3023.000000	10.338127
3022.000000	10.417244
3021.000000	10.494971
3020.000000	10.572972
3019.000000	10.651519
3018.000000	10.730105
3017.000000	10.809118
3016.000000	10.889168
3015.000000	10.969849
3014.000000	11.050783
3013.000000	11.132758
3012.000000	11.216277
3011.000000	11.300155
3010.000000	11.382971
3009.000000	11.464829
3008.000000	11.546359
3007.000000	11.627319
3006.000000	11.707571
3005.000000	11.788138
3004.000000	11.869854
3003.000000	11.952036
3002.000000	12.033822
3001.000000	12.115631
3000.000000	12.198066
2999.000000	12.280579
2998.000000	12.362456
2997.000000	12.443828
2996.000000	12.524577
2995.000000	12.603781
2994.000000	12.681633
2993.000000	12.760464
2992.000000	12.842291
2991.000000	12.926581
2990.000000	13.011699
2989.000000	13.097098
2988.000000	13.182613
2987.000000	13.267128
2986.000000	13.349732
2985.000000	13.431068
2984.000000	13.512060
2983.000000	13.592487
2982.000000	13.672279
2981.000000	13.752873
2980.000000	13.835571
2979.000000	13.919582
2978.000000	14.003358
2977.000000	14.086941
2976.000000	14.171478
2975.000000	14.257286
2974.000000	14.343821
2973.000000	14.430677
2972.000000	14.517286
2971.000000	14.602544
2970.000000	14.686068
2969.000000	14.768965
2968.000000	14.852164
2967.000000	14.935057
2966.000000	15.016986
2965.000000	15.098868
2964.000000	15.181917
2963.000000	15.265845
2962.000000	15.349731
2961.000000	15.433526
2960.000000	15.517243
2959.000000	15.599823
2958.000000	15.680236
2957.000000	15.758774
2956.000000	15.836030
2955.000000	15.911907
2954.000000	15.986927
2953.000000	16.063091
2952.000000	16.141824
2951.000000	16.222153
2950.000000	16.302461
2949.000000	16.382820
2948.000000	16.464104
2947.000000	16.545953
2946.000000	16.627332
2945.000000	16.708226
2944.000000	16.789189
2943.000000	16.869992
2942.000000	16.950131
2941.000000	17.030047
2940.000000	17.110475
2939.000000	17.191329
2938.000000	17.272381
2937.000000	17.354161
2936.000000	17.436840
2935.000000	17.518959
2934.000000	17.598705
2933.000000	17.675909
2932.000000	17.751738
2931.000000	17.827189
2930.000000	17.903008
2929.000000	17.980205
2928.000000	18.059350
2927.000000	18.140004
2926.000000	18.221810
2925.000000	18.305187
2924.000000	18.389866
2923.000000	18.473801
2922.000000	18.554750
2921.000000	18.632052
2920.000000	18.705831
2919.000000	18.775646
2918.000000	18.841176
2917.000000	18.903240
2916.000000	18.962974
2915.000000	19.020809
2914.000000	19.077285
2913.000000	19.133855
2912.000000	19.191797
2911.000000	19.251102
2910.000000	19.311395
2909.000000	19.373067
2908.000000	19.436432
2907.000000	19.500660
2906.000000	19.564579
2905.000000	19.627926
2904.000000	19.690859
2903.000000	19.753290
2902.000000	19.815450
2901.000000	19.878307
2900.000000	19.942747
2899.000000	20.008567
2898.000000	20.075146
2897.000000	20.142069
2896.000000	20.208495
2895.000000	20.272951
2894.000000	20.334696
2893.000000	20.394510
2892.000000	20.453366
2891.000000	20.511315
2890.000000	20.568503
2889.000000	20.626243
2888.000000	20.685985
2887.000000	20.748041
2886.000000	20.812192
2885.000000	20.878613
2884.000000	20.947138
2883.000000	21.016415
2882.000000	21.084919
2881.000000	21.152210
2880.000000	21.218430
2879.000000	21.283543
2878.000000	21.348267
2877.000000	21.414832
2876.000000	21.485176
2875.000000	21.558481
2874.000000	21.631621
2873.000000	21.701998
2872.000000	21.769286
2871.000000	21.834818
2870.000000	21.900170
2869.000000	21.966096
2868.000000	22.031976
2867.000000	22.096360
2866.000000	22.158566
2865.000000	22.219572
2864.000000	22.281148
2863.000000	22.344539
2862.000000	22.410244
2861.000000	22.478189
2860.000000	22.547495
2859.000000	22.616854
2858.000000	22.685821
2857.000000	22.755177
2856.000000	22.825569
2855.000000	22.896591
2854.000000	22.967701
2853.000000	23.039092
2852.000000	23.110772
2851.000000	23.181365
2850.000000	23.248553
2849.000000	23.310296
2848.000000	23.365494
2847.000000	23.414602
2846.000000	23.460229
2845.000000	23.506160
2844.000000	23.555012
2843.000000	23.607194
2842.000000	23.662175
2841.000000	23.719365
2840.000000	23.777189
2839.000000	23.833069
2838.000000	23.885936
2837.000000	23.937949
2836.000000	23.992505
2835.000000	24.051121
2834.000000	24.113083
2833.000000	24.177211
2832.000000	24.242570
2831.000000	24.307960
2830.000000	24.372218
2829.000000	24.435057
2828.000000	24.496764
2827.000000	24.557338
2826.000000	24.616800
2825.000000	24.676091
2824.000000	24.736746
2823.000000	24.799715
2822.000000	24.865100
2821.000000	24.932615
2820.000000	25.001510
2819.000000	25.070300
2818.000000	25.137372
2817.000000	25.201765
2816.000000	25.263011
2815.000000	25.320834
2814.000000	25.375818
2813.000000	25.429812
2812.000000	25.484674
2811.000000	25.540799
2810.000000	25.597579
2809.000000	25.654874
2808.000000	25.713040
2807.000000	25.771753
2806.000000	25.829733
2805.000000	25.885582
2804.000000	25.938236
2803.000000	25.986998
2802.000000	26.032081
2801.000000	26.075041
2800.000000	26.117774
2799.000000	26.161108
2798.000000	26.205119
2797.000000	26.250473
2796.000000	26.298428
2795.000000	26.349454
2794.000000	26.402640
2793.000000	26.456485
2792.000000	26.509564
2791.000000	26.560523
2790.000000	26.608394
2789.000000	26.653255
2788.000000	26.696111
2787.000000	26.738156
2786.000000	26.780640
2785.000000	26.825152
2784.000000	26.873043
2783.000000	26.924288
2782.000000	26.977424
2781.000000	27.030610
2780.000000	27.082203
2779.000000	27.130572
2778.000000	27.174247
2777.000000	27.212472
2776.000000	27.245209
2775.000000	27.272595
2774.000000	27.295059
2773.000000	27.313907
2772.000000	27.330794
2771.000000	27.346523
2770.000000	27.360809
2769.000000	27.373067
2768.000000	27.382727
2767.000000	27.388616
2766.000000	27.389066
2765.000000	27.382993
2764.000000	27.370441
2763.000000	27.352264
2762.000000	27.329880
2761.000000	27.305499
2760.000000	27.281766
2759.000000	27.260650
2758.000000	27.243024
2757.000000	27.229036
2756.000000	27.218064
2755.000000	27.208280
2754.000000	27.196993
2753.000000	27.181813
2752.000000	27.161130
2751.000000	27.133770
2750.000000	27.099031
2749.000000	27.057161
2748.000000	27.009324
2747.000000	26.956812
2746.000000	26.900748
2745.000000	26.842406
2744.000000	26.782837
2743.000000	26.722286
2742.000000	26.660687
2741.000000	26.598793
2740.000000	26.538523
2739.000000	26.482453
2738.000000	26.433585
2737.000000	26.395716
2736.000000	26.372985
2735.000000	26.368707
2734.000000	26.385273
2733.000000	26.424088
2732.000000	26.485007
2731.000000	26.565943
2730.000000	26.663266
2729.000000	26.773250
2728.000000	26.892177
2727.000000	27.015684
2726.000000	27.139592
2725.000000	27.261298
2724.000000	27.380194
2723.000000	27.496555
2722.000000	27.610546
2721.000000	27.722367
2720.000000	27.832275
2719.000000	27.939789
2718.000000	28.043405
2717.000000	28.141364
2716.000000	28.232152
2715.000000	28.314388
2714.000000	28.386638
2713.000000	28.447979
2712.000000	28.498551
2711.000000	28.539031
2710.000000	28.570555
2709.000000	28.595011
2708.000000	28.614743
2707.000000	28.631578
2706.000000	28.646053
2705.000000	28.658157
2704.000000	28.667981
2703.000000	28.675239
2702.000000	28.678949
2701.000000	28.677935
2700.000000	28.671701
2699.000000	28.660515
2698.000000	28.645186
2697.000000	28.627235
2696.000000	28.608662
2695.000000	28.591208
2694.000000	28.575974
2693.000000	28.563639
2692.000000	28.554368
2691.000000	28.547156
2690.000000	28.539910
2689.000000	28.530626
2688.000000	28.518220
2687.000000	28.502227
2686.000000	28.482516
2685.000000	28.459818
2684.000000	28.435969
2683.000000	28.413080
2682.000000	28.392723
2681.000000	28.376034
2680.000000	28.363815
2679.000000	28.355961
2678.000000	28.351191
2677.000000	28.347816
2676.000000	28.344681
2675.000000	28.341240
2674.000000	28.337321
2673.000000	28.333567
2672.000000	28.331743
2671.000000	28.334251
2670.000000	28.343248
2669.000000	28.360007
2668.000000	28.384643
2667.000000	28.415739
2666.000000	28.450500
2665.000000	28.485672
2664.000000	28.518299
2663.000000	28.545899
2662.000000	28.566567
2661.000000	28.579508
2660.000000	28.585540
2659.000000	28.586889
2658.000000	28.586396
2657.000000	28.586844
2656.000000	28.590460
2655.000000	28.598564
2654.000000	28.611663
2653.000000	28.629917
2652.000000	28.653202
2651.000000	28.680934
2650.000000	28.712423
2649.000000	28.747531
2648.000000	28.787176
2647.000000	28.832978
2646.000000	28.886606
2645.000000	28.949615
2644.000000	29.022864
2643.000000	29.106179
2642.000000	29.198381
2641.000000	29.297483
2640.000000	29.400858
2639.000000	29.505028
2638.000000	29.606217
2637.000000	29.701482
2636.000000	29.789103
2635.000000	29.867915
2634.000000	29.937079
2633.000000	29.996790
2632.000000	30.048684
2631.000000	30.095065
2630.000000	30.137468
2629.000000	30.176680
2628.000000	30.213280
2627.000000	30.247422
2626.000000	30.278559
2625.000000	30.305572
2624.000000	30.327568
2623.000000	30.344089
2622.000000	30.354937
2621.000000	30.360585
2620.000000	30.362245
2619.000000	30.361233
2618.000000	30.358185
2617.000000	30.353074
2616.000000	30.345855
2615.000000	30.336255
2614.000000	30.323244
2613.000000	30.305186
2612.000000	30.280438
2611.000000	30.248101
2610.000000	30.208381
2609.000000	30.162910
2608.000000	30.114683
2607.000000	30.067322
2606.000000	30.024554
2605.000000	29.990160
2604.000000	29.967498
2603.000000	29.958445
2602.000000	29.963224
2601.000000	29.980894
2600.000000	30.010074
2599.000000	30.048976
2598.000000	30.095153
2597.000000	30.146535
2596.000000	30.201884
2595.000000	30.260543
2594.000000	30.322154
2593.000000	30.386645
2592.000000	30.454574
2591.000000	30.526439
2590.000000	30.601912
2589.000000	30.680023
2588.000000	30.759632
2587.000000	30.839700
2586.000000	30.919352
2585.000000	30.998295
2584.000000	31.077028
2583.000000	31.156163
2582.000000	31.235988
2581.000000	31.316973
2580.000000	31.400258
2579.000000	31.486999
2578.000000	31.577389
2577.000000	31.670885
2576.000000	31.766844
2575.000000	31.864169
2574.000000	31.960691
2573.000000	32.053881
2572.000000	32.142229
2571.000000	32.225439
2570.000000	32.303579
2569.000000	32.376722
2568.000000	32.445468
2567.000000	32.510551
2566.000000	32.571971
2565.000000	32.629209
2564.000000	32.681648
2563.000000	32.728313
2562.000000	32.766759
2561.000000	32.793345
2560.000000	32.805063
2559.000000	32.800021
2558.000000	32.777610
2557.000000	32.738951
2556.000000	32.687801
2555.000000	32.630709
2554.000000	32.575645
2553.000000	32.531086
2552.000000	32.505279
2551.000000	32.504692
2550.000000	32.531902
2549.000000	32.585647
2548.000000	32.661846
2547.000000	32.754744
2546.000000	32.858047
2545.000000	32.965665
2544.000000	33.073449
2543.000000	33.179292
2542.000000	33.282105
2541.000000	33.381451
2540.000000	33.477480
2539.000000	33.570391
2538.000000	33.659522
2537.000000	33.743525
2536.000000	33.821204
2535.000000	33.891871
2534.000000	33.954786
2533.000000	34.009547
2532.000000	34.057214
2531.000000	34.100059
2530.000000	34.140564
2529.000000	34.180895
2528.000000	34.223101
2527.000000	34.268720
2526.000000	34.317926
2525.000000	34.369849
2524.000000	34.423491
2523.000000	34.477677
2522.000000	34.530545
2521.000000	34.580281
2520.000000	34.626423
2519.000000	34.669680
2518.000000	34.710694
2517.000000	34.749949
2516.000000	34.788434
2515.000000	34.827264
2514.000000	34.866588
2513.000000	34.905827
2512.000000	34.944862
2511.000000	34.983842
2510.000000	35.022144
2509.000000	35.058646
2508.000000	35.092973
2507.000000	35.125422
2506.000000	35.155714
2505.000000	35.183165
2504.000000	35.208031
2503.000000	35.231513
2502.000000	35.254550
2501.000000	35.277578
2500.000000	35.301430
2499.000000	35.327147
2498.000000	35.354686
2497.000000	35.382790
2496.000000	35.410107
2495.000000	35.435597
2494.000000	35.458133
2493.000000	35.476888
2492.000000	35.492285
2491.000000	35.505573
2490.000000	35.517718
2489.000000	35.529647
2488.000000	35.543081
2487.000000	35.559736
2486.000000	35.579626
2485.000000	35.601171
2484.000000	35.622849
2483.000000	35.643612
2482.000000	35.662096
2481.000000	35.676875
2480.000000	35.687633
2479.000000	35.695225
2478.000000	35.700785
2477.000000	35.705908
2476.000000	35.713140
2475.000000	35.724677
2474.000000	35.740484
2473.000000	35.758741
2472.000000	35.777784
2471.000000	35.796450
2470.000000	35.813011
2469.000000	35.825620
2468.000000	35.834038
2467.000000	35.839701
2466.000000	35.844141
2465.000000	35.848553
2464.000000	35.854667
2463.000000	35.864301
2462.000000	35.877743
2461.000000	35.893646
2460.000000	35.910586
2459.000000	35.927582
2458.000000	35.943339
2457.000000	35.956469
2456.000000	35.966738
2455.000000	35.975090
2454.000000	35.982447
2453.000000	35.989512
2452.000000	35.997457
2451.000000	36.007492
2450.000000	36.019703
2449.000000	36.033328
2448.000000	36.047957
2447.000000	36.063389
2446.000000	36.078695
2445.000000	36.092867
2444.000000	36.106140
2443.000000	36.119445
2442.000000	36.132720
2441.000000	36.145046
2440.000000	36.156214
2439.000000	36.166867
2438.000000	36.177382
2437.000000	36.187997
2436.000000	36.199751
2435.000000	36.213851
2434.000000	36.230154
2433.000000	36.247528
2432.000000	36.265395
2431.000000	36.283533
2430.000000	36.300753
2429.000000	36.315421
2428.000000	36.327254
2427.000000	36.337249
2426.000000	36.346120
2425.000000	36.354339
2424.000000	36.363497
2423.000000	36.375840
2422.000000	36.392274
2421.000000	36.411967
2420.000000	36.433690
2419.000000	36.456140
2418.000000	36.477257
2417.000000	36.494931
2416.000000	36.508654
2415.000000	36.519397
2414.000000	36.528188
2413.000000	36.536172
2412.000000	36.545671
2411.000000	36.559385
2410.000000	36.578313
2409.000000	36.601483
2408.000000	36.627267
2407.000000	36.653707
2406.000000	36.678093
2405.000000	36.698209
2404.000000	36.714185
2403.000000	36.727901
2402.000000	36.740891
2401.000000	36.754124
2400.000000	36.769203
2399.000000	36.787925
2398.000000	36.810632
2397.000000	36.836397
2396.000000	36.864471
2395.000000	36.894137
2394.000000	36.923689
2393.000000	36.951352
2392.000000	36.977032
2391.000000	37.001805
2390.000000	37.026209
2389.000000	37.050500
2388.000000	37.076340
2387.000000	37.105936
2386.000000	37.140002
2385.000000	37.178356
2384.000000	37.221416
2383.000000	37.270252
2382.000000	37.324423
2381.000000	37.382256
2380.000000	37.443130
2379.000000	37.506682
2378.000000	37.571164
2377.000000	37.633790
2376.000000	37.693144
2375.000000	37.749162
2374.000000	37.802135
2373.000000	37.852803
2372.000000	37.903996
2371.000000	37.958887
2370.000000	38.017246
2369.000000	38.076839
2368.000000	38.137238
2367.000000	38.198721
2366.000000	38.258776
2365.000000	38.314029
2364.000000	38.367056
2363.000000	38.418148
2362.000000	38.465058
2361.000000	38.511385
2360.000000	38.559721
2359.000000	38.614158
2358.000000	38.674333
2357.000000	38.734777
2356.000000	38.797426
2355.000000	38.857171
2354.000000	38.912700
2353.000000	38.962330
2352.000000	39.014186
2351.000000	39.075330
2350.000000	39.131980
2349.000000	39.175134
2348.000000	39.210840
2347.000000	39.263713
2346.000000	39.347823
2345.000000	39.440453
2344.000000	39.520284
2343.000000	39.572922
2342.000000	39.612758
2341.000000	39.649223
2340.000000	39.683508
2339.000000	39.717895
2338.000000	39.751836
2337.000000	39.789192
2336.000000	39.829077
2335.000000	39.877851
2334.000000	39.933455
2333.000000	39.997791
2332.000000	40.061543
2331.000000	40.130191
2330.000000	40.190502
2329.000000	40.249101
2328.000000	40.298646
2327.000000	40.347583
2326.000000	40.396347
2325.000000	40.445193
2324.000000	40.497443
2323.000000	40.550997
2322.000000	40.605343
2321.000000	40.656352
2320.000000	40.703106
2319.000000	40.751921
2318.000000	40.801599
2317.000000	40.856245
2316.000000	40.909485
2315.000000	40.967424
2314.000000	41.022502
2313.000000	41.077119
2312.000000	41.123289
2311.000000	41.167806
2310.000000	41.207611
2309.000000	41.248167
2308.000000	41.287495
2307.000000	41.332374
2306.000000	41.381263
2305.000000	41.435399
2304.000000	41.490489
2303.000000	41.548028
2302.000000	41.602922
2301.000000	41.653953
2300.000000	41.696614
2299.000000	41.734686
2298.000000	41.767541
2297.000000	41.798904
2296.000000	41.830251
2295.000000	41.867616
2294.000000	41.911834
2293.000000	41.961947
2292.000000	42.015126
2291.000000	42.069520
2290.000000	42.121420
2289.000000	42.165856
2288.000000	42.201173
2287.000000	42.229075
2286.000000	42.252848
2285.000000	42.274859
2284.000000	42.299880
2283.000000	42.332779
2282.000000	42.375583
2281.000000	42.425608
2280.000000	42.479682
2279.000000	42.535128
2278.000000	42.588036
2277.000000	42.633809
2276.000000	42.670506
2275.000000	42.700316
2274.000000	42.725620
2273.000000	42.748636
2272.000000	42.772820
2271.000000	42.802481
2270.000000	42.838593
2269.000000	42.878693
2268.000000	42.920559
2267.000000	42.963332
2266.000000	43.004442
2265.000000	43.040120
2264.000000	43.069054
2263.000000	43.093094
2262.000000	43.113573
2261.000000	43.129975
2260.000000	43.143569
2259.000000	43.157003
2258.000000	43.171243
2257.000000	43.184568
2256.000000	43.196220
2255.000000	43.207028
2254.000000	43.215865
2253.000000	43.219825
2252.000000	43.217156
2251.000000	43.208315
2250.000000	43.191817
2249.000000	43.165026
2248.000000	43.126931
2247.000000	43.079429
2246.000000	43.023554
2245.000000	42.959005
2244.000000	42.887553
2243.000000	42.813061
2242.000000	42.737235
2241.000000	42.658817
2240.000000	42.577242
2239.000000	42.493800
2238.000000	42.408824
2237.000000	42.321593
2236.000000	42.234050
2235.000000	42.151160
2234.000000	42.077212
2233.000000	42.014524
2232.000000	41.966160
2231.000000	41.935562
2230.000000	41.922493
2229.000000	41.922189
2228.000000	41.929197
2227.000000	41.939293
2226.000000	41.947262
2225.000000	41.947341
2224.000000	41.937230
2223.000000	41.919166
2222.000000	41.896337
2221.000000	41.871373
2220.000000	41.848531
2219.000000	41.833228
2218.000000	41.827698
2217.000000	41.829687
2216.000000	41.836011
2215.000000	41.844397
2214.000000	41.851534
2213.000000	41.853157
2212.000000	41.847614
2211.000000	41.836802
2210.000000	41.823051
2209.000000	41.808008
2208.000000	41.794691
2207.000000	41.786967
2206.000000	41.785908
2205.000000	41.789428
2204.000000	41.795845
2203.000000	41.804626
2202.000000	41.813459
2201.000000	41.818433
2200.000000	41.818176
2199.000000	41.814506
2198.000000	41.808499
2197.000000	41.799260
2196.000000	41.787182
2195.000000	41.774635
2194.000000	41.762421
2193.000000	41.748996
2192.000000	41.734046
2191.000000	41.719556
2190.000000	41.706417
2189.000000	41.693208
2188.000000	41.679129
2187.000000	41.664920
2186.000000	41.650036
2185.000000	41.632375
2184.000000	41.611781
2183.000000	41.590989
2182.000000	41.572390
2181.000000	41.557114
2180.000000	41.547614
2179.000000	41.547697
2178.000000	41.558866
2177.000000	41.579424
2176.000000	41.607650
2175.000000	41.642478
2174.000000	41.680627
2173.000000	41.716748
2172.000000	41.747871
2171.000000	41.774911
2170.000000	41.799587
2169.000000	41.823214
2168.000000	41.849045
2167.000000	41.881893
2166.000000	41.924013
2165.000000	41.973915
2164.000000	42.029396
2163.000000	42.088224
2162.000000	42.145683
2161.000000	42.195667
2160.000000	42.235640
2159.000000	42.267645
2158.000000	42.294287
2157.000000	42.317588
2156.000000	42.341840
2155.000000	42.372884
2154.000000	42.412985
2153.000000	42.459667
2152.000000	42.509938
2151.000000	42.561879
2150.000000	42.611825
2149.000000	42.654590
2148.000000	42.688206
2147.000000	42.715019
2146.000000	42.737551
2145.000000	42.757315
2144.000000	42.778082
2143.000000	42.805403
2142.000000	42.841581
2141.000000	42.884726
2140.000000	42.933292
2139.000000	42.987162
2138.000000	43.043747
2137.000000	43.097859
2136.000000	43.146916
2135.000000	43.192300
2134.000000	43.234797
2133.000000	43.273240
2132.000000	43.308472
2131.000000	43.344090
2130.000000	43.381753
2129.000000	43.419966
2128.000000	43.458405
2127.000000	43.499028
2126.000000	43.541791
2125.000000	43.583655
2124.000000	43.623130
2123.000000	43.661315
2122.000000	43.697568
2121.000000	43.728887
2120.000000	43.755058
2119.000000	43.779976
2118.000000	43.806691
2117.000000	43.835329
2116.000000	43.866777
2115.000000	43.903658
2114.000000	43.946246
2113.000000	43.991537
2112.000000	44.037422
2111.000000	44.083521
2110.000000	44.127126
2109.000000	44.163281
2108.000000	44.190115
2107.000000	44.209904
2106.000000	44.224394
2105.000000	44.233748
2104.000000	44.240649
2103.000000	44.250225
2102.000000	44.264038
2101.000000	44.278910
2100.000000	44.291895
2099.000000	44.302077
2098.000000	44.306802
2097.000000	44.300978
2096.000000	44.282498
2095.000000	44.254448
2094.000000	44.221094
2093.000000	44.185938
2092.000000	44.154000
2091.000000	44.130772
2090.000000	44.117633
2089.000000	44.112224
2088.000000	44.113702
2087.000000	44.123392
2086.000000	44.139849
2085.000000	44.158678
2084.000000	44.178236
2083.000000	44.200938
2082.000000	44.227990
2081.000000	44.258166
2080.000000	44.292043
2079.000000	44.332786
2078.000000	44.381287
2077.000000	44.434804
2076.000000	44.492212
2075.000000	44.554622
2074.000000	44.620784
2073.000000	44.686815
2072.000000	44.750591
2071.000000	44.812341
2070.000000	44.871383
2069.000000	44.928053
2068.000000	44.988214
2067.000000	45.058775
2066.000000	45.138518
2065.000000	45.220198
2064.000000	45.301643
2063.000000	45.387683
2062.000000	45.480850
2061.000000	45.577690
2060.000000	45.675418
2059.000000	45.774819
2058.000000	45.874614
2057.000000	45.969903
2056.000000	46.059028
2055.000000	46.145174
2054.000000	46.229734
2053.000000	46.311051
2052.000000	46.390511
2051.000000	46.473040
2050.000000	46.560651
2049.000000	46.650788
2048.000000	46.741220
2047.000000	46.831422
2046.000000	46.919242
2045.000000	47.002482
2044.000000	47.083962
2043.000000	47.168385
2042.000000	47.254521
2041.000000	47.337577
2040.000000	47.419131
2039.000000	47.507068
2038.000000	47.605240
2037.000000	47.710435
2036.000000	47.820001
2035.000000	47.934408
2034.000000	48.050673
2033.000000	48.161553
2032.000000	48.264358
2031.000000	48.362657
2030.000000	48.458942
2029.000000	48.551967
2028.000000	48.643769
2027.000000	48.740613
2026.000000	48.844752
2025.000000	48.952373
2024.000000	49.058846
2023.000000	49.161203
2022.000000	49.256430
2021.000000	49.345142
2020.000000	49.436388
2019.000000	49.539195
2018.000000	49.649610
2017.000000	49.755986
2016.000000	49.856019
2015.000000	49.958014
2014.000000	50.066698
2013.000000	50.178283
2012.000000	50.290410
2011.000000	50.406301
2010.000000	50.526914
2009.000000	50.647323
2008.000000	50.765327
2007.000000	50.884248
2006.000000	51.003986
2005.000000	51.120239
2004.000000	51.232022
2003.000000	51.344975
2002.000000	51.461212
2001.000000	51.576763
2000.000000	51.691077
1999.000000	51.804520
1998.000000	51.909308
1997.000000	51.997353
1996.000000	52.077888
1995.000000	52.172233
1994.000000	52.285775
1993.000000	52.399589
1992.000000	52.499675
1991.000000	52.594414
1990.000000	52.694614
1989.000000	52.796635
1988.000000	52.892676
1987.000000	52.983755
1986.000000	53.073567
1985.000000	53.161477
1984.000000	53.247205
1983.000000	53.334942
1982.000000	53.423706
1981.000000	53.505520
1980.000000	53.578230
1979.000000	53.647059
1978.000000	53.712919
1977.000000	53.770830
1976.000000	53.822917
1975.000000	53.878183
1974.000000	53.936470
1973.000000	53.986236
1972.000000	54.023169
1971.000000	54.059357
1970.000000	54.110375
1969.000000	54.179709
1968.000000	54.257747
1967.000000	54.332276
1966.000000	54.395124
1965.000000	54.444481
1964.000000	54.488379
1963.000000	54.537712
1962.000000	54.592474
1961.000000	54.644400
1960.000000	54.692085
1959.000000	54.742646
1958.000000	54.799095
1957.000000	54.856085
1956.000000	54.910911
1955.000000	54.965015
1954.000000	55.016054
1953.000000	55.057528
1952.000000	55.087036
1951.000000	55.110969
1950.000000	55.133981
1949.000000	55.152840
1948.000000	55.165875
1947.000000	55.179666
1946.000000	55.205225
1945.000000	55.251970
1944.000000	55.316952
1943.000000	55.382045
1942.000000	55.431873
1941.000000	55.466074
1940.000000	55.495676
1939.000000	55.529596
1938.000000	55.563343
1937.000000	55.588762
1936.000000	55.611029
1935.000000	55.640959
1934.000000	55.679243
1933.000000	55.717841
1932.000000	55.752416
1931.000000	55.790193
1930.000000	55.828883
1929.000000	55.850984
1928.000000	55.843427
1927.000000	55.815416
1926.000000	55.796854
1925.000000	55.808938
1924.000000	55.844478
1923.000000	55.887701
1922.000000	55.935520
1921.000000	55.991153
1920.000000	56.050460
1919.000000	56.094142
1918.000000	56.108304
1917.000000	56.102674
1916.000000	56.096755
1915.000000	56.096760
1914.000000	56.092259
1913.000000	56.077449
1912.000000	56.067237
1911.000000	56.083375
1910.000000	56.122387
1909.000000	56.165049
1908.000000	56.203817
1907.000000	56.244222
1906.000000	56.290045
1905.000000	56.331635
1904.000000	56.362069
1903.000000	56.387799
1902.000000	56.408366
1901.000000	56.411092
1900.000000	56.391873
1899.000000	56.365915
1898.000000	56.356176
1897.000000	56.369026
1896.000000	56.390473
1895.000000	56.405616
1894.000000	56.410094
1893.000000	56.410701
1892.000000	56.425679
1891.000000	56.457680
1890.000000	56.477949
1889.000000	56.466449
1888.000000	56.439665
1887.000000	56.425768
1886.000000	56.429926
1885.000000	56.433840
1884.000000	56.427672
1883.000000	56.423588
1882.000000	56.429569
1881.000000	56.438297
1880.000000	56.446323
1879.000000	56.458310
1878.000000	56.473382
1877.000000	56.480497
1876.000000	56.470461
1875.000000	56.445487
1874.000000	56.408050
1873.000000	56.352449
1872.000000	56.284583
1871.000000	56.237496
1870.000000	56.229692
1869.000000	56.240871
1868.000000	56.258937
1867.000000	56.291308
1866.000000	56.330554
1865.000000	56.354441
1864.000000	56.354688
1863.000000	56.342754
1862.000000	56.326687
1861.000000	56.303123
1860.000000	56.273757
1859.000000	56.249688
1858.000000	56.232287
1857.000000	56.212651
1856.000000	56.189291
1855.000000	56.172817
1854.000000	56.158191
1853.000000	56.122797
1852.000000	56.062672
1851.000000	55.993087
1850.000000	55.927882
1849.000000	55.876331
1848.000000	55.859642
1847.000000	55.892670
1846.000000	55.935128
1845.000000	55.910579
1844.000000	55.813023
1843.000000	55.712555
1842.000000	55.647618
1841.000000	55.606468
1840.000000	55.572055
1839.000000	55.542779
1838.000000	55.515201
1837.000000	55.468868
1836.000000	55.392212
1835.000000	55.298256
1834.000000	55.195965
1833.000000	55.091832
1832.000000	55.017014
1831.000000	54.970635
1830.000000	54.913824
1829.000000	54.842483
1828.000000	54.785392
1827.000000	54.755687
1826.000000	54.721358
1825.000000	54.648865
1824.000000	54.556873
1823.000000	54.479242
1822.000000	54.412222
1821.000000	54.333227
1820.000000	54.239815
1819.000000	54.146294
1818.000000	54.054697
1817.000000	53.947093
1816.000000	53.819611
1815.000000	53.690418
1814.000000	53.577176
1813.000000	53.487949
1812.000000	53.413878
1811.000000	53.343116
1810.000000	53.272273
1809.000000	53.197475
1808.000000	53.117869
1807.000000	53.036917
1806.000000	52.954081
1805.000000	52.862495
1804.000000	52.773266
1803.000000	52.710117
1802.000000	52.666756
1801.000000	52.610624
1800.000000	52.524730
1799.000000	52.427403
1798.000000	52.342707
1797.000000	52.278360
1796.000000	52.238762
1795.000000	52.225980
1794.000000	52.222485
1793.000000	52.184466
1792.000000	52.094643
1791.000000	52.000085
1790.000000	51.939037
1789.000000	51.901935
1788.000000	51.862235
1787.000000	51.796251
1786.000000	51.682516
1785.000000	51.509976
1784.000000	51.314639
1783.000000	51.157785
1782.000000	51.047618
1781.000000	50.941043
1780.000000	50.809777
1779.000000	50.666893
1778.000000	50.516561
1777.000000	50.353493
1776.000000	50.207132
1775.000000	50.127039
1774.000000	50.105664
1773.000000	50.048859
1772.000000	49.911653
1771.000000	49.759850
1770.000000	49.643682
1769.000000	49.535519
1768.000000	49.402763
1767.000000	49.267258
1766.000000	49.162501
1765.000000	49.090865
1764.000000	49.031729
1763.000000	48.943415
1762.000000	48.798385
1761.000000	48.628271
1760.000000	48.487672
1759.000000	48.404167
1758.000000	48.323538
1757.000000	48.172372
1756.000000	47.969295
1755.000000	47.784446
1754.000000	47.633356
1753.000000	47.468790
1752.000000	47.261973
1751.000000	47.052816
1750.000000	46.887581
1749.000000	46.744311
1748.000000	46.595505
1747.000000	46.449530
1746.000000	46.314741
1745.000000	46.187409
1744.000000	46.067915
1743.000000	45.963071
1742.000000	45.856891
1741.000000	45.698160
1740.000000	45.459983
1739.000000	45.198315
1738.000000	44.988652
1737.000000	44.845558
1736.000000	44.712047
1735.000000	44.471445
1734.000000	44.105218
1733.000000	43.745213
1732.000000	43.478759
1731.000000	43.300576
1730.000000	43.140088
1729.000000	42.933532
1728.000000	42.689970
1727.000000	42.446220
1726.000000	42.205718
1725.000000	41.945643
1724.000000	41.654598
1723.000000	41.345979
1722.000000	41.018368
1721.000000	40.654075
1720.000000	40.291407
1719.000000	39.981499
1718.000000	39.692710
1717.000000	39.390228
1716.000000	39.083971
1715.000000	38.786675
1714.000000	38.499497
1713.000000	38.210115
1712.000000	37.916280
1711.000000	37.620747
1710.000000	37.324843
1709.000000	36.998211
1708.000000	36.715826
1707.000000	36.360315
1706.000000	35.985740
1705.000000	35.635311
1704.000000	35.302519
1703.000000	34.988847
1702.000000	34.651737
1701.000000	34.250745
1700.000000	33.826236
1699.000000	33.479049
1698.000000	33.213203
1697.000000	32.949726
1696.000000	32.661949
1695.000000	32.373347
1694.000000	32.137605
1693.000000	31.804843
1692.000000	31.493392
1691.000000	31.189102
1690.000000	30.831320
1689.000000	30.459776
1688.000000	30.150016
1687.000000	29.960839
1686.000000	29.864948
1685.000000	29.653680
1684.000000	29.207383
1683.000000	28.751954
1682.000000	28.439242
1681.000000	28.226170
1680.000000	28.047336
1679.000000	27.891729
1678.000000	27.755300
1677.000000	27.570492
1676.000000	27.265637
1675.000000	26.880564
1674.000000	26.527555
1673.000000	26.263342
1672.000000	26.073997
1671.000000	25.899423
1670.000000	25.655832
1669.000000	25.334282
1668.000000	25.020335
1667.000000	24.782328
1666.000000	24.611835
1665.000000	24.455683
1664.000000	24.261754
1663.000000	24.012388
1662.000000	23.734542
1661.000000	23.464772
1660.000000	23.222038
1659.000000	23.000075
1658.000000	22.785943
1657.000000	22.587434
1656.000000	22.455684
1655.000000	22.424343
1654.000000	22.260653
1653.000000	21.826727
1652.000000	21.395494
1651.000000	21.119154
1650.000000	20.965915
1649.000000	20.898344
1648.000000	20.834600
1647.000000	20.664089
1646.000000	20.411555
1645.000000	20.169117
1644.000000	19.970006
1643.000000	19.810970
1642.000000	19.661183
1641.000000	19.486187
1640.000000	19.295552
1639.000000	19.142884
1638.000000	19.069622
1637.000000	19.001641
1636.000000	18.806256
1635.000000	18.521991
1634.000000	18.280553
1633.000000	18.116287
1632.000000	18.000381
1631.000000	17.901203
1630.000000	17.794486
1629.000000	17.660004
1628.000000	17.500926
1627.000000	17.351985
1626.000000	17.235555
1625.000000	17.135709
1624.000000	17.015868
1623.000000	16.865935
1622.000000	16.714799
1621.000000	16.591394
1620.000000	16.514477
1619.000000	16.492470
1618.000000	16.486050
1617.000000	16.418181
1616.000000	16.287440
1615.000000	16.170034
1614.000000	16.105306
1613.000000	16.071593
1612.000000	16.037941
1611.000000	16.000595
1610.000000	15.969718
1609.000000	15.942747
1608.000000	15.912632
1607.000000	15.885617
1606.000000	15.867282
1605.000000	15.852887
1604.000000	15.840235
1603.000000	15.834948
1602.000000	15.838020
1601.000000	15.839764
1600.000000	15.834837
1599.000000	15.829661
1598.000000	15.830093
1597.000000	15.833762
1596.000000	15.837951
1595.000000	15.845860
1594.000000	15.858866
1593.000000	15.872206
1592.000000	15.884323
1591.000000	15.900571
1590.000000	15.921230
1589.000000	15.938051
1588.000000	15.946811
1587.000000	15.953620
1586.000000	15.962162
1585.000000	15.965698
1584.000000	15.962437
1583.000000	15.956787
1582.000000	15.943294
1581.000000	15.910850
1580.000000	15.871731
1579.000000	15.865821
1578.000000	15.913304
1577.000000	15.954042
1576.000000	15.920473
1575.000000	15.849701
1574.000000	15.810122
1573.000000	15.817821
1572.000000	15.850725
1571.000000	15.876464
1570.000000	15.860660
1569.000000	15.806512
1568.000000	15.761389
1567.000000	15.756516
1566.000000	15.778635
1565.000000	15.797200
1564.000000	15.809877
1563.000000	15.860837
1562.000000	15.945889
1561.000000	16.060581
1560.000000	16.197653
1559.000000	16.199663
1558.000000	16.141962
1557.000000	16.166636
1556.000000	16.269465
1555.000000	16.407345
1554.000000	16.535069
1553.000000	16.647233
1552.000000	16.767117
1551.000000	16.912653
1550.000000	17.071609
1549.000000	17.221768
1548.000000	17.355508
1547.000000	17.480803
1546.000000	17.613299
1545.000000	17.753635
1544.000000	17.885559
1543.000000	18.014136
1542.000000	18.214365
1541.000000	18.498961
1540.000000	18.752081
1539.000000	18.951750
1538.000000	19.142213
1537.000000	19.340618
1536.000000	19.563861
1535.000000	19.823932
1534.000000	20.095069
1533.000000	20.340178
1532.000000	20.566844
1531.000000	20.804178
1530.000000	21.067689
1529.000000	21.357355
1528.000000	21.667152
1527.000000	21.986657
1526.000000	22.299880
1525.000000	22.598265
1524.000000	22.915563
1523.000000	23.313203
1522.000000	23.772394
1521.000000	24.202989
1520.000000	24.564494
1519.000000	24.915818
1518.000000	25.341676
1517.000000	25.828224
1516.000000	26.304213
1515.000000	26.744740
1514.000000	27.157904
1513.000000	27.541823
1512.000000	27.872755
1511.000000	28.145073
1510.000000	28.403036
1509.000000	28.825347
1508.000000	29.526895
1507.000000	30.256784
1506.000000	30.862635
1505.000000	31.356059
1504.000000	31.763507
1503.000000	32.171372
1502.000000	32.619866
1501.000000	33.077171
1500.000000	33.510868
1499.000000	33.952017
1498.000000	34.447567
1497.000000	34.976255
1496.000000	35.476989
1495.000000	35.924053
1494.000000	36.319664
1493.000000	36.662128
1492.000000	36.981110
1491.000000	37.356072
1490.000000	37.814309
1489.000000	38.300515
1488.000000	38.754945
1487.000000	39.168702
1486.000000	39.552054
1485.000000	39.890119
1484.000000	40.187946
1483.000000	40.481312
1482.000000	40.783140
1481.000000	41.060249
1480.000000	41.283367
1479.000000	41.453741
1478.000000	41.571975
1477.000000	41.630023
1476.000000	41.644893
1475.000000	41.677964
1474.000000	41.731593
1473.000000	41.661381
1472.000000	41.371804
1471.000000	40.937064
1470.000000	40.410825
1469.000000	39.756797
1468.000000	38.920412
1467.000000	37.844359
1466.000000	36.420214
1465.000000	34.598582
1464.000000	32.624570
1463.000000	30.866741
1462.000000	29.459838
1461.000000	28.348170
1460.000000	27.518735
1459.000000	27.034713
1458.000000	26.834056
1457.000000	26.733863
1456.000000	26.681815
1455.000000	26.667650
1454.000000	26.605984
1453.000000	26.396241
1452.000000	25.989760
1451.000000	25.399765
1450.000000	24.614843
1449.000000	23.579057
1448.000000	22.303371
1447.000000	20.919873
1446.000000	19.529739
1445.000000	18.125508
1444.000000	16.690226
1443.000000	15.245037
1442.000000	13.811723
1441.000000	12.426666
1440.000000	11.162141
1439.000000	10.028654
1438.000000	8.893268
1437.000000	7.639385
1436.000000	6.434114
1435.000000	5.541404
1434.000000	4.947330
1433.000000	4.483280
1432.000000	4.081227
1431.000000	3.760731
1430.000000	3.509830
1429.000000	3.294457
1428.000000	3.146692
1427.000000	3.111575
1426.000000	3.158627
1425.000000	3.236960
1424.000000	3.364969
1423.000000	3.582849
1422.000000	3.867942
1421.000000	4.186079
1420.000000	4.575053
1419.000000	5.075822
1418.000000	5.629947
1417.000000	6.178684
1416.000000	6.763551
1415.000000	7.430964
1414.000000	8.156413
1413.000000	8.910224
1412.000000	9.718720
1411.000000	10.606779
1410.000000	11.537611
1409.000000	12.471212
1408.000000	13.426372
1407.000000	14.441368
1406.000000	15.517480
1405.000000	16.631882
1404.000000	17.765373
1403.000000	18.887835
1402.000000	19.974764
1401.000000	21.057166
1400.000000	22.196495
1399.000000	23.387173
1398.000000	24.563550
1397.000000	25.723850
1396.000000	26.938944
1395.000000	28.225080
1394.000000	29.505291
1393.000000	30.717824
1392.000000	31.873104
1391.000000	32.996655
1390.000000	34.099395
1389.000000	35.205947
1388.000000	36.331798
1387.000000	37.423116
1386.000000	38.394098
1385.000000	39.215805
1384.000000	39.902538
1383.000000	40.446510
1382.000000	40.825570
1381.000000	41.032293
1380.000000	41.053252
1379.000000	40.847519
1378.000000	40.379984
1377.000000	39.644521
1376.000000	38.621261
1375.000000	37.248538
1374.000000	35.508253
1373.000000	33.528107
1372.000000	31.500857
1371.000000	29.566425
1370.000000	27.836281
1369.000000	26.456323
1368.000000	25.585766
1367.000000	25.307244
1366.000000	25.599592
1365.000000	26.403302
1364.000000	27.663493
1363.000000	29.280969
1362.000000	31.070099
1361.000000	32.833134
1360.000000	34.446918
1359.000000	35.854059
1358.000000	37.016326
1357.000000	37.895982
1356.000000	38.452480
1355.000000	38.646046
1354.000000	38.454802
1353.000000	37.883401
1352.000000	36.951213
1351.000000	35.678761
1350.000000	34.087975
1349.000000	32.215118
1348.000000	30.109122
1347.000000	27.826287
1346.000000	25.427846
1345.000000	22.982286
1344.000000	20.572116
1343.000000	18.280367
1342.000000	16.164975
1341.000000	14.258657
1340.000000	12.600320
1339.000000	11.250585
1338.000000	10.255172
1337.000000	9.595365
1336.000000	9.195946
1335.000000	8.960042
1334.000000	8.778183
1333.000000	8.539997
1332.000000	8.162705
1331.000000	7.615630
1330.000000	6.921143
1329.000000	6.135133
1328.000000	5.328104
1327.000000	4.568331
1326.000000	3.901460
1325.000000	3.343716
1324.000000	2.897138
1323.000000	2.561760
1322.000000	2.327690
1321.000000	2.171931
1320.000000	2.073913
1319.000000	2.021141
1318.000000	1.998910
1317.000000	1.988098
1316.000000	1.977027
1315.000000	1.965072
1314.000000	1.949974
1313.000000	1.925696
1312.000000	1.894935
1311.000000	1.869239
1310.000000	1.854054
1309.000000	1.846020
1308.000000	1.846953
1307.000000	1.866664
1306.000000	1.909439
1305.000000	1.971391
1304.000000	2.052579
1303.000000	2.158789
1302.000000	2.289625
1301.000000	2.437051
1300.000000	2.598553
1299.000000	2.778421
1298.000000	2.975595
1297.000000	3.183119
1296.000000	3.399536
1295.000000	3.629558
1294.000000	3.872150
1293.000000	4.119790
1292.000000	4.369580
1291.000000	4.623278
1290.000000	4.875985
1289.000000	5.115474
1288.000000	5.331759
1287.000000	5.516685
1286.000000	5.656802
1285.000000	5.739166
1284.000000	5.768008
1283.000000	5.768856
1282.000000	5.776111
1281.000000	5.822698
1280.000000	5.937378
1279.000000	6.136357
1278.000000	6.412758
1277.000000	6.743725
1276.000000	7.107926
1275.000000	7.491540
1274.000000	7.882429
1273.000000	8.269821
1272.000000	8.650660
1271.000000	9.026504
1270.000000	9.395246
1269.000000	9.752930
1268.000000	10.101159
1267.000000	10.444760
1266.000000	10.784035
1265.000000	11.116181
1264.000000	11.442273
1263.000000	11.766424
1262.000000	12.089053
1261.000000	12.407500
1260.000000	12.721551
1259.000000	13.032527
1258.000000	13.339455
1257.000000	13.641232
1256.000000	13.940503
1255.000000	14.240699
1254.000000	14.541644
1253.000000	14.841953
1252.000000	15.142511
1251.000000	15.443765
1250.000000	15.742520
1249.000000	16.035061
1248.000000	16.321242
1247.000000	16.602356
1246.000000	16.878019
1245.000000	17.148356
1244.000000	17.416113
1243.000000	17.683751
1242.000000	17.950604
1241.000000	18.215255
1240.000000	18.477876
1239.000000	18.737740
1238.000000	18.991762
1237.000000	19.237564
1236.000000	19.475770
1235.000000	19.708151
1234.000000	19.935824
1233.000000	20.160770
1232.000000	20.386152
1231.000000	20.613622
1230.000000	20.842603
1229.000000	21.072798
1228.000000	21.305028
1227.000000	21.539219
1226.000000	21.774435
1225.000000	22.011322
1224.000000	22.252049
1223.000000	22.497637
1222.000000	22.747890
1221.000000	23.003367
1220.000000	23.264395
1219.000000	23.528600
1218.000000	23.792114
1217.000000	24.052835
1216.000000	24.310337
1215.000000	24.564312
1214.000000	24.815924
1213.000000	25.069076
1212.000000	25.327113
1211.000000	25.589374
1210.000000	25.853532
1209.000000	26.118783
1208.000000	26.383829
1207.000000	26.644608
1206.000000	26.897747
1205.000000	27.144354
1204.000000	27.387194
1203.000000	27.627115
1202.000000	27.865379
1201.000000	28.105276
1200.000000	28.348129
1199.000000	28.589866
1198.000000	28.824039
1197.000000	29.045302
1196.000000	29.245587
1195.000000	29.413044
1194.000000	29.537152
1193.000000	29.611280
1192.000000	29.630088
1191.000000	29.588147
1190.000000	29.488478
1189.000000	29.348979
1188.000000	29.198824
1187.000000	29.072434
1186.000000	29.004890
1185.000000	29.023534
1184.000000	29.137228
1183.000000	29.334850
1182.000000	29.593836
1181.000000	29.892431
1180.000000	30.212923
1179.000000	30.541379
1178.000000	30.871548
1177.000000	31.202486
1176.000000	31.530688
1175.000000	31.847794
1174.000000	32.148177
1173.000000	32.433298
1172.000000	32.706113
1171.000000	32.967278
1170.000000	33.219774
1169.000000	33.470537
1168.000000	33.722812
1167.000000	33.973659
1166.000000	34.221296
1165.000000	34.468351
1164.000000	34.715223
1163.000000	34.957402
1162.000000	35.193673
1161.000000	35.429419
1160.000000	35.668372
1159.000000	35.908636
1158.000000	36.149197
1157.000000	36.392379
1156.000000	36.636032
1155.000000	36.871585
1154.000000	37.094064
1153.000000	37.305955
1152.000000	37.509313
1151.000000	37.703215
1150.000000	37.891999
1149.000000	38.086408
1148.000000	38.291855
1147.000000	38.504293
1146.000000	38.719965
1145.000000	38.938891
1144.000000	39.156155
1143.000000	39.360469
1142.000000	39.546465
1141.000000	39.719372
1140.000000	39.884522
1139.000000	40.043149
1138.000000	40.200755
1137.000000	40.368095
1136.000000	40.549263
1135.000000	40.738116
1134.000000	40.929657
1133.000000	41.124123
1132.000000	41.317358
1131.000000	41.499418
1130.000000	41.667265
1129.000000	41.828594
1128.000000	41.989851
1127.000000	42.151445
1126.000000	42.317105
1125.000000	42.494636
1124.000000	42.683573
1123.000000	42.873875
1122.000000	43.060420
1121.000000	43.246945
1120.000000	43.432952
1119.000000	43.610726
1118.000000	43.779183
1117.000000	43.947291
1116.000000	44.119649
1115.000000	44.291501
1114.000000	44.461619
1113.000000	44.636097
1112.000000	44.814891
1111.000000	44.989653
1110.000000	45.158633
1109.000000	45.330549
1108.000000	45.509982
1107.000000	45.691745
1106.000000	45.873615
1105.000000	46.059112
1104.000000	46.244309
1103.000000	46.416259
1102.000000	46.569894
1101.000000	46.711186
1100.000000	46.843268
1099.000000	46.964446
1098.000000	47.082556
1097.000000	47.216180
1096.000000	47.374852
1095.000000	47.552861
1094.000000	47.744001
1093.000000	47.946084
1092.000000	48.146964
1091.000000	48.324530
1090.000000	48.466623
1089.000000	48.577070
1088.000000	48.660374
1087.000000	48.715492
1086.000000	48.748869
1085.000000	48.773446
1084.000000	48.787470
1083.000000	48.770873
1082.000000	48.698920
1081.000000	48.549398
1080.000000	48.292992
1079.000000	47.893967
1078.000000	47.334520
1077.000000	46.612573
1076.000000	45.725959
1075.000000	44.671416
1074.000000	43.453372
1073.000000	42.089246
1072.000000	40.591387
1071.000000	38.968439
1070.000000	37.241313
1069.000000	35.441992
1068.000000	33.606627
1067.000000	31.775678
1066.000000	30.001893
1065.000000	28.348083
1064.000000	26.882081
1063.000000	25.664020
1062.000000	24.742985
1061.000000	24.151836
1060.000000	23.895117
1059.000000	23.958010
1058.000000	24.304203
1057.000000	24.888176
1056.000000	25.665459
1055.000000	26.587221
1054.000000	27.611536
1053.000000	28.702774
1052.000000	29.828320
1051.000000	30.956469
1050.000000	32.059565
1049.000000	33.121421
1048.000000	34.131764
1047.000000	35.082215
1046.000000	35.971845
1045.000000	36.809892
1044.000000	37.603046
1043.000000	38.350201
1042.000000	39.051827
1041.000000	39.712683
1040.000000	40.334093
1039.000000	40.909395
1038.000000	41.436266
1037.000000	41.923146
1036.000000	42.378084
1035.000000	42.805747
1034.000000	43.215986
1033.000000	43.625028
1032.000000	44.041960
1031.000000	44.462453
1030.000000	44.880638
1029.000000	45.293115
1028.000000	45.689639
1027.000000	46.054174
1026.000000	46.380213
1025.000000	46.675636
1024.000000	46.948898
1023.000000	47.204413
1022.000000	47.454094
1021.000000	47.716222
1020.000000	47.998419
1019.000000	48.292577
1018.000000	48.589228
1017.000000	48.883611
1016.000000	49.164811
1015.000000	49.416731
1014.000000	49.635337
1013.000000	49.832301
1012.000000	50.018858
1011.000000	50.199515
1010.000000	50.383094
1009.000000	50.582718
1008.000000	50.800142
1007.000000	51.024197
1006.000000	51.247002
1005.000000	51.468226
1004.000000	51.682185
1003.000000	51.877254
1002.000000	52.052425
1001.000000	52.219424
1000.000000	52.385634
999.000000	52.548670
998.000000	52.709548
997.000000	52.875424
996.000000	53.045840
995.000000	53.211631
994.000000	53.370990
993.000000	53.532027
992.000000	53.697286
991.000000	53.860688
990.000000	54.021885
989.000000	54.187629
988.000000	54.355455
987.000000	54.512354
986.000000	54.652536
985.000000	54.781955
984.000000	54.903440
983.000000	55.013950
982.000000	55.119669
981.000000	55.236696
980.000000	55.372336
979.000000	55.520180
978.000000	55.675078
977.000000	55.836297
976.000000	55.993412
975.000000	56.127194
974.000000	56.230473
973.000000	56.312809
972.000000	56.383266
971.000000	56.445014
970.000000	56.508678
969.000000	56.592115
968.000000	56.701143
967.000000	56.825449
966.000000	56.955739
965.000000	57.088742
964.000000	57.213649
963.000000	57.312917
962.000000	57.382490
961.000000	57.435834
960.000000	57.484348
959.000000	57.530677
958.000000	57.582315
957.000000	57.652333
956.000000	57.741242
955.000000	57.834514
954.000000	57.922378
953.000000	58.005893
952.000000	58.081911
951.000000	58.140918
950.000000	58.184233
949.000000	58.225811
948.000000	58.272350
947.000000	58.317637
946.000000	58.359318
945.000000	58.402586
944.000000	58.444580
943.000000	58.473423
942.000000	58.487522
941.000000	58.499198
940.000000	58.515305
939.000000	58.531758
938.000000	58.549117
937.000000	58.574939
936.000000	58.606391
935.000000	58.627706
934.000000	58.629525
933.000000	58.614900
932.000000	58.584304
931.000000	58.533965
930.000000	58.471564
929.000000	58.415461
928.000000	58.373524
927.000000	58.337958
926.000000	58.303033
925.000000	58.268528
924.000000	58.224319
923.000000	58.151195
922.000000	58.041657
921.000000	57.904468
920.000000	57.745733
919.000000	57.564161
918.000000	57.366841
917.000000	57.168693
916.000000	56.973250
915.000000	56.769192
914.000000	56.548788
913.000000	56.313086
912.000000	56.055494
911.000000	55.761510
910.000000	55.427471
909.000000	55.063199
908.000000	54.673471
907.000000	54.251680
906.000000	53.796166
905.000000	53.313279
904.000000	52.801852
903.000000	52.253261
902.000000	51.667343
901.000000	51.054291
900.000000	50.417070
899.000000	49.746404
898.000000	49.037074
897.000000	48.290448
896.000000	47.501313
895.000000	46.656888
894.000000	45.751417
893.000000	44.791430
892.000000	43.781913
891.000000	42.723710
890.000000	41.624234
889.000000	40.495707
888.000000	39.342558
887.000000	38.158250
886.000000	36.937386
885.000000	35.680556
884.000000	34.386282
883.000000	33.051108
882.000000	31.678626
881.000000	30.281612
880.000000	28.873670
879.000000	27.465632
878.000000	26.069494
877.000000	24.699244
876.000000	23.366082
875.000000	22.075940
874.000000	20.834938
873.000000	19.650357
872.000000	18.528630
871.000000	17.473986
870.000000	16.487880
869.000000	15.573229
868.000000	14.732307
867.000000	13.964833
866.000000	13.269175
865.000000	12.642618
864.000000	12.083845
863.000000	11.588838
862.000000	11.150081
861.000000	10.761568
860.000000	10.419285
859.000000	10.119847
858.000000	9.857449
857.000000	9.626202
856.000000	9.423273
855.000000	9.245258
854.000000	9.087686
853.000000	8.948233
852.000000	8.828918
851.000000	8.733646
850.000000	8.663938
849.000000	8.620972
848.000000	8.607171
847.000000	8.623658
846.000000	8.669851
845.000000	8.745530
844.000000	8.853388
843.000000	8.996725
842.000000	9.177009
841.000000	9.397215
840.000000	9.661921
839.000000	9.975201
838.000000	10.338457
837.000000	10.752075
836.000000	11.217156
835.000000	11.732804
834.000000	12.292614
833.000000	12.881038
832.000000	13.460210
831.000000	13.929676
830.000000	14.089624
829.000000	13.668690
828.000000	12.480090
827.000000	10.641613
826.000000	8.640970
825.000000	7.114557
824.000000	6.480807
823.000000	6.740581
822.000000	7.593569
821.000000	8.705907
820.000000	9.862346
819.000000	10.962506
818.000000	11.975781
817.000000	12.909569
816.000000	13.786208
815.000000	14.617246
814.000000	15.404692
813.000000	16.157271
812.000000	16.886619
811.000000	17.592212
810.000000	18.265677
809.000000	18.906495
808.000000	19.518259
807.000000	20.099443
806.000000	20.650813
805.000000	21.185748
804.000000	21.717758
803.000000	22.244456
802.000000	22.758679
801.000000	23.265501
800.000000	23.775006
799.000000	24.287656
798.000000	24.800918
797.000000	25.320796
796.000000	25.851773
795.000000	26.384729
794.000000	26.908456
793.000000	27.423474
792.000000	27.932376
791.000000	28.428338
790.000000	28.906436
789.000000	29.374975
788.000000	29.843355
787.000000	30.310601
786.000000	30.777109
785.000000	31.254076
784.000000	31.748308
783.000000	32.249540
782.000000	32.744299
781.000000	33.229560
780.000000	33.701749
779.000000	34.147737
778.000000	34.560454
777.000000	34.950824
776.000000	35.332436
775.000000	35.708048
774.000000	36.081997
773.000000	36.469178
772.000000	36.878011
771.000000	37.297604
770.000000	37.712965
769.000000	38.118893
768.000000	38.507987
767.000000	38.863001
766.000000	39.176010
765.000000	39.460723
764.000000	39.734179
763.000000	40.000972
762.000000	40.266189
761.000000	40.545299
760.000000	40.846666
759.000000	41.159481
758.000000	41.471055
757.000000	41.780540
756.000000	42.084710
755.000000	42.368811
754.000000	42.625837
753.000000	42.868159
752.000000	43.107861
751.000000	43.343050
750.000000	43.574781
749.000000	43.817988
748.000000	44.081736
747.000000	44.356657
746.000000	44.634125
745.000000	44.918924
744.000000	45.210184
743.000000	45.490026
742.000000	45.745095
741.000000	45.980511
740.000000	46.199705
739.000000	46.391819
738.000000	46.553107
737.000000	46.699279
736.000000	46.842644
735.000000	46.977668
734.000000	47.102743
733.000000	47.232923
732.000000	47.375329
731.000000	47.513229
730.000000	47.629601
729.000000	47.725006
728.000000	47.799380
727.000000	47.840816
726.000000	47.849471
725.000000	47.852678
724.000000	47.880314
723.000000	47.944400
722.000000	48.055742
721.000000	48.235664
720.000000	48.491382
719.000000	48.800137
718.000000	49.134923
717.000000	49.484711
716.000000	49.835476
715.000000	50.159961
714.000000	50.446398
713.000000	50.714050
712.000000	50.983782
711.000000	51.257504
710.000000	51.541838
709.000000	51.861156
708.000000	52.226571
707.000000	52.616605
706.000000	53.004621
705.000000	53.380849
704.000000	53.732239
703.000000	54.030281
702.000000	54.263816
701.000000	54.459051
700.000000	54.646426
699.000000	54.835113
698.000000	55.033949
697.000000	55.265730
696.000000	55.537851
695.000000	55.825055
694.000000	56.105333
693.000000	56.382928
692.000000	56.655484
691.000000	56.897064
690.000000	57.096752
689.000000	57.281423
688.000000	57.473494
687.000000	57.658992
686.000000	57.829031
685.000000	58.011097
684.000000	58.226262
683.000000	58.457495
682.000000	58.690934
681.000000	58.946297
680.000000	59.232459
679.000000	59.516447
678.000000	59.771907
677.000000	60.006407
676.000000	60.221519
675.000000	60.398137
674.000000	60.539096
673.000000	60.685937
672.000000	60.874734
671.000000	61.115326
670.000000	61.425955
669.000000	61.838650
668.000000	62.259616
667.000000	62.525036
666.000000	62.662162
665.000000	62.777090
664.000000	62.901393
663.000000	63.028272
662.000000	63.140771
661.000000	63.243974
660.000000	63.358155
659.000000	63.504540
658.000000	63.702494
657.000000	63.959394
656.000000	64.261274
655.000000	64.582842
654.000000	64.896185
653.000000	65.173164
652.000000	65.393183
651.000000	65.551211
650.000000	65.661025
649.000000	65.747415
648.000000	65.835636
647.000000	65.949500
646.000000	66.110657
645.000000	66.330369
644.000000	66.595749
643.000000	66.873141
642.000000	67.134753
641.000000	67.370853
640.000000	67.574806
639.000000	67.737142
638.000000	67.861649
637.000000	67.972006
636.000000	68.093353
635.000000	68.237281
634.000000	68.410619
633.000000	68.620599
632.000000	68.862064
631.000000	69.115790
630.000000	69.367867
629.000000	69.615743
628.000000	69.852963
627.000000	70.068139
626.000000	70.263326
625.000000	70.453130
624.000000	70.636169
623.000000	70.793672
622.000000	70.926088
621.000000	71.061760
620.000000	71.221550
619.000000	71.404182
618.000000	71.613994
617.000000	71.869007
616.000000	72.164067
615.000000	72.455981
614.000000	72.700565
613.000000	72.878594
612.000000	72.974461
611.000000	72.966571
610.000000	72.853377
609.000000	72.654125
608.000000	72.369146
607.000000	71.948608
606.000000	71.305699
605.000000	70.304053
604.000000	68.708572
603.000000	66.194179
602.000000	62.418090
601.000000	57.167034
600.000000	50.562958
599.000000	43.251668
598.000000	36.322266
597.000000	30.885472
596.000000	27.646835
595.000000	26.741774
594.000000	27.814513
593.000000	30.242854
592.000000	33.418956
591.000000	36.863681
590.000000	40.234121
589.000000	43.356365
588.000000	46.190352
587.000000	48.749723
586.000000	51.050670
585.000000	53.112149
584.000000	54.953173
583.000000	56.594876
582.000000	58.077761
581.000000	59.455603
580.000000	60.745476
579.000000	61.906044
578.000000	62.911804
577.000000	63.799370
576.000000	64.610513
575.000000	65.333396
574.000000	65.938914
573.000000	66.441925
572.000000	66.877010
571.000000	67.260133
570.000000	67.613545
569.000000	67.981331
568.000000	68.384360
567.000000	68.794105
566.000000	69.182445
565.000000	69.561370
564.000000	69.937953
563.000000	70.278637
562.000000	70.553804
561.000000	70.777006
560.000000	70.968416
559.000000	71.122732
558.000000	71.249521
557.000000	71.398364
556.000000	71.608270
555.000000	71.867848
554.000000	72.153716
553.000000	72.464599
552.000000	72.787317
551.000000	73.073437
550.000000	73.288263
549.000000	73.444433
548.000000	73.560359
547.000000	73.635900
546.000000	73.695000
545.000000	73.796107
544.000000	73.967189
543.000000	74.182076
542.000000	74.420250
541.000000	74.693196
540.000000	74.984239
539.000000	75.226104
538.000000	75.377086
537.000000	75.467453
536.000000	75.535480
535.000000	75.576605
534.000000	75.594354
533.000000	75.638920
532.000000	75.750565
531.000000	75.914135
530.000000	76.104682
529.000000	76.323398
528.000000	76.554488
527.000000	76.745646
526.000000	76.866195
525.000000	76.923900
524.000000	76.899300
523.000000	76.725089
522.000000	76.362579
521.000000	75.837579
520.000000	75.177367
519.000000	74.376640
518.000000	73.466640
517.000000	72.560346
516.000000	71.778601
515.000000	71.183575
514.000000	70.804754
513.000000	70.656164
512.000000	70.679051
511.000000	70.723107
510.000000	70.633697
509.000000	70.319725
508.000000	69.701391
507.000000	68.679013
506.000000	67.206035
505.000000	65.326116
504.000000	63.121160
503.000000	60.744598
502.000000	58.537355
501.000000	56.935976
500.000000	56.191918
499.000000	56.269183
498.000000	56.989124
497.000000	58.125740
496.000000	59.407062
495.000000	60.566190
494.000000	61.452588
493.000000	62.092713
492.000000	62.610460
491.000000	63.128945
490.000000	63.746475
489.000000	64.522613
488.000000	65.433111
487.000000	66.385283
486.000000	67.316016
485.000000	68.239369
484.000000	69.171788
483.000000	70.073424
482.000000	70.914100
481.000000	71.721090
480.000000	72.506988
479.000000	73.226469
478.000000	73.842849
477.000000	74.366565
476.000000	74.781587
475.000000	75.005846
474.000000	75.006681
473.000000	74.890737
472.000000	74.775057
471.000000	74.662569
470.000000	74.555657
469.000000	74.544474
468.000000	74.705923
467.000000	74.998185
466.000000	75.312970
465.000000	75.589039
464.000000	75.789405
463.000000	75.861122
462.000000	75.809831
461.000000	75.726341
460.000000	75.658772
459.000000	75.568013
458.000000	75.484785
457.000000	75.531823
456.000000	75.722129
455.000000	75.930025
454.000000	76.064602
453.000000	76.147258
452.000000	76.188519
451.000000	76.084585
450.000000	75.732017
449.000000	75.145335
448.000000	74.381405
447.000000	73.422943
446.000000	72.216913
445.000000	70.725628
444.000000	68.868189
443.000000	66.518237
442.000000	63.636016
441.000000	60.353042
440.000000	56.871501
439.000000	53.373501
438.000000	50.070231
437.000000	47.294725
436.000000	45.423383
435.000000	44.668904
434.000000	44.985689
433.000000	46.208944
432.000000	48.198457
431.000000	50.736905
430.000000	53.510139
429.000000	56.287889
428.000000	58.961703
427.000000	61.420506
426.000000	63.584053
425.000000	65.519049
424.000000	67.294445
423.000000	68.797366
422.000000	69.907462
421.000000	70.723400
420.000000	71.457181
419.000000	72.297460
418.000000	73.225806
417.000000	74.118612
416.000000	74.965388
415.000000	75.677235
414.000000	76.161781
413.000000	76.521621
412.000000	76.859625
411.000000	77.040899
410.000000	76.979283
409.000000	76.908914
408.000000	77.039721
407.000000	77.304015
406.000000	77.554056
405.000000	77.897091
404.000000	78.389381
403.000000	78.728312
402.000000	78.611548
401.000000	78.182783
400.000000	77.718259
