PE IR       SUBTECH     SPECTRUM    ASCII       PEDS        4.00        
   -1
23MS250_nitrito.asc
24/09/09
16:16:31.00
24/09/09
16:16:31.00
Administrator
Sample 1140 By Administrator Date Monday, September 09 2024
400.000000
#HDR
-1
-1
#GR
cm-1
%T
1.0
0.0
4000.000000
-1.000000
3601
8
85.846874
0.899133
#DATA
4000.000000	62.881868
3999.000000	62.936980
3998.000000	62.994387
3997.000000	63.052615
3996.000000	63.109738
3995.000000	63.164083
3994.000000	63.215059
3993.000000	63.263518
3992.000000	63.311146
3991.000000	63.359393
3990.000000	63.408743
3989.000000	63.458995
3988.000000	63.510033
3987.000000	63.561925
3986.000000	63.614288
3985.000000	63.665821
3984.000000	63.714957
3983.000000	63.760999
3982.000000	63.804626
3981.000000	63.847425
3980.000000	63.891017
3979.000000	63.936345
3978.000000	63.983392
3977.000000	64.031313
3976.000000	64.078716
3975.000000	64.124194
3974.000000	64.167002
3973.000000	64.207509
3972.000000	64.247066
3971.000000	64.287473
3970.000000	64.330233
3969.000000	64.375596
3968.000000	64.422169
3967.000000	64.467673
3966.000000	64.510272
3965.000000	64.549822
3964.000000	64.587903
3963.000000	64.626408
3962.000000	64.666280
3961.000000	64.707449
3960.000000	64.749751
3959.000000	64.793513
3958.000000	64.838900
3957.000000	64.884836
3956.000000	64.929275
3955.000000	64.970761
3954.000000	65.009458
3953.000000	65.046922
3952.000000	65.085159
3951.000000	65.126046
3950.000000	65.170374
3949.000000	65.216339
3948.000000	65.260241
3947.000000	65.299535
3946.000000	65.335529
3945.000000	65.373142
3944.000000	65.417005
3943.000000	65.466651
3942.000000	65.516304
3941.000000	65.561102
3940.000000	65.602282
3939.000000	65.644777
3938.000000	65.690604
3937.000000	65.736135
3936.000000	65.776377
3935.000000	65.810904
3934.000000	65.844920
3933.000000	65.884137
3932.000000	65.929135
3931.000000	65.975405
3930.000000	66.017998
3929.000000	66.056041
3928.000000	66.092843
3927.000000	66.132907
3926.000000	66.178136
3925.000000	66.225397
3924.000000	66.268029
3923.000000	66.301743
3922.000000	66.328948
3921.000000	66.356735
3920.000000	66.391696
3919.000000	66.435998
3918.000000	66.487022
3917.000000	66.539601
3916.000000	66.588617
3915.000000	66.631719
3914.000000	66.670901
3913.000000	66.711033
3912.000000	66.755569
3911.000000	66.803169
3910.000000	66.848862
3909.000000	66.888094
3908.000000	66.919972
3907.000000	66.946386
3906.000000	66.968893
3905.000000	66.987144
3904.000000	66.999868
3903.000000	67.009085
3902.000000	67.023316
3901.000000	67.052937
3900.000000	67.101651
3899.000000	67.162709
3898.000000	67.223328
3897.000000	67.275225
3896.000000	67.318484
3895.000000	67.358758
3894.000000	67.402935
3893.000000	67.454726
3892.000000	67.509957
3891.000000	67.557818
3890.000000	67.590221
3889.000000	67.609228
3888.000000	67.625273
3887.000000	67.651172
3886.000000	67.691234
3885.000000	67.733700
3884.000000	67.763861
3883.000000	67.783845
3882.000000	67.810978
3881.000000	67.858686
3880.000000	67.919836
3879.000000	67.974233
3878.000000	68.011495
3877.000000	68.037671
3876.000000	68.064782
3875.000000	68.099235
3874.000000	68.135223
3873.000000	68.161907
3872.000000	68.178242
3871.000000	68.197168
3870.000000	68.230666
3869.000000	68.273542
3868.000000	68.312061
3867.000000	68.341861
3866.000000	68.371363
3865.000000	68.412032
3864.000000	68.463951
3863.000000	68.515709
3862.000000	68.559073
3861.000000	68.595301
3860.000000	68.630725
3859.000000	68.670625
3858.000000	68.714490
3857.000000	68.754966
3856.000000	68.782358
3855.000000	68.794625
3854.000000	68.801136
3853.000000	68.809404
3852.000000	68.825039
3851.000000	68.857996
3850.000000	68.911584
3849.000000	68.979535
3848.000000	69.053051
3847.000000	69.123493
3846.000000	69.183670
3845.000000	69.229479
3844.000000	69.260389
3843.000000	69.280106
3842.000000	69.294585
3841.000000	69.308963
3840.000000	69.327266
3839.000000	69.352386
3838.000000	69.384835
3837.000000	69.423256
3836.000000	69.465216
3835.000000	69.508058
3834.000000	69.550676
3833.000000	69.595275
3832.000000	69.645052
3831.000000	69.699066
3830.000000	69.752842
3829.000000	69.804109
3828.000000	69.853536
3827.000000	69.900529
3826.000000	69.939999
3825.000000	69.965688
3824.000000	69.977179
3823.000000	69.985175
3822.000000	70.005946
3821.000000	70.042490
3820.000000	70.079885
3819.000000	70.107172
3818.000000	70.128794
3817.000000	70.157817
3816.000000	70.204057
3815.000000	70.262745
3814.000000	70.321086
3813.000000	70.372472
3812.000000	70.419133
3811.000000	70.466019
3810.000000	70.514414
3809.000000	70.560712
3808.000000	70.600393
3807.000000	70.631136
3806.000000	70.652453
3805.000000	70.665287
3804.000000	70.673115
3803.000000	70.684371
3802.000000	70.709153
3801.000000	70.746540
3800.000000	70.786203
3799.000000	70.825108
3798.000000	70.868848
3797.000000	70.922370
3796.000000	70.983193
3795.000000	71.042725
3794.000000	71.094987
3793.000000	71.141854
3792.000000	71.189288
3791.000000	71.240503
3790.000000	71.292803
3789.000000	71.340930
3788.000000	71.382645
3787.000000	71.419672
3786.000000	71.454200
3785.000000	71.485777
3784.000000	71.512561
3783.000000	71.534877
3782.000000	71.557416
3781.000000	71.587473
3780.000000	71.629042
3779.000000	71.677390
3778.000000	71.723320
3777.000000	71.762483
3776.000000	71.797289
3775.000000	71.831668
3774.000000	71.866441
3773.000000	71.899531
3772.000000	71.929664
3771.000000	71.958755
3770.000000	71.988317
3769.000000	72.016735
3768.000000	72.043985
3767.000000	72.074617
3766.000000	72.112713
3765.000000	72.156186
3764.000000	72.197720
3763.000000	72.231791
3762.000000	72.260098
3761.000000	72.290332
3760.000000	72.328137
3759.000000	72.369031
3758.000000	72.404006
3757.000000	72.429963
3756.000000	72.448801
3755.000000	72.461274
3754.000000	72.467208
3753.000000	72.470461
3752.000000	72.478037
3751.000000	72.491197
3750.000000	72.505476
3749.000000	72.522575
3748.000000	72.548687
3747.000000	72.584112
3746.000000	72.627330
3745.000000	72.681440
3744.000000	72.742126
3743.000000	72.799440
3742.000000	72.852756
3741.000000	72.903160
3740.000000	72.947819
3739.000000	72.983936
3738.000000	73.012574
3737.000000	73.041827
3736.000000	73.082111
3735.000000	73.134228
3734.000000	73.187746
3733.000000	73.235941
3732.000000	73.282973
3731.000000	73.335250
3730.000000	73.392504
3729.000000	73.448320
3728.000000	73.499386
3727.000000	73.549400
3726.000000	73.600606
3725.000000	73.648498
3724.000000	73.689740
3723.000000	73.728671
3722.000000	73.771001
3721.000000	73.817128
3720.000000	73.864190
3719.000000	73.909439
3718.000000	73.951189
3717.000000	73.988342
3716.000000	74.019108
3715.000000	74.041566
3714.000000	74.056232
3713.000000	74.068409
3712.000000	74.086751
3711.000000	74.116170
3710.000000	74.155962
3709.000000	74.202885
3708.000000	74.254026
3707.000000	74.308269
3706.000000	74.363455
3705.000000	74.416470
3704.000000	74.466098
3703.000000	74.514776
3702.000000	74.563434
3701.000000	74.607711
3700.000000	74.643665
3699.000000	74.673466
3698.000000	74.702302
3697.000000	74.733163
3696.000000	74.764478
3695.000000	74.791559
3694.000000	74.811890
3693.000000	74.828376
3692.000000	74.847651
3691.000000	74.873266
3690.000000	74.901256
3689.000000	74.923576
3688.000000	74.939649
3687.000000	74.960259
3686.000000	74.994158
3685.000000	75.039770
3684.000000	75.090417
3683.000000	75.140623
3682.000000	75.186073
3681.000000	75.222521
3680.000000	75.246408
3679.000000	75.254572
3678.000000	75.243933
3677.000000	75.219630
3676.000000	75.199809
3675.000000	75.196557
3674.000000	75.204654
3673.000000	75.216738
3672.000000	75.233697
3671.000000	75.267993
3670.000000	75.328884
3669.000000	75.401674
3668.000000	75.465365
3667.000000	75.516461
3666.000000	75.562014
3665.000000	75.608162
3664.000000	75.656666
3663.000000	75.705669
3662.000000	75.751887
3661.000000	75.790526
3660.000000	75.815414
3659.000000	75.821925
3658.000000	75.810707
3657.000000	75.789112
3656.000000	75.765989
3655.000000	75.746927
3654.000000	75.733295
3653.000000	75.722341
3652.000000	75.710243
3651.000000	75.695352
3650.000000	75.676098
3649.000000	75.651467
3648.000000	75.631445
3647.000000	75.631337
3646.000000	75.654483
3645.000000	75.692080
3644.000000	75.736258
3643.000000	75.783699
3642.000000	75.830581
3641.000000	75.868799
3640.000000	75.890252
3639.000000	75.893438
3638.000000	75.881795
3637.000000	75.859020
3636.000000	75.828313
3635.000000	75.794955
3634.000000	75.764146
3633.000000	75.735011
3632.000000	75.700822
3631.000000	75.657224
3630.000000	75.611616
3629.000000	75.575378
3628.000000	75.547959
3627.000000	75.527422
3626.000000	75.517580
3625.000000	75.517879
3624.000000	75.523104
3623.000000	75.527347
3622.000000	75.523182
3621.000000	75.504280
3620.000000	75.469977
3619.000000	75.424257
3618.000000	75.371686
3617.000000	75.317997
3616.000000	75.269126
3615.000000	75.230276
3614.000000	75.203621
3613.000000	75.184320
3612.000000	75.163245
3611.000000	75.135436
3610.000000	75.104190
3609.000000	75.077827
3608.000000	75.061110
3607.000000	75.050542
3606.000000	75.039397
3605.000000	75.024426
3604.000000	75.007421
3603.000000	74.992694
3602.000000	74.981181
3601.000000	74.968770
3600.000000	74.949290
3599.000000	74.917675
3598.000000	74.872598
3597.000000	74.818250
3596.000000	74.763258
3595.000000	74.716095
3594.000000	74.678891
3593.000000	74.646399
3592.000000	74.612420
3591.000000	74.573933
3590.000000	74.533002
3589.000000	74.497349
3588.000000	74.474538
3587.000000	74.461452
3586.000000	74.447082
3585.000000	74.426367
3584.000000	74.403813
3583.000000	74.386200
3582.000000	74.374753
3581.000000	74.364216
3580.000000	74.348173
3579.000000	74.323835
3578.000000	74.291853
3577.000000	74.254155
3576.000000	74.214132
3575.000000	74.175810
3574.000000	74.141859
3573.000000	74.111349
3572.000000	74.080711
3571.000000	74.044853
3570.000000	73.998855
3569.000000	73.943395
3568.000000	73.887815
3567.000000	73.842314
3566.000000	73.808163
3565.000000	73.782412
3564.000000	73.765373
3563.000000	73.759592
3562.000000	73.763992
3561.000000	73.771505
3560.000000	73.773164
3559.000000	73.763204
3558.000000	73.740310
3557.000000	73.705963
3556.000000	73.664374
3555.000000	73.621884
3554.000000	73.584202
3553.000000	73.553174
3552.000000	73.526195
3551.000000	73.498950
3550.000000	73.468819
3549.000000	73.437519
3548.000000	73.410566
3547.000000	73.391870
3546.000000	73.377785
3545.000000	73.359822
3544.000000	73.333908
3543.000000	73.303253
3542.000000	73.272442
3541.000000	73.242777
3540.000000	73.214387
3539.000000	73.188240
3538.000000	73.163741
3537.000000	73.136512
3536.000000	73.101245
3535.000000	73.057204
3534.000000	73.008844
3533.000000	72.962350
3532.000000	72.921766
3531.000000	72.887125
3530.000000	72.854470
3529.000000	72.819020
3528.000000	72.779583
3527.000000	72.739352
3526.000000	72.702135
3525.000000	72.668769
3524.000000	72.637054
3523.000000	72.603667
3522.000000	72.566723
3521.000000	72.527640
3520.000000	72.490106
3519.000000	72.455806
3518.000000	72.421798
3517.000000	72.383798
3516.000000	72.340692
3515.000000	72.293936
3514.000000	72.243238
3513.000000	72.186592
3512.000000	72.124975
3511.000000	72.063646
3510.000000	72.006781
3509.000000	71.953492
3508.000000	71.900390
3507.000000	71.846342
3506.000000	71.793149
3505.000000	71.743068
3504.000000	71.695989
3503.000000	71.647914
3502.000000	71.593224
3501.000000	71.530182
3500.000000	71.463298
3499.000000	71.397961
3498.000000	71.333890
3497.000000	71.266069
3496.000000	71.191463
3495.000000	71.112003
3494.000000	71.031028
3493.000000	70.949881
3492.000000	70.868920
3491.000000	70.788910
3490.000000	70.709854
3489.000000	70.630287
3488.000000	70.548342
3487.000000	70.462045
3486.000000	70.369236
3485.000000	70.269910
3484.000000	70.168829
3483.000000	70.073126
3482.000000	69.985446
3481.000000	69.900962
3480.000000	69.811544
3479.000000	69.711821
3478.000000	69.601447
3477.000000	69.484116
3476.000000	69.365198
3475.000000	69.248310
3474.000000	69.134013
3473.000000	69.022446
3472.000000	68.915496
3471.000000	68.813766
3470.000000	68.712241
3469.000000	68.602181
3468.000000	68.477968
3467.000000	68.340346
3466.000000	68.194034
3465.000000	68.045003
3464.000000	67.899378
3463.000000	67.760803
3462.000000	67.627150
3461.000000	67.491914
3460.000000	67.349808
3459.000000	67.200099
3458.000000	67.045282
3457.000000	66.888675
3456.000000	66.733118
3455.000000	66.579508
3454.000000	66.425888
3453.000000	66.269480
3452.000000	66.109224
3451.000000	65.945343
3450.000000	65.777466
3449.000000	65.605301
3448.000000	65.430465
3447.000000	65.255130
3446.000000	65.079496
3445.000000	64.902687
3444.000000	64.725073
3443.000000	64.547485
3442.000000	64.369088
3441.000000	64.188495
3440.000000	64.006242
3439.000000	63.823659
3438.000000	63.639575
3437.000000	63.450172
3436.000000	63.252055
3435.000000	63.044032
3434.000000	62.826779
3433.000000	62.603150
3432.000000	62.376945
3431.000000	62.149244
3430.000000	61.916589
3429.000000	61.674992
3428.000000	61.425280
3427.000000	61.171919
3426.000000	60.918154
3425.000000	60.664516
3424.000000	60.410457
3423.000000	60.154412
3422.000000	59.892496
3421.000000	59.620548
3420.000000	59.337880
3419.000000	59.047308
3418.000000	58.752449
3417.000000	58.456536
3416.000000	58.162241
3415.000000	57.869304
3414.000000	57.572520
3413.000000	57.265199
3412.000000	56.944257
3411.000000	56.610526
3410.000000	56.265254
3409.000000	55.908831
3408.000000	55.543002
3407.000000	55.171395
3406.000000	54.797928
3405.000000	54.425895
3404.000000	54.056806
3403.000000	53.687760
3402.000000	53.309955
3401.000000	52.912721
3400.000000	52.490371
3399.000000	52.045152
3398.000000	51.585293
3397.000000	51.120924
3396.000000	50.659457
3395.000000	50.202158
3394.000000	49.743935
3393.000000	49.277114
3392.000000	48.795179
3391.000000	48.293755
3390.000000	47.772265
3389.000000	47.235397
3388.000000	46.690911
3387.000000	46.143886
3386.000000	45.594078
3385.000000	45.039841
3384.000000	44.480625
3383.000000	43.914971
3382.000000	43.339064
3381.000000	42.749722
3380.000000	42.147227
3379.000000	41.533336
3378.000000	40.909135
3377.000000	40.276364
3376.000000	39.637935
3375.000000	38.995678
3374.000000	38.349172
3373.000000	37.697683
3372.000000	37.040881
3371.000000	36.376034
3370.000000	35.698690
3369.000000	35.007309
3368.000000	34.304970
3367.000000	33.595750
3366.000000	32.882082
3365.000000	32.166707
3364.000000	31.452717
3363.000000	30.739916
3362.000000	30.024468
3361.000000	29.303506
3360.000000	28.577618
3359.000000	27.848211
3358.000000	27.116081
3357.000000	26.383922
3356.000000	25.656017
3355.000000	24.934021
3354.000000	24.216159
3353.000000	23.501290
3352.000000	22.790231
3351.000000	22.082668
3350.000000	21.376847
3349.000000	20.673494
3348.000000	19.976410
3347.000000	19.288055
3346.000000	18.608530
3345.000000	17.938955
3344.000000	17.281554
3343.000000	16.636029
3342.000000	15.999618
3341.000000	15.371967
3340.000000	14.755802
3339.000000	14.152429
3338.000000	13.561289
3337.000000	12.983563
3336.000000	12.422344
3335.000000	11.878336
3334.000000	11.349362
3333.000000	10.835050
3332.000000	10.336818
3331.000000	9.853924
3330.000000	9.383834
3329.000000	8.926428
3328.000000	8.484876
3327.000000	8.061083
3326.000000	7.655145
3325.000000	7.268439
3324.000000	6.902224
3323.000000	6.554321
3322.000000	6.220742
3321.000000	5.900653
3320.000000	5.596257
3319.000000	5.307341
3318.000000	5.032227
3317.000000	4.771687
3316.000000	4.527844
3315.000000	4.299688
3314.000000	4.083663
3313.000000	3.878818
3312.000000	3.686398
3311.000000	3.505200
3310.000000	3.332906
3309.000000	3.170398
3308.000000	3.021134
3307.000000	2.886361
3306.000000	2.765103
3305.000000	2.658166
3304.000000	2.565976
3303.000000	2.484519
3302.000000	2.407766
3301.000000	2.333522
3300.000000	2.263094
3299.000000	2.196313
3298.000000	2.132157
3297.000000	2.072799
3296.000000	2.021394
3295.000000	1.977175
3294.000000	1.937243
3293.000000	1.902250
3292.000000	1.875221
3291.000000	1.855204
3290.000000	1.837916
3289.000000	1.821413
3288.000000	1.806638
3287.000000	1.793282
3286.000000	1.779828
3285.000000	1.767414
3284.000000	1.758484
3283.000000	1.752414
3282.000000	1.746672
3281.000000	1.741276
3280.000000	1.737853
3279.000000	1.735341
3278.000000	1.731417
3277.000000	1.727068
3276.000000	1.725006
3275.000000	1.724602
3274.000000	1.723096
3273.000000	1.721155
3272.000000	1.722470
3271.000000	1.728420
3270.000000	1.737420
3269.000000	1.748574
3268.000000	1.761629
3267.000000	1.774347
3266.000000	1.784295
3265.000000	1.792567
3264.000000	1.801912
3263.000000	1.812106
3262.000000	1.821203
3261.000000	1.829745
3260.000000	1.839532
3259.000000	1.849695
3258.000000	1.858338
3257.000000	1.866899
3256.000000	1.878344
3255.000000	1.892300
3254.000000	1.906039
3253.000000	1.919106
3252.000000	1.932633
3251.000000	1.945532
3250.000000	1.955902
3249.000000	1.965233
3248.000000	1.976936
3247.000000	1.991487
3246.000000	2.006909
3245.000000	2.022753
3244.000000	2.039752
3243.000000	2.056696
3242.000000	2.071827
3241.000000	2.086095
3240.000000	2.101328
3239.000000	2.116323
3238.000000	2.128597
3237.000000	2.138592
3236.000000	2.148691
3235.000000	2.159610
3234.000000	2.171320
3233.000000	2.185589
3232.000000	2.203498
3231.000000	2.222145
3230.000000	2.237864
3229.000000	2.251100
3228.000000	2.264367
3227.000000	2.277437
3226.000000	2.288600
3225.000000	2.298844
3224.000000	2.310264
3223.000000	2.321944
3222.000000	2.331522
3221.000000	2.339459
3220.000000	2.347710
3219.000000	2.355738
3218.000000	2.361869
3217.000000	2.367063
3216.000000	2.373293
3215.000000	2.379716
3214.000000	2.384275
3213.000000	2.387621
3212.000000	2.391546
3211.000000	2.395191
3210.000000	2.396663
3209.000000	2.396762
3208.000000	2.397338
3207.000000	2.397585
3206.000000	2.395678
3205.000000	2.392459
3204.000000	2.389700
3203.000000	2.386563
3202.000000	2.381467
3201.000000	2.375602
3200.000000	2.370831
3199.000000	2.365878
3198.000000	2.358527
3197.000000	2.349748
3196.000000	2.341852
3195.000000	2.334360
3194.000000	2.325513
3193.000000	2.315976
3192.000000	2.307283
3191.000000	2.298373
3190.000000	2.287553
3189.000000	2.276093
3188.000000	2.266209
3187.000000	2.257204
3186.000000	2.247258
3185.000000	2.237124
3184.000000	2.228408
3183.000000	2.220121
3182.000000	2.210610
3181.000000	2.201092
3180.000000	2.193571
3179.000000	2.187206
3178.000000	2.180213
3177.000000	2.173411
3176.000000	2.168315
3175.000000	2.163818
3174.000000	2.158368
3173.000000	2.153325
3172.000000	2.150567
3171.000000	2.148931
3170.000000	2.146578
3169.000000	2.144697
3168.000000	2.145254
3167.000000	2.147186
3166.000000	2.148595
3165.000000	2.150505
3164.000000	2.154749
3163.000000	2.160270
3162.000000	2.165165
3161.000000	2.170389
3160.000000	2.177793
3159.000000	2.186532
3158.000000	2.194910
3157.000000	2.203596
3156.000000	2.213696
3155.000000	2.224080
3154.000000	2.234196
3153.000000	2.247157
3152.000000	2.265945
3151.000000	2.288795
3150.000000	2.311899
3149.000000	2.334586
3148.000000	2.358310
3147.000000	2.382821
3146.000000	2.407233
3145.000000	2.432721
3144.000000	2.460319
3143.000000	2.488155
3142.000000	2.514410
3141.000000	2.541203
3140.000000	2.572001
3139.000000	2.607034
3138.000000	2.644642
3137.000000	2.684801
3136.000000	2.727817
3135.000000	2.771739
3134.000000	2.814563
3133.000000	2.857441
3132.000000	2.902392
3131.000000	2.948976
3130.000000	2.996299
3129.000000	3.045864
3128.000000	3.099233
3127.000000	3.154890
3126.000000	3.210623
3125.000000	3.266831
3124.000000	3.324453
3123.000000	3.382297
3122.000000	3.439665
3121.000000	3.499113
3120.000000	3.563324
3119.000000	3.631426
3118.000000	3.701800
3117.000000	3.775843
3116.000000	3.855404
3115.000000	3.938863
3114.000000	4.023042
3113.000000	4.107146
3112.000000	4.191736
3111.000000	4.276359
3110.000000	4.361475
3109.000000	4.450188
3108.000000	4.544703
3107.000000	4.643106
3106.000000	4.742521
3105.000000	4.843173
3104.000000	4.946282
3103.000000	5.050790
3102.000000	5.155580
3101.000000	5.262444
3100.000000	5.373637
3099.000000	5.488360
3098.000000	5.604905
3097.000000	5.723937
3096.000000	5.846440
3095.000000	5.970881
3094.000000	6.095432
3093.000000	6.220992
3092.000000	6.349170
3091.000000	6.479399
3090.000000	6.610892
3089.000000	6.744945
3088.000000	6.882490
3087.000000	7.021879
3086.000000	7.161791
3085.000000	7.303985
3084.000000	7.450116
3083.000000	7.598415
3082.000000	7.746669
3081.000000	7.895907
3080.000000	8.048261
3079.000000	8.203494
3078.000000	8.360693
3077.000000	8.520963
3076.000000	8.685109
3075.000000	8.850972
3074.000000	9.016116
3073.000000	9.180992
3072.000000	9.346727
3071.000000	9.512095
3070.000000	9.676001
3069.000000	9.840751
3068.000000	10.009523
3067.000000	10.182437
3066.000000	10.357753
3065.000000	10.535030
3064.000000	10.714101
3063.000000	10.892955
3062.000000	11.069769
3061.000000	11.245439
3060.000000	11.421674
3059.000000	11.598461
3058.000000	11.775759
3057.000000	11.955482
3056.000000	12.138907
3055.000000	12.323976
3054.000000	12.507991
3053.000000	12.691180
3052.000000	12.875135
3051.000000	13.059568
3050.000000	13.243327
3049.000000	13.426914
3048.000000	13.611382
3047.000000	13.796348
3046.000000	13.981416
3045.000000	14.167916
3044.000000	14.356908
3043.000000	14.547054
3042.000000	14.736613
3041.000000	14.925734
3040.000000	15.114760
3039.000000	15.302376
3038.000000	15.487875
3037.000000	15.673423
3036.000000	15.861625
3035.000000	16.052384
3034.000000	16.244234
3033.000000	16.436899
3032.000000	16.630227
3031.000000	16.822452
3030.000000	17.012038
3029.000000	17.199874
3028.000000	17.387667
3027.000000	17.575768
3026.000000	17.764381
3025.000000	17.954855
3024.000000	18.147505
3023.000000	18.339939
3022.000000	18.529850
3021.000000	18.717809
3020.000000	18.905319
3019.000000	19.091948
3018.000000	19.276823
3017.000000	19.461215
3016.000000	19.647199
3015.000000	19.835081
3014.000000	20.024275
3013.000000	20.215226
3012.000000	20.408138
3011.000000	20.601146
3010.000000	20.791944
3009.000000	20.980282
3008.000000	21.167129
3007.000000	21.352800
3006.000000	21.537663
3005.000000	21.723214
3004.000000	21.910418
3003.000000	22.097992
3002.000000	22.284100
3001.000000	22.468619
3000.000000	22.652332
2999.000000	22.835269
2998.000000	23.017428
2997.000000	23.199737
2996.000000	23.382731
2995.000000	23.565690
2994.000000	23.748505
2993.000000	23.932751
2992.000000	24.119140
2991.000000	24.305498
2990.000000	24.489167
2989.000000	24.670016
2988.000000	24.849398
2987.000000	25.027691
2986.000000	25.204831
2985.000000	25.381930
2984.000000	25.560228
2983.000000	25.739384
2982.000000	25.918553
2981.000000	26.097925
2980.000000	26.277531
2979.000000	26.455745
2978.000000	26.631037
2977.000000	26.804326
2976.000000	26.977833
2975.000000	27.152474
2974.000000	27.327970
2973.000000	27.504345
2972.000000	27.681467
2971.000000	27.857937
2970.000000	28.032273
2969.000000	28.204623
2968.000000	28.375793
2967.000000	28.545617
2966.000000	28.713842
2965.000000	28.881776
2964.000000	29.051228
2963.000000	29.222343
2962.000000	29.393988
2961.000000	29.565402
2960.000000	29.735993
2959.000000	29.904418
2958.000000	30.069513
2957.000000	30.231757
2956.000000	30.392638
2955.000000	30.553412
2954.000000	30.715362
2953.000000	30.879815
2952.000000	31.046445
2951.000000	31.212645
2950.000000	31.376079
2949.000000	31.536821
2948.000000	31.695822
2947.000000	31.852745
2946.000000	32.007087
2945.000000	32.160147
2944.000000	32.313958
2943.000000	32.468952
2942.000000	32.624384
2941.000000	32.780163
2940.000000	32.936359
2939.000000	33.091606
2938.000000	33.243888
2937.000000	33.392672
2936.000000	33.538852
2935.000000	33.683230
2934.000000	33.826757
2933.000000	33.971595
2932.000000	34.119791
2931.000000	34.270794
2930.000000	34.421599
2929.000000	34.569396
2928.000000	34.712897
2927.000000	34.851894
2926.000000	34.987187
2925.000000	35.120960
2924.000000	35.255835
2923.000000	35.393448
2922.000000	35.534627
2921.000000	35.679902
2920.000000	35.828447
2919.000000	35.977127
2918.000000	36.122282
2917.000000	36.262322
2916.000000	36.397554
2915.000000	36.528311
2914.000000	36.654875
2913.000000	36.778997
2912.000000	36.903661
2911.000000	37.030909
2910.000000	37.160663
2909.000000	37.291479
2908.000000	37.421399
2907.000000	37.548349
2906.000000	37.671045
2905.000000	37.789998
2904.000000	37.907100
2903.000000	38.024319
2902.000000	38.143186
2901.000000	38.265112
2900.000000	38.390161
2899.000000	38.516304
2898.000000	38.640182
2897.000000	38.758969
2896.000000	38.871334
2895.000000	38.977458
2894.000000	39.079465
2893.000000	39.181347
2892.000000	39.286836
2891.000000	39.396941
2890.000000	39.509928
2889.000000	39.623255
2888.000000	39.734602
2887.000000	39.841797
2886.000000	39.943720
2885.000000	40.041746
2884.000000	40.139386
2883.000000	40.240247
2882.000000	40.346791
2881.000000	40.460410
2880.000000	40.580985
2879.000000	40.706270
2878.000000	40.833212
2877.000000	40.960271
2876.000000	41.087347
2875.000000	41.213311
2874.000000	41.335388
2873.000000	41.452189
2872.000000	41.566437
2871.000000	41.683402
2870.000000	41.806738
2869.000000	41.935941
2868.000000	42.066943
2867.000000	42.194535
2866.000000	42.315097
2865.000000	42.428550
2864.000000	42.538414
2863.000000	42.649536
2862.000000	42.765229
2861.000000	42.885667
2860.000000	43.008222
2859.000000	43.129143
2858.000000	43.245629
2857.000000	43.356886
2856.000000	43.463597
2855.000000	43.566831
2854.000000	43.668165
2853.000000	43.770513
2852.000000	43.877603
2851.000000	43.991770
2850.000000	44.112040
2849.000000	44.234105
2848.000000	44.352067
2847.000000	44.461191
2846.000000	44.560349
2845.000000	44.652541
2844.000000	44.743213
2843.000000	44.838004
2842.000000	44.941309
2841.000000	45.054702
2840.000000	45.174953
2839.000000	45.294402
2838.000000	45.405715
2837.000000	45.506889
2836.000000	45.600892
2835.000000	45.691145
2834.000000	45.779342
2833.000000	45.867535
2832.000000	45.959677
2831.000000	46.059307
2830.000000	46.166725
2829.000000	46.279199
2828.000000	46.392910
2827.000000	46.503936
2826.000000	46.608990
2825.000000	46.707089
2824.000000	46.800511
2823.000000	46.893344
2822.000000	46.989298
2821.000000	47.090710
2820.000000	47.198115
2819.000000	47.309496
2818.000000	47.420576
2817.000000	47.526956
2816.000000	47.626150
2815.000000	47.717908
2814.000000	47.804088
2813.000000	47.888781
2812.000000	47.976913
2811.000000	48.071018
2810.000000	48.169593
2809.000000	48.269214
2808.000000	48.367204
2807.000000	48.461527
2806.000000	48.549751
2805.000000	48.630136
2804.000000	48.703691
2803.000000	48.774117
2802.000000	48.845839
2801.000000	48.922420
2800.000000	49.005293
2799.000000	49.092492
2798.000000	49.179077
2797.000000	49.260310
2796.000000	49.334665
2795.000000	49.403656
2794.000000	49.469973
2793.000000	49.536913
2792.000000	49.608235
2791.000000	49.686282
2790.000000	49.770017
2789.000000	49.855840
2788.000000	49.940095
2787.000000	50.020112
2786.000000	50.093940
2785.000000	50.160955
2784.000000	50.222905
2783.000000	50.283310
2782.000000	50.345594
2781.000000	50.412090
2780.000000	50.483799
2779.000000	50.559726
2778.000000	50.636553
2777.000000	50.709808
2776.000000	50.775574
2775.000000	50.831116
2774.000000	50.875377
2773.000000	50.910199
2772.000000	50.940042
2771.000000	50.969107
2770.000000	50.998661
2769.000000	51.027425
2768.000000	51.053493
2767.000000	51.074687
2766.000000	51.088526
2765.000000	51.093692
2764.000000	51.091227
2763.000000	51.083485
2762.000000	51.072377
2761.000000	51.059622
2760.000000	51.047350
2759.000000	51.036564
2758.000000	51.025646
2757.000000	51.011611
2756.000000	50.992646
2755.000000	50.968707
2754.000000	50.940624
2753.000000	50.910137
2752.000000	50.879902
2751.000000	50.851830
2750.000000	50.825427
2749.000000	50.798346
2748.000000	50.767948
2747.000000	50.731524
2746.000000	50.686457
2745.000000	50.632060
2744.000000	50.570722
2743.000000	50.506370
2742.000000	50.442586
2741.000000	50.382994
2740.000000	50.332101
2739.000000	50.293927
2738.000000	50.270127
2737.000000	50.261057
2736.000000	50.267886
2735.000000	50.292200
2734.000000	50.334809
2733.000000	50.395681
2732.000000	50.474874
2731.000000	50.572294
2730.000000	50.686233
2729.000000	50.813942
2728.000000	50.952502
2727.000000	51.098392
2726.000000	51.247473
2725.000000	51.396391
2724.000000	51.544030
2723.000000	51.690250
2722.000000	51.833851
2721.000000	51.973190
2720.000000	52.107805
2719.000000	52.237692
2718.000000	52.361656
2717.000000	52.477994
2716.000000	52.586122
2715.000000	52.686305
2714.000000	52.778054
2713.000000	52.860568
2712.000000	52.934352
2711.000000	53.000260
2710.000000	53.057981
2709.000000	53.106801
2708.000000	53.147441
2707.000000	53.181707
2706.000000	53.210321
2705.000000	53.233282
2704.000000	53.251393
2703.000000	53.265460
2702.000000	53.274621
2701.000000	53.276923
2700.000000	53.271833
2699.000000	53.260486
2698.000000	53.243997
2697.000000	53.223483
2696.000000	53.200961
2695.000000	53.178508
2694.000000	53.156492
2693.000000	53.133912
2692.000000	53.110118
2691.000000	53.084554
2690.000000	53.055702
2689.000000	53.022299
2688.000000	52.985398
2687.000000	52.947795
2686.000000	52.911696
2685.000000	52.878239
2684.000000	52.848387
2683.000000	52.822114
2682.000000	52.796939
2681.000000	52.769071
2680.000000	52.736276
2679.000000	52.698864
2678.000000	52.658865
2677.000000	52.619838
2676.000000	52.586753
2675.000000	52.563727
2674.000000	52.551454
2673.000000	52.547897
2672.000000	52.550605
2671.000000	52.557248
2670.000000	52.564920
2669.000000	52.571169
2668.000000	52.576321
2667.000000	52.583166
2666.000000	52.594666
2665.000000	52.612951
2664.000000	52.639286
2663.000000	52.673087
2662.000000	52.710734
2661.000000	52.747021
2660.000000	52.778200
2659.000000	52.803100
2658.000000	52.822648
2657.000000	52.840062
2656.000000	52.860891
2655.000000	52.890734
2654.000000	52.932059
2653.000000	52.984077
2652.000000	53.044570
2651.000000	53.110604
2650.000000	53.178729
2649.000000	53.246717
2648.000000	53.316097
2647.000000	53.391578
2646.000000	53.478015
2645.000000	53.578922
2644.000000	53.695746
2643.000000	53.826526
2642.000000	53.964884
2641.000000	54.102017
2640.000000	54.230606
2639.000000	54.346481
2638.000000	54.448517
2637.000000	54.539321
2636.000000	54.625433
2635.000000	54.713958
2634.000000	54.808154
2633.000000	54.906457
2632.000000	55.004496
2631.000000	55.096396
2630.000000	55.174994
2629.000000	55.234807
2628.000000	55.275657
2627.000000	55.302397
2626.000000	55.321847
2625.000000	55.340638
2624.000000	55.364720
2623.000000	55.397037
2622.000000	55.434748
2621.000000	55.470745
2620.000000	55.497945
2619.000000	55.512012
2618.000000	55.511537
2617.000000	55.498625
2616.000000	55.479545
2615.000000	55.461835
2614.000000	55.449677
2613.000000	55.442347
2612.000000	55.435638
2611.000000	55.423402
2610.000000	55.398559
2609.000000	55.356367
2608.000000	55.298212
2607.000000	55.231322
2606.000000	55.165358
2605.000000	55.109739
2604.000000	55.071959
2603.000000	55.054808
2602.000000	55.054460
2601.000000	55.062575
2600.000000	55.070910
2599.000000	55.074026
2598.000000	55.069796
2597.000000	55.061128
2596.000000	55.056229
2595.000000	55.064892
2594.000000	55.093238
2593.000000	55.141678
2592.000000	55.206540
2591.000000	55.280774
2590.000000	55.354712
2589.000000	55.419927
2588.000000	55.473717
2587.000000	55.519771
2586.000000	55.564979
2585.000000	55.617088
2584.000000	55.683478
2583.000000	55.767808
2582.000000	55.867022
2581.000000	55.972966
2580.000000	56.077462
2579.000000	56.175466
2578.000000	56.265095
2577.000000	56.348551
2576.000000	56.432878
2575.000000	56.527071
2574.000000	56.637075
2573.000000	56.763322
2572.000000	56.901625
2571.000000	57.043790
2570.000000	57.178583
2569.000000	57.296039
2568.000000	57.392775
2567.000000	57.472513
2566.000000	57.542488
2565.000000	57.611045
2564.000000	57.686296
2563.000000	57.772714
2562.000000	57.867042
2561.000000	57.959415
2560.000000	58.039222
2559.000000	58.098885
2558.000000	58.135083
2557.000000	58.150242
2556.000000	58.153839
2555.000000	58.159475
2554.000000	58.178940
2553.000000	58.219279
2552.000000	58.282933
2551.000000	58.367352
2550.000000	58.464471
2549.000000	58.564789
2548.000000	58.663044
2547.000000	58.759551
2546.000000	58.857555
2545.000000	58.961006
2544.000000	59.074534
2543.000000	59.200551
2542.000000	59.335254
2541.000000	59.469225
2540.000000	59.592341
2539.000000	59.697000
2538.000000	59.778730
2537.000000	59.837971
2536.000000	59.881579
2535.000000	59.920263
2534.000000	59.962769
2533.000000	60.013317
2532.000000	60.072509
2531.000000	60.136601
2530.000000	60.197262
2529.000000	60.245573
2528.000000	60.278271
2527.000000	60.298941
2526.000000	60.314246
2525.000000	60.331787
2524.000000	60.359996
2523.000000	60.405212
2522.000000	60.467079
2521.000000	60.538836
2520.000000	60.612057
2519.000000	60.679860
2518.000000	60.737311
2517.000000	60.783034
2516.000000	60.821438
2515.000000	60.860468
2514.000000	60.906439
2513.000000	60.961933
2512.000000	61.026746
2511.000000	61.097096
2510.000000	61.164613
2509.000000	61.220111
2508.000000	61.259716
2507.000000	61.286039
2506.000000	61.304458
2505.000000	61.321436
2504.000000	61.344791
2503.000000	61.380576
2502.000000	61.428424
2501.000000	61.481976
2500.000000	61.533844
2499.000000	61.578217
2498.000000	61.610372
2497.000000	61.628525
2496.000000	61.636732
2495.000000	61.642943
2494.000000	61.653517
2493.000000	61.671196
2492.000000	61.696885
2491.000000	61.729230
2490.000000	61.762771
2489.000000	61.790495
2488.000000	61.809153
2487.000000	61.820182
2486.000000	61.826414
2485.000000	61.831182
2484.000000	61.839546
2483.000000	61.855904
2482.000000	61.879531
2481.000000	61.905094
2480.000000	61.927470
2479.000000	61.943653
2478.000000	61.951160
2477.000000	61.949235
2476.000000	61.942058
2475.000000	61.937220
2474.000000	61.940158
2473.000000	61.952091
2472.000000	61.972169
2471.000000	61.997927
2470.000000	62.023785
2469.000000	62.043198
2468.000000	62.053298
2467.000000	62.055497
2466.000000	62.052284
2465.000000	62.046571
2464.000000	62.043325
2463.000000	62.047470
2462.000000	62.059440
2461.000000	62.075342
2460.000000	62.091436
2459.000000	62.105795
2458.000000	62.116534
2457.000000	62.122449
2456.000000	62.125642
2455.000000	62.130343
2454.000000	62.138671
2453.000000	62.149942
2452.000000	62.163291
2451.000000	62.177761
2450.000000	62.190307
2449.000000	62.197524
2448.000000	62.199562
2447.000000	62.199836
2446.000000	62.201283
2445.000000	62.205777
2444.000000	62.215959
2443.000000	62.233612
2442.000000	62.256188
2441.000000	62.278240
2440.000000	62.296284
2439.000000	62.309626
2438.000000	62.317617
2437.000000	62.319992
2436.000000	62.319667
2435.000000	62.321460
2434.000000	62.327790
2433.000000	62.338264
2432.000000	62.352554
2431.000000	62.370198
2430.000000	62.388299
2429.000000	62.403331
2428.000000	62.415279
2427.000000	62.426936
2426.000000	62.439614
2425.000000	62.452938
2424.000000	62.467747
2423.000000	62.485181
2422.000000	62.503102
2421.000000	62.517363
2420.000000	62.526600
2419.000000	62.532731
2418.000000	62.537462
2417.000000	62.542109
2416.000000	62.550132
2415.000000	62.565511
2414.000000	62.588173
2413.000000	62.614162
2412.000000	62.640054
2411.000000	62.663971
2410.000000	62.683320
2409.000000	62.695918
2408.000000	62.703549
2407.000000	62.710892
2406.000000	62.720910
2405.000000	62.734287
2404.000000	62.752202
2403.000000	62.775456
2402.000000	62.801195
2401.000000	62.824617
2400.000000	62.844180
2399.000000	62.862139
2398.000000	62.880542
2397.000000	62.900561
2396.000000	62.924735
2395.000000	62.955378
2394.000000	62.990432
2393.000000	63.024593
2392.000000	63.054531
2391.000000	63.080046
2390.000000	63.101218
2389.000000	63.118754
2388.000000	63.137045
2387.000000	63.162627
2386.000000	63.199197
2385.000000	63.246987
2384.000000	63.305486
2383.000000	63.373242
2382.000000	63.445175
2381.000000	63.515047
2380.000000	63.581213
2379.000000	63.646222
2378.000000	63.712064
2377.000000	63.779462
2376.000000	63.851113
2375.000000	63.929759
2374.000000	64.013126
2373.000000	64.094297
2372.000000	64.168685
2371.000000	64.235934
2370.000000	64.295599
2369.000000	64.347641
2368.000000	64.397478
2367.000000	64.452998
2366.000000	64.515860
2365.000000	64.582168
2364.000000	64.652258
2363.000000	64.724803
2362.000000	64.792624
2361.000000	64.851644
2360.000000	64.902533
2359.000000	64.953028
2358.000000	65.007825
2357.000000	65.065272
2356.000000	65.130822
2355.000000	65.202589
2354.000000	65.274129
2353.000000	65.336415
2352.000000	65.395040
2351.000000	65.461511
2350.000000	65.527070
2349.000000	65.580420
2348.000000	65.621233
2347.000000	65.667473
2346.000000	65.737015
2345.000000	65.821401
2344.000000	65.908275
2343.000000	65.980676
2342.000000	66.041136
2341.000000	66.093468
2340.000000	66.139532
2339.000000	66.184043
2338.000000	66.227045
2337.000000	66.272732
2336.000000	66.323004
2335.000000	66.385015
2334.000000	66.452632
2333.000000	66.521180
2332.000000	66.580417
2331.000000	66.637780
2330.000000	66.685419
2329.000000	66.731963
2328.000000	66.777822
2327.000000	66.835223
2326.000000	66.905119
2325.000000	66.982517
2324.000000	67.064775
2323.000000	67.144844
2322.000000	67.215430
2321.000000	67.268190
2320.000000	67.302660
2319.000000	67.329457
2318.000000	67.352537
2317.000000	67.380341
2316.000000	67.413870
2315.000000	67.463445
2314.000000	67.522313
2313.000000	67.587199
2312.000000	67.646485
2311.000000	67.701992
2310.000000	67.747305
2309.000000	67.784202
2308.000000	67.813028
2307.000000	67.844060
2306.000000	67.879017
2305.000000	67.919320
2304.000000	67.962066
2303.000000	68.009110
2302.000000	68.054831
2301.000000	68.096133
2300.000000	68.130372
2299.000000	68.164005
2298.000000	68.198705
2297.000000	68.237378
2296.000000	68.280917
2295.000000	68.332260
2294.000000	68.386564
2293.000000	68.436088
2292.000000	68.475875
2291.000000	68.506684
2290.000000	68.529705
2289.000000	68.546081
2288.000000	68.561821
2287.000000	68.585047
2286.000000	68.619456
2285.000000	68.661974
2284.000000	68.709516
2283.000000	68.759355
2282.000000	68.806431
2281.000000	68.844233
2280.000000	68.871821
2279.000000	68.893649
2278.000000	68.913586
2277.000000	68.933678
2276.000000	68.957522
2275.000000	68.989180
2274.000000	69.026596
2273.000000	69.063065
2272.000000	69.094219
2271.000000	69.120110
2270.000000	69.140592
2269.000000	69.155532
2268.000000	69.169057
2267.000000	69.187433
2266.000000	69.211658
2265.000000	69.237623
2264.000000	69.262419
2263.000000	69.285112
2262.000000	69.302036
2261.000000	69.308024
2260.000000	69.303844
2259.000000	69.295499
2258.000000	69.287316
2257.000000	69.280002
2256.000000	69.275293
2255.000000	69.275123
2254.000000	69.275617
2253.000000	69.268947
2252.000000	69.250858
2251.000000	69.222537
2250.000000	69.184378
2249.000000	69.135629
2248.000000	69.079786
2247.000000	69.022499
2246.000000	68.964812
2245.000000	68.902597
2244.000000	68.833273
2243.000000	68.757079
2242.000000	68.672433
2241.000000	68.577098
2240.000000	68.474580
2239.000000	68.373564
2238.000000	68.280338
2237.000000	68.196819
2236.000000	68.125038
2235.000000	68.066887
2234.000000	68.019107
2233.000000	67.974597
2232.000000	67.929758
2231.000000	67.885558
2230.000000	67.842260
2229.000000	67.799172
2228.000000	67.759323
2227.000000	67.727919
2226.000000	67.705190
2225.000000	67.686205
2224.000000	67.667469
2223.000000	67.648224
2222.000000	67.625868
2221.000000	67.596796
2220.000000	67.562481
2219.000000	67.528771
2218.000000	67.498667
2217.000000	67.470883
2216.000000	67.445145
2215.000000	67.422740
2214.000000	67.401726
2213.000000	67.377851
2212.000000	67.350997
2211.000000	67.325453
2210.000000	67.303779
2209.000000	67.286071
2208.000000	67.274437
2207.000000	67.271704
2206.000000	67.274908
2205.000000	67.276060
2204.000000	67.269869
2203.000000	67.255797
2202.000000	67.233375
2201.000000	67.202343
2200.000000	67.167715
2199.000000	67.138202
2198.000000	67.118458
2197.000000	67.107457
2196.000000	67.103749
2195.000000	67.105900
2194.000000	67.108163
2193.000000	67.102472
2192.000000	67.086157
2191.000000	67.062607
2190.000000	67.034874
2189.000000	67.004427
2188.000000	66.975387
2187.000000	66.952816
2186.000000	66.935945
2185.000000	66.919183
2184.000000	66.900110
2183.000000	66.881103
2182.000000	66.863387
2181.000000	66.846419
2180.000000	66.833099
2179.000000	66.829001
2178.000000	66.835198
2177.000000	66.847279
2176.000000	66.861412
2175.000000	66.875577
2174.000000	66.885478
2173.000000	66.886210
2172.000000	66.879146
2171.000000	66.871596
2170.000000	66.869293
2169.000000	66.874630
2168.000000	66.890978
2167.000000	66.921056
2166.000000	66.960282
2165.000000	66.998303
2164.000000	67.028293
2163.000000	67.049556
2162.000000	67.062001
2161.000000	67.065444
2160.000000	67.064905
2159.000000	67.069391
2158.000000	67.083628
2157.000000	67.106072
2156.000000	67.134515
2155.000000	67.167321
2154.000000	67.199166
2153.000000	67.223088
2152.000000	67.238361
2151.000000	67.250828
2150.000000	67.265136
2149.000000	67.282510
2148.000000	67.305230
2147.000000	67.335666
2146.000000	67.370221
2145.000000	67.400405
2144.000000	67.421233
2143.000000	67.434031
2142.000000	67.441344
2141.000000	67.445760
2140.000000	67.453934
2139.000000	67.474628
2138.000000	67.510903
2137.000000	67.558753
2136.000000	67.612564
2135.000000	67.666325
2134.000000	67.710955
2133.000000	67.738630
2132.000000	67.751155
2131.000000	67.758416
2130.000000	67.768418
2129.000000	67.784782
2128.000000	67.811588
2127.000000	67.851987
2126.000000	67.901314
2125.000000	67.948752
2124.000000	67.987035
2123.000000	68.015259
2122.000000	68.033916
2121.000000	68.044420
2120.000000	68.053625
2119.000000	68.071027
2118.000000	68.100437
2117.000000	68.139623
2116.000000	68.186420
2115.000000	68.237775
2114.000000	68.284335
2113.000000	68.315386
2112.000000	68.330472
2111.000000	68.339292
2110.000000	68.350545
2109.000000	68.368164
2108.000000	68.396404
2107.000000	68.438687
2106.000000	68.489873
2105.000000	68.537994
2104.000000	68.575333
2103.000000	68.601117
2102.000000	68.615348
2101.000000	68.618402
2100.000000	68.617447
2099.000000	68.624179
2098.000000	68.643315
2097.000000	68.671470
2096.000000	68.704443
2095.000000	68.737614
2094.000000	68.761499
2093.000000	68.767684
2092.000000	68.760666
2091.000000	68.754918
2090.000000	68.759850
2089.000000	68.775690
2088.000000	68.802660
2087.000000	68.842985
2086.000000	68.892249
2085.000000	68.938737
2084.000000	68.974110
2083.000000	68.997590
2082.000000	69.009650
2081.000000	69.011538
2080.000000	69.011797
2079.000000	69.023949
2078.000000	69.053549
2077.000000	69.096831
2076.000000	69.149281
2075.000000	69.207404
2074.000000	69.262835
2073.000000	69.302921
2072.000000	69.324494
2071.000000	69.335105
2070.000000	69.339908
2069.000000	69.338171
2068.000000	69.336072
2067.000000	69.350768
2066.000000	69.393920
2065.000000	69.457882
2064.000000	69.524334
2063.000000	69.581081
2062.000000	69.626253
2061.000000	69.664118
2060.000000	69.702084
2059.000000	69.747063
2058.000000	69.800603
2057.000000	69.860117
2056.000000	69.924236
2055.000000	69.991861
2054.000000	70.057386
2053.000000	70.112594
2052.000000	70.157247
2051.000000	70.200256
2050.000000	70.248769
2049.000000	70.304698
2048.000000	70.373322
2047.000000	70.460554
2046.000000	70.560362
2045.000000	70.656893
2044.000000	70.742651
2043.000000	70.823807
2042.000000	70.905314
2041.000000	70.982624
2040.000000	71.052605
2039.000000	71.122015
2038.000000	71.200159
2037.000000	71.291327
2036.000000	71.397433
2035.000000	71.518493
2034.000000	71.647654
2033.000000	71.773814
2032.000000	71.890688
2031.000000	71.999020
2030.000000	72.099513
2029.000000	72.191469
2028.000000	72.281042
2027.000000	72.376505
2026.000000	72.479759
2025.000000	72.584354
2024.000000	72.689497
2023.000000	72.798176
2022.000000	72.902407
2021.000000	72.987317
2020.000000	73.055163
2019.000000	73.131414
2018.000000	73.238873
2017.000000	73.374262
2016.000000	73.516761
2015.000000	73.650193
2014.000000	73.769324
2013.000000	73.874757
2012.000000	73.970588
2011.000000	74.061423
2010.000000	74.148665
2009.000000	74.233305
2008.000000	74.321817
2007.000000	74.419989
2006.000000	74.527086
2005.000000	74.635543
2004.000000	74.742773
2003.000000	74.849659
2002.000000	74.950343
2001.000000	75.039512
2000.000000	75.115348
1999.000000	75.186689
1998.000000	75.259066
1997.000000	75.322639
1996.000000	75.363204
1995.000000	75.386501
1994.000000	75.421362
1993.000000	75.494092
1992.000000	75.597660
1991.000000	75.696953
1990.000000	75.767923
1989.000000	75.819091
1988.000000	75.872916
1987.000000	75.934089
1986.000000	75.988228
1985.000000	76.028584
1984.000000	76.068475
1983.000000	76.120741
1982.000000	76.178695
1981.000000	76.231884
1980.000000	76.275639
1979.000000	76.313152
1978.000000	76.342271
1977.000000	76.359163
1976.000000	76.368497
1975.000000	76.382098
1974.000000	76.406646
1973.000000	76.439577
1972.000000	76.472906
1971.000000	76.494940
1970.000000	76.496748
1969.000000	76.488994
1968.000000	76.502162
1967.000000	76.549213
1966.000000	76.602005
1965.000000	76.626769
1964.000000	76.628218
1963.000000	76.636142
1962.000000	76.663653
1961.000000	76.698010
1960.000000	76.726538
1959.000000	76.747484
1958.000000	76.756914
1957.000000	76.751846
1956.000000	76.744314
1955.000000	76.751155
1954.000000	76.772676
1953.000000	76.795300
1952.000000	76.821646
1951.000000	76.855221
1950.000000	76.880632
1949.000000	76.882949
1948.000000	76.866987
1947.000000	76.838564
1946.000000	76.785432
1945.000000	76.708665
1944.000000	76.659463
1943.000000	76.693232
1942.000000	76.789790
1941.000000	76.875550
1940.000000	76.917713
1939.000000	76.938141
1938.000000	76.951623
1937.000000	76.940084
1936.000000	76.892492
1935.000000	76.831848
1934.000000	76.785319
1933.000000	76.756680
1932.000000	76.752484
1931.000000	76.775753
1930.000000	76.816544
1929.000000	76.859843
1928.000000	76.884924
1927.000000	76.874598
1926.000000	76.801850
1925.000000	76.689916
1924.000000	76.620817
1923.000000	76.646342
1922.000000	76.719905
1921.000000	76.768341
1920.000000	76.787102
1919.000000	76.824698
1918.000000	76.871841
1917.000000	76.859071
1916.000000	76.767880
1915.000000	76.659423
1914.000000	76.583395
1913.000000	76.531080
1912.000000	76.489723
1911.000000	76.477425
1910.000000	76.512399
1909.000000	76.570548
1908.000000	76.602215
1907.000000	76.594387
1906.000000	76.546471
1905.000000	76.471165
1904.000000	76.395235
1903.000000	76.344696
1902.000000	76.333389
1901.000000	76.357723
1900.000000	76.397196
1899.000000	76.432214
1898.000000	76.434621
1897.000000	76.396814
1896.000000	76.348216
1895.000000	76.312971
1894.000000	76.269652
1893.000000	76.187384
1892.000000	76.088410
1891.000000	76.045743
1890.000000	76.096000
1889.000000	76.177743
1888.000000	76.207823
1887.000000	76.174925
1886.000000	76.116456
1885.000000	76.056755
1884.000000	75.999365
1883.000000	75.943975
1882.000000	75.900844
1881.000000	75.880294
1880.000000	75.879964
1879.000000	75.894995
1878.000000	75.907073
1877.000000	75.886172
1876.000000	75.829769
1875.000000	75.762934
1874.000000	75.699686
1873.000000	75.633644
1872.000000	75.560563
1871.000000	75.499380
1870.000000	75.487296
1869.000000	75.531556
1868.000000	75.577154
1867.000000	75.569620
1866.000000	75.503138
1865.000000	75.395670
1864.000000	75.270692
1863.000000	75.156461
1862.000000	75.075350
1861.000000	75.036043
1860.000000	75.037018
1859.000000	75.068566
1858.000000	75.104481
1857.000000	75.108141
1856.000000	75.059697
1855.000000	74.969616
1854.000000	74.858351
1853.000000	74.747152
1852.000000	74.629897
1851.000000	74.524473
1850.000000	74.465596
1849.000000	74.472315
1848.000000	74.530043
1847.000000	74.604536
1846.000000	74.664957
1845.000000	74.681817
1844.000000	74.606001
1843.000000	74.413228
1842.000000	74.171269
1841.000000	73.973869
1840.000000	73.863418
1839.000000	73.831112
1838.000000	73.822199
1837.000000	73.793381
1836.000000	73.736046
1835.000000	73.655937
1834.000000	73.549991
1833.000000	73.408026
1832.000000	73.246355
1831.000000	73.159857
1830.000000	73.187987
1829.000000	73.214173
1828.000000	73.141064
1827.000000	73.010107
1826.000000	72.903132
1825.000000	72.816089
1824.000000	72.686520
1823.000000	72.512476
1822.000000	72.350794
1821.000000	72.230510
1820.000000	72.142594
1819.000000	72.083455
1818.000000	72.040795
1817.000000	71.991005
1816.000000	71.902799
1815.000000	71.754222
1814.000000	71.558005
1813.000000	71.345431
1812.000000	71.179308
1811.000000	71.096291
1810.000000	71.059415
1809.000000	71.023931
1808.000000	70.984851
1807.000000	70.943879
1806.000000	70.871485
1805.000000	70.733862
1804.000000	70.543082
1803.000000	70.348942
1802.000000	70.216564
1801.000000	70.146592
1800.000000	70.102652
1799.000000	70.050769
1798.000000	69.991684
1797.000000	69.953369
1796.000000	69.951646
1795.000000	69.954936
1794.000000	69.916733
1793.000000	69.814760
1792.000000	69.671102
1791.000000	69.505060
1790.000000	69.341382
1789.000000	69.207647
1788.000000	69.114798
1787.000000	69.050998
1786.000000	68.986034
1785.000000	68.882287
1784.000000	68.711606
1783.000000	68.476991
1782.000000	68.262696
1781.000000	68.122267
1780.000000	68.045196
1779.000000	67.979089
1778.000000	67.907047
1777.000000	67.855649
1776.000000	67.828515
1775.000000	67.798095
1774.000000	67.745362
1773.000000	67.670777
1772.000000	67.536757
1771.000000	67.313194
1770.000000	67.052224
1769.000000	66.845774
1768.000000	66.736409
1767.000000	66.666518
1766.000000	66.563863
1765.000000	66.409385
1764.000000	66.240992
1763.000000	66.100491
1762.000000	65.979816
1761.000000	65.801455
1760.000000	65.574218
1759.000000	65.370553
1758.000000	65.262239
1757.000000	65.237403
1756.000000	65.192925
1755.000000	65.078599
1754.000000	64.917070
1753.000000	64.727399
1752.000000	64.501593
1751.000000	64.249178
1750.000000	63.987339
1749.000000	63.764573
1748.000000	63.596948
1747.000000	63.446230
1746.000000	63.281227
1745.000000	63.103483
1744.000000	62.968933
1743.000000	62.901583
1742.000000	62.840672
1741.000000	62.720657
1740.000000	62.573788
1739.000000	62.447638
1738.000000	62.357538
1737.000000	62.286087
1736.000000	62.200904
1735.000000	62.081090
1734.000000	61.820279
1733.000000	61.292671
1732.000000	60.661692
1731.000000	60.166040
1730.000000	59.874044
1729.000000	59.687560
1728.000000	59.486978
1727.000000	59.248118
1726.000000	58.991966
1725.000000	58.706646
1724.000000	58.418322
1723.000000	58.172649
1722.000000	57.975003
1721.000000	57.777470
1720.000000	57.530321
1719.000000	57.260651
1718.000000	56.994681
1717.000000	56.652676
1716.000000	56.216720
1715.000000	55.774031
1714.000000	55.353795
1713.000000	54.931513
1712.000000	54.514970
1711.000000	54.143569
1710.000000	53.830897
1709.000000	53.535020
1708.000000	53.202501
1707.000000	52.858434
1706.000000	52.563282
1705.000000	52.332994
1704.000000	52.174967
1703.000000	52.098540
1702.000000	52.025385
1701.000000	51.794873
1700.000000	51.284854
1699.000000	50.601894
1698.000000	49.985511
1697.000000	49.566667
1696.000000	49.260147
1695.000000	48.820232
1694.000000	48.219122
1693.000000	47.598880
1692.000000	47.051340
1691.000000	46.584915
1690.000000	46.186950
1689.000000	45.869569
1688.000000	45.637510
1687.000000	45.464906
1686.000000	45.242564
1685.000000	44.930770
1684.000000	44.503665
1683.000000	43.895752
1682.000000	43.242659
1681.000000	42.702355
1680.000000	42.325591
1679.000000	42.073354
1678.000000	41.870887
1677.000000	41.640175
1676.000000	41.335485
1675.000000	40.938591
1674.000000	40.480552
1673.000000	40.013226
1672.000000	39.590757
1671.000000	39.228720
1670.000000	38.894656
1669.000000	38.516631
1668.000000	38.089133
1667.000000	37.693038
1666.000000	37.364587
1665.000000	37.058967
1664.000000	36.740899
1663.000000	36.403671
1662.000000	36.040312
1661.000000	35.641656
1660.000000	35.239398
1659.000000	34.897448
1658.000000	34.659271
1657.000000	34.519783
1656.000000	34.432844
1655.000000	34.345552
1654.000000	34.262376
1653.000000	34.011252
1652.000000	33.440614
1651.000000	32.820679
1650.000000	32.323938
1649.000000	31.947791
1648.000000	31.675550
1647.000000	31.483271
1646.000000	31.249143
1645.000000	30.905531
1644.000000	30.523562
1643.000000	30.181155
1642.000000	29.902180
1641.000000	29.661803
1640.000000	29.440198
1639.000000	29.251668
1638.000000	29.095639
1637.000000	28.962020
1636.000000	28.812265
1635.000000	28.573744
1634.000000	28.240155
1633.000000	27.889758
1632.000000	27.587936
1631.000000	27.348139
1630.000000	27.144113
1629.000000	26.948495
1628.000000	26.762099
1627.000000	26.595207
1626.000000	26.444608
1625.000000	26.287900
1624.000000	26.127641
1623.000000	25.980022
1622.000000	25.842344
1621.000000	25.709754
1620.000000	25.597567
1619.000000	25.524936
1618.000000	25.486720
1617.000000	25.444661
1616.000000	25.342574
1615.000000	25.191278
1614.000000	25.047950
1613.000000	24.940886
1612.000000	24.867729
1611.000000	24.818072
1610.000000	24.787085
1609.000000	24.767004
1608.000000	24.753912
1607.000000	24.749709
1606.000000	24.758154
1605.000000	24.769250
1604.000000	24.778748
1603.000000	24.802379
1602.000000	24.844967
1601.000000	24.886453
1600.000000	24.910956
1599.000000	24.927500
1598.000000	24.948152
1597.000000	24.970199
1596.000000	24.996266
1595.000000	25.040542
1594.000000	25.104271
1593.000000	25.166882
1592.000000	25.215773
1591.000000	25.260816
1590.000000	25.310488
1589.000000	25.353526
1588.000000	25.380720
1587.000000	25.403225
1586.000000	25.432730
1585.000000	25.468376
1584.000000	25.498877
1583.000000	25.532295
1582.000000	25.580407
1581.000000	25.635698
1580.000000	25.683588
1579.000000	25.733019
1578.000000	25.802476
1577.000000	25.894809
1576.000000	25.965393
1575.000000	25.960398
1574.000000	25.911445
1573.000000	25.874876
1572.000000	25.872689
1571.000000	25.906985
1570.000000	25.972647
1569.000000	26.022282
1568.000000	26.007592
1567.000000	25.969417
1566.000000	25.973722
1565.000000	26.050851
1564.000000	26.187573
1563.000000	26.382900
1562.000000	26.628456
1561.000000	26.852091
1560.000000	27.043774
1559.000000	27.357292
1558.000000	27.562855
1557.000000	27.532914
1556.000000	27.460909
1555.000000	27.499116
1554.000000	27.648044
1553.000000	27.806377
1552.000000	27.936946
1551.000000	28.115664
1550.000000	28.397109
1549.000000	28.727868
1548.000000	29.019277
1547.000000	29.266664
1546.000000	29.532993
1545.000000	29.877161
1544.000000	30.294550
1543.000000	30.742121
1542.000000	31.187574
1541.000000	31.697602
1540.000000	32.301216
1539.000000	32.788696
1538.000000	33.050824
1537.000000	33.208552
1536.000000	33.400852
1535.000000	33.718728
1534.000000	34.220361
1533.000000	34.812818
1532.000000	35.330310
1531.000000	35.759587
1530.000000	36.179725
1529.000000	36.635990
1528.000000	37.141345
1527.000000	37.709491
1526.000000	38.327868
1525.000000	38.927370
1524.000000	39.469494
1523.000000	40.036609
1522.000000	40.761477
1521.000000	41.550955
1520.000000	42.138977
1519.000000	42.509148
1518.000000	42.879597
1517.000000	43.409175
1516.000000	44.027531
1515.000000	44.589852
1514.000000	45.091623
1513.000000	45.582074
1512.000000	46.082192
1511.000000	46.579332
1510.000000	47.064046
1509.000000	47.558381
1508.000000	48.258189
1507.000000	49.338586
1506.000000	50.299699
1505.000000	50.715508
1504.000000	50.823059
1503.000000	50.976197
1502.000000	51.329189
1501.000000	51.848537
1500.000000	52.416998
1499.000000	52.967809
1498.000000	53.500618
1497.000000	53.998696
1496.000000	54.411169
1495.000000	54.716507
1494.000000	54.963861
1493.000000	55.197381
1492.000000	55.438728
1491.000000	55.744097
1490.000000	56.164642
1489.000000	56.616707
1488.000000	57.004743
1487.000000	57.319748
1486.000000	57.569113
1485.000000	57.761939
1484.000000	57.908143
1483.000000	58.070845
1482.000000	58.298362
1481.000000	58.559169
1480.000000	58.785581
1479.000000	58.955052
1478.000000	59.073268
1477.000000	59.137614
1476.000000	59.158189
1475.000000	59.123408
1474.000000	59.006885
1473.000000	58.756988
1472.000000	58.294134
1471.000000	57.595277
1470.000000	56.715308
1469.000000	55.690326
1468.000000	54.503714
1467.000000	53.051716
1466.000000	51.162128
1465.000000	48.763730
1464.000000	46.078338
1463.000000	43.505313
1462.000000	41.257554
1461.000000	39.348822
1460.000000	37.776734
1459.000000	36.590258
1458.000000	35.889000
1457.000000	35.733614
1456.000000	36.029373
1455.000000	36.629060
1454.000000	37.465848
1453.000000	38.508548
1452.000000	39.667840
1451.000000	40.761175
1450.000000	41.581485
1449.000000	41.987776
1448.000000	41.941028
1447.000000	41.448274
1446.000000	40.537761
1445.000000	39.227683
1444.000000	37.555336
1443.000000	35.573732
1442.000000	33.315325
1441.000000	30.845524
1440.000000	28.277617
1439.000000	25.611169
1438.000000	22.594807
1437.000000	19.065918
1436.000000	15.472540
1435.000000	12.501649
1434.000000	10.239008
1433.000000	8.386707
1432.000000	6.811703
1431.000000	5.561959
1430.000000	4.627314
1429.000000	3.930378
1428.000000	3.483944
1427.000000	3.316761
1426.000000	3.352585
1425.000000	3.517447
1424.000000	3.854806
1423.000000	4.403021
1422.000000	5.093744
1421.000000	5.914815
1420.000000	7.025445
1419.000000	8.529581
1418.000000	10.218567
1417.000000	11.882744
1416.000000	13.601739
1415.000000	15.504607
1414.000000	17.566964
1413.000000	19.723506
1412.000000	21.987798
1411.000000	24.363275
1410.000000	26.751189
1409.000000	29.051596
1408.000000	31.266865
1407.000000	33.432924
1406.000000	35.569727
1405.000000	37.686862
1404.000000	39.742257
1403.000000	41.637293
1402.000000	43.330712
1401.000000	44.913829
1400.000000	46.508110
1399.000000	48.096937
1398.000000	49.549176
1397.000000	50.847168
1396.000000	52.117425
1395.000000	53.421386
1394.000000	54.665006
1393.000000	55.745773
1392.000000	56.686286
1391.000000	57.555382
1390.000000	58.381033
1389.000000	59.164580
1388.000000	59.900303
1387.000000	60.536343
1386.000000	60.994467
1385.000000	61.262962
1384.000000	61.380212
1383.000000	61.367992
1382.000000	61.226632
1381.000000	60.973369
1380.000000	60.631866
1379.000000	60.203065
1378.000000	59.671044
1377.000000	59.015118
1376.000000	58.202433
1375.000000	57.205202
1374.000000	56.024021
1373.000000	54.668272
1372.000000	53.159765
1371.000000	51.544828
1370.000000	49.931796
1369.000000	48.488742
1368.000000	47.378998
1367.000000	46.693178
1366.000000	46.439284
1365.000000	46.585102
1364.000000	47.103033
1363.000000	47.961582
1362.000000	49.059206
1361.000000	50.237302
1360.000000	51.373236
1359.000000	52.412855
1358.000000	53.341177
1357.000000	54.145572
1356.000000	54.800518
1355.000000	55.277162
1354.000000	55.553298
1353.000000	55.601977
1352.000000	55.395330
1351.000000	54.898259
1350.000000	54.084216
1349.000000	52.927730
1348.000000	51.387719
1347.000000	49.429112
1346.000000	47.045721
1345.000000	44.261622
1344.000000	41.135895
1343.000000	37.760916
1342.000000	34.253389
1341.000000	30.760861
1340.000000	27.487983
1339.000000	24.677577
1338.000000	22.510717
1337.000000	21.015187
1336.000000	20.082688
1335.000000	19.533006
1334.000000	19.141441
1333.000000	18.669476
1332.000000	17.918867
1331.000000	16.776797
1330.000000	15.227725
1329.000000	13.338212
1328.000000	11.240873
1327.000000	9.109960
1326.000000	7.114290
1325.000000	5.374086
1324.000000	3.958442
1323.000000	2.894895
1322.000000	2.158362
1321.000000	1.677316
1320.000000	1.379216
1319.000000	1.210752
1318.000000	1.123545
1317.000000	1.070193
1316.000000	1.024067
1315.000000	0.986297
1314.000000	0.958194
1313.000000	0.931129
1312.000000	0.906398
1311.000000	0.899133
1310.000000	0.917517
1309.000000	0.957669
1308.000000	1.025815
1307.000000	1.142997
1306.000000	1.322332
1305.000000	1.564802
1304.000000	1.878597
1303.000000	2.280635
1302.000000	2.775844
1301.000000	3.352417
1300.000000	4.004260
1299.000000	4.733666
1298.000000	5.532734
1297.000000	6.384134
1296.000000	7.277122
1295.000000	8.208822
1294.000000	9.167844
1293.000000	10.134383
1292.000000	11.094874
1291.000000	12.040440
1290.000000	12.951773
1289.000000	13.799469
1288.000000	14.557264
1287.000000	15.203278
1286.000000	15.719195
1285.000000	16.104121
1284.000000	16.397682
1283.000000	16.684015
1282.000000	17.069411
1281.000000	17.650885
1280.000000	18.491466
1279.000000	19.600337
1278.000000	20.927032
1277.000000	22.389841
1276.000000	23.909761
1275.000000	25.427802
1274.000000	26.908659
1273.000000	28.338960
1272.000000	29.719774
1271.000000	31.051630
1270.000000	32.328262
1269.000000	33.541682
1268.000000	34.687727
1267.000000	35.763934
1266.000000	36.772860
1265.000000	37.724112
1264.000000	38.628885
1263.000000	39.499146
1262.000000	40.349041
1261.000000	41.192730
1260.000000	42.031469
1259.000000	42.849122
1258.000000	43.628688
1257.000000	44.364367
1256.000000	45.057603
1255.000000	45.712931
1254.000000	46.342133
1253.000000	46.963759
1252.000000	47.589718
1251.000000	48.219179
1250.000000	48.846460
1249.000000	49.463743
1248.000000	50.055212
1247.000000	50.601816
1246.000000	51.098966
1245.000000	51.560766
1244.000000	52.004630
1243.000000	52.443166
1242.000000	52.890277
1241.000000	53.359287
1240.000000	53.849057
1239.000000	54.340965
1238.000000	54.815001
1237.000000	55.258746
1236.000000	55.661925
1235.000000	56.019213
1234.000000	56.342725
1233.000000	56.659173
1232.000000	56.989544
1231.000000	57.340963
1230.000000	57.715553
1229.000000	58.110582
1228.000000	58.509448
1227.000000	58.888130
1226.000000	59.235654
1225.000000	59.558309
1224.000000	59.864748
1223.000000	60.162616
1222.000000	60.468847
1221.000000	60.803675
1220.000000	61.169234
1219.000000	61.546533
1218.000000	61.914991
1217.000000	62.260676
1216.000000	62.567907
1215.000000	62.825355
1214.000000	63.045637
1213.000000	63.262042
1212.000000	63.502060
1211.000000	63.775526
1210.000000	64.084989
1209.000000	64.426449
1208.000000	64.776774
1207.000000	65.099699
1206.000000	65.371051
1205.000000	65.588746
1204.000000	65.759742
1203.000000	65.896803
1202.000000	66.028431
1201.000000	66.189131
1200.000000	66.392970
1199.000000	66.627662
1198.000000	66.872074
1197.000000	67.103486
1196.000000	67.289296
1195.000000	67.396844
1194.000000	67.417632
1193.000000	67.367243
1192.000000	67.263319
1191.000000	67.116933
1190.000000	66.946161
1189.000000	66.775852
1188.000000	66.621280
1187.000000	66.488829
1186.000000	66.392648
1185.000000	66.354079
1184.000000	66.383441
1183.000000	66.479971
1182.000000	66.646304
1181.000000	66.892015
1180.000000	67.216303
1179.000000	67.601012
1178.000000	68.022360
1177.000000	68.450655
1176.000000	68.844055
1175.000000	69.163130
1174.000000	69.399480
1173.000000	69.577437
1172.000000	69.729844
1171.000000	69.887049
1170.000000	70.081624
1169.000000	70.336616
1168.000000	70.641360
1167.000000	70.956676
1166.000000	71.245325
1165.000000	71.485436
1164.000000	71.662305
1163.000000	71.773792
1162.000000	71.847167
1161.000000	71.928625
1160.000000	72.050005
1159.000000	72.218311
1158.000000	72.429237
1157.000000	72.668929
1156.000000	72.903137
1155.000000	73.090487
1154.000000	73.215102
1153.000000	73.292189
1152.000000	73.345164
1151.000000	73.397433
1150.000000	73.480739
1149.000000	73.622343
1148.000000	73.816105
1147.000000	74.023830
1146.000000	74.206321
1145.000000	74.338152
1144.000000	74.401145
1143.000000	74.392604
1142.000000	74.344891
1141.000000	74.313612
1140.000000	74.339961
1139.000000	74.436582
1138.000000	74.600318
1137.000000	74.812722
1136.000000	75.028308
1135.000000	75.189558
1134.000000	75.265081
1133.000000	75.261286
1132.000000	75.202648
1131.000000	75.122937
1130.000000	75.070317
1129.000000	75.089882
1128.000000	75.191244
1127.000000	75.346134
1126.000000	75.516383
1125.000000	75.667981
1124.000000	75.766958
1123.000000	75.792482
1122.000000	75.761735
1121.000000	75.721087
1120.000000	75.709809
1119.000000	75.745582
1118.000000	75.835401
1117.000000	75.971701
1116.000000	76.117143
1115.000000	76.218557
1114.000000	76.246179
1113.000000	76.206699
1112.000000	76.124321
1111.000000	76.031929
1110.000000	75.977167
1109.000000	76.003456
1108.000000	76.116088
1107.000000	76.279447
1106.000000	76.445066
1105.000000	76.566100
1104.000000	76.595857
1103.000000	76.506735
1102.000000	76.319146
1101.000000	76.092801
1100.000000	75.885612
1099.000000	75.736264
1098.000000	75.669550
1097.000000	75.686224
1096.000000	75.744498
1095.000000	75.774465
1094.000000	75.720462
1093.000000	75.560025
1092.000000	75.290334
1091.000000	74.927500
1090.000000	74.515001
1089.000000	74.102325
1088.000000	73.708569
1087.000000	73.312927
1086.000000	72.879688
1085.000000	72.369270
1084.000000	71.730971
1083.000000	70.921392
1082.000000	69.927210
1081.000000	68.764032
1080.000000	67.449582
1079.000000	65.985080
1078.000000	64.366046
1077.000000	62.568579
1076.000000	60.545906
1075.000000	58.254546
1074.000000	55.683129
1073.000000	52.869251
1072.000000	49.884248
1071.000000	46.826740
1070.000000	43.810825
1069.000000	40.942105
1068.000000	38.298344
1067.000000	35.929691
1066.000000	33.864566
1065.000000	32.109927
1064.000000	30.674795
1063.000000	29.567334
1062.000000	28.798023
1061.000000	28.381642
1060.000000	28.327128
1059.000000	28.646578
1058.000000	29.331828
1057.000000	30.356435
1056.000000	31.684691
1055.000000	33.261424
1054.000000	35.022891
1053.000000	36.899436
1052.000000	38.827655
1051.000000	40.758287
1050.000000	42.658057
1049.000000	44.512412
1048.000000	46.312634
1047.000000	48.044355
1046.000000	49.686154
1045.000000	51.218119
1044.000000	52.618788
1043.000000	53.873879
1042.000000	54.993806
1041.000000	56.015934
1040.000000	56.990990
1039.000000	57.965688
1038.000000	58.977051
1037.000000	60.041885
1036.000000	61.139832
1035.000000	62.221015
1034.000000	63.231815
1033.000000	64.134675
1032.000000	64.911265
1031.000000	65.567123
1030.000000	66.142701
1029.000000	66.697117
1028.000000	67.273547
1027.000000	67.885505
1026.000000	68.525056
1025.000000	69.169233
1024.000000	69.775405
1023.000000	70.297322
1022.000000	70.718741
1021.000000	71.059158
1020.000000	71.352292
1019.000000	71.632257
1018.000000	71.933421
1017.000000	72.278006
1016.000000	72.652817
1015.000000	73.016831
1014.000000	73.332274
1013.000000	73.579817
1012.000000	73.753004
1011.000000	73.863272
1010.000000	73.952510
1009.000000	74.077025
1008.000000	74.270395
1007.000000	74.531605
1006.000000	74.839791
1005.000000	75.160475
1004.000000	75.441879
1003.000000	75.633282
1002.000000	75.719965
1001.000000	75.728404
1000.000000	75.701945
999.000000	75.685684
998.000000	75.725330
997.000000	75.851464
996.000000	76.055200
995.000000	76.292655
994.000000	76.516101
993.000000	76.690996
992.000000	76.793003
991.000000	76.816747
990.000000	76.791851
989.000000	76.770136
988.000000	76.789892
987.000000	76.863238
986.000000	76.986731
985.000000	77.142247
984.000000	77.289448
983.000000	77.382797
982.000000	77.405364
981.000000	77.375376
980.000000	77.323810
979.000000	77.282698
978.000000	77.288773
977.000000	77.369002
976.000000	77.514354
975.000000	77.681176
974.000000	77.822594
973.000000	77.905710
972.000000	77.908950
971.000000	77.829677
970.000000	77.699730
969.000000	77.573062
968.000000	77.492325
967.000000	77.476101
966.000000	77.528189
965.000000	77.636010
964.000000	77.760602
963.000000	77.851540
962.000000	77.880022
961.000000	77.847685
960.000000	77.768054
959.000000	77.660497
958.000000	77.558090
957.000000	77.495261
956.000000	77.480334
955.000000	77.492955
954.000000	77.508418
953.000000	77.508126
952.000000	77.473688
951.000000	77.394804
950.000000	77.287918
949.000000	77.187898
948.000000	77.119871
947.000000	77.089735
946.000000	77.095751
945.000000	77.126032
944.000000	77.147080
943.000000	77.116993
942.000000	77.017169
941.000000	76.858819
940.000000	76.662829
939.000000	76.454427
938.000000	76.271958
937.000000	76.154523
936.000000	76.112818
935.000000	76.125388
934.000000	76.160084
933.000000	76.184427
932.000000	76.160843
931.000000	76.058597
930.000000	75.877092
929.000000	75.644300
928.000000	75.392698
927.000000	75.149400
926.000000	74.942648
925.000000	74.791285
924.000000	74.685479
923.000000	74.593639
922.000000	74.490052
921.000000	74.361533
920.000000	74.193906
919.000000	73.975277
918.000000	73.714815
917.000000	73.437440
916.000000	73.158786
915.000000	72.878309
914.000000	72.593234
913.000000	72.301414
912.000000	71.989774
911.000000	71.641799
910.000000	71.257175
909.000000	70.850902
908.000000	70.434374
907.000000	70.012208
906.000000	69.593392
905.000000	69.184697
904.000000	68.771575
903.000000	68.323540
902.000000	67.816721
901.000000	67.241283
900.000000	66.591370
899.000000	65.867107
898.000000	65.088812
897.000000	64.289286
896.000000	63.492368
895.000000	62.705817
894.000000	61.927443
893.000000	61.144327
892.000000	60.324820
891.000000	59.429539
890.000000	58.433474
889.000000	57.330144
888.000000	56.125080
887.000000	54.834912
886.000000	53.489913
885.000000	52.120993
884.000000	50.739527
883.000000	49.339337
882.000000	47.907642
881.000000	46.428869
880.000000	44.885103
879.000000	43.265058
878.000000	41.576426
877.000000	39.842826
876.000000	38.092965
875.000000	36.354244
874.000000	34.649748
873.000000	32.993630
872.000000	31.390362
871.000000	29.840384
870.000000	28.343314
869.000000	26.902607
868.000000	25.527342
867.000000	24.232080
866.000000	23.032076
865.000000	21.935265
864.000000	20.945449
863.000000	20.059910
862.000000	19.265887
861.000000	18.545544
860.000000	17.883617
859.000000	17.274997
858.000000	16.720197
857.000000	16.222975
856.000000	15.793519
855.000000	15.441354
854.000000	15.168626
853.000000	14.968927
852.000000	14.833581
851.000000	14.755202
850.000000	14.722411
849.000000	14.724823
848.000000	14.761864
847.000000	14.842759
846.000000	14.980292
845.000000	15.184910
844.000000	15.468371
843.000000	15.842007
842.000000	16.307650
841.000000	16.857198
840.000000	17.477174
839.000000	18.155886
838.000000	18.884441
837.000000	19.655507
836.000000	20.467123
835.000000	21.320494
834.000000	22.210915
833.000000	23.107495
832.000000	23.937496
831.000000	24.547944
830.000000	24.675044
829.000000	23.976056
828.000000	22.239602
827.000000	19.704840
826.000000	17.178322
825.000000	15.697842
824.000000	15.935918
823.000000	17.841884
822.000000	20.806735
821.000000	24.134907
820.000000	27.351823
819.000000	30.228860
818.000000	32.702794
817.000000	34.807177
816.000000	36.628677
815.000000	38.252716
814.000000	39.746604
813.000000	41.161882
812.000000	42.531621
811.000000	43.848889
810.000000	45.078122
809.000000	46.188551
808.000000	47.168532
807.000000	48.027497
806.000000	48.801427
805.000000	49.554058
804.000000	50.349519
803.000000	51.219390
802.000000	52.160733
801.000000	53.147262
800.000000	54.129314
799.000000	55.039729
798.000000	55.825601
797.000000	56.478991
796.000000	57.031909
795.000000	57.536704
794.000000	58.057489
793.000000	58.655070
792.000000	59.355200
791.000000	60.130953
790.000000	60.922490
789.000000	61.667006
788.000000	62.311009
787.000000	62.824431
786.000000	63.224856
785.000000	63.576403
784.000000	63.949925
783.000000	64.387061
782.000000	64.897821
781.000000	65.465781
780.000000	66.042650
779.000000	66.560003
778.000000	66.968863
777.000000	67.268318
776.000000	67.495477
775.000000	67.705718
774.000000	67.964090
773.000000	68.325827
772.000000	68.800287
771.000000	69.338655
770.000000	69.862721
769.000000	70.299542
768.000000	70.594350
767.000000	70.726549
766.000000	70.734839
765.000000	70.711211
764.000000	70.753151
763.000000	70.922120
762.000000	71.236322
761.000000	71.671743
760.000000	72.155710
759.000000	72.584374
758.000000	72.873308
757.000000	72.995458
756.000000	72.976846
755.000000	72.880118
754.000000	72.794932
753.000000	72.810351
752.000000	72.968050
751.000000	73.244010
750.000000	73.574839
749.000000	73.889359
748.000000	74.119719
747.000000	74.221685
746.000000	74.207829
745.000000	74.147708
744.000000	74.120539
743.000000	74.174725
742.000000	74.324794
741.000000	74.555474
740.000000	74.812765
739.000000	75.016303
738.000000	75.105577
737.000000	75.072842
736.000000	74.953414
735.000000	74.806716
734.000000	74.709489
733.000000	74.733571
732.000000	74.903705
731.000000	75.181192
730.000000	75.492517
729.000000	75.761451
728.000000	75.920615
727.000000	75.932259
726.000000	75.821740
725.000000	75.675859
724.000000	75.592936
723.000000	75.639890
722.000000	75.846412
721.000000	76.203285
720.000000	76.648173
719.000000	77.080637
718.000000	77.417732
717.000000	77.631656
716.000000	77.737886
715.000000	77.778208
714.000000	77.820950
713.000000	77.941264
712.000000	78.174218
711.000000	78.494851
710.000000	78.848144
709.000000	79.178578
708.000000	79.432205
707.000000	79.570047
706.000000	79.603159
705.000000	79.596088
704.000000	79.622254
703.000000	79.725834
702.000000	79.923199
701.000000	80.205750
700.000000	80.524616
699.000000	80.800681
698.000000	80.972837
697.000000	81.029046
696.000000	80.991750
695.000000	80.902803
694.000000	80.829080
693.000000	80.844361
692.000000	80.978372
691.000000	81.200347
690.000000	81.458658
689.000000	81.711002
688.000000	81.910900
687.000000	82.009698
686.000000	82.002925
685.000000	81.946868
684.000000	81.909379
683.000000	81.926040
682.000000	82.011284
681.000000	82.170422
680.000000	82.375484
679.000000	82.561539
678.000000	82.677583
677.000000	82.717082
676.000000	82.696080
675.000000	82.642821
674.000000	82.608586
673.000000	82.656021
672.000000	82.818347
671.000000	83.086353
670.000000	83.432567
669.000000	83.796049
668.000000	84.019727
667.000000	83.962163
666.000000	83.718642
665.000000	83.481070
664.000000	83.333943
663.000000	83.286568
662.000000	83.333929
661.000000	83.467358
660.000000	83.659828
659.000000	83.864005
658.000000	84.036177
657.000000	84.151642
656.000000	84.199564
655.000000	84.189211
654.000000	84.155054
653.000000	84.136698
652.000000	84.152824
651.000000	84.198944
650.000000	84.263009
649.000000	84.331155
648.000000	84.384147
647.000000	84.408340
646.000000	84.415284
645.000000	84.436079
644.000000	84.489838
643.000000	84.570352
642.000000	84.664614
641.000000	84.763809
640.000000	84.849545
639.000000	84.892442
638.000000	84.875749
637.000000	84.810542
636.000000	84.724068
635.000000	84.647208
634.000000	84.613481
633.000000	84.647084
632.000000	84.743906
631.000000	84.876500
630.000000	85.017693
629.000000	85.146318
628.000000	85.235810
627.000000	85.263376
626.000000	85.235655
625.000000	85.182416
624.000000	85.120444
623.000000	85.047144
622.000000	84.971674
621.000000	84.920681
620.000000	84.905608
619.000000	84.914019
618.000000	84.937901
617.000000	84.984964
616.000000	85.051718
615.000000	85.112036
614.000000	85.140466
613.000000	85.123876
612.000000	85.044779
611.000000	84.884852
610.000000	84.650307
609.000000	84.366426
608.000000	84.040284
607.000000	83.646259
606.000000	83.150845
605.000000	82.508163
604.000000	81.612832
603.000000	80.287043
602.000000	78.295159
601.000000	75.397538
600.000000	71.466121
599.000000	66.685931
598.000000	61.682834
597.000000	57.373062
596.000000	54.605185
595.000000	53.828973
594.000000	54.954606
593.000000	57.462508
592.000000	60.704182
591.000000	64.111556
590.000000	67.286150
589.000000	70.052456
588.000000	72.398751
587.000000	74.376160
586.000000	76.040126
585.000000	77.444346
584.000000	78.618758
583.000000	79.572322
582.000000	80.326050
581.000000	80.931069
580.000000	81.436731
579.000000	81.857631
578.000000	82.213260
577.000000	82.553025
576.000000	82.915078
575.000000	83.283697
574.000000	83.612692
573.000000	83.877695
572.000000	84.072337
571.000000	84.190796
570.000000	84.248189
569.000000	84.289684
568.000000	84.351447
567.000000	84.435085
566.000000	84.531424
565.000000	84.643248
564.000000	84.763635
563.000000	84.863941
562.000000	84.925404
561.000000	84.959268
560.000000	84.982783
559.000000	85.002337
558.000000	85.033060
557.000000	85.101199
556.000000	85.210666
555.000000	85.329623
554.000000	85.423610
553.000000	85.478160
552.000000	85.483106
551.000000	85.431095
550.000000	85.347156
549.000000	85.284153
548.000000	85.274366
547.000000	85.315143
546.000000	85.402164
545.000000	85.536505
544.000000	85.689016
543.000000	85.802684
542.000000	85.846874
541.000000	85.839525
540.000000	85.803967
539.000000	85.745462
538.000000	85.681057
537.000000	85.648407
536.000000	85.663409
535.000000	85.702371
534.000000	85.741146
533.000000	85.779677
532.000000	85.814410
531.000000	85.823820
530.000000	85.804601
529.000000	85.783788
528.000000	85.777041
527.000000	85.771034
526.000000	85.763533
525.000000	85.765380
524.000000	85.750409
523.000000	85.656046
522.000000	85.443801
521.000000	85.126946
520.000000	84.738505
519.000000	84.308843
518.000000	83.885784
517.000000	83.531626
516.000000	83.267572
515.000000	83.057431
514.000000	82.856514
513.000000	82.642587
512.000000	82.389724
511.000000	82.056287
510.000000	81.618920
509.000000	81.086359
508.000000	80.462667
507.000000	79.737434
506.000000	78.917668
505.000000	78.025563
504.000000	77.065990
503.000000	76.055418
502.000000	75.092229
501.000000	74.323422
500.000000	73.829163
499.000000	73.592556
498.000000	73.569446
497.000000	73.716353
496.000000	73.966975
495.000000	74.240171
494.000000	74.490873
493.000000	74.738576
492.000000	75.018339
491.000000	75.335322
490.000000	75.682634
489.000000	76.067563
488.000000	76.498730
487.000000	76.975079
486.000000	77.505685
485.000000	78.107634
484.000000	78.760487
483.000000	79.395522
482.000000	79.957941
481.000000	80.444332
480.000000	80.860051
479.000000	81.196208
478.000000	81.470153
477.000000	81.735239
476.000000	82.016867
475.000000	82.275138
474.000000	82.468083
473.000000	82.611301
472.000000	82.722919
471.000000	82.749430
470.000000	82.651125
469.000000	82.482780
468.000000	82.326068
467.000000	82.220824
466.000000	82.169849
465.000000	82.176370
464.000000	82.230106
463.000000	82.296534
462.000000	82.364729
461.000000	82.458833
460.000000	82.562145
459.000000	82.591525
458.000000	82.519176
457.000000	82.430761
456.000000	82.380384
455.000000	82.342782
454.000000	82.300182
453.000000	82.272228
452.000000	82.261423
451.000000	82.193111
450.000000	81.980271
449.000000	81.616265
448.000000	81.159307
447.000000	80.661734
446.000000	80.138391
445.000000	79.569698
444.000000	78.886955
443.000000	77.991766
442.000000	76.835811
441.000000	75.470309
440.000000	73.998755
439.000000	72.536321
438.000000	71.226480
437.000000	70.279494
436.000000	69.901801
435.000000	70.155419
434.000000	70.924453
433.000000	72.035857
432.000000	73.343667
431.000000	74.686010
430.000000	75.923938
429.000000	77.037585
428.000000	78.076392
427.000000	79.050361
426.000000	79.953362
425.000000	80.826372
424.000000	81.687554
423.000000	82.465015
422.000000	83.076640
421.000000	83.494513
420.000000	83.663984
419.000000	83.663988
418.000000	83.742538
417.000000	83.966359
416.000000	84.294575
415.000000	84.649003
414.000000	84.927778
413.000000	85.128397
412.000000	85.272421
411.000000	85.288753
410.000000	85.152947
409.000000	85.016861
408.000000	85.011583
407.000000	85.072775
406.000000	85.128979
405.000000	85.239203
404.000000	85.406042
403.000000	85.432614
402.000000	85.158718
401.000000	84.690839
400.000000	84.213547
