PE IR       SUBTECH     SPECTRUM    ASCII       PEDS        4.00        
   -1
23ms062_nitrito.asc
24/09/05
16:20:39.00
24/09/05
16:20:39.00
Administrator
Sample 1107 By Administrator Date Thursday, September 05 2024
400.000000
#HDR
-1
-1
#GR
cm-1
%T
1.0
0.0
4000.000000
-1.000000
3601
8
75.501678
3.908843
#DATA
4000.000000	54.648582
3999.000000	54.700593
3998.000000	54.752095
3997.000000	54.803891
3996.000000	54.856393
3995.000000	54.909487
3994.000000	54.962931
3993.000000	55.016817
3992.000000	55.071503
3991.000000	55.127061
3990.000000	55.182977
3989.000000	55.238531
3988.000000	55.293454
3987.000000	55.348080
3986.000000	55.402858
3985.000000	55.457788
3984.000000	55.512320
3983.000000	55.565703
3982.000000	55.617388
3981.000000	55.667306
3980.000000	55.716075
3979.000000	55.764962
3978.000000	55.815252
3977.000000	55.867347
3976.000000	55.920355
3975.000000	55.972741
3974.000000	56.023569
3973.000000	56.073339
3972.000000	56.123670
3971.000000	56.175930
3970.000000	56.230064
3969.000000	56.284597
3968.000000	56.337613
3967.000000	56.387930
3966.000000	56.435583
3965.000000	56.481583
3964.000000	56.527317
3963.000000	56.573664
3962.000000	56.620397
3961.000000	56.666712
3960.000000	56.712761
3959.000000	56.760223
3958.000000	56.810988
3957.000000	56.865350
3956.000000	56.921574
3955.000000	56.977228
3954.000000	57.030614
3953.000000	57.081339
3952.000000	57.130224
3951.000000	57.178637
3950.000000	57.227395
3949.000000	57.275710
3948.000000	57.321544
3947.000000	57.364035
3946.000000	57.405746
3945.000000	57.451794
3944.000000	57.505958
3943.000000	57.566865
3942.000000	57.628570
3941.000000	57.685678
3940.000000	57.737880
3939.000000	57.788834
3938.000000	57.841379
3937.000000	57.894983
3936.000000	57.947874
3935.000000	58.000406
3934.000000	58.054723
3933.000000	58.111342
3932.000000	58.167457
3931.000000	58.219221
3930.000000	58.265728
3929.000000	58.310057
3928.000000	58.357240
3927.000000	58.411281
3926.000000	58.472255
3925.000000	58.535726
3924.000000	58.595978
3923.000000	58.650330
3922.000000	58.700462
3921.000000	58.750161
3920.000000	58.802171
3919.000000	58.856826
3918.000000	58.912079
3917.000000	58.964599
3916.000000	59.012061
3915.000000	59.055135
3914.000000	59.097412
3913.000000	59.143062
3912.000000	59.194233
3911.000000	59.250036
3910.000000	59.307449
3909.000000	59.363953
3908.000000	59.419462
3907.000000	59.476356
3906.000000	59.537169
3905.000000	59.600742
3904.000000	59.661713
3903.000000	59.714554
3902.000000	59.758353
3901.000000	59.797390
3900.000000	59.837064
3899.000000	59.879621
3898.000000	59.924743
3897.000000	59.971748
3896.000000	60.021757
3895.000000	60.077485
3894.000000	60.140828
3893.000000	60.210461
3892.000000	60.281135
3891.000000	60.345521
3890.000000	60.398398
3889.000000	60.440847
3888.000000	60.482084
3887.000000	60.533265
3886.000000	60.595749
3885.000000	60.658701
3884.000000	60.710865
3883.000000	60.752008
3882.000000	60.792928
3881.000000	60.843093
3880.000000	60.901219
3879.000000	60.959396
3878.000000	61.012877
3877.000000	61.064879
3876.000000	61.122021
3875.000000	61.184983
3874.000000	61.246875
3873.000000	61.301180
3872.000000	61.349454
3871.000000	61.398047
3870.000000	61.448649
3869.000000	61.497096
3868.000000	61.540257
3867.000000	61.582370
3866.000000	61.632427
3865.000000	61.693213
3864.000000	61.758389
3863.000000	61.820129
3862.000000	61.875991
3861.000000	61.929343
3860.000000	61.982421
3859.000000	62.032728
3858.000000	62.076093
3857.000000	62.113421
3856.000000	62.154641
3855.000000	62.210569
3854.000000	62.278510
3853.000000	62.345438
3852.000000	62.402564
3851.000000	62.448977
3850.000000	62.492541
3849.000000	62.543832
3848.000000	62.606936
3847.000000	62.679669
3846.000000	62.756987
3845.000000	62.834077
3844.000000	62.907568
3843.000000	62.975142
3842.000000	63.035776
3841.000000	63.090528
3840.000000	63.141433
3839.000000	63.191563
3838.000000	63.243412
3837.000000	63.296420
3836.000000	63.347827
3835.000000	63.396232
3834.000000	63.444265
3833.000000	63.496094
3832.000000	63.553626
3831.000000	63.616695
3830.000000	63.683596
3829.000000	63.751511
3828.000000	63.818677
3827.000000	63.884119
3826.000000	63.946234
3825.000000	64.004115
3824.000000	64.060317
3823.000000	64.120022
3822.000000	64.183684
3821.000000	64.245102
3820.000000	64.299328
3819.000000	64.346115
3818.000000	64.391107
3817.000000	64.442388
3816.000000	64.501881
3815.000000	64.566096
3814.000000	64.630086
3813.000000	64.690711
3812.000000	64.749541
3811.000000	64.809712
3810.000000	64.871341
3809.000000	64.932721
3808.000000	64.993441
3807.000000	65.054737
3806.000000	65.117260
3805.000000	65.178353
3804.000000	65.236957
3803.000000	65.297330
3802.000000	65.361203
3801.000000	65.426667
3800.000000	65.492599
3799.000000	65.556071
3798.000000	65.615952
3797.000000	65.673746
3796.000000	65.730353
3795.000000	65.786512
3794.000000	65.843406
3793.000000	65.901930
3792.000000	65.962852
3791.000000	66.026644
3790.000000	66.092548
3789.000000	66.159037
3788.000000	66.225559
3787.000000	66.292764
3786.000000	66.360998
3785.000000	66.429273
3784.000000	66.496525
3783.000000	66.563637
3782.000000	66.632114
3781.000000	66.701240
3780.000000	66.767672
3779.000000	66.828854
3778.000000	66.884821
3777.000000	66.937305
3776.000000	66.989358
3775.000000	67.044706
3774.000000	67.105348
3773.000000	67.170539
3772.000000	67.238883
3771.000000	67.309193
3770.000000	67.380212
3769.000000	67.450644
3768.000000	67.519427
3767.000000	67.587033
3766.000000	67.655106
3765.000000	67.723695
3764.000000	67.791305
3763.000000	67.856953
3762.000000	67.921171
3761.000000	67.984734
3760.000000	68.047769
3759.000000	68.112182
3758.000000	68.179036
3757.000000	68.246014
3756.000000	68.310732
3755.000000	68.374576
3754.000000	68.442051
3753.000000	68.514137
3752.000000	68.585159
3751.000000	68.649904
3750.000000	68.710472
3749.000000	68.769263
3748.000000	68.821137
3747.000000	68.863737
3746.000000	68.905042
3745.000000	68.956380
3744.000000	69.028902
3743.000000	69.123637
3742.000000	69.225388
3741.000000	69.322086
3740.000000	69.412656
3739.000000	69.499217
3738.000000	69.582860
3737.000000	69.664052
3736.000000	69.743403
3735.000000	69.817406
3734.000000	69.879896
3733.000000	69.929009
3732.000000	69.972884
3731.000000	70.023228
3730.000000	70.083106
3729.000000	70.148510
3728.000000	70.217454
3727.000000	70.291143
3726.000000	70.369753
3725.000000	70.450105
3724.000000	70.528577
3723.000000	70.604187
3722.000000	70.678629
3721.000000	70.752963
3720.000000	70.825853
3719.000000	70.897348
3718.000000	70.969024
3717.000000	71.041007
3716.000000	71.111822
3715.000000	71.179382
3714.000000	71.242979
3713.000000	71.302026
3712.000000	71.356916
3711.000000	71.411585
3710.000000	71.470847
3709.000000	71.537010
3708.000000	71.610457
3707.000000	71.690098
3706.000000	71.771694
3705.000000	71.849490
3704.000000	71.918634
3703.000000	71.978783
3702.000000	72.033433
3701.000000	72.088355
3700.000000	72.146955
3699.000000	72.209250
3698.000000	72.273680
3697.000000	72.338032
3696.000000	72.401651
3695.000000	72.465384
3694.000000	72.530187
3693.000000	72.594972
3692.000000	72.658304
3691.000000	72.718687
3690.000000	72.774631
3689.000000	72.825950
3688.000000	72.876454
3687.000000	72.928920
3686.000000	72.979837
3685.000000	73.025966
3684.000000	73.067647
3683.000000	73.107878
3682.000000	73.147470
3681.000000	73.185613
3680.000000	73.221960
3679.000000	73.256059
3678.000000	73.285617
3677.000000	73.304887
3676.000000	73.312707
3675.000000	73.324876
3674.000000	73.355795
3673.000000	73.394245
3672.000000	73.420206
3671.000000	73.422568
3670.000000	73.405403
3669.000000	73.386990
3668.000000	73.380986
3667.000000	73.385387
3666.000000	73.392600
3665.000000	73.396022
3664.000000	73.392624
3663.000000	73.384435
3662.000000	73.375288
3661.000000	73.366071
3660.000000	73.351735
3659.000000	73.321723
3658.000000	73.266189
3657.000000	73.186924
3656.000000	73.104460
3655.000000	73.042115
3654.000000	73.002474
3653.000000	72.968958
3652.000000	72.921080
3651.000000	72.842867
3650.000000	72.727703
3649.000000	72.585629
3648.000000	72.440956
3647.000000	72.316424
3646.000000	72.217915
3645.000000	72.134098
3644.000000	72.048669
3643.000000	71.951838
3642.000000	71.841914
3641.000000	71.721248
3640.000000	71.593173
3639.000000	71.461169
3638.000000	71.327744
3637.000000	71.192016
3636.000000	71.051153
3635.000000	70.905470
3634.000000	70.760222
3633.000000	70.618736
3632.000000	70.473278
3631.000000	70.304895
3630.000000	70.097801
3629.000000	69.867481
3628.000000	69.661238
3627.000000	69.506051
3626.000000	69.385619
3625.000000	69.272335
3624.000000	69.150732
3623.000000	69.015062
3622.000000	68.859299
3621.000000	68.675949
3620.000000	68.467147
3619.000000	68.253385
3618.000000	68.060077
3617.000000	67.895713
3616.000000	67.749287
3615.000000	67.602713
3614.000000	67.443213
3613.000000	67.270210
3612.000000	67.091293
3611.000000	66.910488
3610.000000	66.723961
3609.000000	66.528892
3608.000000	66.333117
3607.000000	66.150241
3606.000000	65.985492
3605.000000	65.833359
3604.000000	65.684317
3603.000000	65.530474
3602.000000	65.367712
3601.000000	65.197775
3600.000000	65.027885
3599.000000	64.863908
3598.000000	64.703550
3597.000000	64.539300
3596.000000	64.368557
3595.000000	64.196050
3594.000000	64.029574
3593.000000	63.874024
3592.000000	63.729064
3591.000000	63.587803
3590.000000	63.438473
3589.000000	63.272259
3588.000000	63.094583
3587.000000	62.923567
3586.000000	62.771933
3585.000000	62.636800
3584.000000	62.507390
3583.000000	62.375008
3582.000000	62.235077
3581.000000	62.086633
3580.000000	61.932410
3579.000000	61.776347
3578.000000	61.620352
3577.000000	61.463618
3576.000000	61.306026
3575.000000	61.148866
3574.000000	60.994116
3573.000000	60.844405
3572.000000	60.702772
3571.000000	60.568080
3570.000000	60.431981
3569.000000	60.282919
3568.000000	60.117392
3567.000000	59.945473
3566.000000	59.781965
3565.000000	59.633371
3564.000000	59.496003
3563.000000	59.361050
3562.000000	59.219775
3561.000000	59.067978
3560.000000	58.908012
3559.000000	58.745660
3558.000000	58.585583
3557.000000	58.430232
3556.000000	58.280751
3555.000000	58.135825
3554.000000	57.991151
3553.000000	57.843582
3552.000000	57.695222
3551.000000	57.549658
3550.000000	57.405651
3549.000000	57.258089
3548.000000	57.104444
3547.000000	56.946680
3546.000000	56.787309
3545.000000	56.627198
3544.000000	56.467527
3543.000000	56.310127
3542.000000	56.155459
3541.000000	56.003049
3540.000000	55.853600
3539.000000	55.708531
3538.000000	55.567530
3537.000000	55.428677
3536.000000	55.290828
3535.000000	55.153725
3534.000000	55.016808
3533.000000	54.879803
3532.000000	54.743630
3531.000000	54.608451
3530.000000	54.472097
3529.000000	54.333118
3528.000000	54.194551
3527.000000	54.061750
3526.000000	53.936971
3525.000000	53.818313
3524.000000	53.702689
3523.000000	53.587351
3522.000000	53.469869
3521.000000	53.349761
3520.000000	53.229333
3519.000000	53.110853
3518.000000	52.993657
3517.000000	52.875978
3516.000000	52.758174
3515.000000	52.641472
3514.000000	52.524595
3513.000000	52.404379
3512.000000	52.279209
3511.000000	52.150230
3510.000000	52.020228
3509.000000	51.893145
3508.000000	51.772837
3507.000000	51.659596
3506.000000	51.549035
3505.000000	51.436466
3504.000000	51.321385
3503.000000	51.205632
3502.000000	51.088997
3501.000000	50.969690
3500.000000	50.847730
3499.000000	50.724558
3498.000000	50.600205
3497.000000	50.473725
3496.000000	50.345760
3495.000000	50.218268
3494.000000	50.092339
3493.000000	49.968385
3492.000000	49.847418
3491.000000	49.729855
3490.000000	49.614023
3489.000000	49.497999
3488.000000	49.381945
3487.000000	49.266621
3486.000000	49.150527
3485.000000	49.030752
3484.000000	48.905909
3483.000000	48.776845
3482.000000	48.645851
3481.000000	48.516452
3480.000000	48.391943
3479.000000	48.271982
3478.000000	48.152318
3477.000000	48.029721
3476.000000	47.905529
3475.000000	47.782671
3474.000000	47.661394
3473.000000	47.540460
3472.000000	47.420507
3471.000000	47.303080
3470.000000	47.187519
3469.000000	47.071328
3468.000000	46.952617
3467.000000	46.830277
3466.000000	46.703214
3465.000000	46.571858
3464.000000	46.439456
3463.000000	46.309794
3462.000000	46.184367
3461.000000	46.062791
3460.000000	45.944144
3459.000000	45.826320
3458.000000	45.706261
3457.000000	45.583067
3456.000000	45.459268
3455.000000	45.337100
3454.000000	45.215561
3453.000000	45.092950
3452.000000	44.970149
3451.000000	44.848680
3450.000000	44.727309
3449.000000	44.603347
3448.000000	44.476124
3447.000000	44.347103
3446.000000	44.217700
3445.000000	44.088896
3444.000000	43.961613
3443.000000	43.835550
3442.000000	43.709024
3441.000000	43.581661
3440.000000	43.455506
3439.000000	43.331884
3438.000000	43.208942
3437.000000	43.083843
3436.000000	42.955314
3435.000000	42.822453
3434.000000	42.683703
3433.000000	42.539486
3432.000000	42.393756
3431.000000	42.250458
3430.000000	42.109728
3429.000000	41.969304
3428.000000	41.827850
3427.000000	41.684882
3426.000000	41.539474
3425.000000	41.391188
3424.000000	41.240701
3423.000000	41.087837
3422.000000	40.930616
3421.000000	40.768019
3420.000000	40.601869
3419.000000	40.434232
3418.000000	40.265156
3417.000000	40.094463
3416.000000	39.923526
3415.000000	39.753187
3414.000000	39.581516
3413.000000	39.405712
3412.000000	39.224537
3411.000000	39.037783
3410.000000	38.845265
3409.000000	38.647641
3408.000000	38.446442
3407.000000	38.241685
3406.000000	38.031518
3405.000000	37.815526
3404.000000	37.596254
3403.000000	37.376276
3402.000000	37.155347
3401.000000	36.931244
3400.000000	36.701314
3399.000000	36.462452
3398.000000	36.212702
3397.000000	35.954174
3396.000000	35.691728
3395.000000	35.427875
3394.000000	35.161041
3393.000000	34.889449
3392.000000	34.613225
3391.000000	34.331298
3390.000000	34.040430
3389.000000	33.739008
3388.000000	33.429188
3387.000000	33.113419
3386.000000	32.791422
3385.000000	32.462744
3384.000000	32.128816
3383.000000	31.790907
3382.000000	31.448387
3381.000000	31.100524
3380.000000	30.747817
3379.000000	30.389856
3378.000000	30.024639
3377.000000	29.651391
3376.000000	29.271279
3375.000000	28.884588
3374.000000	28.489905
3373.000000	28.087396
3372.000000	27.680190
3371.000000	27.270542
3370.000000	26.857916
3369.000000	26.441490
3368.000000	26.021642
3367.000000	25.597880
3366.000000	25.168300
3365.000000	24.732824
3364.000000	24.293935
3363.000000	23.853193
3362.000000	23.409987
3361.000000	22.964323
3360.000000	22.517719
3359.000000	22.070357
3358.000000	21.620541
3357.000000	21.168284
3356.000000	20.715898
3355.000000	20.264485
3354.000000	19.813304
3353.000000	19.363396
3352.000000	18.918182
3351.000000	18.479271
3350.000000	18.044837
3349.000000	17.613017
3348.000000	17.183821
3347.000000	16.757017
3346.000000	16.332107
3345.000000	15.910978
3344.000000	15.496974
3343.000000	15.090547
3342.000000	14.689028
3341.000000	14.291549
3340.000000	13.900550
3339.000000	13.517872
3338.000000	13.143182
3337.000000	12.776496
3336.000000	12.418897
3335.000000	12.070007
3334.000000	11.728170
3333.000000	11.394022
3332.000000	11.069857
3331.000000	10.755608
3330.000000	10.448768
3329.000000	10.148301
3328.000000	9.855822
3327.000000	9.572250
3326.000000	9.297358
3325.000000	9.032332
3324.000000	8.778776
3323.000000	8.535634
3322.000000	8.300236
3321.000000	8.072318
3320.000000	7.853788
3319.000000	7.644235
3318.000000	7.441585
3317.000000	7.245994
3316.000000	7.059520
3315.000000	6.882106
3314.000000	6.711337
3313.000000	6.546324
3312.000000	6.387863
3311.000000	6.235150
3310.000000	6.086673
3309.000000	5.943590
3308.000000	5.809035
3307.000000	5.684186
3306.000000	5.568350
3305.000000	5.462330
3304.000000	5.366835
3303.000000	5.278965
3302.000000	5.194085
3301.000000	5.110784
3300.000000	5.030640
3299.000000	4.953814
3298.000000	4.879234
3297.000000	4.808168
3296.000000	4.742951
3295.000000	4.683038
3294.000000	4.626182
3293.000000	4.573039
3292.000000	4.526431
3291.000000	4.486118
3290.000000	4.449033
3289.000000	4.413795
3288.000000	4.381286
3287.000000	4.351328
3286.000000	4.322562
3285.000000	4.295531
3284.000000	4.271738
3283.000000	4.250419
3282.000000	4.229772
3281.000000	4.210430
3280.000000	4.194145
3279.000000	4.179869
3278.000000	4.165230
3277.000000	4.150880
3276.000000	4.139204
3275.000000	4.129695
3274.000000	4.119776
3273.000000	4.109780
3272.000000	4.102909
3271.000000	4.100552
3270.000000	4.101405
3269.000000	4.104567
3268.000000	4.109739
3267.000000	4.115081
3266.000000	4.118583
3265.000000	4.121137
3264.000000	4.124961
3263.000000	4.129680
3262.000000	4.133479
3261.000000	4.136875
3260.000000	4.141704
3259.000000	4.147496
3258.000000	4.152560
3257.000000	4.157775
3256.000000	4.165343
3255.000000	4.174804
3254.000000	4.183909
3253.000000	4.192550
3252.000000	4.202017
3251.000000	4.211434
3250.000000	4.218923
3249.000000	4.225549
3248.000000	4.234293
3247.000000	4.245617
3246.000000	4.257612
3245.000000	4.269637
3244.000000	4.282375
3243.000000	4.294954
3242.000000	4.305812
3241.000000	4.315708
3240.000000	4.326596
3239.000000	4.338088
3238.000000	4.348225
3237.000000	4.356869
3236.000000	4.365368
3235.000000	4.373958
3234.000000	4.382583
3233.000000	4.392967
3232.000000	4.406443
3231.000000	4.420835
3230.000000	4.432865
3229.000000	4.442551
3228.000000	4.452037
3227.000000	4.461568
3226.000000	4.469965
3225.000000	4.477808
3224.000000	4.486471
3223.000000	4.495147
3222.000000	4.502194
3221.000000	4.508396
3220.000000	4.515548
3219.000000	4.522914
3218.000000	4.528386
3217.000000	4.532068
3216.000000	4.535479
3215.000000	4.538468
3214.000000	4.539991
3213.000000	4.540744
3212.000000	4.541795
3211.000000	4.541940
3210.000000	4.539583
3209.000000	4.535809
3208.000000	4.532556
3207.000000	4.529252
3206.000000	4.524404
3205.000000	4.518953
3204.000000	4.514531
3203.000000	4.509976
3202.000000	4.503026
3201.000000	4.494086
3200.000000	4.485021
3199.000000	4.475482
3198.000000	4.463895
3197.000000	4.450785
3196.000000	4.437802
3195.000000	4.424703
3194.000000	4.410454
3193.000000	4.395948
3192.000000	4.382524
3191.000000	4.369098
3190.000000	4.353962
3189.000000	4.337942
3188.000000	4.322686
3187.000000	4.307353
3186.000000	4.290186
3185.000000	4.271968
3184.000000	4.254633
3183.000000	4.237882
3182.000000	4.220265
3181.000000	4.202245
3180.000000	4.185138
3179.000000	4.168482
3178.000000	4.151415
3177.000000	4.135125
3176.000000	4.120958
3175.000000	4.107630
3174.000000	4.093293
3173.000000	4.078668
3172.000000	4.065277
3171.000000	4.052357
3170.000000	4.038545
3169.000000	4.024825
3168.000000	4.012800
3167.000000	4.001700
3166.000000	3.990164
3165.000000	3.979151
3164.000000	3.970112
3163.000000	3.962114
3162.000000	3.953750
3161.000000	3.946100
3160.000000	3.940717
3159.000000	3.936507
3158.000000	3.931594
3157.000000	3.926345
3156.000000	3.921776
3155.000000	3.917088
3154.000000	3.911898
3153.000000	3.908843
3152.000000	3.910466
3151.000000	3.915405
3150.000000	3.920714
3149.000000	3.926101
3148.000000	3.932769
3147.000000	3.940087
3146.000000	3.946821
3145.000000	3.953842
3144.000000	3.962312
3143.000000	3.970943
3142.000000	3.978230
3141.000000	3.985863
3140.000000	3.996768
3139.000000	4.011171
3138.000000	4.027413
3137.000000	4.044910
3136.000000	4.063522
3135.000000	4.081854
3134.000000	4.098989
3133.000000	4.116475
3132.000000	4.135964
3131.000000	4.156784
3130.000000	4.178178
3129.000000	4.201553
3128.000000	4.227886
3127.000000	4.255087
3126.000000	4.280779
3125.000000	4.305528
3124.000000	4.330652
3123.000000	4.355364
3122.000000	4.379041
3121.000000	4.403870
3120.000000	4.432095
3119.000000	4.462720
3118.000000	4.494059
3117.000000	4.527318
3116.000000	4.564453
3115.000000	4.604535
3114.000000	4.645139
3113.000000	4.685451
3112.000000	4.725248
3111.000000	4.763302
3110.000000	4.799808
3109.000000	4.838104
3108.000000	4.880734
3107.000000	4.925754
3106.000000	4.969816
3105.000000	5.012771
3104.000000	5.056248
3103.000000	5.100130
3102.000000	5.143792
3101.000000	5.188727
3100.000000	5.236655
3099.000000	5.286558
3098.000000	5.336610
3097.000000	5.387193
3096.000000	5.439132
3095.000000	5.491009
3094.000000	5.541241
3093.000000	5.591085
3092.000000	5.642728
3091.000000	5.696087
3090.000000	5.750098
3089.000000	5.805170
3088.000000	5.861727
3087.000000	5.918342
3086.000000	5.974028
3085.000000	6.030468
3084.000000	6.089314
3083.000000	6.149307
3082.000000	6.208850
3081.000000	6.269228
3080.000000	6.332572
3079.000000	6.398522
3078.000000	6.465661
3077.000000	6.534222
3076.000000	6.604514
3075.000000	6.674683
3074.000000	6.742881
3073.000000	6.809867
3072.000000	6.876980
3071.000000	6.943536
3070.000000	7.009008
3069.000000	7.075746
3068.000000	7.146493
3067.000000	7.220842
3066.000000	7.296618
3065.000000	7.373141
3064.000000	7.450530
3063.000000	7.527682
3062.000000	7.603599
3061.000000	7.679147
3060.000000	7.755229
3059.000000	7.830943
3058.000000	7.905693
3057.000000	7.981135
3056.000000	8.058686
3055.000000	8.137053
3054.000000	8.214690
3053.000000	8.292722
3052.000000	8.373071
3051.000000	8.455421
3050.000000	8.538287
3049.000000	8.621215
3048.000000	8.703793
3047.000000	8.784506
3046.000000	8.862941
3045.000000	8.941298
3044.000000	9.021654
3043.000000	9.103564
3042.000000	9.186187
3041.000000	9.270389
3040.000000	9.356408
3039.000000	9.441831
3038.000000	9.524513
3037.000000	9.605710
3036.000000	9.688082
3035.000000	9.772377
3034.000000	9.858124
3033.000000	9.945468
3032.000000	10.034011
3031.000000	10.121724
3030.000000	10.207231
3029.000000	10.291407
3028.000000	10.375070
3027.000000	10.457397
3026.000000	10.538535
3025.000000	10.621159
3024.000000	10.706991
3023.000000	10.794032
3022.000000	10.879610
3021.000000	10.963977
3020.000000	11.048515
3019.000000	11.132663
3018.000000	11.215304
3017.000000	11.297254
3016.000000	11.379857
3015.000000	11.462903
3014.000000	11.546245
3013.000000	11.631642
3012.000000	11.720513
3011.000000	11.811562
3010.000000	11.902649
3009.000000	11.993318
3008.000000	12.083528
3007.000000	12.172050
3006.000000	12.258366
3005.000000	12.344322
3004.000000	12.431715
3003.000000	12.519766
3002.000000	12.606879
3001.000000	12.693061
3000.000000	12.778858
2999.000000	12.863864
2998.000000	12.948178
2997.000000	13.033311
2996.000000	13.119774
2995.000000	13.205873
2994.000000	13.290873
2993.000000	13.377120
2992.000000	13.466786
2991.000000	13.558585
2990.000000	13.649931
2989.000000	13.740388
2988.000000	13.830643
2987.000000	13.920046
2986.000000	14.007568
2985.000000	14.093688
2984.000000	14.179215
2983.000000	14.263863
2982.000000	14.347962
2981.000000	14.433722
2980.000000	14.522583
2979.000000	14.612823
2978.000000	14.701938
2977.000000	14.789894
2976.000000	14.878222
2975.000000	14.967527
2974.000000	15.057841
2973.000000	15.149681
2972.000000	15.242711
2971.000000	15.334870
2970.000000	15.424703
2969.000000	15.513152
2968.000000	15.601365
2967.000000	15.688643
2966.000000	15.774276
2965.000000	15.859563
2964.000000	15.945974
2963.000000	16.033131
2962.000000	16.120473
2961.000000	16.208946
2960.000000	16.299053
2959.000000	16.389198
2958.000000	16.477910
2957.000000	16.565725
2956.000000	16.653036
2955.000000	16.738440
2954.000000	16.821341
2953.000000	16.903796
2952.000000	16.987406
2951.000000	17.070503
2950.000000	17.150973
2949.000000	17.229815
2948.000000	17.309531
2947.000000	17.390866
2946.000000	17.473576
2945.000000	17.558659
2944.000000	17.647052
2943.000000	17.737352
2942.000000	17.827082
2941.000000	17.915221
2940.000000	18.001627
2939.000000	18.085482
2938.000000	18.166351
2937.000000	18.245516
2936.000000	18.324399
2935.000000	18.402818
2934.000000	18.480512
2933.000000	18.558822
2932.000000	18.639182
2931.000000	18.721375
2930.000000	18.804874
2929.000000	18.890094
2928.000000	18.976557
2927.000000	19.061762
2926.000000	19.143944
2925.000000	19.224170
2924.000000	19.303944
2923.000000	19.382669
2922.000000	19.459481
2921.000000	19.535525
2920.000000	19.612205
2919.000000	19.689006
2918.000000	19.765076
2917.000000	19.841338
2916.000000	19.918958
2915.000000	19.997216
2914.000000	20.074650
2913.000000	20.150906
2912.000000	20.225930
2911.000000	20.298923
2910.000000	20.369736
2909.000000	20.439921
2908.000000	20.510877
2907.000000	20.582186
2906.000000	20.652924
2905.000000	20.723081
2904.000000	20.792504
2903.000000	20.860167
2902.000000	20.925951
2901.000000	20.991612
2900.000000	21.058790
2899.000000	21.127475
2898.000000	21.197422
2897.000000	21.269053
2896.000000	21.341709
2895.000000	21.412953
2894.000000	21.481216
2893.000000	21.547471
2892.000000	21.612883
2891.000000	21.676624
2890.000000	21.737467
2889.000000	21.795838
2888.000000	21.852713
2887.000000	21.908144
2886.000000	21.962441
2885.000000	22.017218
2884.000000	22.073604
2883.000000	22.130741
2882.000000	22.187389
2881.000000	22.243547
2880.000000	22.299122
2879.000000	22.352631
2878.000000	22.402920
2877.000000	22.450825
2876.000000	22.497622
2875.000000	22.543071
2874.000000	22.586458
2873.000000	22.628324
2872.000000	22.669892
2871.000000	22.712177
2870.000000	22.756878
2869.000000	22.806652
2868.000000	22.862899
2867.000000	22.924464
2866.000000	22.989773
2865.000000	23.058763
2864.000000	23.131612
2863.000000	23.207238
2862.000000	23.284493
2861.000000	23.363339
2860.000000	23.443570
2859.000000	23.523902
2858.000000	23.603725
2857.000000	23.684159
2856.000000	23.766109
2855.000000	23.848865
2854.000000	23.931847
2853.000000	24.015937
2852.000000	24.101685
2851.000000	24.187853
2850.000000	24.273141
2849.000000	24.357741
2848.000000	24.441881
2847.000000	24.524475
2846.000000	24.604624
2845.000000	24.682910
2844.000000	24.759898
2843.000000	24.834916
2842.000000	24.907666
2841.000000	24.979449
2840.000000	25.051328
2839.000000	25.122524
2838.000000	25.192069
2837.000000	25.260760
2836.000000	25.330115
2835.000000	25.400600
2834.000000	25.472114
2833.000000	25.544853
2832.000000	25.618343
2831.000000	25.690797
2830.000000	25.760775
2829.000000	25.828448
2828.000000	25.894256
2827.000000	25.957690
2826.000000	26.018650
2825.000000	26.078594
2824.000000	26.139016
2823.000000	26.199912
2822.000000	26.261005
2821.000000	26.323212
2820.000000	26.387473
2819.000000	26.453213
2818.000000	26.519265
2817.000000	26.585276
2816.000000	26.651026
2815.000000	26.715497
2814.000000	26.777958
2813.000000	26.839034
2812.000000	26.899547
2811.000000	26.959251
2810.000000	27.017794
2809.000000	27.075878
2808.000000	27.134354
2807.000000	27.193222
2806.000000	27.252576
2805.000000	27.313390
2804.000000	27.376112
2803.000000	27.439515
2802.000000	27.502163
2801.000000	27.564046
2800.000000	27.625732
2799.000000	27.686910
2798.000000	27.746912
2797.000000	27.805758
2796.000000	27.863590
2795.000000	27.920040
2794.000000	27.975202
2793.000000	28.030280
2792.000000	28.086275
2791.000000	28.142910
2790.000000	28.199671
2789.000000	28.256743
2788.000000	28.313997
2787.000000	28.370337
2786.000000	28.425173
2785.000000	28.479411
2784.000000	28.533876
2783.000000	28.587880
2782.000000	28.640468
2781.000000	28.691944
2780.000000	28.742951
2779.000000	28.793232
2778.000000	28.842606
2777.000000	28.892041
2776.000000	28.942368
2775.000000	28.992818
2774.000000	29.042140
2773.000000	29.090359
2772.000000	29.138193
2771.000000	29.185669
2770.000000	29.232601
2769.000000	29.279586
2768.000000	29.327231
2767.000000	29.375067
2766.000000	29.422401
2765.000000	29.469534
2764.000000	29.517046
2763.000000	29.564690
2762.000000	29.612157
2761.000000	29.660136
2760.000000	29.709429
2759.000000	29.759683
2758.000000	29.810045
2757.000000	29.860342
2756.000000	29.910553
2755.000000	29.959902
2754.000000	30.007605
2753.000000	30.053897
2752.000000	30.099278
2751.000000	30.143508
2750.000000	30.186341
2749.000000	30.228424
2748.000000	30.270404
2747.000000	30.311912
2746.000000	30.352591
2745.000000	30.393389
2744.000000	30.435625
2743.000000	30.479394
2742.000000	30.523971
2741.000000	30.569062
2740.000000	30.614462
2739.000000	30.659085
2738.000000	30.701608
2737.000000	30.741733
2736.000000	30.779897
2735.000000	30.816315
2734.000000	30.851228
2733.000000	30.885546
2732.000000	30.920214
2731.000000	30.955402
2730.000000	30.991237
2729.000000	31.028609
2728.000000	31.068158
2727.000000	31.108966
2726.000000	31.149270
2725.000000	31.188047
2724.000000	31.225049
2723.000000	31.259914
2722.000000	31.292344
2721.000000	31.322809
2720.000000	31.352231
2719.000000	31.381236
2718.000000	31.410354
2717.000000	31.440334
2716.000000	31.471439
2715.000000	31.503049
2714.000000	31.534708
2713.000000	31.566875
2712.000000	31.599878
2711.000000	31.632823
2710.000000	31.664509
2709.000000	31.694755
2708.000000	31.723979
2707.000000	31.752133
2706.000000	31.778977
2705.000000	31.804817
2704.000000	31.829923
2703.000000	31.853762
2702.000000	31.875797
2701.000000	31.896514
2700.000000	31.916839
2699.000000	31.937037
2698.000000	31.957017
2697.000000	31.977167
2696.000000	31.997918
2695.000000	32.019006
2694.000000	32.039953
2693.000000	32.060746
2692.000000	32.081240
2691.000000	32.100446
2690.000000	32.117273
2689.000000	32.131437
2688.000000	32.142947
2687.000000	32.151550
2686.000000	32.157576
2685.000000	32.162693
2684.000000	32.168754
2683.000000	32.176293
2682.000000	32.185016
2681.000000	32.195052
2680.000000	32.206667
2679.000000	32.219241
2678.000000	32.231518
2677.000000	32.242599
2676.000000	32.252010
2675.000000	32.259404
2674.000000	32.265036
2673.000000	32.270081
2672.000000	32.275774
2671.000000	32.282812
2670.000000	32.292174
2669.000000	32.305674
2668.000000	32.324865
2667.000000	32.349859
2666.000000	32.380085
2665.000000	32.415473
2664.000000	32.455860
2663.000000	32.500255
2662.000000	32.547400
2661.000000	32.596619
2660.000000	32.647428
2659.000000	32.698850
2658.000000	32.750215
2657.000000	32.801869
2656.000000	32.854240
2655.000000	32.906915
2654.000000	32.959385
2653.000000	33.012032
2652.000000	33.065350
2651.000000	33.118868
2650.000000	33.171951
2649.000000	33.225097
2648.000000	33.279364
2647.000000	33.334870
2646.000000	33.390811
2645.000000	33.446565
2644.000000	33.501789
2643.000000	33.555711
2642.000000	33.607301
2641.000000	33.656034
2640.000000	33.701742
2639.000000	33.744195
2638.000000	33.783531
2637.000000	33.820813
2636.000000	33.857384
2635.000000	33.893755
2634.000000	33.929897
2633.000000	33.966121
2632.000000	34.002902
2631.000000	34.040138
2630.000000	34.077214
2629.000000	34.113558
2628.000000	34.148442
2627.000000	34.180691
2626.000000	34.209488
2625.000000	34.235169
2624.000000	34.258731
2623.000000	34.280829
2622.000000	34.301862
2621.000000	34.322651
2620.000000	34.344104
2619.000000	34.366558
2618.000000	34.390029
2617.000000	34.414687
2616.000000	34.440435
2615.000000	34.466396
2614.000000	34.491508
2613.000000	34.515291
2612.000000	34.537423
2611.000000	34.557164
2610.000000	34.573835
2609.000000	34.587487
2608.000000	34.598454
2607.000000	34.606621
2606.000000	34.612016
2605.000000	34.615329
2604.000000	34.617109
2603.000000	34.617012
2602.000000	34.614531
2601.000000	34.610177
2600.000000	34.604915
2599.000000	34.599001
2598.000000	34.592380
2597.000000	34.585739
2596.000000	34.580254
2595.000000	34.576652
2594.000000	34.575453
2593.000000	34.577737
2592.000000	34.584960
2591.000000	34.598091
2590.000000	34.617794
2589.000000	34.645027
2588.000000	34.680220
2587.000000	34.722726
2586.000000	34.771484
2585.000000	34.826062
2584.000000	34.886417
2583.000000	34.951659
2582.000000	35.020367
2581.000000	35.091333
2580.000000	35.163312
2579.000000	35.234635
2578.000000	35.303884
2577.000000	35.371076
2576.000000	35.437313
2575.000000	35.503635
2574.000000	35.571015
2573.000000	35.640940
2572.000000	35.714977
2571.000000	35.793711
2570.000000	35.876823
2569.000000	35.964252
2568.000000	36.056132
2567.000000	36.151899
2566.000000	36.250105
2565.000000	36.349141
2564.000000	36.447751
2563.000000	36.544793
2562.000000	36.639416
2561.000000	36.731472
2560.000000	36.821217
2559.000000	36.908544
2558.000000	36.993188
2557.000000	37.075487
2556.000000	37.156323
2555.000000	37.236343
2554.000000	37.315631
2553.000000	37.394174
2552.000000	37.471809
2551.000000	37.547696
2550.000000	37.620733
2549.000000	37.690459
2548.000000	37.757152
2547.000000	37.820925
2546.000000	37.881394
2545.000000	37.938576
2544.000000	37.993112
2543.000000	38.045658
2542.000000	38.096576
2541.000000	38.146235
2540.000000	38.195083
2539.000000	38.242848
2538.000000	38.288396
2537.000000	38.330520
2536.000000	38.368130
2535.000000	38.399978
2534.000000	38.424628
2533.000000	38.441242
2532.000000	38.449934
2531.000000	38.450872
2530.000000	38.444323
2529.000000	38.431144
2528.000000	38.412744
2527.000000	38.390430
2526.000000	38.365216
2525.000000	38.338941
2524.000000	38.314351
2523.000000	38.293945
2522.000000	38.279300
2521.000000	38.271842
2520.000000	38.273134
2519.000000	38.284193
2518.000000	38.305256
2517.000000	38.336079
2516.000000	38.376471
2515.000000	38.425502
2514.000000	38.481387
2513.000000	38.542566
2512.000000	38.607939
2511.000000	38.676563
2510.000000	38.747247
2509.000000	38.819211
2508.000000	38.892611
2507.000000	38.967695
2506.000000	39.044112
2505.000000	39.121023
2504.000000	39.197442
2503.000000	39.272047
2502.000000	39.343247
2501.000000	39.409873
2500.000000	39.471606
2499.000000	39.528617
2498.000000	39.581147
2497.000000	39.630100
2496.000000	39.677150
2495.000000	39.723962
2494.000000	39.771536
2493.000000	39.820337
2492.000000	39.870554
2491.000000	39.921660
2490.000000	39.972269
2489.000000	40.020883
2488.000000	40.066325
2487.000000	40.107559
2486.000000	40.143724
2485.000000	40.174880
2484.000000	40.202280
2483.000000	40.227405
2482.000000	40.251474
2481.000000	40.275881
2480.000000	40.302194
2479.000000	40.331159
2478.000000	40.362288
2477.000000	40.394883
2476.000000	40.428666
2475.000000	40.462989
2474.000000	40.496346
2473.000000	40.527444
2472.000000	40.556110
2471.000000	40.582567
2470.000000	40.606448
2469.000000	40.627427
2468.000000	40.646133
2467.000000	40.663813
2466.000000	40.681417
2465.000000	40.699549
2464.000000	40.718821
2463.000000	40.739611
2462.000000	40.761961
2461.000000	40.786098
2460.000000	40.812543
2459.000000	40.841149
2458.000000	40.870748
2457.000000	40.900164
2456.000000	40.928935
2455.000000	40.956543
2454.000000	40.981753
2453.000000	41.003425
2452.000000	41.021398
2451.000000	41.036130
2450.000000	41.048158
2449.000000	41.058768
2448.000000	41.070345
2447.000000	41.085312
2446.000000	41.105031
2445.000000	41.130120
2444.000000	41.160728
2443.000000	41.195767
2442.000000	41.232612
2441.000000	41.268425
2440.000000	41.301368
2439.000000	41.330010
2438.000000	41.352663
2437.000000	41.368275
2436.000000	41.377610
2435.000000	41.382465
2434.000000	41.384550
2433.000000	41.385593
2432.000000	41.387489
2431.000000	41.391436
2430.000000	41.397729
2429.000000	41.407788
2428.000000	41.425570
2427.000000	41.455644
2426.000000	41.499189
2425.000000	41.552691
2424.000000	41.609635
2423.000000	41.663225
2422.000000	41.708657
2421.000000	41.744489
2420.000000	41.772539
2419.000000	41.795811
2418.000000	41.816767
2417.000000	41.837567
2416.000000	41.860860
2415.000000	41.888880
2414.000000	41.922206
2413.000000	41.960134
2412.000000	42.001843
2411.000000	42.046214
2410.000000	42.091185
2409.000000	42.134365
2408.000000	42.174226
2407.000000	42.210070
2406.000000	42.241380
2405.000000	42.268151
2404.000000	42.291414
2403.000000	42.312722
2402.000000	42.333311
2401.000000	42.354555
2400.000000	42.378448
2399.000000	42.406890
2398.000000	42.440782
2397.000000	42.480463
2396.000000	42.526068
2395.000000	42.576594
2394.000000	42.629366
2393.000000	42.681353
2392.000000	42.730698
2391.000000	42.776322
2390.000000	42.817176
2389.000000	42.852842
2388.000000	42.884519
2387.000000	42.914083
2386.000000	42.943013
2385.000000	42.973183
2384.000000	43.007341
2383.000000	43.048122
2382.000000	43.096488
2381.000000	43.152369
2380.000000	43.215929
2379.000000	43.286539
2378.000000	43.361736
2377.000000	43.438511
2376.000000	43.515099
2375.000000	43.589726
2374.000000	43.659548
2373.000000	43.721656
2372.000000	43.776269
2371.000000	43.826061
2370.000000	43.873022
2369.000000	43.918547
2368.000000	43.966561
2367.000000	44.021479
2366.000000	44.083475
2365.000000	44.150004
2364.000000	44.223100
2363.000000	44.301456
2362.000000	44.379180
2361.000000	44.454614
2360.000000	44.525784
2359.000000	44.594317
2358.000000	44.659514
2357.000000	44.715921
2356.000000	44.767492
2355.000000	44.813598
2354.000000	44.858051
2353.000000	44.906780
2352.000000	44.975989
2351.000000	45.075126
2350.000000	45.180459
2349.000000	45.265480
2348.000000	45.320445
2347.000000	45.364989
2346.000000	45.428995
2345.000000	45.514194
2344.000000	45.609698
2343.000000	45.689344
2342.000000	45.753598
2341.000000	45.810693
2340.000000	45.865561
2339.000000	45.922453
2338.000000	45.979918
2337.000000	46.042872
2336.000000	46.110209
2335.000000	46.185493
2334.000000	46.261036
2333.000000	46.337824
2332.000000	46.410000
2331.000000	46.489494
2330.000000	46.565700
2329.000000	46.645415
2328.000000	46.718718
2327.000000	46.788991
2326.000000	46.852949
2325.000000	46.910078
2324.000000	46.967302
2323.000000	47.026086
2322.000000	47.088633
2321.000000	47.153155
2320.000000	47.219069
2319.000000	47.291129
2318.000000	47.364327
2317.000000	47.440831
2316.000000	47.513139
2315.000000	47.587747
2314.000000	47.657461
2313.000000	47.726513
2312.000000	47.787859
2311.000000	47.847991
2310.000000	47.902269
2309.000000	47.955745
2308.000000	48.006706
2307.000000	48.062483
2306.000000	48.122240
2305.000000	48.189272
2304.000000	48.261312
2303.000000	48.340985
2302.000000	48.423115
2301.000000	48.506597
2300.000000	48.586262
2299.000000	48.663525
2298.000000	48.733951
2297.000000	48.797434
2296.000000	48.852398
2295.000000	48.902962
2294.000000	48.950619
2293.000000	48.998294
2292.000000	49.049340
2291.000000	49.107763
2290.000000	49.174269
2289.000000	49.246240
2288.000000	49.321838
2287.000000	49.399425
2286.000000	49.476654
2285.000000	49.549304
2284.000000	49.615507
2283.000000	49.674705
2282.000000	49.726790
2281.000000	49.771687
2280.000000	49.812286
2279.000000	49.852961
2278.000000	49.896176
2277.000000	49.942472
2276.000000	49.992678
2275.000000	50.048624
2274.000000	50.109606
2273.000000	50.173232
2272.000000	50.237677
2271.000000	50.302328
2270.000000	50.365160
2269.000000	50.423233
2268.000000	50.475358
2267.000000	50.522048
2266.000000	50.562805
2265.000000	50.596921
2264.000000	50.626034
2263.000000	50.653414
2262.000000	50.680942
2261.000000	50.709000
2260.000000	50.739994
2259.000000	50.776892
2258.000000	50.820209
2257.000000	50.867831
2256.000000	50.918347
2255.000000	50.970982
2254.000000	51.022155
2253.000000	51.066788
2252.000000	51.101748
2251.000000	51.127020
2250.000000	51.142072
2249.000000	51.146279
2248.000000	51.142375
2247.000000	51.135382
2246.000000	51.129363
2245.000000	51.126700
2244.000000	51.130523
2243.000000	51.143895
2242.000000	51.166401
2241.000000	51.194242
2240.000000	51.223800
2239.000000	51.251966
2238.000000	51.273941
2237.000000	51.284281
2236.000000	51.280933
2235.000000	51.265256
2234.000000	51.238638
2233.000000	51.202491
2232.000000	51.161027
2231.000000	51.120517
2230.000000	51.085169
2229.000000	51.056801
2228.000000	51.037538
2227.000000	51.029385
2226.000000	51.030813
2225.000000	51.037107
2224.000000	51.044102
2223.000000	51.048915
2222.000000	51.047626
2221.000000	51.036080
2220.000000	51.013436
2219.000000	50.981855
2218.000000	50.943138
2217.000000	50.898696
2216.000000	50.852586
2215.000000	50.810673
2214.000000	50.776704
2213.000000	50.751889
2212.000000	50.737841
2211.000000	50.736331
2210.000000	50.745945
2209.000000	50.762325
2208.000000	50.781604
2207.000000	50.800967
2206.000000	50.816156
2205.000000	50.822469
2204.000000	50.818513
2203.000000	50.806238
2202.000000	50.787505
2201.000000	50.763940
2200.000000	50.739694
2199.000000	50.720635
2198.000000	50.710501
2197.000000	50.710582
2196.000000	50.722699
2195.000000	50.748519
2194.000000	50.785964
2193.000000	50.829381
2192.000000	50.873726
2191.000000	50.915579
2190.000000	50.950899
2189.000000	50.975622
2188.000000	50.988919
2187.000000	50.992790
2186.000000	50.988588
2185.000000	50.977531
2184.000000	50.964001
2183.000000	50.954452
2182.000000	50.952496
2181.000000	50.958471
2180.000000	50.973111
2179.000000	50.997806
2178.000000	51.030955
2177.000000	51.067791
2176.000000	51.104230
2175.000000	51.137710
2174.000000	51.164458
2173.000000	51.179876
2172.000000	51.182524
2171.000000	51.174478
2170.000000	51.158035
2169.000000	51.135384
2168.000000	51.111334
2167.000000	51.092203
2166.000000	51.081735
2165.000000	51.080939
2164.000000	51.091372
2163.000000	51.114584
2162.000000	51.148090
2161.000000	51.185636
2160.000000	51.221804
2159.000000	51.253369
2158.000000	51.276507
2157.000000	51.287334
2156.000000	51.285739
2155.000000	51.275315
2154.000000	51.259168
2153.000000	51.239334
2152.000000	51.220023
2151.000000	51.207338
2150.000000	51.205108
2149.000000	51.213801
2148.000000	51.233236
2147.000000	51.262365
2146.000000	51.296584
2145.000000	51.329037
2144.000000	51.355606
2143.000000	51.375389
2142.000000	51.386881
2141.000000	51.387802
2140.000000	51.379168
2139.000000	51.365615
2138.000000	51.351052
2137.000000	51.337343
2136.000000	51.327090
2135.000000	51.323801
2134.000000	51.328544
2133.000000	51.340020
2132.000000	51.357870
2131.000000	51.382532
2130.000000	51.411781
2129.000000	51.441198
2128.000000	51.468230
2127.000000	51.492490
2126.000000	51.512290
2125.000000	51.524866
2124.000000	51.530417
2123.000000	51.532146
2122.000000	51.532151
2121.000000	51.530762
2120.000000	51.530125
2119.000000	51.534480
2118.000000	51.546774
2117.000000	51.568182
2116.000000	51.600401
2115.000000	51.644277
2114.000000	51.696052
2113.000000	51.748838
2112.000000	51.798257
2111.000000	51.843346
2110.000000	51.882585
2109.000000	51.913865
2108.000000	51.938532
2107.000000	51.961275
2106.000000	51.985554
2105.000000	52.013147
2104.000000	52.047699
2103.000000	52.094195
2102.000000	52.154369
2101.000000	52.226124
2100.000000	52.307431
2099.000000	52.396448
2098.000000	52.488159
2097.000000	52.575593
2096.000000	52.654806
2095.000000	52.725354
2094.000000	52.786990
2093.000000	52.840486
2092.000000	52.890967
2091.000000	52.945093
2090.000000	53.004708
2089.000000	53.067609
2088.000000	53.133812
2087.000000	53.205842
2086.000000	53.283101
2085.000000	53.361358
2084.000000	53.437725
2083.000000	53.511198
2082.000000	53.578280
2081.000000	53.633813
2080.000000	53.676594
2079.000000	53.709122
2078.000000	53.732346
2077.000000	53.745876
2076.000000	53.752489
2075.000000	53.757362
2074.000000	53.762245
2073.000000	53.766159
2072.000000	53.771158
2071.000000	53.780446
2070.000000	53.791776
2069.000000	53.799961
2068.000000	53.806584
2067.000000	53.819607
2066.000000	53.841492
2065.000000	53.864335
2064.000000	53.879345
2063.000000	53.885020
2062.000000	53.884150
2061.000000	53.879508
2060.000000	53.874963
2059.000000	53.875682
2058.000000	53.884609
2057.000000	53.902453
2056.000000	53.931564
2055.000000	53.975192
2054.000000	54.031999
2053.000000	54.096246
2052.000000	54.164181
2051.000000	54.235149
2050.000000	54.305954
2049.000000	54.371141
2048.000000	54.429503
2047.000000	54.483910
2046.000000	54.535362
2045.000000	54.584175
2044.000000	54.637358
2043.000000	54.706596
2042.000000	54.796659
2041.000000	54.902302
2040.000000	55.017681
2039.000000	55.142130
2038.000000	55.275268
2037.000000	55.413397
2036.000000	55.553419
2035.000000	55.694350
2034.000000	55.833204
2033.000000	55.965061
2032.000000	56.088677
2031.000000	56.207338
2030.000000	56.322865
2029.000000	56.435355
2028.000000	56.548566
2027.000000	56.669362
2026.000000	56.800478
2025.000000	56.939954
2024.000000	57.087576
2023.000000	57.243320
2022.000000	57.400574
2021.000000	57.551041
2020.000000	57.697815
2019.000000	57.853432
2018.000000	58.021015
2017.000000	58.186219
2016.000000	58.332678
2015.000000	58.456654
2014.000000	58.563380
2013.000000	58.659522
2012.000000	58.753524
2011.000000	58.854860
2010.000000	58.968022
2009.000000	59.091973
2008.000000	59.225819
2007.000000	59.369677
2006.000000	59.518807
2005.000000	59.663918
2004.000000	59.799759
2003.000000	59.925666
2002.000000	60.039402
2001.000000	60.136709
2000.000000	60.219327
1999.000000	60.295116
1998.000000	60.364522
1997.000000	60.418513
1996.000000	60.456412
1995.000000	60.497262
1994.000000	60.566247
1993.000000	60.670861
1992.000000	60.795358
1991.000000	60.920295
1990.000000	61.038460
1989.000000	61.151671
1988.000000	61.261471
1987.000000	61.364109
1986.000000	61.452735
1985.000000	61.524343
1984.000000	61.583946
1983.000000	61.638151
1982.000000	61.688160
1981.000000	61.732138
1980.000000	61.773467
1979.000000	61.820456
1978.000000	61.876586
1977.000000	61.939267
1976.000000	62.008291
1975.000000	62.087558
1974.000000	62.175416
1973.000000	62.260531
1972.000000	62.330537
1971.000000	62.381299
1970.000000	62.419073
1969.000000	62.459238
1968.000000	62.516008
1967.000000	62.584887
1966.000000	62.643628
1965.000000	62.677082
1964.000000	62.694728
1963.000000	62.718644
1962.000000	62.759519
1961.000000	62.812397
1960.000000	62.871806
1959.000000	62.937970
1958.000000	63.009455
1957.000000	63.082171
1956.000000	63.154638
1955.000000	63.225137
1954.000000	63.284546
1953.000000	63.323889
1952.000000	63.345211
1951.000000	63.355598
1950.000000	63.357904
1949.000000	63.354048
1948.000000	63.350686
1947.000000	63.352783
1946.000000	63.359871
1945.000000	63.381353
1944.000000	63.442676
1943.000000	63.550425
1942.000000	63.667340
1941.000000	63.751878
1940.000000	63.801199
1939.000000	63.836807
1938.000000	63.868587
1937.000000	63.889952
1936.000000	63.900353
1935.000000	63.910815
1934.000000	63.925105
1933.000000	63.937513
1932.000000	63.947763
1931.000000	63.961588
1930.000000	63.981506
1929.000000	64.000891
1928.000000	64.010810
1927.000000	64.005249
1926.000000	63.987885
1925.000000	63.984512
1924.000000	64.026220
1923.000000	64.106557
1922.000000	64.182895
1921.000000	64.227011
1920.000000	64.252292
1919.000000	64.283026
1918.000000	64.307173
1917.000000	64.297251
1916.000000	64.261191
1915.000000	64.226385
1914.000000	64.198191
1913.000000	64.167815
1912.000000	64.144390
1911.000000	64.151909
1910.000000	64.195126
1909.000000	64.248156
1908.000000	64.287900
1907.000000	64.311695
1906.000000	64.321379
1905.000000	64.317469
1904.000000	64.305520
1903.000000	64.295185
1902.000000	64.288702
1901.000000	64.277984
1900.000000	64.259065
1899.000000	64.236887
1898.000000	64.218809
1897.000000	64.217643
1896.000000	64.337899
1895.000000	64.359275
1894.000000	64.382951
1893.000000	64.405047
1892.000000	64.302286
1891.000000	64.323907
1890.000000	64.386514
1889.000000	64.440473
1888.000000	64.456065
1887.000000	64.452698
1886.000000	64.455255
1885.000000	64.466860
1884.000000	64.480957
1883.000000	64.496056
1882.000000	64.511887
1881.000000	64.524823
1880.000000	64.537650
1879.000000	64.558457
1878.000000	64.584070
1877.000000	64.602135
1876.000000	64.608693
1875.000000	64.606206
1874.000000	64.588473
1873.000000	64.543131
1872.000000	64.471561
1871.000000	64.405465
1870.000000	64.393311
1869.000000	64.442256
1868.000000	64.510929
1867.000000	64.569218
1866.000000	64.606625
1865.000000	64.616396
1864.000000	64.605696
1863.000000	64.592539
1862.000000	64.582915
1861.000000	64.569161
1860.000000	64.551680
1859.000000	64.540163
1858.000000	64.533294
1857.000000	64.518407
1856.000000	64.495473
1855.000000	64.477943
1854.000000	64.468864
1853.000000	64.452371
1852.000000	64.417490
1851.000000	64.372979
1850.000000	64.332812
1849.000000	64.309926
1848.000000	64.319016
1847.000000	64.365785
1846.000000	64.433655
1845.000000	64.482301
1844.000000	64.462230
1843.000000	64.375686
1842.000000	64.272383
1841.000000	64.177821
1840.000000	64.096693
1839.000000	64.040469
1838.000000	64.015019
1837.000000	64.005207
1836.000000	63.990259
1835.000000	63.961721
1834.000000	63.913564
1833.000000	63.837765
1832.000000	63.762076
1831.000000	63.747626
1830.000000	63.777048
1829.000000	63.764150
1828.000000	63.692224
1827.000000	63.614153
1826.000000	63.566168
1825.000000	63.526902
1824.000000	63.468041
1823.000000	63.403808
1822.000000	63.351207
1821.000000	63.302425
1820.000000	63.254635
1819.000000	63.221310
1818.000000	63.203575
1817.000000	63.177572
1816.000000	63.119589
1815.000000	63.030668
1814.000000	62.924033
1813.000000	62.817324
1812.000000	62.735538
1811.000000	62.683995
1810.000000	62.637165
1809.000000	62.572974
1808.000000	62.498696
1807.000000	62.431528
1806.000000	62.367368
1805.000000	62.291144
1804.000000	62.209266
1803.000000	62.155336
1802.000000	62.147571
1801.000000	62.155589
1800.000000	62.134687
1799.000000	62.070020
1798.000000	61.978498
1797.000000	61.888122
1796.000000	61.821129
1795.000000	61.778145
1794.000000	61.746667
1793.000000	61.719846
1792.000000	61.679493
1791.000000	61.614001
1790.000000	61.539950
1789.000000	61.470833
1788.000000	61.413799
1787.000000	61.375920
1786.000000	61.345789
1785.000000	61.291006
1784.000000	61.197617
1783.000000	61.098804
1782.000000	61.033236
1781.000000	60.992616
1780.000000	60.936235
1779.000000	60.843289
1778.000000	60.729157
1777.000000	60.618295
1776.000000	60.531245
1775.000000	60.475760
1774.000000	60.462127
1773.000000	60.491996
1772.000000	60.508883
1771.000000	60.477682
1770.000000	60.426585
1769.000000	60.367679
1768.000000	60.285544
1767.000000	60.179068
1766.000000	60.068004
1765.000000	59.961507
1764.000000	59.863064
1763.000000	59.784673
1762.000000	59.700216
1761.000000	59.570057
1760.000000	59.424698
1759.000000	59.327330
1758.000000	59.298229
1757.000000	59.286202
1756.000000	59.242186
1755.000000	59.183414
1754.000000	59.123234
1753.000000	59.025027
1752.000000	58.869156
1751.000000	58.695714
1750.000000	58.556562
1749.000000	58.454098
1748.000000	58.347021
1747.000000	58.213297
1746.000000	58.066568
1745.000000	57.934990
1744.000000	57.847037
1743.000000	57.810858
1742.000000	57.797219
1741.000000	57.760307
1740.000000	57.676988
1739.000000	57.573748
1738.000000	57.507863
1737.000000	57.474487
1736.000000	57.412638
1735.000000	57.302235
1734.000000	57.074306
1733.000000	56.708985
1732.000000	56.362076
1731.000000	56.130887
1730.000000	55.974828
1729.000000	55.802924
1728.000000	55.585834
1727.000000	55.357802
1726.000000	55.142912
1725.000000	54.936803
1724.000000	54.739610
1723.000000	54.565480
1722.000000	54.414638
1721.000000	54.244959
1720.000000	54.018319
1719.000000	53.783926
1718.000000	53.572545
1717.000000	53.311070
1716.000000	52.995625
1715.000000	52.682195
1714.000000	52.367448
1713.000000	52.033062
1712.000000	51.699572
1711.000000	51.397590
1710.000000	51.118712
1709.000000	50.831479
1708.000000	50.535150
1707.000000	50.267768
1706.000000	50.036527
1705.000000	49.820699
1704.000000	49.669826
1703.000000	49.602694
1702.000000	49.481310
1701.000000	49.128858
1700.000000	48.528804
1699.000000	47.938398
1698.000000	47.572341
1697.000000	47.352509
1696.000000	47.039499
1695.000000	46.549900
1694.000000	46.043269
1693.000000	45.611805
1692.000000	45.227379
1691.000000	44.857407
1690.000000	44.503168
1689.000000	44.176211
1688.000000	43.893138
1687.000000	43.626357
1686.000000	43.321922
1685.000000	42.979604
1684.000000	42.497448
1683.000000	41.898710
1682.000000	41.378976
1681.000000	40.967056
1680.000000	40.618510
1679.000000	40.319404
1678.000000	40.058037
1677.000000	39.771629
1676.000000	39.389302
1675.000000	38.907529
1674.000000	38.412246
1673.000000	37.977616
1672.000000	37.603569
1671.000000	37.264769
1670.000000	36.909128
1669.000000	36.469004
1668.000000	35.979041
1667.000000	35.537769
1666.000000	35.166832
1665.000000	34.814414
1664.000000	34.444669
1663.000000	34.058864
1662.000000	33.660247
1661.000000	33.255402
1660.000000	32.859488
1659.000000	32.495964
1658.000000	32.185571
1657.000000	31.938759
1656.000000	31.721194
1655.000000	31.515137
1654.000000	31.310070
1653.000000	30.838492
1652.000000	30.140321
1651.000000	29.594432
1650.000000	29.235844
1649.000000	28.967375
1648.000000	28.743430
1647.000000	28.516543
1646.000000	28.207137
1645.000000	27.837621
1644.000000	27.483773
1643.000000	27.180792
1642.000000	26.908874
1641.000000	26.630605
1640.000000	26.349788
1639.000000	26.104867
1638.000000	25.913066
1637.000000	25.758875
1636.000000	25.565683
1635.000000	25.274378
1634.000000	24.956900
1633.000000	24.682597
1632.000000	24.455159
1631.000000	24.261993
1630.000000	24.089011
1629.000000	23.920454
1628.000000	23.749139
1627.000000	23.587225
1626.000000	23.442691
1625.000000	23.303827
1624.000000	23.163922
1623.000000	23.023065
1622.000000	22.885945
1621.000000	22.765508
1620.000000	22.674898
1619.000000	22.620960
1618.000000	22.601878
1617.000000	22.581900
1616.000000	22.516823
1615.000000	22.434403
1614.000000	22.376934
1613.000000	22.340050
1612.000000	22.308460
1611.000000	22.287706
1610.000000	22.287799
1609.000000	22.299975
1608.000000	22.312610
1607.000000	22.329561
1606.000000	22.355671
1605.000000	22.384810
1604.000000	22.418436
1603.000000	22.471173
1602.000000	22.546131
1601.000000	22.625519
1600.000000	22.696361
1599.000000	22.764889
1598.000000	22.837485
1597.000000	22.909345
1596.000000	22.979234
1595.000000	23.053759
1594.000000	23.130531
1593.000000	23.196331
1592.000000	23.249384
1591.000000	23.304822
1590.000000	23.371631
1589.000000	23.441483
1588.000000	23.508615
1587.000000	23.581107
1586.000000	23.663789
1585.000000	23.747708
1584.000000	23.825827
1583.000000	23.902028
1582.000000	23.975290
1581.000000	24.036368
1580.000000	24.086646
1579.000000	24.142214
1578.000000	24.222554
1577.000000	24.328387
1576.000000	24.405334
1575.000000	24.419601
1574.000000	24.416870
1573.000000	24.432554
1572.000000	24.469636
1571.000000	24.542517
1570.000000	24.657671
1569.000000	24.759697
1568.000000	24.813036
1567.000000	24.851449
1566.000000	24.909872
1565.000000	24.991095
1564.000000	25.087027
1563.000000	25.202213
1562.000000	25.314372
1561.000000	25.358373
1560.000000	25.473342
1559.000000	25.727245
1558.000000	25.833072
1557.000000	25.816479
1556.000000	25.822282
1555.000000	25.892798
1554.000000	25.990664
1553.000000	26.078760
1552.000000	26.171173
1551.000000	26.311997
1550.000000	26.508852
1549.000000	26.710193
1548.000000	26.870917
1547.000000	26.995188
1546.000000	27.121569
1545.000000	27.288122
1544.000000	27.493928
1543.000000	27.712292
1542.000000	27.965996
1541.000000	28.357751
1540.000000	28.835630
1539.000000	29.186206
1538.000000	29.392827
1537.000000	29.560742
1536.000000	29.759326
1535.000000	30.041375
1534.000000	30.441020
1533.000000	30.871894
1532.000000	31.221442
1531.000000	31.499515
1530.000000	31.765016
1529.000000	32.054640
1528.000000	32.388738
1527.000000	32.777019
1526.000000	33.193903
1525.000000	33.593412
1524.000000	33.972112
1523.000000	34.410180
1522.000000	34.975111
1521.000000	35.543867
1520.000000	35.961590
1519.000000	36.282617
1518.000000	36.655984
1517.000000	37.132381
1516.000000	37.615140
1515.000000	38.026005
1514.000000	38.372211
1513.000000	38.670658
1512.000000	38.934125
1511.000000	39.182710
1510.000000	39.434228
1509.000000	39.745186
1508.000000	40.351719
1507.000000	41.289014
1506.000000	42.056873
1505.000000	42.437263
1504.000000	42.648012
1503.000000	42.894278
1502.000000	43.237737
1501.000000	43.647012
1500.000000	44.082403
1499.000000	44.548266
1498.000000	45.064143
1497.000000	45.584748
1496.000000	46.022564
1495.000000	46.363209
1494.000000	46.651028
1493.000000	46.902627
1492.000000	47.143852
1491.000000	47.475705
1490.000000	47.955895
1489.000000	48.480428
1488.000000	48.945598
1487.000000	49.339758
1486.000000	49.661621
1485.000000	49.890447
1484.000000	50.041990
1483.000000	50.175178
1482.000000	50.311840
1481.000000	50.406717
1480.000000	50.426101
1479.000000	50.384503
1478.000000	50.282928
1477.000000	50.099734
1476.000000	49.839570
1475.000000	49.520571
1474.000000	49.103552
1473.000000	48.457699
1472.000000	47.499674
1471.000000	46.349283
1470.000000	45.125785
1469.000000	43.808999
1468.000000	42.349836
1467.000000	40.693302
1466.000000	38.721293
1465.000000	36.350230
1464.000000	33.759613
1463.000000	31.282170
1462.000000	29.031894
1461.000000	26.925366
1460.000000	24.893673
1459.000000	22.887412
1458.000000	20.775529
1457.000000	18.514163
1456.000000	16.529926
1455.000000	15.198821
1454.000000	14.357144
1453.000000	13.753732
1452.000000	13.330578
1451.000000	13.122015
1450.000000	13.116977
1449.000000	13.290931
1448.000000	13.661843
1447.000000	14.214008
1446.000000	14.862372
1445.000000	15.555563
1444.000000	16.316988
1443.000000	17.160752
1442.000000	18.040569
1441.000000	18.906673
1440.000000	19.759818
1439.000000	20.638236
1438.000000	21.601693
1437.000000	22.696352
1436.000000	23.842447
1435.000000	24.891436
1434.000000	25.826288
1433.000000	26.741027
1432.000000	27.708084
1431.000000	28.724858
1430.000000	29.732543
1429.000000	30.659356
1428.000000	31.449949
1427.000000	32.092017
1426.000000	32.633958
1425.000000	33.148107
1424.000000	33.654764
1423.000000	34.114541
1422.000000	34.505293
1421.000000	34.848020
1420.000000	35.197506
1419.000000	35.586300
1418.000000	35.974676
1417.000000	36.348180
1416.000000	36.729139
1415.000000	37.123419
1414.000000	37.532169
1413.000000	37.968358
1412.000000	38.435838
1411.000000	38.915561
1410.000000	39.384764
1409.000000	39.831657
1408.000000	40.246656
1407.000000	40.630675
1406.000000	41.014379
1405.000000	41.418337
1404.000000	41.802699
1403.000000	42.116924
1402.000000	42.368086
1401.000000	42.601717
1400.000000	42.844700
1399.000000	43.079210
1398.000000	43.285030
1397.000000	43.478736
1396.000000	43.665685
1395.000000	43.795803
1394.000000	43.801604
1393.000000	43.660332
1392.000000	43.374491
1391.000000	42.919497
1390.000000	42.225240
1389.000000	41.157126
1388.000000	39.567189
1387.000000	37.524245
1386.000000	35.512274
1385.000000	34.196543
1384.000000	34.011088
1383.000000	34.984790
1382.000000	36.740625
1381.000000	38.685152
1380.000000	40.333990
1379.000000	41.489186
1378.000000	42.195504
1377.000000	42.608718
1376.000000	42.889433
1375.000000	43.152385
1374.000000	43.426866
1373.000000	43.667924
1372.000000	43.835659
1371.000000	43.933832
1370.000000	43.993088
1369.000000	44.030567
1368.000000	44.027025
1367.000000	43.954130
1366.000000	43.807548
1365.000000	43.606097
1364.000000	43.379786
1363.000000	43.146144
1362.000000	42.892430
1361.000000	42.599719
1360.000000	42.267745
1359.000000	41.917321
1358.000000	41.588044
1357.000000	41.324763
1356.000000	41.161437
1355.000000	41.115859
1354.000000	41.185959
1353.000000	41.345356
1352.000000	41.548617
1351.000000	41.745962
1350.000000	41.894013
1349.000000	41.947284
1348.000000	41.857179
1347.000000	41.588998
1346.000000	41.129635
1345.000000	40.474447
1344.000000	39.622916
1343.000000	38.584901
1342.000000	37.385135
1341.000000	36.054630
1340.000000	34.621680
1339.000000	33.115249
1338.000000	31.557551
1337.000000	29.947076
1336.000000	28.265860
1335.000000	26.509176
1334.000000	24.696409
1333.000000	22.855987
1332.000000	21.025016
1331.000000	19.259182
1330.000000	17.616548
1329.000000	16.127464
1328.000000	14.797246
1327.000000	13.623201
1326.000000	12.590121
1325.000000	11.666087
1324.000000	10.821282
1323.000000	10.047475
1322.000000	9.343451
1321.000000	8.700276
1320.000000	8.123292
1319.000000	7.645862
1318.000000	7.304761
1317.000000	7.111038
1316.000000	7.055520
1315.000000	7.128090
1314.000000	7.309060
1313.000000	7.564216
1312.000000	7.865372
1311.000000	8.204148
1310.000000	8.583519
1309.000000	9.005534
1308.000000	9.477771
1307.000000	10.014235
1306.000000	10.618035
1305.000000	11.276213
1304.000000	11.974271
1303.000000	12.704934
1302.000000	13.460471
1301.000000	14.227897
1300.000000	14.998514
1299.000000	15.770225
1298.000000	16.536672
1297.000000	17.284003
1296.000000	18.002822
1295.000000	18.698999
1294.000000	19.390169
1293.000000	20.097415
1292.000000	20.841426
1291.000000	21.638471
1290.000000	22.496408
1289.000000	23.414935
1288.000000	24.388623
1287.000000	25.408051
1286.000000	26.458065
1285.000000	27.519676
1284.000000	28.572708
1283.000000	29.596672
1282.000000	30.571818
1281.000000	31.481762
1280.000000	32.314908
1279.000000	33.069816
1278.000000	33.762877
1277.000000	34.425323
1276.000000	35.090777
1275.000000	35.785478
1274.000000	36.526779
1273.000000	37.321643
1272.000000	38.162146
1271.000000	39.029237
1270.000000	39.905396
1269.000000	40.780125
1268.000000	41.643584
1267.000000	42.484855
1266.000000	43.299023
1265.000000	44.085937
1264.000000	44.840297
1263.000000	45.555553
1262.000000	46.236680
1261.000000	46.897128
1260.000000	47.539431
1259.000000	48.153168
1258.000000	48.735101
1257.000000	49.292563
1256.000000	49.827196
1255.000000	50.331944
1254.000000	50.803996
1253.000000	51.247432
1252.000000	51.658338
1251.000000	52.025128
1250.000000	52.345203
1249.000000	52.624348
1248.000000	52.861952
1247.000000	53.051461
1246.000000	53.196905
1245.000000	53.312319
1244.000000	53.401492
1243.000000	53.457240
1242.000000	53.478042
1241.000000	53.469395
1240.000000	53.429971
1239.000000	53.350729
1238.000000	53.232012
1237.000000	53.084353
1236.000000	52.913612
1235.000000	52.721692
1234.000000	52.519593
1233.000000	52.325559
1232.000000	52.149530
1231.000000	51.993370
1230.000000	51.863667
1229.000000	51.771217
1228.000000	51.717824
1227.000000	51.697793
1226.000000	51.711822
1225.000000	51.764482
1224.000000	51.852158
1223.000000	51.965186
1222.000000	52.102462
1221.000000	52.271711
1220.000000	52.473368
1219.000000	52.700221
1218.000000	52.950099
1217.000000	53.224974
1216.000000	53.518733
1215.000000	53.818683
1214.000000	54.121709
1213.000000	54.433732
1212.000000	54.753571
1211.000000	55.072265
1210.000000	55.388057
1209.000000	55.706947
1208.000000	56.027380
1207.000000	56.339811
1206.000000	56.641803
1205.000000	56.938815
1204.000000	57.228742
1203.000000	57.501910
1202.000000	57.757932
1201.000000	58.006759
1200.000000	58.253066
1199.000000	58.495236
1198.000000	58.739599
1197.000000	58.998657
1196.000000	59.273499
1195.000000	59.553421
1194.000000	59.832902
1193.000000	60.112089
1192.000000	60.381174
1191.000000	60.622313
1190.000000	60.830262
1189.000000	61.014710
1188.000000	61.182005
1187.000000	61.333482
1186.000000	61.481201
1185.000000	61.646407
1184.000000	61.837690
1183.000000	62.044921
1182.000000	62.256240
1181.000000	62.466374
1180.000000	62.668589
1179.000000	62.855743
1178.000000	63.030500
1177.000000	63.198707
1176.000000	63.352917
1175.000000	63.479058
1174.000000	63.578367
1173.000000	63.665264
1172.000000	63.747075
1171.000000	63.822969
1170.000000	63.900685
1169.000000	63.994045
1168.000000	64.103483
1167.000000	64.217529
1166.000000	64.332741
1165.000000	64.454393
1164.000000	64.578741
1163.000000	64.693830
1162.000000	64.797537
1161.000000	64.896187
1160.000000	64.985625
1159.000000	65.053545
1158.000000	65.099183
1157.000000	65.132717
1156.000000	65.156140
1155.000000	65.164455
1154.000000	65.165001
1153.000000	65.174655
1152.000000	65.199268
1151.000000	65.234706
1150.000000	65.286846
1149.000000	65.368540
1148.000000	65.477135
1147.000000	65.594078
1146.000000	65.706958
1145.000000	65.812444
1144.000000	65.898982
1143.000000	65.948932
1142.000000	65.960145
1141.000000	65.946668
1140.000000	65.917621
1139.000000	65.876323
1138.000000	65.837383
1137.000000	65.823492
1136.000000	65.843151
1135.000000	65.889831
1134.000000	65.961179
1133.000000	66.059738
1132.000000	66.174318
1131.000000	66.280808
1130.000000	66.363728
1129.000000	66.419566
1128.000000	66.440083
1127.000000	66.412411
1126.000000	66.338022
1125.000000	66.229780
1124.000000	66.093119
1123.000000	65.926866
1122.000000	65.740903
1121.000000	65.553740
1120.000000	65.370576
1119.000000	65.183921
1118.000000	64.992419
1117.000000	64.799005
1116.000000	64.592668
1115.000000	64.349406
1114.000000	64.053023
1113.000000	63.697224
1112.000000	63.267330
1111.000000	62.745554
1110.000000	62.128550
1109.000000	61.425289
1108.000000	60.639776
1107.000000	59.769117
1106.000000	58.822338
1105.000000	57.814087
1104.000000	56.746210
1103.000000	55.610295
1102.000000	54.398679
1101.000000	53.105803
1100.000000	51.713480
1099.000000	50.198098
1098.000000	48.548223
1097.000000	46.759580
1096.000000	44.828811
1095.000000	42.755611
1094.000000	40.551015
1093.000000	38.238292
1092.000000	35.843149
1091.000000	33.398231
1090.000000	30.943373
1089.000000	28.519790
1088.000000	26.166387
1087.000000	23.923244
1086.000000	21.824921
1085.000000	19.893211
1084.000000	18.143529
1083.000000	16.581421
1082.000000	15.202986
1081.000000	13.992423
1080.000000	12.932617
1079.000000	12.014397
1078.000000	11.219849
1077.000000	10.526561
1076.000000	9.918403
1075.000000	9.387004
1074.000000	8.923791
1073.000000	8.513997
1072.000000	8.150670
1071.000000	7.835174
1070.000000	7.563702
1069.000000	7.328125
1068.000000	7.125882
1067.000000	6.961542
1066.000000	6.834307
1065.000000	6.736322
1064.000000	6.667161
1063.000000	6.632595
1062.000000	6.632460
1061.000000	6.660590
1060.000000	6.716484
1059.000000	6.806669
1058.000000	6.931018
1057.000000	7.083389
1056.000000	7.264727
1055.000000	7.481598
1054.000000	7.734837
1053.000000	8.018658
1052.000000	8.332894
1051.000000	8.683538
1050.000000	9.068672
1049.000000	9.480400
1048.000000	9.916634
1047.000000	10.381272
1046.000000	10.874301
1045.000000	11.391483
1044.000000	11.935574
1043.000000	12.513922
1042.000000	13.127802
1041.000000	13.774424
1040.000000	14.454570
1039.000000	15.172538
1038.000000	15.927153
1037.000000	16.711823
1036.000000	17.523155
1035.000000	18.358729
1034.000000	19.211568
1033.000000	20.072106
1032.000000	20.935370
1031.000000	21.801608
1030.000000	22.670601
1029.000000	23.541259
1028.000000	24.414225
1027.000000	25.291194
1026.000000	26.172873
1025.000000	27.059635
1024.000000	27.951990
1023.000000	28.848577
1022.000000	29.745638
1021.000000	30.638699
1020.000000	31.523198
1019.000000	32.393750
1018.000000	33.245360
1017.000000	34.075492
1016.000000	34.881711
1015.000000	35.661363
1014.000000	36.414716
1013.000000	37.145902
1012.000000	37.859878
1011.000000	38.560163
1010.000000	39.252119
1009.000000	39.942735
1008.000000	40.634850
1007.000000	41.326243
1006.000000	42.014440
1005.000000	42.697708
1004.000000	43.370029
1003.000000	44.020793
1002.000000	44.642846
1001.000000	45.233881
1000.000000	45.791691
999.000000	46.315731
998.000000	46.813630
997.000000	47.299496
996.000000	47.783106
995.000000	48.268777
994.000000	48.763455
993.000000	49.274839
992.000000	49.800671
991.000000	50.328219
990.000000	50.845675
989.000000	51.346045
988.000000	51.819250
987.000000	52.254409
986.000000	52.651135
985.000000	53.019446
984.000000	53.368018
983.000000	53.701557
982.000000	54.030833
981.000000	54.371019
980.000000	54.728542
979.000000	55.099892
978.000000	55.482770
977.000000	55.876587
976.000000	56.271877
975.000000	56.651986
974.000000	57.008335
973.000000	57.341463
972.000000	57.648964
971.000000	57.925448
970.000000	58.174734
969.000000	58.409211
968.000000	58.634542
967.000000	58.849999
966.000000	59.062840
965.000000	59.287580
964.000000	59.529839
963.000000	59.784490
962.000000	60.049706
961.000000	60.328556
960.000000	60.614763
959.000000	60.892228
958.000000	61.149754
957.000000	61.383298
956.000000	61.584248
955.000000	61.740872
954.000000	61.855695
953.000000	61.945052
952.000000	62.021843
951.000000	62.092711
950.000000	62.171025
949.000000	62.276051
948.000000	62.416589
947.000000	62.588514
946.000000	62.787681
945.000000	63.009932
944.000000	63.237924
943.000000	63.444889
942.000000	63.613769
941.000000	63.740531
940.000000	63.819343
939.000000	63.844825
938.000000	63.828182
937.000000	63.793921
936.000000	63.759900
935.000000	63.734541
934.000000	63.731729
933.000000	63.768735
932.000000	63.848054
931.000000	63.956803
930.000000	64.084325
929.000000	64.222898
928.000000	64.352324
927.000000	64.442714
926.000000	64.477640
925.000000	64.457500
924.000000	64.382399
923.000000	64.250412
922.000000	64.073002
921.000000	63.875741
920.000000	63.678706
919.000000	63.492362
918.000000	63.330480
917.000000	63.208156
916.000000	63.124551
915.000000	63.062177
914.000000	63.003549
913.000000	62.934630
912.000000	62.832331
911.000000	62.669215
910.000000	62.433100
909.000000	62.128012
908.000000	61.758111
907.000000	61.325138
906.000000	60.844636
905.000000	60.343298
904.000000	59.838830
903.000000	59.337365
902.000000	58.846584
901.000000	58.375406
900.000000	57.918641
899.000000	57.457234
898.000000	56.975164
897.000000	56.461964
896.000000	55.900664
895.000000	55.269732
894.000000	54.558252
893.000000	53.769514
892.000000	52.906010
891.000000	51.968617
890.000000	50.968937
889.000000	49.927398
888.000000	48.861242
887.000000	47.780776
886.000000	46.696843
885.000000	45.618368
884.000000	44.541312
883.000000	43.450949
882.000000	42.333546
881.000000	41.179212
880.000000	39.976558
879.000000	38.714650
878.000000	37.393247
877.000000	36.022506
876.000000	34.614745
875.000000	33.183178
874.000000	31.745942
873.000000	30.324287
872.000000	28.934878
871.000000	27.587378
870.000000	26.286398
869.000000	25.033695
868.000000	23.826264
867.000000	22.656946
866.000000	21.518732
865.000000	20.407064
864.000000	19.321265
863.000000	18.261908
862.000000	17.230341
861.000000	16.231902
860.000000	15.275128
859.000000	14.370036
858.000000	13.525786
857.000000	12.753557
856.000000	12.071261
855.000000	11.495444
854.000000	11.036345
853.000000	10.696199
852.000000	10.468699
851.000000	10.337099
850.000000	10.271295
849.000000	10.240146
848.000000	10.221562
847.000000	10.202215
846.000000	10.175439
845.000000	10.141919
844.000000	10.110755
843.000000	10.092970
842.000000	10.096607
841.000000	10.130691
840.000000	10.206129
839.000000	10.329653
838.000000	10.500168
837.000000	10.713267
836.000000	10.966019
835.000000	11.252030
834.000000	11.559726
833.000000	11.878748
832.000000	12.204063
831.000000	12.534765
830.000000	12.874697
829.000000	13.238508
828.000000	13.650312
827.000000	14.129824
826.000000	14.683465
825.000000	15.305030
824.000000	15.979547
823.000000	16.687909
822.000000	17.414825
821.000000	18.155997
820.000000	18.910285
819.000000	19.669400
818.000000	20.421110
817.000000	21.158430
816.000000	21.877994
815.000000	22.573544
814.000000	23.239856
813.000000	23.879473
812.000000	24.499241
811.000000	25.103686
810.000000	25.699002
809.000000	26.297393
808.000000	26.909073
807.000000	27.534719
806.000000	28.171329
805.000000	28.818991
804.000000	29.474195
803.000000	30.123789
802.000000	30.755138
801.000000	31.366059
800.000000	31.958227
799.000000	32.529754
798.000000	33.082215
797.000000	33.626937
796.000000	34.175340
795.000000	34.731080
794.000000	35.297561
793.000000	35.882593
792.000000	36.487335
791.000000	37.099724
790.000000	37.705862
789.000000	38.298704
788.000000	38.870200
787.000000	39.407721
786.000000	39.906655
785.000000	40.375831
784.000000	40.824221
783.000000	41.252637
782.000000	41.664911
781.000000	42.073787
780.000000	42.488574
779.000000	42.908421
778.000000	43.333251
777.000000	43.768827
776.000000	44.214071
775.000000	44.655910
774.000000	45.083829
773.000000	45.497392
772.000000	45.893853
771.000000	46.263174
770.000000	46.602315
769.000000	46.921345
768.000000	47.227708
767.000000	47.518888
766.000000	47.797157
765.000000	48.076865
764.000000	48.369837
763.000000	48.676682
762.000000	48.998905
761.000000	49.343916
760.000000	49.709625
759.000000	50.077491
758.000000	50.428937
757.000000	50.755290
756.000000	51.046748
755.000000	51.287821
754.000000	51.473648
753.000000	51.616626
752.000000	51.730860
751.000000	51.825026
750.000000	51.914537
749.000000	52.023479
748.000000	52.165209
747.000000	52.335503
746.000000	52.529057
745.000000	52.745536
744.000000	52.972267
743.000000	53.179935
742.000000	53.344920
741.000000	53.461817
740.000000	53.528630
739.000000	53.539906
738.000000	53.503658
737.000000	53.446599
736.000000	53.393419
735.000000	53.355754
734.000000	53.347966
733.000000	53.392372
732.000000	53.499188
731.000000	53.657348
730.000000	53.854230
729.000000	54.086199
728.000000	54.341806
727.000000	54.594665
726.000000	54.824233
725.000000	55.027825
724.000000	55.204130
723.000000	55.345989
722.000000	55.459099
721.000000	55.568888
720.000000	55.697066
719.000000	55.848609
718.000000	56.029559
717.000000	56.257005
716.000000	56.539249
715.000000	56.864075
714.000000	57.216092
713.000000	57.586177
712.000000	57.954950
711.000000	58.289115
710.000000	58.567978
709.000000	58.794779
708.000000	58.975179
707.000000	59.107103
706.000000	59.201023
705.000000	59.286603
704.000000	59.387292
703.000000	59.506633
702.000000	59.648892
701.000000	59.830403
700.000000	60.058103
699.000000	60.318327
698.000000	60.596765
697.000000	60.888548
696.000000	61.178188
695.000000	61.435015
694.000000	61.641356
693.000000	61.802915
692.000000	61.922191
691.000000	61.989799
690.000000	62.012974
689.000000	62.025624
688.000000	62.054793
687.000000	62.101997
686.000000	62.172987
685.000000	62.293736
684.000000	62.478166
683.000000	62.708281
682.000000	62.963657
681.000000	63.238635
680.000000	63.514300
679.000000	63.747162
678.000000	63.908533
677.000000	64.001592
676.000000	64.033634
675.000000	64.005623
674.000000	63.938151
673.000000	63.877941
672.000000	63.866239
671.000000	63.921670
670.000000	64.062267
669.000000	64.317015
668.000000	64.663157
667.000000	64.966142
666.000000	65.131327
665.000000	65.214197
664.000000	65.280660
663.000000	65.335677
662.000000	65.359110
661.000000	65.348505
660.000000	65.317791
659.000000	65.281439
658.000000	65.257818
657.000000	65.265708
656.000000	65.310185
655.000000	65.383878
654.000000	65.479931
653.000000	65.594565
652.000000	65.720234
651.000000	65.844081
650.000000	65.955722
649.000000	66.050411
648.000000	66.123428
647.000000	66.171212
646.000000	66.200193
645.000000	66.222332
644.000000	66.237015
643.000000	66.228996
642.000000	66.189719
641.000000	66.127449
640.000000	66.052994
639.000000	65.973829
638.000000	65.904902
637.000000	65.868465
636.000000	65.876413
635.000000	65.923063
634.000000	65.997151
633.000000	66.085520
632.000000	66.162879
631.000000	66.196422
630.000000	66.169022
629.000000	66.085770
628.000000	65.957239
627.000000	65.795440
626.000000	65.627879
625.000000	65.491976
624.000000	65.408134
623.000000	65.374992
622.000000	65.392679
621.000000	65.464938
620.000000	65.574175
619.000000	65.679413
618.000000	65.748036
617.000000	65.772290
616.000000	65.748462
615.000000	65.667124
614.000000	65.535540
613.000000	65.386298
612.000000	65.251611
611.000000	65.147825
610.000000	65.087868
609.000000	65.084620
608.000000	65.130672
607.000000	65.194345
606.000000	65.246079
605.000000	65.272179
604.000000	65.259479
603.000000	65.192647
602.000000	65.078269
601.000000	64.947467
600.000000	64.821349
599.000000	64.694472
598.000000	64.562550
597.000000	64.437636
596.000000	64.326991
595.000000	64.225179
594.000000	64.140497
593.000000	64.104063
592.000000	64.135637
591.000000	64.217968
590.000000	64.319422
589.000000	64.425721
588.000000	64.533044
587.000000	64.637910
586.000000	64.746459
585.000000	64.869747
584.000000	64.997320
583.000000	65.099629
582.000000	65.167042
581.000000	65.218265
580.000000	65.261242
579.000000	65.279189
578.000000	65.274883
577.000000	65.288221
576.000000	65.351406
575.000000	65.451384
574.000000	65.556616
573.000000	65.653726
572.000000	65.734363
571.000000	65.780374
570.000000	65.785090
569.000000	65.763200
568.000000	65.721384
567.000000	65.650382
566.000000	65.558968
565.000000	65.485945
564.000000	65.461030
563.000000	65.483273
562.000000	65.546602
561.000000	65.653944
560.000000	65.792141
559.000000	65.922714
558.000000	66.015028
557.000000	66.063672
556.000000	66.064538
555.000000	66.005485
554.000000	65.896247
553.000000	65.775000
552.000000	65.671529
551.000000	65.591513
550.000000	65.544180
549.000000	65.550580
548.000000	65.613448
547.000000	65.710517
546.000000	65.827370
545.000000	65.964847
544.000000	66.104541
543.000000	66.205751
542.000000	66.250935
541.000000	66.261932
540.000000	66.255739
539.000000	66.222674
538.000000	66.163879
537.000000	66.114134
536.000000	66.106146
535.000000	66.142451
534.000000	66.218395
533.000000	66.340988
532.000000	66.508186
531.000000	66.694897
530.000000	66.878033
529.000000	67.054856
528.000000	67.223702
527.000000	67.372624
526.000000	67.502750
525.000000	67.623297
524.000000	67.715452
523.000000	67.741700
522.000000	67.696191
521.000000	67.614974
520.000000	67.532536
519.000000	67.458073
518.000000	67.401311
517.000000	67.379800
516.000000	67.379527
515.000000	67.354661
514.000000	67.280334
513.000000	67.169074
512.000000	67.026055
511.000000	66.827423
510.000000	66.556917
509.000000	66.228531
508.000000	65.853727
507.000000	65.423591
506.000000	64.940180
505.000000	64.426791
504.000000	63.895204
503.000000	63.345772
502.000000	62.809336
501.000000	62.338413
500.000000	61.956384
499.000000	61.661333
498.000000	61.481713
497.000000	61.468049
496.000000	61.622163
495.000000	61.876143
494.000000	62.152055
493.000000	62.414033
492.000000	62.640052
491.000000	62.800986
490.000000	62.907496
489.000000	63.032147
488.000000	63.253564
487.000000	63.604384
486.000000	64.087182
485.000000	64.694115
484.000000	65.376087
483.000000	66.031267
482.000000	66.572011
481.000000	66.977542
480.000000	67.250098
479.000000	67.377109
478.000000	67.369625
477.000000	67.288044
476.000000	67.191034
475.000000	67.099771
474.000000	67.049409
473.000000	67.123395
472.000000	67.356974
471.000000	67.657413
470.000000	67.930926
469.000000	68.182448
468.000000	68.438095
467.000000	68.670281
466.000000	68.844770
465.000000	68.989795
464.000000	69.150477
463.000000	69.330960
462.000000	69.526277
461.000000	69.753438
460.000000	69.993372
459.000000	70.166125
458.000000	70.229036
457.000000	70.220275
456.000000	70.170944
455.000000	70.088602
454.000000	70.021370
453.000000	70.062982
452.000000	70.257007
451.000000	70.527903
450.000000	70.792256
449.000000	71.058971
448.000000	71.355884
447.000000	71.631941
446.000000	71.806686
445.000000	71.864380
444.000000	71.828126
443.000000	71.717949
442.000000	71.589390
441.000000	71.536776
440.000000	71.601374
439.000000	71.746915
438.000000	71.951793
437.000000	72.260209
436.000000	72.674790
435.000000	73.078850
434.000000	73.365349
433.000000	73.548419
432.000000	73.659179
431.000000	73.659947
430.000000	73.543113
429.000000	73.398381
428.000000	73.297497
427.000000	73.220436
426.000000	73.167169
425.000000	73.215773
424.000000	73.388015
423.000000	73.566943
422.000000	73.651080
421.000000	73.650389
420.000000	73.569786
419.000000	73.439036
418.000000	73.331746
417.000000	73.312598
416.000000	73.395389
415.000000	73.482640
414.000000	73.504772
413.000000	73.548892
412.000000	73.676056
411.000000	73.761705
410.000000	73.698168
409.000000	73.602880
408.000000	73.608278
407.000000	73.649849
406.000000	73.662379
405.000000	73.780828
404.000000	74.161457
403.000000	74.607460
402.000000	74.954961
401.000000	75.227684
400.000000	75.501678
