PE IR       SUBTECH     SPECTRUM    ASCII       PEDS        4.00        
   -1
23MS211_NITRO.asc
24/09/09
16:55:49.00
24/09/09
16:55:49.00
Administrator
Sample 1147 By Administrator Date Monday, September 09 2024
400.000000
#HDR
-1
-1
#GR
cm-1
%T
1.0
0.0
4000.000000
-1.000000
3601
8
74.645816
0.061068
#DATA
4000.000000	41.349338
3999.000000	41.404731
3998.000000	41.462188
3997.000000	41.521134
3996.000000	41.580237
3995.000000	41.637805
3994.000000	41.692566
3993.000000	41.744399
3992.000000	41.794397
3991.000000	41.844221
3990.000000	41.895110
3989.000000	41.947485
3988.000000	42.001156
3987.000000	42.055539
3986.000000	42.109737
3985.000000	42.162716
3984.000000	42.213807
3983.000000	42.262949
3982.000000	42.310446
3981.000000	42.356762
3980.000000	42.402667
3979.000000	42.449294
3978.000000	42.497599
3977.000000	42.547529
3976.000000	42.597806
3975.000000	42.646737
3974.000000	42.693396
3973.000000	42.738210
3972.000000	42.782545
3971.000000	42.827811
3970.000000	42.874590
3969.000000	42.922120
3968.000000	42.968767
3967.000000	43.013281
3966.000000	43.055676
3965.000000	43.097205
3964.000000	43.139444
3963.000000	43.183083
3962.000000	43.227641
3961.000000	43.272286
3960.000000	43.316968
3959.000000	43.362663
3958.000000	43.410099
3957.000000	43.458346
3956.000000	43.505247
3955.000000	43.549308
3954.000000	43.590830
3953.000000	43.631356
3952.000000	43.672558
3951.000000	43.715870
3950.000000	43.762092
3949.000000	43.810315
3948.000000	43.858044
3947.000000	43.903085
3946.000000	43.945698
3945.000000	43.988818
3944.000000	44.035462
3943.000000	44.085293
3942.000000	44.134538
3941.000000	44.180254
3940.000000	44.223567
3939.000000	44.267965
3938.000000	44.314934
3937.000000	44.362432
3936.000000	44.407915
3935.000000	44.451622
3934.000000	44.496161
3933.000000	44.542823
3932.000000	44.589515
3931.000000	44.633113
3930.000000	44.672807
3929.000000	44.711104
3928.000000	44.751697
3927.000000	44.796866
3926.000000	44.846055
3925.000000	44.895690
3924.000000	44.941076
3923.000000	44.980227
3922.000000	45.015823
3921.000000	45.053035
3920.000000	45.095597
3919.000000	45.143623
3918.000000	45.194408
3917.000000	45.244510
3916.000000	45.291280
3915.000000	45.334087
3914.000000	45.375145
3913.000000	45.418442
3912.000000	45.466348
3911.000000	45.517512
3910.000000	45.568163
3909.000000	45.615277
3908.000000	45.658470
3907.000000	45.698563
3906.000000	45.735293
3905.000000	45.767025
3904.000000	45.792559
3903.000000	45.814080
3902.000000	45.837851
3901.000000	45.870475
3900.000000	45.914258
3899.000000	45.965309
3898.000000	46.016587
3897.000000	46.064182
3896.000000	46.109104
3895.000000	46.154979
3894.000000	46.204561
3893.000000	46.257462
3892.000000	46.309501
3891.000000	46.355417
3890.000000	46.392968
3889.000000	46.424604
3888.000000	46.456280
3887.000000	46.494356
3886.000000	46.539119
3885.000000	46.582474
3884.000000	46.617010
3883.000000	46.645787
3882.000000	46.679298
3881.000000	46.723866
3880.000000	46.774413
3879.000000	46.820948
3878.000000	46.859890
3877.000000	46.895456
3876.000000	46.933387
3875.000000	46.975620
3874.000000	47.018364
3873.000000	47.055933
3872.000000	47.087669
3871.000000	47.119926
3870.000000	47.158496
3869.000000	47.200910
3868.000000	47.240478
3867.000000	47.275574
3866.000000	47.311685
3865.000000	47.354656
3864.000000	47.403232
3863.000000	47.451826
3862.000000	47.497849
3861.000000	47.542821
3860.000000	47.589135
3859.000000	47.638458
3858.000000	47.690502
3857.000000	47.742023
3856.000000	47.787340
3855.000000	47.821290
3854.000000	47.842696
3853.000000	47.856801
3852.000000	47.874602
3851.000000	47.905721
3850.000000	47.952813
3849.000000	48.012932
3848.000000	48.080128
3847.000000	48.147592
3846.000000	48.209763
3845.000000	48.263231
3844.000000	48.306902
3843.000000	48.343002
3842.000000	48.375302
3841.000000	48.406756
3840.000000	48.438860
3839.000000	48.472370
3838.000000	48.507831
3837.000000	48.545897
3836.000000	48.586368
3835.000000	48.627949
3834.000000	48.669763
3833.000000	48.713101
3832.000000	48.760284
3831.000000	48.811632
3830.000000	48.864986
3829.000000	48.918131
3828.000000	48.970010
3827.000000	49.020278
3826.000000	49.067534
3825.000000	49.109304
3824.000000	49.144472
3823.000000	49.176209
3822.000000	49.210034
3821.000000	49.247625
3820.000000	49.284951
3819.000000	49.318311
3818.000000	49.349574
3817.000000	49.384948
3816.000000	49.429499
3815.000000	49.481655
3814.000000	49.535489
3813.000000	49.587611
3812.000000	49.639369
3811.000000	49.693124
3810.000000	49.748103
3809.000000	49.800085
3808.000000	49.845123
3807.000000	49.882930
3806.000000	49.915502
3805.000000	49.943644
3804.000000	49.967596
3803.000000	49.991164
3802.000000	50.020741
3801.000000	50.058933
3800.000000	50.102785
3799.000000	50.149351
3798.000000	50.198828
3797.000000	50.251868
3796.000000	50.306724
3795.000000	50.360100
3794.000000	50.410476
3793.000000	50.459260
3792.000000	50.508843
3791.000000	50.560323
3790.000000	50.612814
3789.000000	50.664364
3788.000000	50.713530
3787.000000	50.759742
3786.000000	50.802974
3785.000000	50.843412
3784.000000	50.881504
3783.000000	50.918094
3782.000000	50.954782
3781.000000	50.994019
3780.000000	51.037678
3779.000000	51.085052
3778.000000	51.133160
3777.000000	51.179647
3776.000000	51.224693
3775.000000	51.269984
3774.000000	51.315966
3773.000000	51.360966
3772.000000	51.403596
3771.000000	51.445045
3770.000000	51.486869
3769.000000	51.528473
3768.000000	51.569277
3767.000000	51.611260
3766.000000	51.656914
3765.000000	51.705425
3764.000000	51.752763
3763.000000	51.796000
3762.000000	51.836286
3761.000000	51.877688
3760.000000	51.922338
3759.000000	51.967805
3758.000000	52.010617
3757.000000	52.049919
3756.000000	52.086093
3755.000000	52.118813
3754.000000	52.148297
3753.000000	52.176663
3752.000000	52.205855
3751.000000	52.235397
3750.000000	52.265520
3749.000000	52.299727
3748.000000	52.339455
3747.000000	52.381899
3746.000000	52.426778
3745.000000	52.478344
3744.000000	52.536389
3743.000000	52.595741
3742.000000	52.653403
3741.000000	52.708260
3740.000000	52.759289
3739.000000	52.805989
3738.000000	52.850443
3737.000000	52.898505
3736.000000	52.954755
3735.000000	53.014367
3734.000000	53.066871
3733.000000	53.110068
3732.000000	53.152691
3731.000000	53.203314
3730.000000	53.261722
3729.000000	53.322022
3728.000000	53.381652
3727.000000	53.442620
3726.000000	53.504725
3725.000000	53.563120
3724.000000	53.615120
3723.000000	53.664194
3722.000000	53.714570
3721.000000	53.766639
3720.000000	53.818222
3719.000000	53.868153
3718.000000	53.917227
3717.000000	53.966238
3716.000000	54.013645
3715.000000	54.056290
3714.000000	54.092390
3713.000000	54.123629
3712.000000	54.155317
3711.000000	54.192840
3710.000000	54.238141
3709.000000	54.288716
3708.000000	54.341290
3707.000000	54.394844
3706.000000	54.448893
3705.000000	54.502623
3704.000000	54.555531
3703.000000	54.608839
3702.000000	54.662727
3701.000000	54.714805
3700.000000	54.762249
3699.000000	54.805012
3698.000000	54.844988
3697.000000	54.883880
3696.000000	54.921388
3695.000000	54.955784
3694.000000	54.986772
3693.000000	55.016521
3692.000000	55.048140
3691.000000	55.081979
3690.000000	55.115260
3689.000000	55.145009
3688.000000	55.173352
3687.000000	55.205975
3686.000000	55.244848
3685.000000	55.287380
3684.000000	55.330435
3683.000000	55.372502
3682.000000	55.411758
3681.000000	55.445888
3680.000000	55.473224
3679.000000	55.491491
3678.000000	55.496626
3677.000000	55.489445
3676.000000	55.481984
3675.000000	55.487553
3674.000000	55.505104
3673.000000	55.523281
3672.000000	55.536007
3671.000000	55.550668
3670.000000	55.578214
3669.000000	55.616871
3668.000000	55.656463
3667.000000	55.691461
3666.000000	55.721989
3665.000000	55.750257
3664.000000	55.778231
3663.000000	55.806382
3662.000000	55.833028
3661.000000	55.853468
3660.000000	55.861304
3659.000000	55.851186
3658.000000	55.822570
3657.000000	55.782840
3656.000000	55.744540
3655.000000	55.716597
3654.000000	55.697720
3653.000000	55.679268
3652.000000	55.653419
3651.000000	55.617543
3650.000000	55.572671
3649.000000	55.523010
3648.000000	55.478912
3647.000000	55.450164
3646.000000	55.436006
3645.000000	55.428378
3644.000000	55.422170
3643.000000	55.417477
3642.000000	55.413982
3641.000000	55.406683
3640.000000	55.389358
3639.000000	55.360141
3638.000000	55.320539
3637.000000	55.271511
3636.000000	55.213862
3635.000000	55.151949
3634.000000	55.091955
3633.000000	55.034785
3632.000000	54.973713
3631.000000	54.901488
3630.000000	54.820907
3629.000000	54.744579
3628.000000	54.681661
3627.000000	54.632451
3626.000000	54.592077
3625.000000	54.554595
3624.000000	54.516534
3623.000000	54.475695
3622.000000	54.427411
3621.000000	54.366505
3620.000000	54.292773
3619.000000	54.211956
3618.000000	54.130585
3617.000000	54.052016
3616.000000	53.976399
3615.000000	53.904008
3614.000000	53.835929
3613.000000	53.771245
3612.000000	53.706306
3611.000000	53.637541
3610.000000	53.564925
3609.000000	53.492877
3608.000000	53.426166
3607.000000	53.364800
3606.000000	53.304105
3605.000000	53.239152
3604.000000	53.168381
3603.000000	53.093718
3602.000000	53.017303
3601.000000	52.940459
3600.000000	52.863769
3599.000000	52.786341
3598.000000	52.706761
3597.000000	52.625741
3596.000000	52.547325
3595.000000	52.476308
3594.000000	52.413874
3593.000000	52.356493
3592.000000	52.299412
3591.000000	52.238436
3590.000000	52.171906
3589.000000	52.102936
3588.000000	52.037730
3587.000000	51.977976
3586.000000	51.918984
3585.000000	51.856895
3584.000000	51.793241
3583.000000	51.732243
3582.000000	51.675454
3581.000000	51.620698
3580.000000	51.564858
3579.000000	51.506023
3578.000000	51.442892
3577.000000	51.374544
3576.000000	51.302037
3575.000000	51.228185
3574.000000	51.155776
3573.000000	51.085538
3572.000000	51.016213
3571.000000	50.944195
3570.000000	50.865066
3569.000000	50.779065
3568.000000	50.694405
3567.000000	50.620343
3566.000000	50.557721
3565.000000	50.501337
3564.000000	50.447528
3563.000000	50.395824
3562.000000	50.345459
3561.000000	50.293716
3560.000000	50.237967
3559.000000	50.177191
3558.000000	50.111310
3557.000000	50.040699
3556.000000	49.967306
3555.000000	49.894238
3554.000000	49.823838
3553.000000	49.756592
3552.000000	49.691409
3551.000000	49.625876
3550.000000	49.556858
3549.000000	49.483399
3548.000000	49.408733
3547.000000	49.337250
3546.000000	49.269262
3545.000000	49.201581
3544.000000	49.132891
3543.000000	49.065055
3542.000000	48.999405
3541.000000	48.934906
3540.000000	48.870317
3539.000000	48.805209
3538.000000	48.738521
3537.000000	48.668268
3536.000000	48.593832
3535.000000	48.517536
3534.000000	48.443056
3533.000000	48.373619
3532.000000	48.310945
3531.000000	48.254352
3530.000000	48.200563
3529.000000	48.146364
3528.000000	48.091591
3527.000000	48.038104
3526.000000	47.986341
3525.000000	47.934744
3524.000000	47.882038
3523.000000	47.828145
3522.000000	47.773525
3521.000000	47.719156
3520.000000	47.666640
3519.000000	47.616382
3518.000000	47.566159
3517.000000	47.513154
3516.000000	47.456617
3515.000000	47.396973
3514.000000	47.333220
3513.000000	47.263991
3512.000000	47.191063
3511.000000	47.119198
3510.000000	47.051731
3509.000000	46.988219
3508.000000	46.926373
3507.000000	46.864532
3506.000000	46.802116
3505.000000	46.739593
3504.000000	46.677925
3503.000000	46.616504
3502.000000	46.552347
3501.000000	46.482955
3500.000000	46.409227
3499.000000	46.333605
3498.000000	46.256649
3497.000000	46.177340
3496.000000	46.095823
3495.000000	46.013465
3494.000000	45.930543
3493.000000	45.846020
3492.000000	45.759543
3491.000000	45.671718
3490.000000	45.582501
3489.000000	45.491251
3488.000000	45.397979
3487.000000	45.302805
3486.000000	45.205022
3485.000000	45.104778
3484.000000	45.005104
3483.000000	44.909914
3482.000000	44.819545
3481.000000	44.729831
3480.000000	44.635321
3479.000000	44.532376
3478.000000	44.420170
3477.000000	44.301108
3476.000000	44.180062
3475.000000	44.061062
3474.000000	43.945035
3473.000000	43.831605
3472.000000	43.721423
3471.000000	43.614465
3470.000000	43.507101
3469.000000	43.393715
3468.000000	43.271220
3467.000000	43.140269
3466.000000	43.003127
3465.000000	42.862622
3464.000000	42.722477
3463.000000	42.585752
3462.000000	42.452371
3461.000000	42.319726
3460.000000	42.185472
3459.000000	42.048588
3458.000000	41.908732
3457.000000	41.766325
3456.000000	41.622708
3455.000000	41.478434
3454.000000	41.332030
3453.000000	41.182032
3452.000000	41.029096
3451.000000	40.874613
3450.000000	40.718400
3449.000000	40.559872
3448.000000	40.400430
3447.000000	40.242242
3446.000000	40.085288
3445.000000	39.927623
3444.000000	39.767784
3443.000000	39.605184
3442.000000	39.439197
3441.000000	39.269939
3440.000000	39.099128
3439.000000	38.928275
3438.000000	38.756530
3437.000000	38.581662
3436.000000	38.402484
3435.000000	38.218921
3434.000000	38.030832
3433.000000	37.838583
3432.000000	37.643117
3431.000000	37.444048
3430.000000	37.238908
3429.000000	37.026168
3428.000000	36.808139
3427.000000	36.588800
3426.000000	36.370151
3425.000000	36.152048
3424.000000	35.933860
3423.000000	35.714269
3422.000000	35.490429
3421.000000	35.259729
3420.000000	35.021873
3419.000000	34.777907
3418.000000	34.528751
3417.000000	34.275939
3416.000000	34.022065
3415.000000	33.768286
3414.000000	33.512295
3413.000000	33.250825
3412.000000	32.982681
3411.000000	32.707983
3410.000000	32.426025
3409.000000	32.135907
3408.000000	31.838617
3407.000000	31.536462
3406.000000	31.231451
3405.000000	30.925309
3404.000000	30.619170
3403.000000	30.311641
3402.000000	29.998090
3401.000000	29.673707
3400.000000	29.336881
3399.000000	28.989043
3398.000000	28.633192
3397.000000	28.273316
3396.000000	27.912885
3395.000000	27.552295
3394.000000	27.188531
3393.000000	26.818376
3392.000000	26.440528
3391.000000	26.054200
3390.000000	25.658874
3389.000000	25.256205
3388.000000	24.849944
3387.000000	24.442442
3386.000000	24.032963
3385.000000	23.620608
3384.000000	23.205781
3383.000000	22.787989
3382.000000	22.364834
3381.000000	21.934828
3380.000000	21.499218
3379.000000	21.059671
3378.000000	20.616619
3377.000000	20.171050
3376.000000	19.725187
3375.000000	19.280106
3374.000000	18.834704
3373.000000	18.387998
3372.000000	17.940222
3371.000000	17.490720
3370.000000	17.037844
3369.000000	16.581929
3368.000000	16.125850
3367.000000	15.671787
3366.000000	15.219997
3365.000000	14.771231
3364.000000	14.327104
3363.000000	13.887223
3362.000000	13.449065
3361.000000	13.011834
3360.000000	12.577516
3359.000000	12.147484
3358.000000	11.721286
3357.000000	11.299447
3356.000000	10.884353
3355.000000	10.477000
3354.000000	10.076109
3353.000000	9.681251
3352.000000	9.293695
3351.000000	8.913780
3350.000000	8.540361
3349.000000	8.173602
3348.000000	7.815569
3347.000000	7.466882
3346.000000	7.126409
3345.000000	6.794317
3344.000000	6.472265
3343.000000	6.160363
3342.000000	5.856668
3341.000000	5.560737
3340.000000	5.274382
3339.000000	4.998476
3338.000000	4.732477
3337.000000	4.476691
3336.000000	4.232334
3335.000000	3.998840
3334.000000	3.774121
3333.000000	3.558067
3332.000000	3.352026
3331.000000	3.155409
3330.000000	2.965954
3329.000000	2.783101
3328.000000	2.608648
3327.000000	2.443436
3326.000000	2.287051
3325.000000	2.140244
3324.000000	2.004012
3323.000000	1.876954
3322.000000	1.756368
3321.000000	1.641774
3320.000000	1.534531
3319.000000	1.433981
3318.000000	1.338388
3317.000000	1.248362
3316.000000	1.165991
3315.000000	1.090888
3314.000000	1.020333
3313.000000	0.953275
3312.000000	0.890502
3311.000000	0.831286
3310.000000	0.773945
3309.000000	0.719232
3308.000000	0.670061
3307.000000	0.627769
3306.000000	0.591605
3305.000000	0.561513
3304.000000	0.537399
3303.000000	0.516663
3302.000000	0.495907
3301.000000	0.474716
3300.000000	0.454816
3299.000000	0.436094
3298.000000	0.417091
3297.000000	0.398697
3296.000000	0.383339
3295.000000	0.371046
3294.000000	0.359858
3293.000000	0.349732
3292.000000	0.342484
3291.000000	0.337931
3290.000000	0.333936
3289.000000	0.329831
3288.000000	0.326585
3287.000000	0.323987
3286.000000	0.320790
3285.000000	0.317476
3284.000000	0.315463
3283.000000	0.314113
3282.000000	0.311678
3281.000000	0.308602
3280.000000	0.306744
3279.000000	0.305854
3278.000000	0.304169
3277.000000	0.301883
3276.000000	0.300639
3275.000000	0.300090
3274.000000	0.298353
3273.000000	0.295700
3272.000000	0.294504
3271.000000	0.295738
3270.000000	0.298476
3269.000000	0.302325
3268.000000	0.307298
3267.000000	0.311875
3266.000000	0.314324
3265.000000	0.315500
3264.000000	0.317561
3263.000000	0.320426
3262.000000	0.322513
3261.000000	0.324007
3260.000000	0.326205
3259.000000	0.328510
3258.000000	0.329376
3257.000000	0.329727
3256.000000	0.332045
3255.000000	0.336569
3254.000000	0.341364
3253.000000	0.345650
3252.000000	0.349920
3251.000000	0.353430
3250.000000	0.354800
3249.000000	0.354863
3248.000000	0.355950
3247.000000	0.358571
3246.000000	0.361530
3245.000000	0.364688
3244.000000	0.368884
3243.000000	0.373622
3242.000000	0.377652
3241.000000	0.381275
3240.000000	0.385550
3239.000000	0.389804
3238.000000	0.392539
3237.000000	0.394027
3236.000000	0.395632
3235.000000	0.397455
3234.000000	0.399174
3233.000000	0.402032
3232.000000	0.407217
3231.000000	0.413292
3230.000000	0.417990
3229.000000	0.421513
3228.000000	0.425343
3227.000000	0.429097
3226.000000	0.431447
3225.000000	0.433092
3224.000000	0.435705
3223.000000	0.438915
3222.000000	0.441187
3221.000000	0.442763
3220.000000	0.444850
3219.000000	0.446922
3218.000000	0.447730
3217.000000	0.448042
3216.000000	0.449507
3215.000000	0.451734
3214.000000	0.453239
3213.000000	0.454319
3212.000000	0.456112
3211.000000	0.457941
3210.000000	0.458424
3209.000000	0.458258
3208.000000	0.459014
3207.000000	0.460145
3206.000000	0.460010
3205.000000	0.458926
3204.000000	0.458380
3203.000000	0.458187
3202.000000	0.457164
3201.000000	0.455679
3200.000000	0.454835
3199.000000	0.454073
3198.000000	0.452252
3197.000000	0.450078
3196.000000	0.448861
3195.000000	0.447909
3194.000000	0.445792
3193.000000	0.443024
3192.000000	0.440928
3191.000000	0.438980
3190.000000	0.435986
3189.000000	0.432684
3188.000000	0.430509
3187.000000	0.428893
3186.000000	0.426461
3185.000000	0.423753
3184.000000	0.422086
3183.000000	0.420912
3182.000000	0.418953
3181.000000	0.416812
3180.000000	0.415756
3179.000000	0.415081
3178.000000	0.413299
3177.000000	0.410901
3176.000000	0.409313
3175.000000	0.408231
3174.000000	0.406538
3173.000000	0.404705
3172.000000	0.403798
3171.000000	0.403280
3170.000000	0.402210
3169.000000	0.401397
3168.000000	0.401969
3167.000000	0.403084
3166.000000	0.403484
3165.000000	0.403927
3164.000000	0.405638
3163.000000	0.407811
3162.000000	0.409116
3161.000000	0.410275
3160.000000	0.412599
3159.000000	0.415420
3158.000000	0.417444
3157.000000	0.419160
3156.000000	0.421426
3155.000000	0.423318
3154.000000	0.424084
3153.000000	0.425724
3152.000000	0.430664
3151.000000	0.438174
3150.000000	0.445733
3149.000000	0.452679
3148.000000	0.459840
3147.000000	0.466946
3146.000000	0.473200
3145.000000	0.479319
3144.000000	0.486355
3143.000000	0.493597
3142.000000	0.500058
3141.000000	0.506863
3140.000000	0.515699
3139.000000	0.526077
3138.000000	0.536554
3137.000000	0.547336
3136.000000	0.559296
3135.000000	0.571739
3134.000000	0.583513
3133.000000	0.595217
3132.000000	0.608002
3131.000000	0.621494
3130.000000	0.635068
3129.000000	0.649645
3128.000000	0.666017
3127.000000	0.682858
3126.000000	0.698675
3125.000000	0.714190
3124.000000	0.730565
3123.000000	0.747002
3122.000000	0.762531
3121.000000	0.778521
3120.000000	0.796931
3119.000000	0.817455
3118.000000	0.838896
3117.000000	0.861746
3116.000000	0.886933
3115.000000	0.913553
3114.000000	0.940189
3113.000000	0.967098
3112.000000	0.994807
3111.000000	1.022276
3110.000000	1.048859
3109.000000	1.076390
3108.000000	1.106813
3107.000000	1.139256
3106.000000	1.171820
3105.000000	1.204644
3104.000000	1.238723
3103.000000	1.273417
3102.000000	1.307784
3101.000000	1.342916
3100.000000	1.380479
3099.000000	1.420085
3098.000000	1.460533
3097.000000	1.502132
3096.000000	1.545383
3095.000000	1.588911
3094.000000	1.631165
3093.000000	1.672983
3092.000000	1.716258
3091.000000	1.761276
3090.000000	1.807471
3089.000000	1.855250
3088.000000	1.904921
3087.000000	1.955316
3086.000000	2.005559
3085.000000	2.056804
3084.000000	2.110160
3083.000000	2.164513
3082.000000	2.218574
3081.000000	2.273306
3080.000000	2.330237
3079.000000	2.389010
3078.000000	2.448818
3077.000000	2.510516
3076.000000	2.574874
3075.000000	2.640423
3074.000000	2.705371
3073.000000	2.770123
3072.000000	2.835698
3071.000000	2.901265
3070.000000	2.965779
3069.000000	3.030566
3068.000000	3.097762
3067.000000	3.167475
3066.000000	3.238575
3065.000000	3.310972
3064.000000	3.384822
3063.000000	3.458846
3062.000000	3.531767
3061.000000	3.604285
3060.000000	3.677738
3059.000000	3.752107
3058.000000	3.827095
3057.000000	3.903698
3056.000000	3.982586
3055.000000	4.062340
3054.000000	4.141342
3053.000000	4.220076
3052.000000	4.299769
3051.000000	4.380178
3050.000000	4.460572
3049.000000	4.541407
3048.000000	4.623104
3047.000000	4.704676
3046.000000	4.785490
3045.000000	4.866922
3044.000000	4.950443
3043.000000	5.035510
3042.000000	5.121109
3041.000000	5.207682
3040.000000	5.295563
3039.000000	5.383238
3038.000000	5.469308
3037.000000	5.554831
3036.000000	5.641778
3035.000000	5.730481
3034.000000	5.820356
3033.000000	5.911509
3032.000000	6.003678
3031.000000	6.095134
3030.000000	6.184723
3029.000000	6.273665
3028.000000	6.363563
3027.000000	6.454150
3026.000000	6.544781
3025.000000	6.636399
3024.000000	6.729912
3023.000000	6.824073
3022.000000	6.917096
3021.000000	7.009118
3020.000000	7.101162
3019.000000	7.193037
3018.000000	7.284255
3017.000000	7.375734
3016.000000	7.468629
3015.000000	7.562636
3014.000000	7.657232
3013.000000	7.753324
3012.000000	7.851808
3011.000000	7.951723
3010.000000	8.051470
3009.000000	8.150679
3008.000000	8.249343
3007.000000	8.346685
3006.000000	8.442657
3005.000000	8.539096
3004.000000	8.637554
3003.000000	8.737087
3002.000000	8.835911
3001.000000	8.933927
3000.000000	9.032008
2999.000000	9.130133
2998.000000	9.227962
2997.000000	9.325997
2996.000000	9.424526
2995.000000	9.522710
2994.000000	9.620364
2993.000000	9.719246
2992.000000	9.820741
2991.000000	9.923559
2990.000000	10.025492
2989.000000	10.126236
2988.000000	10.226720
2987.000000	10.326959
2986.000000	10.426472
2985.000000	10.525726
2984.000000	10.625314
2983.000000	10.724680
2982.000000	10.823382
2981.000000	10.922515
2980.000000	11.023135
2979.000000	11.124255
2978.000000	11.224234
2977.000000	11.323281
2976.000000	11.422883
2975.000000	11.523580
2974.000000	11.624955
2973.000000	11.726922
2972.000000	11.829401
2971.000000	11.931415
2970.000000	12.032068
2969.000000	12.131789
2968.000000	12.231298
2967.000000	12.330318
2966.000000	12.428588
2965.000000	12.527171
2964.000000	12.627252
2963.000000	12.728582
2962.000000	12.830411
2961.000000	12.932796
2960.000000	13.035552
2959.000000	13.137215
2958.000000	13.236672
2957.000000	13.334797
2956.000000	13.432986
2955.000000	13.531309
2954.000000	13.629602
2953.000000	13.728974
2952.000000	13.830340
2951.000000	13.932417
2950.000000	14.032948
2949.000000	14.131096
2948.000000	14.227327
2947.000000	14.322016
2946.000000	14.415784
2945.000000	14.510187
2944.000000	14.606349
2943.000000	14.703508
2942.000000	14.800264
2941.000000	14.896432
2940.000000	14.992365
2939.000000	15.087485
2938.000000	15.181007
2937.000000	15.273251
2936.000000	15.364781
2935.000000	15.455040
2934.000000	15.543439
2933.000000	15.630970
2932.000000	15.719310
2931.000000	15.808996
2930.000000	15.899748
2929.000000	15.991613
2928.000000	16.084253
2927.000000	16.176116
2926.000000	16.265970
2925.000000	16.354631
2924.000000	16.443905
2923.000000	16.534631
2922.000000	16.627035
2921.000000	16.721713
2920.000000	16.818643
2919.000000	16.916081
2918.000000	17.012012
2917.000000	17.106058
2916.000000	17.198795
2915.000000	17.290245
2914.000000	17.380405
2913.000000	17.470426
2912.000000	17.561703
2911.000000	17.654270
2910.000000	17.747171
2909.000000	17.839755
2908.000000	17.931485
2907.000000	18.021285
2906.000000	18.108393
2905.000000	18.193504
2904.000000	18.278108
2903.000000	18.363257
2902.000000	18.449722
2901.000000	18.538538
2900.000000	18.629791
2899.000000	18.721850
2898.000000	18.812548
2897.000000	18.900727
2896.000000	18.986010
2895.000000	19.068136
2894.000000	19.147856
2893.000000	19.227658
2892.000000	19.310137
2891.000000	19.395934
2890.000000	19.484004
2889.000000	19.573082
2888.000000	19.661775
2887.000000	19.748139
2886.000000	19.830818
2885.000000	19.910442
2884.000000	19.988935
2883.000000	20.067873
2882.000000	20.148265
2881.000000	20.231081
2880.000000	20.316544
2879.000000	20.403321
2878.000000	20.489720
2877.000000	20.575344
2876.000000	20.660457
2875.000000	20.744170
2874.000000	20.824775
2873.000000	20.901934
2872.000000	20.977479
2871.000000	21.053918
2870.000000	21.132892
2869.000000	21.214651
2868.000000	21.297838
2867.000000	21.379848
2866.000000	21.458497
2865.000000	21.533687
2864.000000	21.607199
2863.000000	21.681095
2862.000000	21.756769
2861.000000	21.834686
2860.000000	21.914000
2859.000000	21.992736
2858.000000	22.069364
2857.000000	22.143991
2856.000000	22.217544
2855.000000	22.290447
2854.000000	22.363230
2853.000000	22.437866
2852.000000	22.517114
2851.000000	22.602324
2850.000000	22.692393
2849.000000	22.784458
2848.000000	22.874945
2847.000000	22.960755
2846.000000	23.040781
2845.000000	23.116612
2844.000000	23.191448
2843.000000	23.268473
2842.000000	23.350107
2841.000000	23.437242
2840.000000	23.527914
2839.000000	23.617500
2838.000000	23.701856
2837.000000	23.780283
2836.000000	23.854726
2835.000000	23.926922
2834.000000	23.997731
2833.000000	24.068662
2832.000000	24.142146
2831.000000	24.219785
2830.000000	24.301436
2829.000000	24.386064
2828.000000	24.472367
2827.000000	24.558392
2826.000000	24.641858
2825.000000	24.721621
2824.000000	24.798367
2823.000000	24.873735
2822.000000	24.949413
2821.000000	25.026905
2820.000000	25.107024
2819.000000	25.189118
2818.000000	25.271333
2817.000000	25.351846
2816.000000	25.429506
2815.000000	25.503702
2814.000000	25.574782
2813.000000	25.644662
2812.000000	25.715851
2811.000000	25.789323
2810.000000	25.863909
2809.000000	25.937861
2808.000000	26.010026
2807.000000	26.079370
2806.000000	26.144676
2805.000000	26.205588
2804.000000	26.263465
2803.000000	26.320680
2802.000000	26.379377
2801.000000	26.440914
2800.000000	26.505428
2799.000000	26.571356
2798.000000	26.636002
2797.000000	26.697262
2796.000000	26.754708
2795.000000	26.809101
2794.000000	26.861732
2793.000000	26.914598
2792.000000	26.970257
2791.000000	27.030491
2790.000000	27.095147
2789.000000	27.162420
2788.000000	27.229861
2787.000000	27.295054
2786.000000	27.356248
2785.000000	27.413121
2784.000000	27.466841
2783.000000	27.519195
2782.000000	27.571851
2781.000000	27.626268
2780.000000	27.683253
2779.000000	27.742013
2778.000000	27.800091
2777.000000	27.854550
2776.000000	27.903113
2775.000000	27.944265
2774.000000	27.977377
2773.000000	28.003407
2772.000000	28.024686
2771.000000	28.043422
2770.000000	28.060467
2769.000000	28.075483
2768.000000	28.087611
2767.000000	28.095447
2766.000000	28.097365
2765.000000	28.092670
2764.000000	28.082186
2763.000000	28.067635
2762.000000	28.050762
2761.000000	28.033263
2760.000000	28.016647
2759.000000	28.001389
2758.000000	27.986731
2757.000000	27.971584
2756.000000	27.955266
2755.000000	27.937271
2754.000000	27.917030
2753.000000	27.894411
2752.000000	27.869778
2751.000000	27.843148
2750.000000	27.813605
2749.000000	27.779624
2748.000000	27.739632
2747.000000	27.692156
2746.000000	27.636393
2745.000000	27.573216
2744.000000	27.504864
2743.000000	27.433648
2742.000000	27.361606
2741.000000	27.291414
2740.000000	27.226723
2739.000000	27.171052
2738.000000	27.126785
2737.000000	27.095772
2736.000000	27.080022
2735.000000	27.081294
2734.000000	27.101154
2733.000000	27.141031
2732.000000	27.201938
2731.000000	27.283764
2730.000000	27.384573
2729.000000	27.501453
2728.000000	27.630909
2727.000000	27.768771
2726.000000	27.911108
2725.000000	28.055198
2724.000000	28.199657
2723.000000	28.343160
2722.000000	28.483693
2721.000000	28.619566
2720.000000	28.750247
2719.000000	28.875492
2718.000000	28.994369
2717.000000	29.105731
2716.000000	29.208929
2715.000000	29.303707
2714.000000	29.389474
2713.000000	29.465493
2712.000000	29.531588
2711.000000	29.587744
2710.000000	29.634081
2709.000000	29.671377
2708.000000	29.701202
2707.000000	29.725189
2706.000000	29.744143
2705.000000	29.758767
2704.000000	29.770163
2703.000000	29.778862
2702.000000	29.784239
2701.000000	29.785369
2700.000000	29.782350
2699.000000	29.776044
2698.000000	29.767212
2697.000000	29.756817
2696.000000	29.746400
2695.000000	29.737256
2694.000000	29.729412
2693.000000	29.721959
2692.000000	29.714007
2691.000000	29.704681
2690.000000	29.692882
2689.000000	29.677972
2688.000000	29.660490
2687.000000	29.641673
2686.000000	29.622634
2685.000000	29.604445
2684.000000	29.588319
2683.000000	29.574770
2682.000000	29.562869
2681.000000	29.550948
2680.000000	29.537835
2679.000000	29.523198
2678.000000	29.507524
2677.000000	29.492463
2676.000000	29.480740
2675.000000	29.474750
2674.000000	29.475239
2673.000000	29.481746
2672.000000	29.493539
2671.000000	29.509745
2670.000000	29.529155
2669.000000	29.550671
2668.000000	29.574057
2667.000000	29.599512
2666.000000	29.626970
2665.000000	29.656182
2664.000000	29.686776
2663.000000	29.717515
2662.000000	29.745797
2661.000000	29.768631
2660.000000	29.784232
2659.000000	29.792691
2658.000000	29.795739
2657.000000	29.796579
2656.000000	29.799290
2655.000000	29.807290
2654.000000	29.822079
2653.000000	29.843471
2652.000000	29.870375
2651.000000	29.901133
2650.000000	29.934155
2649.000000	29.969238
2648.000000	30.008741
2647.000000	30.056804
2646.000000	30.117394
2645.000000	30.193347
2644.000000	30.285413
2643.000000	30.391643
2642.000000	30.507403
2641.000000	30.626601
2640.000000	30.743712
2639.000000	30.854636
2638.000000	30.957275
2637.000000	31.052234
2636.000000	31.142512
2635.000000	31.231405
2634.000000	31.320392
2633.000000	31.408735
2632.000000	31.494087
2631.000000	31.572956
2630.000000	31.641159
2629.000000	31.695995
2628.000000	31.738016
2627.000000	31.770291
2626.000000	31.796768
2625.000000	31.821284
2624.000000	31.847359
2623.000000	31.876703
2622.000000	31.907565
2621.000000	31.935645
2620.000000	31.956375
2619.000000	31.966667
2618.000000	31.965503
2617.000000	31.954315
2616.000000	31.936939
2615.000000	31.917571
2614.000000	31.898468
2613.000000	31.879551
2612.000000	31.859044
2611.000000	31.834115
2610.000000	31.801484
2609.000000	31.759458
2608.000000	31.709999
2607.000000	31.658369
2606.000000	31.611100
2605.000000	31.574442
2604.000000	31.553308
2603.000000	31.549778
2602.000000	31.562512
2601.000000	31.587620
2600.000000	31.620688
2599.000000	31.658224
2598.000000	31.698223
2597.000000	31.741576
2596.000000	31.791717
2595.000000	31.852395
2594.000000	31.925328
2593.000000	32.009401
2592.000000	32.101522
2591.000000	32.196766
2590.000000	32.288967
2589.000000	32.373080
2588.000000	32.447573
2587.000000	32.514683
2586.000000	32.578914
2585.000000	32.645753
2584.000000	32.720226
2583.000000	32.804345
2582.000000	32.895471
2581.000000	32.987891
2580.000000	33.075956
2579.000000	33.155589
2578.000000	33.224588
2577.000000	33.283851
2576.000000	33.338431
2575.000000	33.395755
2574.000000	33.462009
2573.000000	33.540098
2572.000000	33.629686
2571.000000	33.727291
2570.000000	33.826665
2569.000000	33.921231
2568.000000	34.007194
2567.000000	34.084348
2566.000000	34.154699
2565.000000	34.221401
2564.000000	34.287824
2563.000000	34.355328
2562.000000	34.420796
2561.000000	34.477337
2560.000000	34.518017
2559.000000	34.538189
2558.000000	34.536781
2557.000000	34.517223
2556.000000	34.487805
2555.000000	34.459715
2554.000000	34.443441
2553.000000	34.446885
2552.000000	34.474735
2551.000000	34.527536
2550.000000	34.600854
2549.000000	34.688020
2548.000000	34.783641
2547.000000	34.884936
2546.000000	34.991189
2545.000000	35.102739
2544.000000	35.221169
2543.000000	35.347224
2542.000000	35.478158
2541.000000	35.608096
2540.000000	35.730849
2539.000000	35.841832
2538.000000	35.938384
2537.000000	36.020741
2536.000000	36.092861
2535.000000	36.160998
2534.000000	36.230331
2533.000000	36.303442
2532.000000	36.380823
2531.000000	36.460387
2530.000000	36.537287
2529.000000	36.606022
2528.000000	36.663976
2527.000000	36.712451
2526.000000	36.754890
2525.000000	36.795879
2524.000000	36.840670
2523.000000	36.892943
2522.000000	36.952179
2521.000000	37.014165
2520.000000	37.074077
2519.000000	37.128063
2518.000000	37.173155
2517.000000	37.208567
2516.000000	37.237436
2515.000000	37.265609
2514.000000	37.298047
2513.000000	37.336955
2512.000000	37.382271
2511.000000	37.431563
2510.000000	37.479868
2509.000000	37.521979
2508.000000	37.555705
2507.000000	37.582171
2506.000000	37.603736
2505.000000	37.623551
2504.000000	37.646109
2503.000000	37.675244
2502.000000	37.710984
2501.000000	37.749672
2500.000000	37.787037
2499.000000	37.819750
2498.000000	37.845043
2497.000000	37.861957
2496.000000	37.873356
2495.000000	37.884737
2494.000000	37.900432
2493.000000	37.921891
2492.000000	37.948754
2491.000000	37.979092
2490.000000	38.008792
2489.000000	38.033313
2488.000000	38.050816
2487.000000	38.062543
2486.000000	38.070625
2485.000000	38.077452
2484.000000	38.086499
2483.000000	38.100971
2482.000000	38.121029
2481.000000	38.143797
2480.000000	38.166019
2479.000000	38.185253
2478.000000	38.199224
2477.000000	38.206842
2476.000000	38.210239
2475.000000	38.213779
2474.000000	38.220677
2473.000000	38.231786
2472.000000	38.246911
2471.000000	38.264999
2470.000000	38.283167
2469.000000	38.298030
2468.000000	38.308430
2467.000000	38.315516
2466.000000	38.320589
2465.000000	38.324844
2464.000000	38.330706
2463.000000	38.340747
2462.000000	38.354915
2461.000000	38.370612
2460.000000	38.385512
2459.000000	38.398570
2458.000000	38.408773
2457.000000	38.415476
2456.000000	38.420187
2455.000000	38.425950
2454.000000	38.434577
2453.000000	38.446014
2452.000000	38.459958
2451.000000	38.475936
2450.000000	38.491911
2449.000000	38.505152
2448.000000	38.514872
2447.000000	38.522533
2446.000000	38.529742
2445.000000	38.537706
2444.000000	38.548177
2443.000000	38.562487
2442.000000	38.579443
2441.000000	38.596131
2440.000000	38.610857
2439.000000	38.623678
2438.000000	38.634601
2437.000000	38.643586
2436.000000	38.652202
2435.000000	38.663031
2434.000000	38.677102
2433.000000	38.693556
2432.000000	38.711451
2431.000000	38.729915
2430.000000	38.746987
2429.000000	38.760766
2428.000000	38.771888
2427.000000	38.782967
2426.000000	38.795644
2425.000000	38.810074
2424.000000	38.826690
2423.000000	38.846019
2422.000000	38.866769
2421.000000	38.886384
2420.000000	38.903672
2419.000000	38.919153
2418.000000	38.933191
2417.000000	38.946029
2416.000000	38.959399
2415.000000	38.975709
2414.000000	38.995354
2413.000000	39.016619
2412.000000	39.038048
2411.000000	39.059022
2410.000000	39.078524
2409.000000	39.095713
2408.000000	39.111698
2407.000000	39.128812
2406.000000	39.148176
2405.000000	39.169717
2404.000000	39.193765
2403.000000	39.220293
2402.000000	39.247114
2401.000000	39.271330
2400.000000	39.292519
2399.000000	39.312592
2398.000000	39.333024
2397.000000	39.354590
2396.000000	39.379046
2395.000000	39.408123
2394.000000	39.440855
2393.000000	39.474213
2392.000000	39.506249
2391.000000	39.536616
2390.000000	39.564773
2389.000000	39.590439
2388.000000	39.615808
2387.000000	39.644530
2386.000000	39.678400
2385.000000	39.717126
2384.000000	39.760206
2383.000000	39.807121
2382.000000	39.855499
2381.000000	39.902511
2380.000000	39.948571
2379.000000	39.996876
2378.000000	40.050129
2377.000000	40.109719
2376.000000	40.177224
2375.000000	40.253088
2374.000000	40.334028
2373.000000	40.413728
2372.000000	40.487785
2371.000000	40.554587
2370.000000	40.612379
2369.000000	40.660788
2368.000000	40.705172
2367.000000	40.753075
2366.000000	40.806405
2365.000000	40.863426
2364.000000	40.926954
2363.000000	40.995837
2362.000000	41.064179
2361.000000	41.128953
2360.000000	41.188603
2359.000000	41.248402
2358.000000	41.308989
2357.000000	41.366803
2356.000000	41.425684
2355.000000	41.481974
2354.000000	41.532496
2353.000000	41.576001
2352.000000	41.630103
2351.000000	41.708100
2350.000000	41.791814
2349.000000	41.859729
2348.000000	41.904132
2347.000000	41.946041
2346.000000	42.008664
2345.000000	42.089060
2344.000000	42.173722
2343.000000	42.239278
2342.000000	42.289895
2341.000000	42.331148
2340.000000	42.368045
2339.000000	42.405805
2338.000000	42.447007
2337.000000	42.497749
2336.000000	42.559429
2335.000000	42.635002
2334.000000	42.715210
2333.000000	42.793403
2332.000000	42.860660
2331.000000	42.925445
2330.000000	42.979918
2329.000000	43.034698
2328.000000	43.085091
2327.000000	43.141502
2326.000000	43.200953
2325.000000	43.262120
2324.000000	43.327419
2323.000000	43.394713
2322.000000	43.462176
2321.000000	43.522134
2320.000000	43.573851
2319.000000	43.623272
2318.000000	43.670662
2317.000000	43.719417
2316.000000	43.765858
2315.000000	43.818746
2314.000000	43.873895
2313.000000	43.934196
2312.000000	43.991146
2311.000000	44.048873
2310.000000	44.101029
2309.000000	44.150744
2308.000000	44.196415
2307.000000	44.246510
2306.000000	44.300420
2305.000000	44.359059
2304.000000	44.418193
2303.000000	44.479408
2302.000000	44.538028
2301.000000	44.593007
2300.000000	44.641347
2299.000000	44.688340
2298.000000	44.734202
2297.000000	44.781782
2296.000000	44.830535
2295.000000	44.883496
2294.000000	44.937718
2293.000000	44.989596
2292.000000	45.036083
2291.000000	45.077947
2290.000000	45.115464
2289.000000	45.148895
2288.000000	45.181934
2287.000000	45.219648
2286.000000	45.264056
2285.000000	45.312054
2284.000000	45.360988
2283.000000	45.408825
2282.000000	45.452889
2281.000000	45.489717
2280.000000	45.520084
2279.000000	45.548219
2278.000000	45.577521
2277.000000	45.609290
2276.000000	45.645336
2275.000000	45.687743
2274.000000	45.734082
2273.000000	45.778776
2272.000000	45.817999
2271.000000	45.851559
2270.000000	45.879159
2269.000000	45.900485
2268.000000	45.918670
2267.000000	45.939381
2266.000000	45.965118
2265.000000	45.994474
2264.000000	46.025797
2263.000000	46.057962
2262.000000	46.087209
2261.000000	46.108362
2260.000000	46.120831
2259.000000	46.128120
2258.000000	46.132932
2257.000000	46.135193
2256.000000	46.135969
2255.000000	46.137205
2254.000000	46.137232
2253.000000	46.131445
2252.000000	46.117197
2251.000000	46.095514
2250.000000	46.066345
2249.000000	46.028203
2248.000000	45.982639
2247.000000	45.932605
2246.000000	45.878380
2245.000000	45.816828
2244.000000	45.745994
2243.000000	45.666216
2242.000000	45.576771
2241.000000	45.476548
2240.000000	45.368417
2239.000000	45.258975
2238.000000	45.153306
2237.000000	45.053742
2236.000000	44.963364
2235.000000	44.885752
2234.000000	44.820948
2233.000000	44.765583
2232.000000	44.717926
2231.000000	44.678766
2230.000000	44.647683
2229.000000	44.622731
2228.000000	44.603986
2227.000000	44.593107
2226.000000	44.588410
2225.000000	44.584714
2224.000000	44.578230
2223.000000	44.568010
2222.000000	44.552666
2221.000000	44.530493
2220.000000	44.503517
2219.000000	44.477046
2218.000000	44.454343
2217.000000	44.435226
2216.000000	44.419750
2215.000000	44.408679
2214.000000	44.399954
2213.000000	44.389231
2212.000000	44.374844
2211.000000	44.358610
2210.000000	44.341661
2209.000000	44.323813
2208.000000	44.307053
2207.000000	44.294928
2206.000000	44.287534
2205.000000	44.281180
2204.000000	44.273486
2203.000000	44.264875
2202.000000	44.254961
2201.000000	44.242110
2200.000000	44.227307
2199.000000	44.214061
2198.000000	44.203660
2197.000000	44.194153
2196.000000	44.184169
2195.000000	44.173547
2194.000000	44.160010
2193.000000	44.139905
2192.000000	44.113176
2191.000000	44.083760
2190.000000	44.054735
2189.000000	44.026925
2188.000000	44.002054
2187.000000	43.982417
2186.000000	43.966636
2185.000000	43.950104
2184.000000	43.930424
2183.000000	43.908993
2182.000000	43.887262
2181.000000	43.866142
2180.000000	43.849214
2179.000000	43.841859
2178.000000	43.845920
2177.000000	43.858763
2176.000000	43.877690
2175.000000	43.901160
2174.000000	43.925824
2173.000000	43.947261
2172.000000	43.964829
2171.000000	43.981928
2170.000000	44.001223
2169.000000	44.023515
2168.000000	44.050908
2167.000000	44.086005
2166.000000	44.127094
2165.000000	44.168483
2164.000000	44.206318
2163.000000	44.240241
2162.000000	44.269691
2161.000000	44.293804
2160.000000	44.315469
2159.000000	44.340528
2158.000000	44.371728
2157.000000	44.407370
2156.000000	44.445631
2155.000000	44.485479
2154.000000	44.523286
2153.000000	44.554125
2152.000000	44.577633
2151.000000	44.598278
2150.000000	44.619490
2149.000000	44.641894
2148.000000	44.667144
2147.000000	44.697786
2146.000000	44.732321
2145.000000	44.765342
2144.000000	44.793860
2143.000000	44.819065
2142.000000	44.842069
2141.000000	44.863385
2140.000000	44.887126
2139.000000	44.919839
2138.000000	44.963489
2137.000000	45.013887
2136.000000	45.066352
2135.000000	45.118125
2134.000000	45.165184
2133.000000	45.203071
2132.000000	45.232546
2131.000000	45.259896
2130.000000	45.290426
2129.000000	45.326024
2128.000000	45.368485
2127.000000	45.419171
2126.000000	45.474149
2125.000000	45.525078
2124.000000	45.566726
2123.000000	45.599503
2122.000000	45.624922
2121.000000	45.644340
2120.000000	45.663026
2119.000000	45.689310
2118.000000	45.727715
2117.000000	45.776655
2116.000000	45.832707
2115.000000	45.891875
2114.000000	45.946866
2113.000000	45.989820
2112.000000	46.019768
2111.000000	46.042954
2110.000000	46.065360
2109.000000	46.089913
2108.000000	46.119921
2107.000000	46.158248
2106.000000	46.201791
2105.000000	46.242442
2104.000000	46.274673
2103.000000	46.297775
2102.000000	46.311050
2101.000000	46.313612
2100.000000	46.309514
2099.000000	46.306539
2098.000000	46.308653
2097.000000	46.313602
2096.000000	46.318160
2095.000000	46.320355
2094.000000	46.316947
2093.000000	46.305267
2092.000000	46.288761
2091.000000	46.275055
2090.000000	46.268378
2089.000000	46.268914
2088.000000	46.278571
2087.000000	46.300583
2086.000000	46.332807
2085.000000	46.367910
2084.000000	46.401297
2083.000000	46.433579
2082.000000	46.465334
2081.000000	46.496405
2080.000000	46.530681
2079.000000	46.575004
2078.000000	46.631750
2077.000000	46.697160
2076.000000	46.767433
2075.000000	46.839974
2074.000000	46.908949
2073.000000	46.967375
2072.000000	47.014226
2071.000000	47.053864
2070.000000	47.089680
2069.000000	47.125678
2068.000000	47.172768
2067.000000	47.242912
2066.000000	47.334661
2065.000000	47.432747
2064.000000	47.523756
2063.000000	47.604475
2062.000000	47.675376
2061.000000	47.736357
2060.000000	47.791746
2059.000000	47.850892
2058.000000	47.919682
2057.000000	47.997102
2056.000000	48.081282
2055.000000	48.171455
2054.000000	48.262307
2053.000000	48.345007
2052.000000	48.416116
2051.000000	48.479116
2050.000000	48.537136
2049.000000	48.591541
2048.000000	48.646694
2047.000000	48.707969
2046.000000	48.775008
2045.000000	48.844385
2044.000000	48.918348
2043.000000	49.001991
2042.000000	49.092197
2041.000000	49.179163
2040.000000	49.259693
2039.000000	49.339944
2038.000000	49.424751
2037.000000	49.513177
2036.000000	49.605277
2035.000000	49.703778
2034.000000	49.806868
2033.000000	49.907719
2032.000000	50.003772
2031.000000	50.098922
2030.000000	50.195519
2029.000000	50.292480
2028.000000	50.391677
2027.000000	50.497853
2026.000000	50.609832
2025.000000	50.720547
2024.000000	50.824656
2023.000000	50.919272
2022.000000	51.000099
2021.000000	51.067780
2020.000000	51.137742
2019.000000	51.230948
2018.000000	51.352096
2017.000000	51.487657
2016.000000	51.625319
2015.000000	51.762263
2014.000000	51.895506
2013.000000	52.018509
2012.000000	52.130285
2011.000000	52.237764
2010.000000	52.346128
2009.000000	52.455160
2008.000000	52.566872
2007.000000	52.687363
2006.000000	52.817260
2005.000000	52.950641
2004.000000	53.083962
2003.000000	53.218063
2002.000000	53.350283
2001.000000	53.473555
2000.000000	53.587018
1999.000000	53.693460
1998.000000	53.786801
1997.000000	53.857392
1996.000000	53.912624
1995.000000	53.978538
1994.000000	54.074195
1993.000000	54.191944
1992.000000	54.314378
1991.000000	54.437293
1990.000000	54.561549
1989.000000	54.680081
1988.000000	54.784509
1987.000000	54.874294
1986.000000	54.952607
1985.000000	55.022130
1984.000000	55.089589
1983.000000	55.164460
1982.000000	55.248101
1981.000000	55.331850
1980.000000	55.410947
1979.000000	55.487572
1978.000000	55.559618
1977.000000	55.619310
1976.000000	55.666965
1975.000000	55.712308
1974.000000	55.758114
1973.000000	55.794610
1972.000000	55.814898
1971.000000	55.826252
1970.000000	55.845016
1969.000000	55.886967
1968.000000	55.957002
1967.000000	56.043505
1966.000000	56.125073
1965.000000	56.186890
1964.000000	56.234034
1963.000000	56.282576
1962.000000	56.336663
1961.000000	56.385987
1960.000000	56.424239
1959.000000	56.455895
1958.000000	56.485353
1957.000000	56.513085
1956.000000	56.543755
1955.000000	56.584734
1954.000000	56.634698
1953.000000	56.685374
1952.000000	56.731480
1951.000000	56.771848
1950.000000	56.800931
1949.000000	56.810181
1948.000000	56.799056
1947.000000	56.774755
1946.000000	56.746192
1945.000000	56.731638
1944.000000	56.756298
1943.000000	56.824456
1942.000000	56.914581
1941.000000	57.003224
1940.000000	57.079093
1939.000000	57.138212
1938.000000	57.171585
1937.000000	57.171241
1936.000000	57.148214
1935.000000	57.126950
1934.000000	57.122302
1933.000000	57.136291
1932.000000	57.169420
1931.000000	57.224346
1930.000000	57.291556
1929.000000	57.342186
1928.000000	57.348228
1927.000000	57.301025
1926.000000	57.221349
1925.000000	57.153397
1924.000000	57.136152
1923.000000	57.177938
1922.000000	57.260860
1921.000000	57.351847
1920.000000	57.425910
1919.000000	57.473245
1918.000000	57.490306
1917.000000	57.485569
1916.000000	57.472578
1915.000000	57.450379
1914.000000	57.406024
1913.000000	57.342146
1912.000000	57.291720
1911.000000	57.292862
1910.000000	57.347884
1909.000000	57.423634
1908.000000	57.491093
1907.000000	57.539593
1906.000000	57.567092
1905.000000	57.572680
1904.000000	57.565281
1903.000000	57.563171
1902.000000	57.573295
1901.000000	57.582943
1900.000000	57.579477
1899.000000	57.561817
1898.000000	57.538443
1897.000000	57.518801
1896.000000	57.504993
1895.000000	57.490754
1894.000000	57.467784
1893.000000	57.435148
1892.000000	57.415229
1891.000000	57.435018
1890.000000	57.478152
1889.000000	57.505157
1888.000000	57.504699
1887.000000	57.487616
1886.000000	57.457804
1885.000000	57.410924
1884.000000	57.354883
1883.000000	57.313682
1882.000000	57.303796
1881.000000	57.322734
1880.000000	57.362470
1879.000000	57.413094
1878.000000	57.453352
1877.000000	57.455733
1876.000000	57.409125
1875.000000	57.328858
1874.000000	57.236274
1873.000000	57.132099
1872.000000	57.007637
1871.000000	56.893435
1870.000000	56.850039
1869.000000	56.888630
1868.000000	56.974073
1867.000000	57.067044
1866.000000	57.122883
1865.000000	57.109153
1864.000000	57.036577
1863.000000	56.947271
1862.000000	56.874677
1861.000000	56.831383
1860.000000	56.823033
1859.000000	56.847941
1858.000000	56.883659
1857.000000	56.896877
1856.000000	56.873919
1855.000000	56.822426
1854.000000	56.747168
1853.000000	56.642478
1852.000000	56.516508
1851.000000	56.396077
1850.000000	56.316932
1849.000000	56.308508
1848.000000	56.372231
1847.000000	56.457768
1846.000000	56.478039
1845.000000	56.375283
1844.000000	56.191025
1843.000000	56.038261
1842.000000	55.962614
1841.000000	55.921774
1840.000000	55.880129
1839.000000	55.846420
1838.000000	55.825916
1837.000000	55.789816
1836.000000	55.717661
1835.000000	55.623636
1834.000000	55.513807
1833.000000	55.369287
1832.000000	55.218206
1831.000000	55.124127
1830.000000	55.085333
1829.000000	55.068440
1828.000000	55.050161
1827.000000	55.008579
1826.000000	54.921769
1825.000000	54.784319
1824.000000	54.638132
1823.000000	54.530278
1822.000000	54.456463
1821.000000	54.389068
1820.000000	54.325771
1819.000000	54.278942
1818.000000	54.235219
1817.000000	54.154607
1816.000000	54.013515
1815.000000	53.822806
1814.000000	53.606970
1813.000000	53.400791
1812.000000	53.240208
1811.000000	53.140475
1810.000000	53.093088
1809.000000	53.076283
1808.000000	53.068345
1807.000000	53.047504
1806.000000	52.984330
1805.000000	52.856620
1804.000000	52.679150
1803.000000	52.501683
1802.000000	52.354729
1801.000000	52.228889
1800.000000	52.111862
1799.000000	52.019509
1798.000000	51.977258
1797.000000	51.991097
1796.000000	52.031123
1795.000000	52.035361
1794.000000	51.958439
1793.000000	51.808076
1792.000000	51.626909
1791.000000	51.487928
1790.000000	51.425740
1789.000000	51.406430
1788.000000	51.378198
1787.000000	51.308771
1786.000000	51.180143
1785.000000	50.990901
1784.000000	50.774549
1783.000000	50.585254
1782.000000	50.443745
1781.000000	50.325663
1780.000000	50.204793
1779.000000	50.082963
1778.000000	49.961190
1777.000000	49.836104
1776.000000	49.713282
1775.000000	49.588341
1774.000000	49.456543
1773.000000	49.305900
1772.000000	49.133934
1771.000000	48.994315
1770.000000	48.900625
1769.000000	48.800351
1768.000000	48.668551
1767.000000	48.547642
1766.000000	48.462500
1765.000000	48.370489
1764.000000	48.221327
1763.000000	48.012895
1762.000000	47.773513
1761.000000	47.563484
1760.000000	47.431753
1759.000000	47.372336
1758.000000	47.319899
1757.000000	47.206212
1756.000000	47.048121
1755.000000	46.893514
1754.000000	46.708739
1753.000000	46.412047
1752.000000	46.015491
1751.000000	45.647393
1750.000000	45.411178
1749.000000	45.280591
1748.000000	45.181589
1747.000000	45.083843
1746.000000	44.983559
1745.000000	44.884029
1744.000000	44.796105
1743.000000	44.715969
1742.000000	44.591216
1741.000000	44.365344
1740.000000	44.071844
1739.000000	43.839360
1738.000000	43.737665
1737.000000	43.659217
1736.000000	43.438715
1735.000000	43.046386
1734.000000	42.567396
1733.000000	42.163983
1732.000000	41.903872
1731.000000	41.739824
1730.000000	41.582986
1729.000000	41.373248
1728.000000	41.120131
1727.000000	40.856522
1726.000000	40.583336
1725.000000	40.287451
1724.000000	39.984115
1723.000000	39.711834
1722.000000	39.456164
1721.000000	39.125589
1720.000000	38.680950
1719.000000	38.229394
1718.000000	37.843134
1717.000000	37.503717
1716.000000	37.193644
1715.000000	36.892668
1714.000000	36.581022
1713.000000	36.254115
1712.000000	35.922647
1711.000000	35.599996
1710.000000	35.404601
1709.000000	35.061828
1708.000000	34.698648
1707.000000	34.317172
1706.000000	33.920436
1705.000000	33.524774
1704.000000	33.157097
1703.000000	32.809347
1702.000000	32.419599
1701.000000	31.938095
1700.000000	31.583085
1699.000000	31.024273
1698.000000	30.782201
1697.000000	30.615474
1696.000000	30.274066
1695.000000	29.818116
1694.000000	29.397179
1693.000000	29.015981
1692.000000	28.625771
1691.000000	28.214898
1690.000000	27.806356
1689.000000	27.437552
1688.000000	27.143656
1687.000000	26.885974
1686.000000	26.611242
1685.000000	26.265081
1684.000000	25.771240
1683.000000	25.289065
1682.000000	24.934061
1681.000000	24.664031
1680.000000	24.435941
1679.000000	24.247809
1678.000000	24.066637
1677.000000	23.800810
1676.000000	23.402312
1675.000000	22.951796
1674.000000	22.566043
1673.000000	22.260666
1672.000000	21.986339
1671.000000	21.707906
1670.000000	21.390694
1669.000000	21.030593
1668.000000	20.692839
1667.000000	20.430231
1666.000000	20.214921
1665.000000	19.978931
1664.000000	19.693750
1663.000000	19.380276
1662.000000	19.070114
1661.000000	18.776279
1660.000000	18.500062
1659.000000	18.252095
1658.000000	18.041918
1657.000000	17.864405
1656.000000	17.680594
1655.000000	17.491020
1654.000000	17.227291
1653.000000	16.789997
1652.000000	16.384589
1651.000000	16.120816
1650.000000	15.926391
1649.000000	15.751061
1648.000000	15.585278
1647.000000	15.385486
1646.000000	15.150264
1645.000000	14.920939
1644.000000	14.713520
1643.000000	14.527533
1642.000000	14.347999
1641.000000	14.157549
1640.000000	13.965502
1639.000000	13.799632
1638.000000	13.673279
1637.000000	13.557205
1636.000000	13.377464
1635.000000	13.152032
1634.000000	12.957173
1633.000000	12.801861
1632.000000	12.663889
1631.000000	12.531016
1630.000000	12.398013
1629.000000	12.260733
1628.000000	12.124513
1627.000000	12.006228
1626.000000	11.905610
1625.000000	11.803806
1624.000000	11.692789
1623.000000	11.584061
1622.000000	11.493132
1621.000000	11.416922
1620.000000	11.347649
1619.000000	11.288257
1618.000000	11.242055
1617.000000	11.190333
1616.000000	11.127837
1615.000000	11.079506
1614.000000	11.051253
1613.000000	11.024518
1612.000000	10.990071
1611.000000	10.960607
1610.000000	10.947409
1609.000000	10.942608
1608.000000	10.937095
1607.000000	10.935794
1606.000000	10.941954
1605.000000	10.949223
1604.000000	10.957936
1603.000000	10.978211
1602.000000	11.010329
1601.000000	11.039075
1600.000000	11.055652
1599.000000	11.067984
1598.000000	11.084106
1597.000000	11.102685
1596.000000	11.124077
1595.000000	11.154896
1594.000000	11.194674
1593.000000	11.232304
1592.000000	11.262796
1591.000000	11.293871
1590.000000	11.329300
1589.000000	11.360700
1588.000000	11.383246
1587.000000	11.404539
1586.000000	11.430619
1585.000000	11.455825
1584.000000	11.475910
1583.000000	11.494923
1582.000000	11.512512
1581.000000	11.518420
1580.000000	11.508978
1579.000000	11.498201
1578.000000	11.507974
1577.000000	11.534423
1576.000000	11.549733
1575.000000	11.560162
1574.000000	11.582457
1573.000000	11.607772
1572.000000	11.619403
1571.000000	11.624759
1570.000000	11.633081
1569.000000	11.634642
1568.000000	11.630830
1567.000000	11.635510
1566.000000	11.656806
1565.000000	11.694320
1564.000000	11.755809
1563.000000	11.851139
1562.000000	11.939497
1561.000000	11.958129
1560.000000	12.036385
1559.000000	12.154409
1558.000000	12.239736
1557.000000	12.313779
1556.000000	12.394241
1555.000000	12.494311
1554.000000	12.608893
1553.000000	12.726470
1552.000000	12.848745
1551.000000	12.997593
1550.000000	13.180461
1549.000000	13.370941
1548.000000	13.535230
1547.000000	13.665082
1546.000000	13.793089
1545.000000	13.954754
1544.000000	14.138993
1543.000000	14.312525
1542.000000	14.517288
1541.000000	14.830684
1540.000000	15.178150
1539.000000	15.480081
1538.000000	15.742371
1537.000000	15.974474
1536.000000	16.188090
1535.000000	16.425549
1534.000000	16.730575
1533.000000	17.076847
1532.000000	17.412155
1531.000000	17.726165
1530.000000	18.033243
1529.000000	18.348379
1528.000000	18.684120
1527.000000	19.048095
1526.000000	19.430123
1525.000000	19.803513
1524.000000	20.162958
1523.000000	20.574048
1522.000000	21.081932
1521.000000	21.611772
1520.000000	22.065097
1519.000000	22.450887
1518.000000	22.868903
1517.000000	23.359345
1516.000000	23.865006
1515.000000	24.338224
1514.000000	24.767828
1513.000000	25.156137
1512.000000	25.511773
1511.000000	25.835103
1510.000000	26.129264
1509.000000	26.503276
1508.000000	27.190115
1507.000000	27.998234
1506.000000	28.632671
1505.000000	29.101496
1504.000000	29.486436
1503.000000	29.876215
1502.000000	30.313475
1501.000000	30.770299
1500.000000	31.207454
1499.000000	31.635188
1498.000000	32.092777
1497.000000	32.564446
1496.000000	33.003606
1495.000000	33.404111
1494.000000	33.764417
1493.000000	34.044060
1492.000000	34.245720
1491.000000	34.495446
1490.000000	34.881548
1489.000000	35.337128
1488.000000	35.763141
1487.000000	36.129196
1486.000000	36.446659
1485.000000	36.715399
1484.000000	36.942084
1483.000000	37.164170
1482.000000	37.411573
1481.000000	37.665101
1480.000000	37.881211
1479.000000	38.029457
1478.000000	38.100476
1477.000000	38.109284
1476.000000	38.088641
1475.000000	38.077160
1474.000000	38.097304
1473.000000	38.078471
1472.000000	37.939267
1471.000000	37.725826
1470.000000	37.487275
1469.000000	37.193102
1468.000000	36.791340
1467.000000	36.241209
1466.000000	35.500143
1465.000000	34.545902
1464.000000	33.495973
1463.000000	32.551050
1462.000000	31.779231
1461.000000	31.124283
1460.000000	30.545279
1459.000000	30.077128
1458.000000	29.666772
1457.000000	29.122425
1456.000000	28.504005
1455.000000	27.980128
1454.000000	27.500764
1453.000000	26.938348
1452.000000	26.244007
1451.000000	25.443784
1450.000000	24.517876
1449.000000	23.395142
1448.000000	22.075293
1447.000000	20.659803
1446.000000	19.210734
1445.000000	17.699517
1444.000000	16.105899
1443.000000	14.453823
1442.000000	12.767804
1441.000000	11.088046
1440.000000	9.490832
1439.000000	7.989663
1438.000000	6.472488
1437.000000	4.883288
1436.000000	3.450604
1435.000000	2.435889
1434.000000	1.780057
1433.000000	1.296839
1432.000000	0.925702
1431.000000	0.686079
1430.000000	0.542215
1429.000000	0.432062
1428.000000	0.369257
1427.000000	0.388772
1426.000000	0.464146
1425.000000	0.564062
1424.000000	0.724655
1423.000000	0.984222
1422.000000	1.315005
1421.000000	1.708017
1420.000000	2.249532
1419.000000	2.999775
1418.000000	3.848651
1417.000000	4.682486
1416.000000	5.538300
1415.000000	6.478925
1414.000000	7.486815
1413.000000	8.530342
1412.000000	9.629921
1411.000000	10.798994
1410.000000	11.987924
1409.000000	13.146778
1408.000000	14.286664
1407.000000	15.441200
1406.000000	16.620893
1405.000000	17.817925
1404.000000	19.012701
1403.000000	20.162925
1402.000000	21.235779
1401.000000	22.266036
1400.000000	23.332912
1399.000000	24.448506
1398.000000	25.548577
1397.000000	26.621256
1396.000000	27.728964
1395.000000	28.888651
1394.000000	30.030923
1393.000000	31.102756
1392.000000	32.111497
1391.000000	33.067558
1390.000000	33.966125
1389.000000	34.826355
1388.000000	35.679477
1387.000000	36.501425
1386.000000	37.235155
1385.000000	37.866731
1384.000000	38.409428
1383.000000	38.857348
1382.000000	39.190351
1381.000000	39.391962
1380.000000	39.437726
1379.000000	39.286090
1378.000000	38.903150
1377.000000	38.277923
1376.000000	37.399432
1375.000000	36.234973
1374.000000	34.760073
1373.000000	33.035322
1372.000000	31.186387
1371.000000	29.333205
1370.000000	27.610012
1369.000000	26.196966
1368.000000	25.274487
1367.000000	24.932249
1366.000000	25.146977
1365.000000	25.854558
1364.000000	27.007230
1363.000000	28.525046
1362.000000	30.233996
1361.000000	31.934424
1360.000000	33.494980
1359.000000	34.853004
1358.000000	35.977173
1357.000000	36.848047
1356.000000	37.448937
1355.000000	37.760358
1354.000000	37.766067
1353.000000	37.456896
1352.000000	36.829767
1351.000000	35.883119
1350.000000	34.618746
1349.000000	33.047879
1348.000000	31.187654
1347.000000	29.065634
1346.000000	26.721274
1345.000000	24.204206
1344.000000	21.581831
1343.000000	18.933584
1342.000000	16.335732
1341.000000	13.862226
1340.000000	11.607291
1339.000000	9.690494
1338.000000	8.207485
1337.000000	7.167804
1336.000000	6.503836
1335.000000	6.115187
1334.000000	5.882403
1333.000000	5.681800
1332.000000	5.412031
1331.000000	5.012587
1330.000000	4.466138
1329.000000	3.792766
1328.000000	3.048895
1327.000000	2.313827
1326.000000	1.658180
1325.000000	1.122439
1324.000000	0.721364
1323.000000	0.451888
1322.000000	0.289896
1321.000000	0.197753
1320.000000	0.146799
1319.000000	0.122046
1318.000000	0.111538
1317.000000	0.103542
1316.000000	0.093469
1315.000000	0.084858
1314.000000	0.079001
1313.000000	0.073107
1312.000000	0.067121
1311.000000	0.062952
1310.000000	0.061068
1309.000000	0.061115
1308.000000	0.062360
1307.000000	0.067465
1306.000000	0.083416
1305.000000	0.112895
1304.000000	0.158518
1303.000000	0.230685
1302.000000	0.335355
1301.000000	0.469342
1300.000000	0.633858
1299.000000	0.835608
1298.000000	1.073823
1297.000000	1.340747
1296.000000	1.633646
1295.000000	1.955469
1294.000000	2.302745
1293.000000	2.665687
1292.000000	3.038876
1291.000000	3.418867
1290.000000	3.792231
1289.000000	4.136837
1288.000000	4.433468
1287.000000	4.667154
1286.000000	4.824431
1285.000000	4.903310
1284.000000	4.929784
1283.000000	4.956186
1282.000000	5.040245
1281.000000	5.225998
1280.000000	5.537054
1279.000000	5.971541
1278.000000	6.501163
1277.000000	7.089336
1276.000000	7.710242
1275.000000	8.350164
1274.000000	8.998604
1273.000000	9.646553
1272.000000	10.290704
1271.000000	10.928491
1270.000000	11.552034
1269.000000	12.152415
1268.000000	12.726943
1267.000000	13.276357
1266.000000	13.800070
1265.000000	14.298824
1264.000000	14.778593
1263.000000	15.248673
1262.000000	15.716150
1261.000000	16.184999
1260.000000	16.655672
1259.000000	17.122564
1258.000000	17.576533
1257.000000	18.011821
1256.000000	18.428994
1255.000000	18.831512
1254.000000	19.223494
1253.000000	19.611312
1252.000000	20.001783
1251.000000	20.397263
1250.000000	20.794581
1249.000000	21.187953
1248.000000	21.570997
1247.000000	21.937249
1246.000000	22.283272
1245.000000	22.611834
1244.000000	22.929338
1243.000000	23.241697
1242.000000	23.553866
1241.000000	23.870236
1240.000000	24.191365
1239.000000	24.510803
1238.000000	24.819170
1237.000000	25.109750
1236.000000	25.378988
1235.000000	25.626261
1234.000000	25.856483
1233.000000	26.080661
1232.000000	26.309791
1231.000000	26.549189
1230.000000	26.799326
1229.000000	27.057703
1228.000000	27.318042
1227.000000	27.571631
1226.000000	27.813446
1225.000000	28.045278
1224.000000	28.271998
1223.000000	28.499071
1222.000000	28.735061
1221.000000	28.990265
1220.000000	29.268401
1219.000000	29.562699
1218.000000	29.861773
1217.000000	30.155377
1216.000000	30.434118
1215.000000	30.691520
1214.000000	30.930769
1213.000000	31.164369
1212.000000	31.404103
1211.000000	31.654852
1210.000000	31.918474
1209.000000	32.195443
1208.000000	32.479354
1207.000000	32.756677
1206.000000	33.016577
1205.000000	33.257465
1204.000000	33.482401
1203.000000	33.695710
1202.000000	33.906636
1201.000000	34.127277
1200.000000	34.362208
1199.000000	34.604047
1198.000000	34.839908
1197.000000	35.056676
1196.000000	35.237887
1195.000000	35.367188
1194.000000	35.438610
1193.000000	35.456739
1192.000000	35.427379
1191.000000	35.352721
1190.000000	35.240246
1189.000000	35.107024
1188.000000	34.973675
1187.000000	34.861570
1186.000000	34.795601
1185.000000	34.799647
1184.000000	34.884100
1183.000000	35.044168
1182.000000	35.268812
1181.000000	35.550327
1180.000000	35.880662
1179.000000	36.246289
1178.000000	36.631687
1177.000000	37.018883
1176.000000	37.384790
1175.000000	37.707148
1174.000000	37.979168
1173.000000	38.212861
1172.000000	38.427872
1171.000000	38.643389
1170.000000	38.878311
1169.000000	39.145555
1168.000000	39.439623
1167.000000	39.738410
1166.000000	40.019273
1165.000000	40.268494
1164.000000	40.478693
1163.000000	40.651061
1162.000000	40.803721
1161.000000	40.965919
1160.000000	41.158834
1159.000000	41.387830
1158.000000	41.649354
1157.000000	41.932907
1156.000000	42.215186
1155.000000	42.467018
1154.000000	42.673379
1153.000000	42.839298
1152.000000	42.977576
1151.000000	43.103087
1150.000000	43.237874
1149.000000	43.404849
1148.000000	43.608891
1147.000000	43.833428
1146.000000	44.056835
1145.000000	44.262335
1144.000000	44.434754
1143.000000	44.564744
1142.000000	44.661924
1141.000000	44.751878
1140.000000	44.855696
1139.000000	44.981283
1138.000000	45.130631
1137.000000	45.300294
1136.000000	45.472607
1135.000000	45.621295
1134.000000	45.733028
1133.000000	45.814781
1132.000000	45.881093
1131.000000	45.946980
1130.000000	46.032167
1129.000000	46.154452
1128.000000	46.312885
1127.000000	46.486731
1126.000000	46.653198
1125.000000	46.796477
1124.000000	46.903645
1123.000000	46.969763
1122.000000	47.011614
1121.000000	47.062104
1120.000000	47.147029
1119.000000	47.275033
1118.000000	47.445231
1117.000000	47.647055
1116.000000	47.851538
1115.000000	48.020569
1114.000000	48.133344
1113.000000	48.196196
1112.000000	48.229000
1111.000000	48.257409
1110.000000	48.315637
1109.000000	48.434439
1108.000000	48.618841
1107.000000	48.845177
1106.000000	49.080473
1105.000000	49.292978
1104.000000	49.450082
1103.000000	49.529675
1102.000000	49.542175
1101.000000	49.528242
1100.000000	49.529472
1099.000000	49.575377
1098.000000	49.684883
1097.000000	49.861675
1096.000000	50.080708
1095.000000	50.295674
1094.000000	50.468195
1093.000000	50.582703
1092.000000	50.638839
1091.000000	50.650221
1090.000000	50.651643
1089.000000	50.686019
1088.000000	50.775607
1087.000000	50.914052
1086.000000	51.082945
1085.000000	51.259651
1084.000000	51.411047
1083.000000	51.503382
1082.000000	51.526643
1081.000000	51.498388
1080.000000	51.442689
1079.000000	51.376786
1078.000000	51.315535
1077.000000	51.261758
1076.000000	51.190264
1075.000000	51.055861
1074.000000	50.819053
1073.000000	50.460266
1072.000000	49.967592
1071.000000	49.336799
1070.000000	48.583446
1069.000000	47.730323
1068.000000	46.790450
1067.000000	45.765675
1066.000000	44.668230
1065.000000	43.532113
1064.000000	42.409101
1063.000000	41.367592
1062.000000	40.492466
1061.000000	39.867861
1060.000000	39.543817
1059.000000	39.532021
1058.000000	39.807535
1057.000000	40.318875
1056.000000	40.993646
1055.000000	41.745127
1054.000000	42.500913
1053.000000	43.212594
1052.000000	43.853933
1051.000000	44.421477
1050.000000	44.939581
1049.000000	45.447720
1048.000000	45.971532
1047.000000	46.510595
1046.000000	47.048585
1045.000000	47.563064
1044.000000	48.022088
1043.000000	48.396582
1042.000000	48.684348
1041.000000	48.913698
1040.000000	49.123844
1039.000000	49.351459
1038.000000	49.630386
1037.000000	49.981254
1036.000000	50.392497
1035.000000	50.824544
1034.000000	51.235658
1033.000000	51.597601
1032.000000	51.892886
1031.000000	52.119437
1030.000000	52.302861
1029.000000	52.485777
1028.000000	52.698257
1027.000000	52.946963
1026.000000	53.226302
1025.000000	53.522498
1024.000000	53.805708
1023.000000	54.040829
1022.000000	54.215496
1021.000000	54.345471
1020.000000	54.454646
1019.000000	54.564669
1018.000000	54.699299
1017.000000	54.875964
1016.000000	55.085772
1015.000000	55.297895
1014.000000	55.485461
1013.000000	55.637013
1012.000000	55.747569
1011.000000	55.821297
1010.000000	55.884186
1009.000000	55.974072
1008.000000	56.111125
1007.000000	56.289116
1006.000000	56.490513
1005.000000	56.693001
1004.000000	56.864216
1003.000000	56.973727
1002.000000	57.019127
1001.000000	57.027842
1000.000000	57.034348
999.000000	57.067905
998.000000	57.155675
997.000000	57.312600
996.000000	57.521775
995.000000	57.739041
994.000000	57.922025
993.000000	58.045733
992.000000	58.097937
991.000000	58.083737
990.000000	58.037881
989.000000	58.012322
988.000000	58.043485
987.000000	58.140674
986.000000	58.297336
985.000000	58.493786
984.000000	58.689680
983.000000	58.837939
982.000000	58.915650
981.000000	58.932392
980.000000	58.911284
979.000000	58.879220
978.000000	58.871722
977.000000	58.921396
976.000000	59.032490
975.000000	59.178197
974.000000	59.325599
973.000000	59.449506
972.000000	59.527990
971.000000	59.548208
970.000000	59.523396
969.000000	59.487379
968.000000	59.468343
967.000000	59.478741
966.000000	59.524843
965.000000	59.605194
964.000000	59.698501
963.000000	59.772042
962.000000	59.808326
961.000000	59.812294
960.000000	59.794650
959.000000	59.766512
958.000000	59.748488
957.000000	59.762684
956.000000	59.810014
955.000000	59.868915
954.000000	59.918016
953.000000	59.945194
952.000000	59.939250
951.000000	59.893943
950.000000	59.824121
949.000000	59.759869
948.000000	59.722003
947.000000	59.714393
946.000000	59.736166
945.000000	59.780274
944.000000	59.821223
943.000000	59.824449
942.000000	59.774353
941.000000	59.680522
940.000000	59.558658
939.000000	59.424952
938.000000	59.305940
937.000000	59.230533
936.000000	59.205334
935.000000	59.210976
934.000000	59.222059
933.000000	59.216862
932.000000	59.171474
931.000000	59.067783
930.000000	58.912202
929.000000	58.732482
928.000000	58.554650
927.000000	58.394983
926.000000	58.269067
925.000000	58.185333
924.000000	58.128034
923.000000	58.063275
922.000000	57.964913
921.000000	57.822275
920.000000	57.627622
919.000000	57.378115
918.000000	57.091670
917.000000	56.799948
916.000000	56.523341
915.000000	56.263694
914.000000	56.017356
913.000000	55.777620
912.000000	55.523191
911.000000	55.225807
910.000000	54.871875
909.000000	54.465425
908.000000	54.012965
907.000000	53.520837
906.000000	53.006282
905.000000	52.489820
904.000000	51.973820
903.000000	51.443904
902.000000	50.887414
901.000000	50.298174
900.000000	49.664722
899.000000	48.972660
898.000000	48.222072
897.000000	47.426815
896.000000	46.598107
895.000000	45.739507
894.000000	44.854092
893.000000	43.944171
892.000000	43.000102
891.000000	42.004728
890.000000	40.949183
889.000000	39.834859
888.000000	38.665489
887.000000	37.445611
886.000000	36.186507
885.000000	34.901884
884.000000	33.595787
883.000000	32.263991
882.000000	30.902645
881.000000	29.510704
880.000000	28.086951
879.000000	26.633183
878.000000	25.161093
877.000000	23.690806
876.000000	22.243599
875.000000	20.836170
874.000000	19.481093
873.000000	18.185967
872.000000	16.954385
871.000000	15.788331
870.000000	14.687875
869.000000	13.655967
868.000000	12.698437
867.000000	11.821675
866.000000	11.029713
865.000000	10.321993
864.000000	9.698717
863.000000	9.156844
862.000000	8.685602
861.000000	8.270824
860.000000	7.900521
859.000000	7.567874
858.000000	7.266390
857.000000	6.990682
856.000000	6.741753
855.000000	6.523173
854.000000	6.335651
853.000000	6.176831
852.000000	6.046265
851.000000	5.945928
850.000000	5.874213
849.000000	5.827421
848.000000	5.805770
847.000000	5.813883
846.000000	5.857353
845.000000	5.940631
844.000000	6.070402
843.000000	6.253908
842.000000	6.492575
841.000000	6.783241
840.000000	7.122223
839.000000	7.507603
838.000000	7.936290
837.000000	8.403083
836.000000	8.906258
835.000000	9.446581
834.000000	10.020157
833.000000	10.606026
832.000000	11.156194
831.000000	11.562065
830.000000	11.624663
829.000000	11.084190
828.000000	9.785803
827.000000	7.902463
826.000000	5.977484
825.000000	4.663618
824.000000	4.348843
823.000000	4.997286
822.000000	6.300682
821.000000	7.934988
820.000000	9.669524
819.000000	11.345600
818.000000	12.864386
817.000000	14.197502
816.000000	15.376951
815.000000	16.446666
814.000000	17.442165
813.000000	18.394585
812.000000	19.326969
811.000000	20.236557
810.000000	21.101665
809.000000	21.904501
808.000000	22.636155
807.000000	23.294040
806.000000	23.891384
805.000000	24.465005
804.000000	25.054714
803.000000	25.676983
802.000000	26.329110
801.000000	27.005070
800.000000	27.692231
799.000000	28.362814
798.000000	28.989074
797.000000	29.565509
796.000000	30.106028
795.000000	30.629863
794.000000	31.161057
793.000000	31.726889
792.000000	32.338591
791.000000	32.978131
790.000000	33.613679
789.000000	34.220247
788.000000	34.779430
787.000000	35.278287
786.000000	35.725644
785.000000	36.158302
784.000000	36.616269
783.000000	37.117391
782.000000	37.659292
781.000000	38.228123
780.000000	38.793164
779.000000	39.309745
778.000000	39.746489
777.000000	40.107192
776.000000	40.420831
775.000000	40.723631
774.000000	41.055890
773.000000	41.453691
772.000000	41.923638
771.000000	42.431762
770.000000	42.925432
769.000000	43.359608
768.000000	43.701628
767.000000	43.937298
766.000000	44.090558
765.000000	44.223468
764.000000	44.401315
763.000000	44.660944
762.000000	45.009380
761.000000	45.429178
760.000000	45.871667
759.000000	46.265435
758.000000	46.553853
757.000000	46.724738
756.000000	46.803893
755.000000	46.839194
754.000000	46.895927
753.000000	47.040464
752.000000	47.304498
751.000000	47.667958
750.000000	48.078954
749.000000	48.478567
748.000000	48.807732
747.000000	49.022462
746.000000	49.124018
745.000000	49.163199
744.000000	49.203750
743.000000	49.291171
742.000000	49.452706
741.000000	49.697818
740.000000	50.000675
739.000000	50.301024
738.000000	50.541320
737.000000	50.696835
736.000000	50.769510
735.000000	50.776998
734.000000	50.757902
733.000000	50.762480
732.000000	50.818413
731.000000	50.914684
730.000000	51.023405
729.000000	51.120505
728.000000	51.181513
727.000000	51.186516
726.000000	51.147218
725.000000	51.112027
724.000000	51.129851
723.000000	51.221708
722.000000	51.389511
721.000000	51.625958
720.000000	51.900734
719.000000	52.161379
718.000000	52.369979
717.000000	52.529298
716.000000	52.666962
715.000000	52.816504
714.000000	53.020370
713.000000	53.319986
712.000000	53.719526
711.000000	54.171745
710.000000	54.611013
709.000000	54.984800
708.000000	55.254403
707.000000	55.401649
706.000000	55.456089
705.000000	55.493712
704.000000	55.589865
703.000000	55.782091
702.000000	56.077203
701.000000	56.460964
700.000000	56.883419
699.000000	57.264187
698.000000	57.538036
697.000000	57.687379
696.000000	57.728678
695.000000	57.697925
694.000000	57.659436
693.000000	57.692332
692.000000	57.840442
691.000000	58.091023
690.000000	58.408755
689.000000	58.760105
688.000000	59.093009
687.000000	59.337172
686.000000	59.459446
685.000000	59.493200
684.000000	59.495944
683.000000	59.507255
682.000000	59.560279
681.000000	59.690651
680.000000	59.901868
679.000000	60.149868
678.000000	60.389746
677.000000	60.604839
676.000000	60.783358
675.000000	60.913184
674.000000	61.006976
673.000000	61.102267
672.000000	61.229661
671.000000	61.401651
670.000000	61.629114
669.000000	61.911851
668.000000	62.183646
667.000000	62.321933
666.000000	62.319112
665.000000	62.308208
664.000000	62.377664
663.000000	62.527549
662.000000	62.714947
661.000000	62.901254
660.000000	63.062614
659.000000	63.179902
658.000000	63.248818
657.000000	63.287588
656.000000	63.323466
655.000000	63.386907
654.000000	63.507515
653.000000	63.697921
652.000000	63.941346
651.000000	64.197615
650.000000	64.423135
649.000000	64.585146
648.000000	64.662430
647.000000	64.653234
646.000000	64.590969
645.000000	64.535475
644.000000	64.535598
643.000000	64.608443
642.000000	64.752781
641.000000	64.958404
640.000000	65.193050
639.000000	65.400896
638.000000	65.532646
637.000000	65.574608
636.000000	65.544919
635.000000	65.476874
634.000000	65.412878
633.000000	65.392561
632.000000	65.433378
631.000000	65.529963
630.000000	65.669629
629.000000	65.834392
628.000000	65.991428
627.000000	66.105374
626.000000	66.165582
625.000000	66.184538
624.000000	66.168008
623.000000	66.113842
622.000000	66.042695
621.000000	65.996596
620.000000	65.999297
619.000000	66.045148
618.000000	66.128414
617.000000	66.253189
616.000000	66.403004
615.000000	66.530955
614.000000	66.593824
613.000000	66.575012
612.000000	66.469134
611.000000	66.276197
610.000000	66.016424
609.000000	65.718865
608.000000	65.382423
607.000000	64.956773
606.000000	64.362292
605.000000	63.485560
604.000000	62.140932
603.000000	60.084596
602.000000	57.063200
601.000000	52.906584
600.000000	47.662905
599.000000	41.764191
598.000000	36.033407
597.000000	31.409959
596.000000	28.590492
595.000000	27.812005
594.000000	28.843150
593.000000	31.151315
592.000000	34.174006
591.000000	37.445781
590.000000	40.618612
589.000000	43.507608
588.000000	46.070094
587.000000	48.334462
586.000000	50.337648
585.000000	52.112940
584.000000	53.680142
583.000000	55.053594
582.000000	56.262071
581.000000	57.349674
580.000000	58.336390
579.000000	59.195490
578.000000	59.913949
577.000000	60.530050
576.000000	61.088160
575.000000	61.587253
574.000000	62.003982
573.000000	62.343901
572.000000	62.629136
571.000000	62.872679
570.000000	63.096806
569.000000	63.342234
568.000000	63.628754
567.000000	63.930478
566.000000	64.211273
565.000000	64.463389
564.000000	64.687379
563.000000	64.870974
562.000000	65.014180
561.000000	65.147252
560.000000	65.300597
559.000000	65.481473
558.000000	65.695113
557.000000	65.954930
556.000000	66.252546
555.000000	66.542906
554.000000	66.781792
553.000000	66.955543
552.000000	67.063766
551.000000	67.109304
550.000000	67.124857
549.000000	67.169453
548.000000	67.278818
547.000000	67.449113
546.000000	67.670106
545.000000	67.932205
544.000000	68.189928
543.000000	68.371203
542.000000	68.444088
541.000000	68.438936
540.000000	68.390422
539.000000	68.309834
538.000000	68.228714
537.000000	68.214163
536.000000	68.309403
535.000000	68.495162
534.000000	68.729640
533.000000	68.984504
532.000000	69.222000
531.000000	69.387137
530.000000	69.459023
529.000000	69.473129
528.000000	69.469831
527.000000	69.468454
526.000000	69.503164
525.000000	69.606053
524.000000	69.738831
523.000000	69.795753
522.000000	69.688867
521.000000	69.396024
520.000000	68.926370
519.000000	68.293652
518.000000	67.552848
517.000000	66.812868
516.000000	66.171991
515.000000	65.678811
514.000000	65.360543
513.000000	65.236340
512.000000	65.270053
511.000000	65.350507
510.000000	65.350137
509.000000	65.184173
508.000000	64.789333
507.000000	64.098642
506.000000	63.069728
505.000000	61.699555
504.000000	60.005210
503.000000	58.071482
502.000000	56.144958
501.000000	54.559900
500.000000	53.539314
499.000000	53.126460
498.000000	53.275740
497.000000	53.883150
496.000000	54.750942
495.000000	55.626304
494.000000	56.316703
493.000000	56.772435
492.000000	57.040627
491.000000	57.203034
490.000000	57.376631
489.000000	57.697598
488.000000	58.247602
487.000000	59.018772
486.000000	59.962535
485.000000	61.035341
484.000000	62.170374
483.000000	63.261208
482.000000	64.229563
481.000000	65.073350
480.000000	65.809889
479.000000	66.436573
478.000000	66.976430
477.000000	67.490368
476.000000	67.994946
475.000000	68.424059
474.000000	68.735093
473.000000	68.996965
472.000000	69.260060
471.000000	69.431473
470.000000	69.433331
469.000000	69.331734
468.000000	69.243069
467.000000	69.216983
466.000000	69.244162
465.000000	69.324258
464.000000	69.450789
463.000000	69.586664
462.000000	69.710058
461.000000	69.828699
460.000000	69.906662
459.000000	69.866543
458.000000	69.748692
457.000000	69.698787
456.000000	69.756191
455.000000	69.846679
454.000000	69.923351
453.000000	70.016119
452.000000	70.124880
451.000000	70.124495
450.000000	69.884827
449.000000	69.403882
448.000000	68.764126
447.000000	68.010882
446.000000	67.134393
445.000000	66.103286
444.000000	64.846701
443.000000	63.259961
442.000000	61.272498
441.000000	58.909147
440.000000	56.266389
439.000000	53.491233
438.000000	50.810591
437.000000	48.573334
436.000000	47.144868
435.000000	46.700487
434.000000	47.142094
433.000000	48.248280
432.000000	49.845184
431.000000	51.756932
430.000000	53.783403
429.000000	55.804400
428.000000	57.785496
427.000000	59.680520
426.000000	61.442204
425.000000	63.100263
424.000000	64.672032
423.000000	66.045252
422.000000	67.083669
421.000000	67.784891
420.000000	68.247160
419.000000	68.769044
418.000000	69.539397
417.000000	70.425773
416.000000	71.319967
415.000000	72.091310
414.000000	72.601371
413.000000	72.893029
412.000000	73.071931
411.000000	73.123629
410.000000	73.063486
409.000000	73.087620
408.000000	73.325940
407.000000	73.684831
406.000000	73.959671
405.000000	74.242051
404.000000	74.550144
403.000000	74.645816
402.000000	74.342423
401.000000	73.807488
400.000000	73.285308
