PE IR       SUBTECH     SPECTRUM    ASCII       PEDS        4.00        
   -1
23ms234_nitro.asc
24/09/09
16:39:23.00
24/09/09
16:39:23.00
Administrator
Sample 1144 By Administrator Date Monday, September 09 2024
400.000000
#HDR
-1
-1
#GR
cm-1
%T
1.0
0.0
4000.000000
-1.000000
3601
8
89.876889
0.736090
#DATA
4000.000000	54.671368
3999.000000	54.723054
3998.000000	54.776640
3997.000000	54.831642
3996.000000	54.886570
3995.000000	54.939298
3994.000000	54.988394
3993.000000	55.034396
3992.000000	55.079519
3991.000000	55.126019
3990.000000	55.174802
3989.000000	55.225438
3988.000000	55.277016
3987.000000	55.328690
3986.000000	55.379722
3985.000000	55.429293
3984.000000	55.476603
3983.000000	55.521283
3982.000000	55.563650
3981.000000	55.604662
3980.000000	55.645787
3979.000000	55.688616
3978.000000	55.734052
3977.000000	55.781826
3976.000000	55.830531
3975.000000	55.878312
3974.000000	55.923768
3973.000000	55.966750
3972.000000	56.008681
3971.000000	56.051503
3970.000000	56.096360
3969.000000	56.142724
3968.000000	56.188760
3967.000000	56.232692
3966.000000	56.273824
3965.000000	56.312876
3964.000000	56.351498
3963.000000	56.391142
3962.000000	56.432097
3961.000000	56.473865
3960.000000	56.516746
3959.000000	56.561619
3958.000000	56.608801
3957.000000	56.657015
3956.000000	56.703728
3955.000000	56.746792
3954.000000	56.785560
3953.000000	56.821532
3952.000000	56.857404
3951.000000	56.895961
3950.000000	56.939105
3949.000000	56.985621
3948.000000	57.030759
3947.000000	57.070220
3946.000000	57.105506
3945.000000	57.143931
3944.000000	57.191496
3943.000000	57.246694
3942.000000	57.301633
3941.000000	57.350153
3940.000000	57.394064
3939.000000	57.438538
3938.000000	57.484850
3937.000000	57.529439
3936.000000	57.568800
3935.000000	57.604221
3934.000000	57.640465
3933.000000	57.681939
3932.000000	57.729005
3931.000000	57.777958
3930.000000	57.824533
3929.000000	57.866429
3928.000000	57.905569
3927.000000	57.947973
3926.000000	57.997227
3925.000000	58.048710
3924.000000	58.093185
3923.000000	58.126842
3922.000000	58.154663
3921.000000	58.183166
3920.000000	58.216453
3919.000000	58.257583
3918.000000	58.307828
3917.000000	58.363416
3916.000000	58.416752
3915.000000	58.464095
3914.000000	58.508894
3913.000000	58.555411
3912.000000	58.605938
3911.000000	58.658614
3910.000000	58.709080
3909.000000	58.752721
3908.000000	58.787565
3907.000000	58.816652
3906.000000	58.844324
3905.000000	58.870726
3904.000000	58.890541
3903.000000	58.900688
3902.000000	58.910503
3901.000000	58.936277
3900.000000	58.984014
3899.000000	59.045710
3898.000000	59.108348
3897.000000	59.164138
3896.000000	59.212552
3895.000000	59.255293
3894.000000	59.297834
3893.000000	59.348255
3892.000000	59.409164
3891.000000	59.467605
3890.000000	59.506316
3889.000000	59.526349
3888.000000	59.543751
3887.000000	59.572775
3886.000000	59.616669
3885.000000	59.661629
3884.000000	59.692566
3883.000000	59.714613
3882.000000	59.745379
3881.000000	59.796765
3880.000000	59.861309
3879.000000	59.917223
3878.000000	59.954479
3877.000000	59.982469
3876.000000	60.015404
3875.000000	60.058951
3874.000000	60.102769
3873.000000	60.134459
3872.000000	60.158284
3871.000000	60.189498
3870.000000	60.233691
3869.000000	60.276259
3868.000000	60.307639
3867.000000	60.336618
3866.000000	60.369479
3865.000000	60.407224
3864.000000	60.454111
3863.000000	60.508287
3862.000000	60.562778
3861.000000	60.611609
3860.000000	60.657912
3859.000000	60.709644
3858.000000	60.768220
3857.000000	60.824364
3856.000000	60.863585
3855.000000	60.882514
3854.000000	60.899160
3853.000000	60.918308
3852.000000	60.928768
3851.000000	60.944941
3850.000000	60.986141
3849.000000	61.046913
3848.000000	61.117349
3847.000000	61.191221
3846.000000	61.261347
3845.000000	61.321700
3844.000000	61.370758
3843.000000	61.407345
3842.000000	61.434368
3841.000000	61.457751
3840.000000	61.482573
3839.000000	61.510977
3838.000000	61.542951
3837.000000	61.578193
3836.000000	61.615303
3835.000000	61.652788
3834.000000	61.692358
3833.000000	61.738562
3832.000000	61.794541
3831.000000	61.856930
3830.000000	61.918366
3829.000000	61.977000
3828.000000	62.038371
3827.000000	62.101823
3826.000000	62.156138
3825.000000	62.190911
3824.000000	62.207575
3823.000000	62.218060
3822.000000	62.240611
3821.000000	62.280086
3820.000000	62.316727
3819.000000	62.341802
3818.000000	62.366812
3817.000000	62.403111
3816.000000	62.455315
3815.000000	62.516655
3814.000000	62.579387
3813.000000	62.643376
3812.000000	62.706481
3811.000000	62.763964
3810.000000	62.814849
3809.000000	62.862926
3808.000000	62.910966
3807.000000	62.953132
3806.000000	62.979787
3805.000000	62.990893
3804.000000	62.998644
3803.000000	63.011792
3802.000000	63.037839
3801.000000	63.076472
3800.000000	63.116857
3799.000000	63.159799
3798.000000	63.211345
3797.000000	63.271487
3796.000000	63.335686
3795.000000	63.399139
3794.000000	63.459343
3793.000000	63.516053
3792.000000	63.569943
3791.000000	63.623211
3790.000000	63.676633
3789.000000	63.727956
3788.000000	63.774472
3787.000000	63.817170
3786.000000	63.860201
3785.000000	63.904067
3784.000000	63.944069
3783.000000	63.977009
3782.000000	64.007169
3781.000000	64.042682
3780.000000	64.088789
3779.000000	64.140282
3778.000000	64.187625
3777.000000	64.229292
3776.000000	64.270629
3775.000000	64.312741
3774.000000	64.351957
3773.000000	64.387957
3772.000000	64.424882
3771.000000	64.464488
3770.000000	64.503989
3769.000000	64.540096
3768.000000	64.574708
3767.000000	64.614648
3766.000000	64.662754
3765.000000	64.713845
3764.000000	64.759747
3763.000000	64.797054
3762.000000	64.829461
3761.000000	64.860883
3760.000000	64.897190
3759.000000	64.941280
3758.000000	64.987773
3757.000000	65.029829
3756.000000	65.066017
3755.000000	65.098510
3754.000000	65.125062
3753.000000	65.140202
3752.000000	65.148278
3751.000000	65.162527
3750.000000	65.185064
3749.000000	65.205640
3748.000000	65.224025
3747.000000	65.250331
3746.000000	65.287883
3745.000000	65.342257
3744.000000	65.410043
3743.000000	65.471631
3742.000000	65.531698
3741.000000	65.598397
3740.000000	65.658965
3739.000000	65.704635
3738.000000	65.740715
3737.000000	65.779744
3736.000000	65.827349
3735.000000	65.880601
3734.000000	65.933321
3733.000000	65.981970
3732.000000	66.029166
3731.000000	66.080496
3730.000000	66.139388
3729.000000	66.203863
3728.000000	66.268248
3727.000000	66.330738
3726.000000	66.391601
3725.000000	66.449373
3724.000000	66.502655
3723.000000	66.552834
3722.000000	66.604781
3721.000000	66.658966
3720.000000	66.714142
3719.000000	66.770910
3718.000000	66.827494
3717.000000	66.879708
3716.000000	66.925006
3715.000000	66.962990
3714.000000	66.990986
3713.000000	67.007966
3712.000000	67.024098
3711.000000	67.051198
3710.000000	67.091412
3709.000000	67.141789
3708.000000	67.200247
3707.000000	67.265098
3706.000000	67.332049
3705.000000	67.396084
3704.000000	67.455568
3703.000000	67.513754
3702.000000	67.573554
3701.000000	67.629876
3700.000000	67.676000
3699.000000	67.715718
3698.000000	67.756559
3697.000000	67.799184
3696.000000	67.840625
3695.000000	67.879690
3694.000000	67.916158
3693.000000	67.948519
3692.000000	67.978546
3691.000000	68.010807
3690.000000	68.045798
3689.000000	68.077507
3688.000000	68.101252
3687.000000	68.125294
3686.000000	68.164438
3685.000000	68.221176
3684.000000	68.284571
3683.000000	68.345730
3682.000000	68.403903
3681.000000	68.461086
3680.000000	68.509237
3679.000000	68.535940
3678.000000	68.535882
3677.000000	68.516098
3676.000000	68.500500
3675.000000	68.502567
3674.000000	68.513190
3673.000000	68.530373
3672.000000	68.554871
3671.000000	68.587394
3670.000000	68.639980
3669.000000	68.710457
3668.000000	68.780539
3667.000000	68.843172
3666.000000	68.902718
3665.000000	68.963011
3664.000000	69.025683
3663.000000	69.091368
3662.000000	69.158248
3661.000000	69.220337
3660.000000	69.266506
3659.000000	69.289669
3658.000000	69.292393
3657.000000	69.285444
3656.000000	69.276854
3655.000000	69.268942
3654.000000	69.267893
3653.000000	69.276472
3652.000000	69.282150
3651.000000	69.271139
3650.000000	69.246072
3649.000000	69.219319
3648.000000	69.203317
3647.000000	69.208214
3646.000000	69.239499
3645.000000	69.292496
3644.000000	69.358400
3643.000000	69.429576
3642.000000	69.499828
3641.000000	69.562029
3640.000000	69.608621
3639.000000	69.637021
3638.000000	69.648291
3637.000000	69.646251
3636.000000	69.637556
3635.000000	69.630256
3634.000000	69.628665
3633.000000	69.628771
3632.000000	69.622101
3631.000000	69.599550
3630.000000	69.565210
3629.000000	69.537236
3628.000000	69.520086
3627.000000	69.512000
3626.000000	69.522235
3625.000000	69.551284
3624.000000	69.588096
3623.000000	69.624324
3622.000000	69.653984
3621.000000	69.668957
3620.000000	69.664889
3619.000000	69.646021
3618.000000	69.617294
3617.000000	69.585081
3616.000000	69.558714
3615.000000	69.545620
3614.000000	69.547404
3613.000000	69.557609
3612.000000	69.565871
3611.000000	69.566721
3610.000000	69.562208
3609.000000	69.558630
3608.000000	69.562273
3607.000000	69.573906
3606.000000	69.589317
3605.000000	69.604455
3604.000000	69.617612
3603.000000	69.631858
3602.000000	69.649845
3601.000000	69.667808
3600.000000	69.678324
3599.000000	69.677757
3598.000000	69.665133
3597.000000	69.642997
3596.000000	69.619204
3595.000000	69.603491
3594.000000	69.599264
3593.000000	69.600325
3592.000000	69.598636
3591.000000	69.590029
3590.000000	69.574736
3589.000000	69.558393
3588.000000	69.550808
3587.000000	69.553811
3586.000000	69.559144
3585.000000	69.562649
3584.000000	69.568975
3583.000000	69.584149
3582.000000	69.608120
3581.000000	69.633933
3580.000000	69.653035
3579.000000	69.661467
3578.000000	69.659783
3577.000000	69.649625
3576.000000	69.635063
3575.000000	69.621708
3574.000000	69.613856
3573.000000	69.611436
3572.000000	69.610561
3571.000000	69.605615
3570.000000	69.590719
3569.000000	69.564220
3568.000000	69.533866
3567.000000	69.511555
3566.000000	69.500598
3565.000000	69.498904
3564.000000	69.507267
3563.000000	69.527896
3562.000000	69.558960
3561.000000	69.592882
3560.000000	69.620476
3559.000000	69.636492
3558.000000	69.641009
3557.000000	69.635972
3556.000000	69.624711
3555.000000	69.612926
3554.000000	69.606362
3553.000000	69.606690
3552.000000	69.610475
3551.000000	69.613051
3550.000000	69.612423
3549.000000	69.609526
3548.000000	69.607533
3547.000000	69.609838
3546.000000	69.615333
3545.000000	69.617629
3544.000000	69.613145
3543.000000	69.605889
3542.000000	69.602163
3541.000000	69.603609
3540.000000	69.608672
3539.000000	69.616959
3538.000000	69.627240
3537.000000	69.634330
3536.000000	69.631561
3535.000000	69.618176
3534.000000	69.599984
3533.000000	69.583742
3532.000000	69.572670
3531.000000	69.566313
3530.000000	69.561610
3529.000000	69.554346
3528.000000	69.542749
3527.000000	69.529975
3526.000000	69.521173
3525.000000	69.517798
3524.000000	69.516890
3523.000000	69.514737
3522.000000	69.510035
3521.000000	69.504221
3520.000000	69.499860
3519.000000	69.498012
3518.000000	69.495999
3517.000000	69.489691
3516.000000	69.477697
3515.000000	69.461430
3514.000000	69.440963
3513.000000	69.414497
3512.000000	69.382899
3511.000000	69.351595
3510.000000	69.325146
3509.000000	69.302393
3508.000000	69.279387
3507.000000	69.255450
3506.000000	69.233284
3505.000000	69.214728
3504.000000	69.198637
3503.000000	69.181191
3502.000000	69.157677
3501.000000	69.125881
3500.000000	69.088864
3499.000000	69.051861
3498.000000	69.015890
3497.000000	68.976771
3496.000000	68.931380
3495.000000	68.881986
3494.000000	68.832706
3493.000000	68.784851
3492.000000	68.737967
3491.000000	68.692531
3490.000000	68.648888
3489.000000	68.605093
3488.000000	68.558013
3487.000000	68.505410
3486.000000	68.445908
3485.000000	68.379570
3484.000000	68.309998
3483.000000	68.243643
3482.000000	68.183897
3481.000000	68.127054
3480.000000	68.065925
3479.000000	67.996339
3478.000000	67.919143
3477.000000	67.837906
3476.000000	67.756761
3475.000000	67.678567
3474.000000	67.603521
3473.000000	67.530568
3472.000000	67.459940
3471.000000	67.391777
3470.000000	67.322048
3469.000000	67.243034
3468.000000	67.149474
3467.000000	67.042433
3466.000000	66.927056
3465.000000	66.809410
3464.000000	66.695716
3463.000000	66.590545
3462.000000	66.492869
3461.000000	66.395882
3460.000000	66.292729
3459.000000	66.181309
3458.000000	66.063357
3457.000000	65.941555
3456.000000	65.818184
3455.000000	65.694699
3454.000000	65.570736
3453.000000	65.444586
3452.000000	65.315271
3451.000000	65.183178
3450.000000	65.048583
3449.000000	64.911086
3448.000000	64.771114
3447.000000	64.630198
3446.000000	64.489255
3445.000000	64.348032
3444.000000	64.206140
3443.000000	64.063115
3442.000000	63.917764
3441.000000	63.769114
3440.000000	63.618076
3439.000000	63.466309
3438.000000	63.313108
3437.000000	63.155034
3436.000000	62.988625
3435.000000	62.812819
3434.000000	62.628919
3433.000000	62.439901
3432.000000	62.248844
3431.000000	62.056141
3430.000000	61.858276
3429.000000	61.650966
3428.000000	61.434261
3427.000000	61.212481
3426.000000	60.989603
3425.000000	60.766556
3424.000000	60.542483
3423.000000	60.316053
3422.000000	60.084449
3421.000000	59.844018
3420.000000	59.593497
3419.000000	59.335398
3418.000000	59.073938
3417.000000	58.812576
3416.000000	58.553214
3415.000000	58.294960
3414.000000	58.032759
3413.000000	57.759795
3412.000000	57.472192
3411.000000	57.170570
3410.000000	56.857054
3409.000000	56.532739
3408.000000	56.199280
3407.000000	55.860410
3406.000000	55.520576
3405.000000	55.182987
3404.000000	54.848313
3403.000000	54.513315
3402.000000	54.169561
3401.000000	53.806289
3400.000000	53.417175
3399.000000	53.004370
3398.000000	52.576589
3397.000000	52.143934
3396.000000	51.713468
3395.000000	51.286955
3394.000000	50.860193
3393.000000	50.425106
3392.000000	49.973670
3391.000000	49.501045
3390.000000	49.007755
3389.000000	48.499465
3388.000000	47.983867
3387.000000	47.465806
3386.000000	46.945015
3385.000000	46.419349
3384.000000	45.887655
3383.000000	45.348867
3382.000000	44.800077
3381.000000	44.237858
3380.000000	43.661270
3379.000000	43.071667
3378.000000	42.470896
3377.000000	41.861147
3376.000000	41.245025
3375.000000	40.624399
3374.000000	39.999489
3373.000000	39.369815
3372.000000	38.734728
3371.000000	38.091491
3370.000000	37.435821
3369.000000	36.765530
3368.000000	36.082518
3367.000000	35.390577
3366.000000	34.692871
3365.000000	33.992627
3364.000000	33.292881
3363.000000	32.593658
3362.000000	31.891594
3361.000000	31.183691
3360.000000	30.470088
3359.000000	29.752457
3358.000000	29.032195
3357.000000	28.311607
3356.000000	27.593985
3355.000000	26.881061
3354.000000	26.172225
3353.000000	25.466808
3352.000000	24.764788
3351.000000	24.064830
3350.000000	23.364726
3349.000000	22.664977
3348.000000	21.969432
3347.000000	21.281536
3346.000000	20.602662
3345.000000	19.934044
3344.000000	19.276920
3343.000000	18.630277
3342.000000	17.991441
3341.000000	17.360150
3340.000000	16.738981
3339.000000	16.129391
3338.000000	15.530961
3337.000000	14.944344
3336.000000	14.371913
3335.000000	13.814607
3334.000000	13.271220
3333.000000	12.741747
3332.000000	12.227271
3331.000000	11.726934
3330.000000	11.238365
3329.000000	10.761287
3328.000000	10.298435
3327.000000	9.851754
3326.000000	9.421478
3325.000000	9.008539
3324.000000	8.613822
3323.000000	8.235793
3322.000000	7.871460
3321.000000	7.520082
3320.000000	7.183179
3319.000000	6.860450
3318.000000	6.550500
3317.000000	6.254005
3316.000000	5.973025
3315.000000	5.707467
3314.000000	5.454953
3313.000000	5.214433
3312.000000	4.986079
3311.000000	4.768387
3310.000000	4.559713
3309.000000	4.361391
3308.000000	4.176845
3307.000000	4.007636
3306.000000	3.853357
3305.000000	3.714586
3304.000000	3.590985
3303.000000	3.478512
3302.000000	3.371964
3301.000000	3.269708
3300.000000	3.173138
3299.000000	3.082353
3298.000000	2.996586
3297.000000	2.917366
3296.000000	2.846734
3295.000000	2.783771
3294.000000	2.726361
3293.000000	2.675479
3292.000000	2.633597
3291.000000	2.599404
3290.000000	2.568945
3289.000000	2.540602
3288.000000	2.515339
3287.000000	2.492973
3286.000000	2.472086
3285.000000	2.453358
3284.000000	2.438643
3283.000000	2.427467
3282.000000	2.417855
3281.000000	2.409663
3280.000000	2.403757
3279.000000	2.398850
3278.000000	2.392982
3277.000000	2.387126
3276.000000	2.383525
3275.000000	2.381519
3274.000000	2.378839
3273.000000	2.376302
3272.000000	2.377309
3271.000000	2.383161
3270.000000	2.392314
3269.000000	2.403427
3268.000000	2.415750
3267.000000	2.427456
3266.000000	2.436993
3265.000000	2.445540
3264.000000	2.455188
3263.000000	2.465570
3262.000000	2.475222
3261.000000	2.484707
3260.000000	2.495231
3259.000000	2.505716
3258.000000	2.514702
3257.000000	2.523818
3256.000000	2.535766
3255.000000	2.550155
3254.000000	2.564599
3253.000000	2.578627
3252.000000	2.592951
3251.000000	2.606374
3250.000000	2.617228
3249.000000	2.626963
3248.000000	2.638765
3247.000000	2.653388
3246.000000	2.669385
3245.000000	2.686249
3244.000000	2.704161
3243.000000	2.721793
3242.000000	2.737692
3241.000000	2.752766
3240.000000	2.768445
3239.000000	2.783520
3238.000000	2.795825
3237.000000	2.805806
3236.000000	2.815662
3235.000000	2.826379
3234.000000	2.838349
3233.000000	2.853133
3232.000000	2.871333
3231.000000	2.890183
3230.000000	2.906438
3229.000000	2.920254
3228.000000	2.933452
3227.000000	2.945850
3226.000000	2.956402
3225.000000	2.966169
3224.000000	2.976690
3223.000000	2.986979
3222.000000	2.995362
3221.000000	3.002782
3220.000000	3.011076
3219.000000	3.019491
3218.000000	3.026169
3217.000000	3.031602
3216.000000	3.037384
3215.000000	3.043012
3214.000000	3.046994
3213.000000	3.049797
3212.000000	3.052598
3211.000000	3.054529
3210.000000	3.054173
3209.000000	3.052292
3208.000000	3.050343
3207.000000	3.047807
3206.000000	3.043731
3205.000000	3.039260
3204.000000	3.035683
3203.000000	3.031720
3202.000000	3.025582
3201.000000	3.017977
3200.000000	3.010324
3199.000000	3.001798
3198.000000	2.991086
3197.000000	2.979247
3196.000000	2.967875
3195.000000	2.956262
3194.000000	2.943186
3193.000000	2.929628
3192.000000	2.916860
3191.000000	2.903734
3190.000000	2.888849
3189.000000	2.873471
3188.000000	2.859412
3187.000000	2.845890
3186.000000	2.831354
3185.000000	2.816481
3184.000000	2.802470
3183.000000	2.788383
3182.000000	2.773138
3181.000000	2.758141
3180.000000	2.745000
3179.000000	2.732580
3178.000000	2.719192
3177.000000	2.705740
3176.000000	2.693794
3175.000000	2.682593
3174.000000	2.670900
3173.000000	2.659781
3172.000000	2.650617
3171.000000	2.642375
3170.000000	2.633663
3169.000000	2.625481
3168.000000	2.619162
3167.000000	2.613650
3166.000000	2.607705
3165.000000	2.602618
3164.000000	2.599902
3163.000000	2.598450
3162.000000	2.596767
3161.000000	2.595916
3160.000000	2.597346
3159.000000	2.599931
3158.000000	2.601963
3157.000000	2.603891
3156.000000	2.606545
3155.000000	2.609060
3154.000000	2.611455
3153.000000	2.616832
3152.000000	2.627751
3151.000000	2.642579
3150.000000	2.658165
3149.000000	2.673951
3148.000000	2.690706
3147.000000	2.707651
3146.000000	2.723961
3145.000000	2.740893
3144.000000	2.759396
3143.000000	2.777857
3142.000000	2.795071
3141.000000	2.813375
3140.000000	2.835834
3139.000000	2.862246
3138.000000	2.890720
3137.000000	2.920897
3136.000000	2.952849
3135.000000	2.985016
3134.000000	3.016126
3133.000000	3.047519
3132.000000	3.080914
3131.000000	3.115883
3130.000000	3.151819
3129.000000	3.189989
3128.000000	3.231213
3127.000000	3.273727
3126.000000	3.315789
3125.000000	3.358115
3124.000000	3.401442
3123.000000	3.444492
3122.000000	3.486872
3121.000000	3.531304
3120.000000	3.580251
3119.000000	3.632710
3118.000000	3.687111
3117.000000	3.744631
3116.000000	3.806731
3115.000000	3.871880
3114.000000	3.937486
3113.000000	4.003039
3112.000000	4.068825
3111.000000	4.134143
3110.000000	4.199476
3109.000000	4.267856
3108.000000	4.341292
3107.000000	4.417987
3106.000000	4.495419
3105.000000	4.573773
3104.000000	4.653847
3103.000000	4.734494
3102.000000	4.814946
3101.000000	4.897109
3100.000000	4.982865
3099.000000	5.071205
3098.000000	5.160694
3097.000000	5.252316
3096.000000	5.347110
3095.000000	5.443494
3094.000000	5.539543
3093.000000	5.635880
3092.000000	5.733942
3091.000000	5.833525
3090.000000	5.934363
3089.000000	6.037661
3088.000000	6.143804
3087.000000	6.250993
3086.000000	6.358325
3085.000000	6.467788
3084.000000	6.580799
3083.000000	6.695423
3082.000000	6.809604
3081.000000	6.924565
3080.000000	7.042622
3079.000000	7.163930
3078.000000	7.287767
3077.000000	7.414600
3076.000000	7.544279
3075.000000	7.674614
3074.000000	7.804093
3073.000000	7.933706
3072.000000	8.064093
3071.000000	8.193446
3070.000000	8.320827
3069.000000	8.448969
3068.000000	8.581133
3067.000000	8.717397
3066.000000	8.856252
3065.000000	8.997424
3064.000000	9.140554
3063.000000	9.283413
3062.000000	9.424195
3061.000000	9.563751
3060.000000	9.703579
3059.000000	9.843717
3058.000000	9.984510
3057.000000	10.127967
3056.000000	10.274895
3055.000000	10.422862
3054.000000	10.569441
3053.000000	10.715444
3052.000000	10.862886
3051.000000	11.011764
3050.000000	11.160977
3049.000000	11.310416
3048.000000	11.460030
3047.000000	11.608856
3046.000000	11.756983
3045.000000	11.906591
3044.000000	12.059228
3043.000000	12.213864
3042.000000	12.369174
3041.000000	12.525376
3040.000000	12.682101
3039.000000	12.837095
3038.000000	12.989265
3037.000000	13.140934
3036.000000	13.294952
3035.000000	13.451531
3034.000000	13.609687
3033.000000	13.769527
3032.000000	13.930879
3031.000000	14.091716
3030.000000	14.250263
3029.000000	14.407146
3028.000000	14.563776
3027.000000	14.720468
3026.000000	14.877717
3025.000000	15.037075
3024.000000	15.198727
3023.000000	15.360129
3022.000000	15.519016
3021.000000	15.675988
3020.000000	15.832530
3019.000000	15.988531
3018.000000	16.143662
3017.000000	16.299187
3016.000000	16.456414
3015.000000	16.615048
3014.000000	16.774798
3013.000000	16.936790
3012.000000	17.101460
3011.000000	17.266728
3010.000000	17.430035
3009.000000	17.590880
3008.000000	17.750008
3007.000000	17.907908
3006.000000	18.065548
3005.000000	18.224737
3004.000000	18.386033
3003.000000	18.547624
3002.000000	18.707624
3001.000000	18.866057
3000.000000	19.023652
2999.000000	19.180494
2998.000000	19.336981
2997.000000	19.494252
2996.000000	19.652437
2995.000000	19.810367
2994.000000	19.968101
2993.000000	20.127608
2992.000000	20.289592
2991.000000	20.451735
2990.000000	20.611640
2989.000000	20.769557
2988.000000	20.926708
2987.000000	21.082940
2986.000000	21.237780
2985.000000	21.392092
2984.000000	21.546904
2983.000000	21.702040
2982.000000	21.857367
2981.000000	22.013727
2980.000000	22.171123
2979.000000	22.327593
2978.000000	22.481550
2977.000000	22.633921
2976.000000	22.786550
2975.000000	22.939971
2974.000000	23.094131
2973.000000	23.249643
2972.000000	23.406664
2971.000000	23.563768
2970.000000	23.719485
2969.000000	23.873901
2968.000000	24.027482
2967.000000	24.179774
2966.000000	24.330591
2965.000000	24.481254
2964.000000	24.633261
2963.000000	24.786726
2962.000000	24.941186
2961.000000	25.096425
2960.000000	25.251424
2959.000000	25.404067
2958.000000	25.553171
2957.000000	25.699654
2956.000000	25.844843
2955.000000	25.989314
2954.000000	26.134181
2953.000000	26.281330
2952.000000	26.430846
2951.000000	26.579939
2950.000000	26.725952
2949.000000	26.869009
2948.000000	27.010541
2947.000000	27.151037
2946.000000	27.290790
2945.000000	27.431244
2944.000000	27.573772
2943.000000	27.718066
2942.000000	27.863084
2941.000000	28.008505
2940.000000	28.153951
2939.000000	28.298018
2938.000000	28.439478
2937.000000	28.578498
2936.000000	28.715629
2935.000000	28.850814
2934.000000	28.984704
2933.000000	29.119631
2932.000000	29.257639
2931.000000	29.398279
2930.000000	29.539374
2929.000000	29.679047
2928.000000	29.815963
2927.000000	29.949038
2926.000000	30.078392
2925.000000	30.205825
2924.000000	30.333244
2923.000000	30.461407
2922.000000	30.590966
2921.000000	30.723118
2920.000000	30.857885
2919.000000	30.992838
2918.000000	31.124938
2917.000000	31.253024
2916.000000	31.377679
2915.000000	31.499748
2914.000000	31.620133
2913.000000	31.740268
2912.000000	31.861552
2911.000000	31.984553
2910.000000	32.109125
2909.000000	32.234583
2908.000000	32.359301
2907.000000	32.481127
2906.000000	32.599062
2905.000000	32.714151
2904.000000	32.828377
2903.000000	32.943497
2902.000000	33.060948
2901.000000	33.181856
2900.000000	33.305972
2899.000000	33.431077
2898.000000	33.554569
2897.000000	33.674396
2896.000000	33.789127
2895.000000	33.898418
2894.000000	34.004310
2893.000000	34.110778
2892.000000	34.220919
2891.000000	34.335099
2890.000000	34.451957
2889.000000	34.569874
2888.000000	34.686758
2887.000000	34.799925
2886.000000	34.907854
2885.000000	35.011683
2884.000000	35.114262
2883.000000	35.218306
2882.000000	35.325815
2881.000000	35.437963
2880.000000	35.554158
2879.000000	35.671878
2878.000000	35.788727
2877.000000	35.904314
2876.000000	36.019157
2875.000000	36.132267
2874.000000	36.241243
2873.000000	36.345092
2872.000000	36.446251
2871.000000	36.549473
2870.000000	36.658724
2869.000000	36.774551
2868.000000	36.893609
2867.000000	37.010821
2866.000000	37.122682
2865.000000	37.229197
2864.000000	37.333411
2863.000000	37.439419
2862.000000	37.550249
2861.000000	37.666182
2860.000000	37.784504
2859.000000	37.901449
2858.000000	38.014742
2857.000000	38.124054
2856.000000	38.229520
2855.000000	38.331230
2854.000000	38.430632
2853.000000	38.531201
2852.000000	38.636655
2851.000000	38.748646
2850.000000	38.866014
2849.000000	38.985192
2848.000000	39.101143
2847.000000	39.209516
2846.000000	39.309229
2845.000000	39.402998
2844.000000	39.495427
2843.000000	39.591148
2842.000000	39.694067
2841.000000	39.805852
2840.000000	39.923637
2839.000000	40.040562
2838.000000	40.150487
2837.000000	40.252072
2836.000000	40.347670
2835.000000	40.439671
2834.000000	40.529580
2833.000000	40.619875
2832.000000	40.714333
2831.000000	40.815694
2830.000000	40.923913
2829.000000	41.036761
2828.000000	41.151084
2827.000000	41.263377
2826.000000	41.370631
2825.000000	41.471843
2824.000000	41.568655
2823.000000	41.664363
2822.000000	41.762477
2821.000000	41.865646
2820.000000	41.974584
2819.000000	42.087318
2818.000000	42.199920
2817.000000	42.308550
2816.000000	42.410962
2815.000000	42.506760
2814.000000	42.597426
2813.000000	42.686320
2812.000000	42.777471
2811.000000	42.873219
2810.000000	42.972934
2809.000000	43.074030
2808.000000	43.173620
2807.000000	43.269093
2806.000000	43.358306
2805.000000	43.440457
2804.000000	43.517010
2803.000000	43.591409
2802.000000	43.667692
2801.000000	43.748912
2800.000000	43.835689
2799.000000	43.925562
2798.000000	44.014139
2797.000000	44.097701
2796.000000	44.175078
2795.000000	44.247384
2794.000000	44.316826
2793.000000	44.386251
2792.000000	44.458918
2791.000000	44.537322
2790.000000	44.621753
2789.000000	44.710138
2788.000000	44.799218
2787.000000	44.885847
2786.000000	44.967852
2785.000000	45.044587
2784.000000	45.117015
2783.000000	45.187174
2782.000000	45.257431
2781.000000	45.329903
2780.000000	45.405663
2779.000000	45.483856
2778.000000	45.561738
2777.000000	45.635816
2776.000000	45.703115
2775.000000	45.761670
2774.000000	45.810946
2773.000000	45.852564
2772.000000	45.889825
2771.000000	45.925670
2770.000000	45.960801
2769.000000	45.993721
2768.000000	46.022032
2767.000000	46.043155
2766.000000	46.054927
2765.000000	46.056749
2764.000000	46.050258
2763.000000	46.038634
2762.000000	46.025182
2761.000000	46.012695
2760.000000	46.003221
2759.000000	45.997226
2758.000000	45.993138
2757.000000	45.988238
2756.000000	45.980156
2755.000000	45.967578
2754.000000	45.950160
2753.000000	45.928554
2752.000000	45.904106
2751.000000	45.877865
2750.000000	45.849610
2749.000000	45.817647
2748.000000	45.779400
2747.000000	45.732082
2746.000000	45.673809
2745.000000	45.604898
2744.000000	45.527704
2743.000000	45.445303
2742.000000	45.360837
2741.000000	45.278035
2740.000000	45.201365
2739.000000	45.134849
2738.000000	45.081091
2737.000000	45.042278
2736.000000	45.021298
2735.000000	45.021185
2734.000000	45.044400
2733.000000	45.092334
2732.000000	45.165450
2731.000000	45.263315
2730.000000	45.384025
2729.000000	45.524723
2728.000000	45.681657
2727.000000	45.849828
2726.000000	46.023851
2725.000000	46.199321
2724.000000	46.373782
2723.000000	46.545855
2722.000000	46.713832
2721.000000	46.876018
2720.000000	47.031657
2719.000000	47.180518
2718.000000	47.321934
2717.000000	47.455037
2716.000000	47.579542
2715.000000	47.695783
2714.000000	47.803728
2713.000000	47.902867
2712.000000	47.992936
2711.000000	48.073529
2710.000000	48.143821
2709.000000	48.203193
2708.000000	48.252135
2707.000000	48.292094
2706.000000	48.324178
2705.000000	48.349314
2704.000000	48.368903
2703.000000	48.384265
2702.000000	48.395859
2701.000000	48.403488
2700.000000	48.407408
2699.000000	48.408347
2698.000000	48.406797
2697.000000	48.403424
2696.000000	48.399585
2695.000000	48.396516
2694.000000	48.394007
2693.000000	48.390570
2692.000000	48.384725
2691.000000	48.375307
2690.000000	48.361232
2689.000000	48.342308
2688.000000	48.320211
2687.000000	48.297874
2686.000000	48.277857
2685.000000	48.261782
2684.000000	48.250589
2683.000000	48.243951
2682.000000	48.239506
2681.000000	48.233811
2680.000000	48.224357
2679.000000	48.210491
2678.000000	48.193217
2677.000000	48.175213
2676.000000	48.160686
2675.000000	48.153629
2674.000000	48.155637
2673.000000	48.165900
2672.000000	48.182779
2671.000000	48.204748
2670.000000	48.230233
2669.000000	48.257825
2668.000000	48.287340
2667.000000	48.319744
2666.000000	48.356010
2665.000000	48.396449
2664.000000	48.440443
2663.000000	48.485861
2662.000000	48.528648
2661.000000	48.564016
2660.000000	48.588750
2659.000000	48.602560
2658.000000	48.607897
2657.000000	48.609459
2656.000000	48.613350
2655.000000	48.625091
2654.000000	48.647565
2653.000000	48.680679
2652.000000	48.722259
2651.000000	48.768842
2650.000000	48.816755
2649.000000	48.864086
2648.000000	48.912743
2647.000000	48.967913
2646.000000	49.035454
2645.000000	49.120067
2644.000000	49.223890
2643.000000	49.345429
2642.000000	49.479172
2641.000000	49.617140
2640.000000	49.751976
2639.000000	49.878584
2638.000000	49.994668
2637.000000	50.101430
2636.000000	50.203470
2635.000000	50.306082
2634.000000	50.411577
2633.000000	50.518021
2632.000000	50.620823
2631.000000	50.714588
2630.000000	50.793850
2629.000000	50.855080
2628.000000	50.899009
2627.000000	50.930564
2626.000000	50.956773
2625.000000	50.984435
2624.000000	51.018789
2623.000000	51.061504
2622.000000	51.108912
2621.000000	51.153547
2620.000000	51.187868
2619.000000	51.207168
2618.000000	51.210262
2617.000000	51.199532
2616.000000	51.180855
2615.000000	51.161200
2614.000000	51.145121
2613.000000	51.133032
2612.000000	51.121663
2611.000000	51.105499
2610.000000	51.078354
2609.000000	51.036382
2608.000000	50.981186
2607.000000	50.919805
2606.000000	50.861889
2605.000000	50.816928
2604.000000	50.792297
2603.000000	50.791145
2602.000000	50.811368
2601.000000	50.846710
2600.000000	50.889925
2599.000000	50.935297
2598.000000	50.979755
2597.000000	51.024666
2596.000000	51.075783
2595.000000	51.140239
2594.000000	51.222329
2593.000000	51.321229
2592.000000	51.432123
2591.000000	51.547540
2590.000000	51.658849
2589.000000	51.759388
2588.000000	51.847683
2587.000000	51.927950
2586.000000	52.007511
2585.000000	52.094216
2584.000000	52.194706
2583.000000	52.311760
2582.000000	52.442110
2581.000000	52.577529
2580.000000	52.708832
2579.000000	52.829274
2578.000000	52.935927
2577.000000	53.030767
2576.000000	53.120818
2575.000000	53.215196
2574.000000	53.320378
2573.000000	53.437819
2572.000000	53.564442
2571.000000	53.693499
2570.000000	53.815589
2569.000000	53.921698
2568.000000	54.007606
2567.000000	54.075098
2566.000000	54.129745
2565.000000	54.178624
2564.000000	54.228162
2563.000000	54.281307
2562.000000	54.334590
2561.000000	54.379192
2560.000000	54.405730
2559.000000	54.407532
2558.000000	54.382519
2557.000000	54.334886
2556.000000	54.275923
2555.000000	54.221196
2554.000000	54.185128
2553.000000	54.177610
2552.000000	54.203233
2551.000000	54.260661
2550.000000	54.342198
2549.000000	54.437634
2548.000000	54.539342
2547.000000	54.644478
2546.000000	54.753926
2545.000000	54.870316
2544.000000	54.997572
2543.000000	55.138020
2542.000000	55.288504
2541.000000	55.440603
2540.000000	55.584606
2539.000000	55.712891
2538.000000	55.820881
2537.000000	55.908329
2536.000000	55.980439
2535.000000	56.046005
2534.000000	56.112552
2533.000000	56.183700
2532.000000	56.259755
2531.000000	56.337694
2530.000000	56.411302
2529.000000	56.473940
2528.000000	56.523202
2527.000000	56.562371
2526.000000	56.597705
2525.000000	56.636249
2524.000000	56.684996
2523.000000	56.748310
2522.000000	56.824423
2521.000000	56.905730
2520.000000	56.983160
2519.000000	57.049649
2518.000000	57.101007
2517.000000	57.137142
2516.000000	57.163482
2515.000000	57.189136
2514.000000	57.222203
2513.000000	57.266994
2512.000000	57.324194
2511.000000	57.390591
2510.000000	57.458689
2509.000000	57.519634
2508.000000	57.568282
2507.000000	57.604955
2506.000000	57.633168
2505.000000	57.657970
2504.000000	57.685589
2503.000000	57.720981
2502.000000	57.764327
2501.000000	57.811049
2500.000000	57.855427
2499.000000	57.892984
2498.000000	57.920648
2497.000000	57.938272
2496.000000	57.950573
2495.000000	57.965170
2494.000000	57.987790
2493.000000	58.020175
2492.000000	58.061365
2491.000000	58.107915
2490.000000	58.153075
2489.000000	58.189215
2488.000000	58.212495
2487.000000	58.224168
2486.000000	58.227997
2485.000000	58.228911
2484.000000	58.233406
2483.000000	58.247340
2482.000000	58.271880
2481.000000	58.303110
2480.000000	58.335767
2479.000000	58.365660
2478.000000	58.389291
2477.000000	58.404736
2476.000000	58.414003
2475.000000	58.422228
2474.000000	58.433653
2473.000000	58.449616
2472.000000	58.469785
2471.000000	58.492570
2470.000000	58.514171
2469.000000	58.530169
2468.000000	58.539071
2467.000000	58.543064
2466.000000	58.545550
2465.000000	58.549905
2464.000000	58.559960
2463.000000	58.578526
2462.000000	58.604605
2461.000000	58.633763
2460.000000	58.661466
2459.000000	58.684519
2458.000000	58.700307
2457.000000	58.707847
2456.000000	58.709936
2455.000000	58.711836
2454.000000	58.717381
2453.000000	58.727769
2452.000000	58.743207
2451.000000	58.762903
2450.000000	58.783700
2449.000000	58.801722
2448.000000	58.815990
2447.000000	58.828600
2446.000000	58.841626
2445.000000	58.856168
2444.000000	58.873741
2443.000000	58.895486
2442.000000	58.919632
2441.000000	58.942183
2440.000000	58.960389
2439.000000	58.973791
2438.000000	58.982631
2437.000000	58.987971
2436.000000	58.993213
2435.000000	59.002621
2434.000000	59.017945
2433.000000	59.038281
2432.000000	59.062514
2431.000000	59.089299
2430.000000	59.115449
2429.000000	59.137574
2428.000000	59.155605
2427.000000	59.172247
2426.000000	59.189191
2425.000000	59.206416
2424.000000	59.224469
2423.000000	59.244159
2422.000000	59.264015
2421.000000	59.281156
2420.000000	59.294939
2419.000000	59.307335
2418.000000	59.320037
2417.000000	59.334068
2416.000000	59.351857
2415.000000	59.376346
2414.000000	59.407417
2413.000000	59.441563
2412.000000	59.475161
2411.000000	59.505715
2410.000000	59.530646
2409.000000	59.548273
2408.000000	59.560462
2407.000000	59.571695
2406.000000	59.585316
2405.000000	59.602658
2404.000000	59.624895
2403.000000	59.652514
2402.000000	59.683177
2401.000000	59.713157
2400.000000	59.741215
2399.000000	59.768868
2398.000000	59.797377
2397.000000	59.827333
2396.000000	59.860398
2395.000000	59.897998
2394.000000	59.938183
2393.000000	59.976630
2392.000000	60.010606
2391.000000	60.039663
2390.000000	60.063632
2389.000000	60.083306
2388.000000	60.103278
2387.000000	60.130180
2386.000000	60.168084
2385.000000	60.217725
2384.000000	60.278386
2383.000000	60.348050
2382.000000	60.421205
2381.000000	60.491345
2380.000000	60.556340
2379.000000	60.618039
2378.000000	60.678423
2377.000000	60.738600
2376.000000	60.801160
2375.000000	60.868885
2374.000000	60.940887
2373.000000	61.012929
2372.000000	61.081698
2371.000000	61.145927
2370.000000	61.203739
2369.000000	61.255345
2368.000000	61.306135
2367.000000	61.363091
2366.000000	61.428043
2365.000000	61.497842
2364.000000	61.572066
2363.000000	61.647522
2362.000000	61.715316
2361.000000	61.771456
2360.000000	61.816618
2359.000000	61.858015
2358.000000	61.900929
2357.000000	61.947363
2356.000000	62.004813
2355.000000	62.073797
2354.000000	62.150273
2353.000000	62.227556
2352.000000	62.304627
2351.000000	62.383811
2350.000000	62.454498
2349.000000	62.510989
2348.000000	62.558555
2347.000000	62.616522
2346.000000	62.697719
2345.000000	62.788384
2344.000000	62.870545
2343.000000	62.931569
2342.000000	62.978542
2341.000000	63.020471
2340.000000	63.060470
2339.000000	63.103325
2338.000000	63.152927
2337.000000	63.213412
2336.000000	63.287305
2335.000000	63.374467
2334.000000	63.469639
2333.000000	63.562998
2332.000000	63.645036
2331.000000	63.714918
2330.000000	63.768485
2329.000000	63.810551
2328.000000	63.846894
2327.000000	63.888592
2326.000000	63.944661
2325.000000	64.013539
2324.000000	64.096423
2323.000000	64.186059
2322.000000	64.276001
2321.000000	64.355841
2320.000000	64.422597
2319.000000	64.480129
2318.000000	64.530894
2317.000000	64.577707
2316.000000	64.623236
2315.000000	64.674132
2314.000000	64.730034
2313.000000	64.786329
2312.000000	64.837741
2311.000000	64.884673
2310.000000	64.928691
2309.000000	64.971316
2308.000000	65.016943
2307.000000	65.071072
2306.000000	65.135977
2305.000000	65.207234
2304.000000	65.280130
2303.000000	65.350405
2302.000000	65.412626
2301.000000	65.460827
2300.000000	65.493947
2299.000000	65.517920
2298.000000	65.539581
2297.000000	65.564427
2296.000000	65.597621
2295.000000	65.643248
2294.000000	65.699994
2293.000000	65.760944
2292.000000	65.820524
2291.000000	65.876056
2290.000000	65.925796
2289.000000	65.967713
2288.000000	66.004192
2287.000000	66.040494
2286.000000	66.079490
2285.000000	66.119384
2284.000000	66.158584
2283.000000	66.196784
2282.000000	66.232122
2281.000000	66.261593
2280.000000	66.286163
2279.000000	66.311314
2278.000000	66.341603
2277.000000	66.378793
2276.000000	66.424239
2275.000000	66.478709
2274.000000	66.537816
2273.000000	66.593318
2272.000000	66.639528
2271.000000	66.675420
2270.000000	66.700908
2269.000000	66.716370
2268.000000	66.726583
2267.000000	66.739423
2266.000000	66.759063
2265.000000	66.784365
2264.000000	66.813510
2263.000000	66.845536
2262.000000	66.877055
2261.000000	66.902889
2260.000000	66.922012
2259.000000	66.937811
2258.000000	66.952718
2257.000000	66.966192
2256.000000	66.978303
2255.000000	66.989606
2254.000000	66.996570
2253.000000	66.992708
2252.000000	66.974812
2251.000000	66.944841
2250.000000	66.904964
2249.000000	66.856690
2248.000000	66.804454
2247.000000	66.754412
2246.000000	66.708314
2245.000000	66.662100
2244.000000	66.611390
2243.000000	66.553454
2242.000000	66.484460
2241.000000	66.400719
2240.000000	66.303984
2239.000000	66.201261
2238.000000	66.098802
2237.000000	66.000456
2236.000000	65.911196
2235.000000	65.836383
2234.000000	65.776673
2233.000000	65.728228
2232.000000	65.688877
2231.000000	65.659594
2230.000000	65.640161
2229.000000	65.628552
2228.000000	65.624913
2227.000000	65.630916
2226.000000	65.643885
2225.000000	65.656501
2224.000000	65.663034
2223.000000	65.661677
2222.000000	65.650885
2221.000000	65.629140
2220.000000	65.599576
2219.000000	65.569775
2218.000000	65.545501
2217.000000	65.528311
2216.000000	65.519163
2215.000000	65.519016
2214.000000	65.525060
2213.000000	65.531398
2212.000000	65.534965
2211.000000	65.536897
2210.000000	65.537970
2209.000000	65.537417
2208.000000	65.536429
2207.000000	65.537538
2206.000000	65.539492
2205.000000	65.537408
2204.000000	65.528806
2203.000000	65.515344
2202.000000	65.498758
2201.000000	65.480327
2200.000000	65.464634
2199.000000	65.458378
2198.000000	65.464030
2197.000000	65.478487
2196.000000	65.497775
2195.000000	65.518160
2194.000000	65.532853
2193.000000	65.533812
2192.000000	65.518636
2191.000000	65.491538
2190.000000	65.457525
2189.000000	65.420332
2188.000000	65.385592
2187.000000	65.359601
2186.000000	65.343440
2185.000000	65.332970
2184.000000	65.325374
2183.000000	65.321260
2182.000000	65.320406
2181.000000	65.321291
2180.000000	65.325586
2179.000000	65.337723
2178.000000	65.358581
2177.000000	65.384010
2176.000000	65.409997
2175.000000	65.434527
2174.000000	65.454503
2173.000000	65.466701
2172.000000	65.473230
2171.000000	65.481372
2170.000000	65.497183
2169.000000	65.523520
2168.000000	65.563470
2167.000000	65.619168
2166.000000	65.686016
2165.000000	65.753502
2164.000000	65.813322
2163.000000	65.862657
2162.000000	65.900199
2161.000000	65.925403
2160.000000	65.942796
2159.000000	65.961040
2158.000000	65.985733
2157.000000	66.017059
2156.000000	66.054177
2155.000000	66.096353
2154.000000	66.139534
2153.000000	66.178186
2152.000000	66.212071
2151.000000	66.246425
2150.000000	66.284868
2149.000000	66.327119
2148.000000	66.373172
2147.000000	66.423269
2146.000000	66.472889
2145.000000	66.513649
2144.000000	66.541088
2143.000000	66.557371
2142.000000	66.566449
2141.000000	66.572612
2140.000000	66.584114
2139.000000	66.611181
2138.000000	66.657954
2137.000000	66.720314
2136.000000	66.791502
2135.000000	66.864721
2134.000000	66.930941
2133.000000	66.981547
2132.000000	67.015525
2131.000000	67.039331
2130.000000	67.059168
2129.000000	67.078721
2128.000000	67.103109
2127.000000	67.137426
2126.000000	67.179909
2125.000000	67.222483
2124.000000	67.259436
2123.000000	67.290774
2122.000000	67.317759
2121.000000	67.341756
2120.000000	67.368259
2119.000000	67.405064
2118.000000	67.454388
2117.000000	67.511362
2116.000000	67.570044
2115.000000	67.625190
2114.000000	67.669154
2113.000000	67.695095
2112.000000	67.705096
2111.000000	67.709378
2110.000000	67.717018
2109.000000	67.732861
2108.000000	67.761592
2107.000000	67.806186
2106.000000	67.860825
2105.000000	67.912556
2104.000000	67.951739
2103.000000	67.975690
2102.000000	67.983550
2101.000000	67.975535
2100.000000	67.958455
2099.000000	67.943763
2098.000000	67.937619
2097.000000	67.938451
2096.000000	67.942899
2095.000000	67.947538
2094.000000	67.945697
2093.000000	67.930975
2092.000000	67.905889
2091.000000	67.880625
2090.000000	67.863133
2089.000000	67.856549
2088.000000	67.864766
2087.000000	67.891584
2086.000000	67.932934
2085.000000	67.977499
2084.000000	68.016962
2083.000000	68.049702
2082.000000	68.075339
2081.000000	68.094204
2080.000000	68.113181
2079.000000	68.143728
2078.000000	68.191189
2077.000000	68.252633
2076.000000	68.323751
2075.000000	68.400967
2074.000000	68.476684
2073.000000	68.540889
2072.000000	68.591807
2071.000000	68.636589
2070.000000	68.681096
2069.000000	68.727482
2068.000000	68.781734
2067.000000	68.853106
2066.000000	68.941981
2065.000000	69.036302
2064.000000	69.123549
2063.000000	69.199695
2062.000000	69.265099
2061.000000	69.321037
2060.000000	69.373543
2059.000000	69.432778
2058.000000	69.504608
2057.000000	69.587924
2056.000000	69.680422
2055.000000	69.780005
2054.000000	69.879387
2053.000000	69.967530
2052.000000	70.040401
2051.000000	70.103427
2050.000000	70.162000
2049.000000	70.218501
2048.000000	70.278776
2047.000000	70.349975
2046.000000	70.430480
2045.000000	70.511370
2044.000000	70.588855
2043.000000	70.666306
2042.000000	70.743867
2041.000000	70.817052
2040.000000	70.887382
2039.000000	70.964371
2038.000000	71.054219
2037.000000	71.154849
2036.000000	71.263155
2035.000000	71.377469
2034.000000	71.491431
2033.000000	71.595072
2032.000000	71.684219
2031.000000	71.763010
2030.000000	71.835490
2029.000000	71.904176
2028.000000	71.976610
2027.000000	72.062539
2026.000000	72.163476
2025.000000	72.271667
2024.000000	72.381840
2023.000000	72.492054
2022.000000	72.594086
2021.000000	72.677508
2020.000000	72.744835
2019.000000	72.811687
2018.000000	72.888820
2017.000000	72.974143
2016.000000	73.063482
2015.000000	73.157476
2014.000000	73.254619
2013.000000	73.349314
2012.000000	73.440228
2011.000000	73.531931
2010.000000	73.626303
2009.000000	73.721525
2008.000000	73.819605
2007.000000	73.925510
2006.000000	74.038579
2005.000000	74.150945
2004.000000	74.258839
2003.000000	74.362669
2002.000000	74.458781
2001.000000	74.541116
2000.000000	74.609385
1999.000000	74.672914
1998.000000	74.736472
1997.000000	74.792935
1996.000000	74.838013
1995.000000	74.882364
1994.000000	74.942879
1993.000000	75.026986
1992.000000	75.128981
1991.000000	75.236190
1990.000000	75.335553
1989.000000	75.418905
1988.000000	75.486748
1987.000000	75.543088
1986.000000	75.588707
1985.000000	75.624601
1984.000000	75.659825
1983.000000	75.704222
1982.000000	75.756992
1981.000000	75.810121
1980.000000	75.859511
1979.000000	75.908539
1978.000000	75.956382
1977.000000	75.996892
1976.000000	76.031156
1975.000000	76.068479
1974.000000	76.112553
1973.000000	76.155784
1972.000000	76.190125
1971.000000	76.213287
1970.000000	76.224650
1969.000000	76.226923
1968.000000	76.231229
1967.000000	76.247035
1966.000000	76.269351
1965.000000	76.289366
1964.000000	76.313206
1963.000000	76.355250
1962.000000	76.415819
1961.000000	76.479131
1960.000000	76.533126
1959.000000	76.575831
1958.000000	76.602515
1957.000000	76.607025
1956.000000	76.595579
1955.000000	76.584830
1954.000000	76.583275
1953.000000	76.589426
1952.000000	76.607278
1951.000000	76.639902
1950.000000	76.677489
1949.000000	76.705130
1948.000000	76.714699
1947.000000	76.701682
1946.000000	76.659961
1945.000000	76.599102
1944.000000	76.557204
1943.000000	76.571392
1942.000000	76.636129
1941.000000	76.713182
1940.000000	76.777473
1939.000000	76.826710
1938.000000	76.855182
1937.000000	76.849987
1936.000000	76.814776
1935.000000	76.775011
1934.000000	76.750144
1933.000000	76.743118
1932.000000	76.758781
1931.000000	76.799294
1930.000000	76.855176
1929.000000	76.904639
1928.000000	76.926664
1927.000000	76.910360
1926.000000	76.851564
1925.000000	76.772582
1924.000000	76.713766
1923.000000	76.689040
1922.000000	76.672522
1921.000000	76.643416
1920.000000	76.625228
1919.000000	76.652725
1918.000000	76.714052
1917.000000	76.758934
1916.000000	76.761564
1915.000000	76.740983
1914.000000	76.717722
1913.000000	76.693646
1912.000000	76.678716
1911.000000	76.693754
1910.000000	76.744255
1909.000000	76.803319
1908.000000	76.840925
1907.000000	76.849435
1906.000000	76.825329
1905.000000	76.772880
1904.000000	76.712060
1903.000000	76.667413
1902.000000	76.654687
1901.000000	76.670152
1900.000000	76.701041
1899.000000	76.734012
1898.000000	76.749517
1897.000000	76.736959
1896.000000	76.705638
1895.000000	76.664277
1894.000000	76.602902
1893.000000	76.513304
1892.000000	76.421933
1891.000000	76.377554
1890.000000	76.399229
1889.000000	76.453498
1888.000000	76.494722
1887.000000	76.503884
1886.000000	76.479773
1885.000000	76.426670
1884.000000	76.361305
1883.000000	76.309944
1882.000000	76.292773
1881.000000	76.310689
1880.000000	76.352638
1879.000000	76.406539
1878.000000	76.447591
1877.000000	76.446580
1876.000000	76.399028
1875.000000	76.315912
1874.000000	76.194776
1873.000000	76.029227
1872.000000	75.843787
1871.000000	75.696160
1870.000000	75.638869
1869.000000	75.678662
1868.000000	75.772482
1867.000000	75.867459
1866.000000	75.929406
1865.000000	75.941460
1864.000000	75.908911
1863.000000	75.857279
1862.000000	75.811161
1861.000000	75.781453
1860.000000	75.771120
1859.000000	75.776307
1858.000000	75.777918
1857.000000	75.748269
1856.000000	75.679289
1855.000000	75.585163
1854.000000	75.485842
1853.000000	75.391903
1852.000000	75.309564
1851.000000	75.261163
1850.000000	75.248155
1849.000000	75.226234
1848.000000	75.151511
1847.000000	75.034951
1846.000000	74.926045
1845.000000	74.855707
1844.000000	74.815894
1843.000000	74.771014
1842.000000	74.705435
1841.000000	74.645484
1840.000000	74.622533
1839.000000	74.634729
1838.000000	74.649165
1837.000000	74.639554
1836.000000	74.595980
1835.000000	74.503740
1834.000000	74.342532
1833.000000	74.113206
1832.000000	73.871966
1831.000000	73.714588
1830.000000	73.670919
1829.000000	73.664667
1828.000000	73.625389
1827.000000	73.561835
1826.000000	73.504291
1825.000000	73.449616
1824.000000	73.385311
1823.000000	73.319607
1822.000000	73.264232
1821.000000	73.214873
1820.000000	73.173776
1819.000000	73.153167
1818.000000	73.141089
1817.000000	73.105769
1816.000000	73.020080
1815.000000	72.877470
1814.000000	72.685539
1813.000000	72.463116
1812.000000	72.261728
1811.000000	72.130083
1810.000000	72.070437
1809.000000	72.056770
1808.000000	72.061360
1807.000000	72.056257
1806.000000	72.003171
1805.000000	71.877479
1804.000000	71.692677
1803.000000	71.495452
1802.000000	71.332565
1801.000000	71.223443
1800.000000	71.179901
1799.000000	71.193612
1798.000000	71.212239
1797.000000	71.169695
1796.000000	71.038610
1795.000000	70.849791
1794.000000	70.652625
1793.000000	70.489518
1792.000000	70.401362
1791.000000	70.393276
1790.000000	70.425975
1789.000000	70.457163
1788.000000	70.464372
1787.000000	70.442746
1786.000000	70.384064
1785.000000	70.273920
1784.000000	70.100606
1783.000000	69.888710
1782.000000	69.693172
1781.000000	69.537457
1780.000000	69.423320
1779.000000	69.338899
1778.000000	69.251192
1777.000000	69.118323
1776.000000	68.930094
1775.000000	68.733315
1774.000000	68.565349
1773.000000	68.406036
1772.000000	68.227639
1771.000000	68.054820
1770.000000	67.946554
1769.000000	67.936785
1768.000000	67.987165
1767.000000	68.005074
1766.000000	67.915656
1765.000000	67.721524
1764.000000	67.487205
1763.000000	67.284476
1762.000000	67.138876
1761.000000	67.013163
1760.000000	66.881743
1759.000000	66.771296
1758.000000	66.722429
1757.000000	66.710073
1756.000000	66.657955
1755.000000	66.536807
1754.000000	66.371472
1753.000000	66.171526
1752.000000	65.924706
1751.000000	65.651378
1750.000000	65.397622
1749.000000	65.205043
1748.000000	65.085635
1747.000000	65.020108
1746.000000	64.955487
1745.000000	64.831639
1744.000000	64.642530
1743.000000	64.421012
1742.000000	64.197561
1741.000000	64.002266
1740.000000	63.853793
1739.000000	63.711407
1738.000000	63.515805
1737.000000	63.293445
1736.000000	63.113412
1735.000000	62.995315
1734.000000	62.878838
1733.000000	62.637363
1732.000000	62.255838
1731.000000	61.888807
1730.000000	61.647429
1729.000000	61.493916
1728.000000	61.344725
1727.000000	61.176004
1726.000000	60.980641
1725.000000	60.733092
1724.000000	60.436142
1723.000000	60.093927
1722.000000	59.687776
1721.000000	59.230147
1720.000000	58.798256
1719.000000	58.473345
1718.000000	58.234925
1717.000000	57.968870
1716.000000	57.627713
1715.000000	57.280243
1714.000000	56.982000
1713.000000	56.712713
1712.000000	56.431476
1711.000000	56.125849
1710.000000	55.792068
1709.000000	55.404055
1708.000000	54.965679
1707.000000	54.540137
1706.000000	54.155754
1705.000000	53.760599
1704.000000	53.322311
1703.000000	52.896319
1702.000000	52.504282
1701.000000	52.107166
1700.000000	51.731906
1699.000000	51.418401
1698.000000	51.184610
1697.000000	51.052825
1696.000000	50.935138
1695.000000	50.686139
1694.000000	50.270249
1693.000000	49.781484
1692.000000	49.333507
1691.000000	48.932411
1690.000000	48.526965
1689.000000	48.102090
1688.000000	47.702733
1687.000000	47.376047
1686.000000	47.063984
1685.000000	46.683272
1684.000000	46.233424
1683.000000	45.784792
1682.000000	45.408937
1681.000000	45.106281
1680.000000	44.818974
1679.000000	44.497951
1678.000000	44.142677
1677.000000	43.774569
1676.000000	43.406541
1675.000000	43.050585
1674.000000	42.689594
1673.000000	42.288315
1672.000000	41.869590
1671.000000	41.485400
1670.000000	41.163504
1669.000000	40.892356
1668.000000	40.640321
1667.000000	40.387311
1666.000000	40.113530
1665.000000	39.804298
1664.000000	39.470558
1663.000000	39.149042
1662.000000	38.858930
1661.000000	38.571278
1660.000000	38.263491
1659.000000	37.938373
1658.000000	37.581873
1657.000000	37.185583
1656.000000	36.801914
1655.000000	36.497563
1654.000000	36.298483
1653.000000	36.160204
1652.000000	35.932878
1651.000000	35.510665
1650.000000	35.002726
1649.000000	34.572816
1648.000000	34.266980
1647.000000	34.066216
1646.000000	33.922145
1645.000000	33.758556
1644.000000	33.527961
1643.000000	33.260139
1642.000000	32.996985
1641.000000	32.713605
1640.000000	32.380667
1639.000000	32.030215
1638.000000	31.713444
1637.000000	31.445280
1636.000000	31.222542
1635.000000	31.052449
1634.000000	30.902289
1633.000000	30.721751
1632.000000	30.510839
1631.000000	30.289785
1630.000000	30.061381
1629.000000	29.824138
1628.000000	29.588505
1627.000000	29.370766
1626.000000	29.174845
1625.000000	28.992741
1624.000000	28.834720
1623.000000	28.719087
1622.000000	28.624971
1621.000000	28.506089
1620.000000	28.367229
1619.000000	28.262357
1618.000000	28.219048
1617.000000	28.204593
1616.000000	28.157897
1615.000000	28.061333
1614.000000	27.953247
1613.000000	27.870042
1612.000000	27.810546
1611.000000	27.762314
1610.000000	27.725598
1609.000000	27.699152
1608.000000	27.677372
1607.000000	27.665497
1606.000000	27.672541
1605.000000	27.688804
1604.000000	27.705943
1603.000000	27.735252
1602.000000	27.781129
1601.000000	27.826194
1600.000000	27.856341
1599.000000	27.880453
1598.000000	27.909267
1597.000000	27.938667
1596.000000	27.967807
1595.000000	28.010067
1594.000000	28.071472
1593.000000	28.136734
1592.000000	28.192200
1591.000000	28.243533
1590.000000	28.297607
1589.000000	28.344839
1588.000000	28.378384
1587.000000	28.409431
1586.000000	28.451691
1585.000000	28.498752
1584.000000	28.537078
1583.000000	28.576111
1582.000000	28.619179
1581.000000	28.635350
1580.000000	28.607329
1579.000000	28.579784
1578.000000	28.610691
1577.000000	28.703711
1576.000000	28.797568
1575.000000	28.815758
1574.000000	28.743684
1573.000000	28.634088
1572.000000	28.544997
1571.000000	28.507829
1570.000000	28.539176
1569.000000	28.609175
1568.000000	28.659540
1567.000000	28.685257
1566.000000	28.723389
1565.000000	28.780655
1564.000000	28.827923
1563.000000	28.846883
1562.000000	28.851894
1561.000000	28.834492
1560.000000	28.868141
1559.000000	29.107398
1558.000000	29.454156
1557.000000	29.716257
1556.000000	29.908948
1555.000000	30.140973
1554.000000	30.429990
1553.000000	30.690875
1552.000000	30.898206
1551.000000	31.123417
1550.000000	31.410262
1549.000000	31.708450
1548.000000	31.945819
1547.000000	32.123910
1546.000000	32.296561
1545.000000	32.491632
1544.000000	32.693869
1543.000000	32.906943
1542.000000	33.198111
1541.000000	33.678923
1540.000000	34.364639
1539.000000	35.056080
1538.000000	35.511334
1537.000000	35.708481
1536.000000	35.827311
1535.000000	36.055732
1534.000000	36.489553
1533.000000	37.069478
1532.000000	37.642180
1531.000000	38.128717
1530.000000	38.543217
1529.000000	38.930556
1528.000000	39.338595
1527.000000	39.798960
1526.000000	40.289266
1525.000000	40.742042
1524.000000	41.161486
1523.000000	41.672110
1522.000000	42.386514
1521.000000	43.192934
1520.000000	43.832857
1519.000000	44.271977
1518.000000	44.718208
1517.000000	45.311058
1516.000000	45.981425
1515.000000	46.607388
1514.000000	47.172677
1513.000000	47.705420
1512.000000	48.190314
1511.000000	48.581994
1510.000000	48.892846
1509.000000	49.218374
1508.000000	49.732233
1507.000000	50.565129
1506.000000	51.582705
1505.000000	52.442520
1504.000000	52.962731
1503.000000	53.302496
1502.000000	53.657235
1501.000000	54.044506
1500.000000	54.423528
1499.000000	54.833503
1498.000000	55.348183
1497.000000	55.953986
1496.000000	56.533477
1495.000000	56.959865
1494.000000	57.209939
1493.000000	57.359325
1492.000000	57.511990
1491.000000	57.765802
1490.000000	58.155597
1489.000000	58.612579
1488.000000	59.069516
1487.000000	59.507506
1486.000000	59.908379
1485.000000	60.235393
1484.000000	60.475676
1483.000000	60.689278
1482.000000	60.924519
1481.000000	61.149275
1480.000000	61.302079
1479.000000	61.368756
1478.000000	61.361627
1477.000000	61.288778
1476.000000	61.178863
1475.000000	61.082073
1474.000000	61.030507
1473.000000	60.999212
1472.000000	60.946107
1471.000000	60.830087
1470.000000	60.576470
1469.000000	60.114359
1468.000000	59.425164
1467.000000	58.517731
1466.000000	57.386733
1465.000000	56.037911
1464.000000	54.597270
1463.000000	53.237459
1462.000000	51.990518
1461.000000	50.814121
1460.000000	49.741036
1459.000000	48.860319
1458.000000	48.183909
1457.000000	47.623016
1456.000000	47.115185
1455.000000	46.635649
1454.000000	46.143663
1453.000000	45.597713
1452.000000	44.966716
1451.000000	44.230598
1450.000000	43.329862
1449.000000	42.171861
1448.000000	40.737566
1447.000000	39.101900
1446.000000	37.297603
1445.000000	35.259709
1444.000000	32.964546
1443.000000	30.455326
1442.000000	27.755218
1441.000000	24.917341
1440.000000	22.086641
1439.000000	19.331831
1438.000000	16.481585
1437.000000	13.413992
1436.000000	10.504730
1435.000000	8.260932
1434.000000	6.657460
1433.000000	5.389772
1432.000000	4.348951
1431.000000	3.576751
1430.000000	3.036757
1429.000000	2.639149
1428.000000	2.406394
1427.000000	2.389169
1426.000000	2.534443
1425.000000	2.786500
1424.000000	3.198665
1423.000000	3.809442
1422.000000	4.554258
1421.000000	5.433993
1420.000000	6.626072
1419.000000	8.229234
1418.000000	10.011403
1417.000000	11.738027
1416.000000	13.478543
1415.000000	15.365357
1414.000000	17.381442
1413.000000	19.470826
1412.000000	21.657672
1411.000000	23.953749
1410.000000	26.263982
1409.000000	28.494564
1408.000000	30.652727
1407.000000	32.783765
1406.000000	34.912471
1405.000000	37.041722
1404.000000	39.120254
1403.000000	41.032572
1402.000000	42.721925
1401.000000	44.290451
1400.000000	45.887057
1399.000000	47.505831
1398.000000	49.006035
1397.000000	50.355337
1396.000000	51.680718
1395.000000	53.077015
1394.000000	54.489205
1393.000000	55.795055
1392.000000	56.934629
1391.000000	57.919911
1390.000000	58.796576
1389.000000	59.626806
1388.000000	60.445730
1387.000000	61.204202
1386.000000	61.815358
1385.000000	62.257216
1384.000000	62.563739
1383.000000	62.751592
1382.000000	62.813049
1381.000000	62.746726
1380.000000	62.538935
1379.000000	62.142111
1378.000000	61.507127
1377.000000	60.608970
1376.000000	59.412254
1375.000000	57.868331
1374.000000	55.982686
1373.000000	53.846635
1372.000000	51.574394
1371.000000	49.264439
1370.000000	47.065325
1369.000000	45.211216
1368.000000	43.946591
1367.000000	43.401567
1366.000000	43.559247
1365.000000	44.332619
1364.000000	45.627090
1363.000000	47.319655
1362.000000	49.214713
1361.000000	51.093736
1360.000000	52.801070
1359.000000	54.259127
1358.000000	55.440435
1357.000000	56.339140
1356.000000	56.950511
1355.000000	57.271368
1354.000000	57.307652
1353.000000	57.066865
1352.000000	56.544109
1351.000000	55.715537
1350.000000	54.556500
1349.000000	53.047288
1348.000000	51.164583
1347.000000	48.892013
1346.000000	46.231725
1345.000000	43.209828
1344.000000	39.888624
1343.000000	36.360211
1342.000000	32.721993
1341.000000	29.081375
1340.000000	25.609193
1339.000000	22.556980
1338.000000	20.152470
1337.000000	18.470365
1336.000000	17.428893
1335.000000	16.855695
1334.000000	16.518414
1333.000000	16.159176
1332.000000	15.555930
1331.000000	14.574627
1330.000000	13.186093
1329.000000	11.454647
1328.000000	9.522267
1327.000000	7.576753
1326.000000	5.792005
1325.000000	4.280672
1324.000000	3.095224
1323.000000	2.243851
1322.000000	1.685819
1321.000000	1.343401
1320.000000	1.146190
1319.000000	1.047110
1318.000000	1.003840
1317.000000	0.974361
1316.000000	0.937863
1315.000000	0.899993
1314.000000	0.864603
1313.000000	0.824036
1312.000000	0.780172
1311.000000	0.748447
1310.000000	0.736090
1309.000000	0.737427
1308.000000	0.756491
1307.000000	0.811574
1306.000000	0.912587
1305.000000	1.057408
1304.000000	1.252718
1303.000000	1.516396
1302.000000	1.855581
1301.000000	2.261982
1300.000000	2.734568
1299.000000	3.281840
1298.000000	3.901375
1297.000000	4.579955
1296.000000	5.312040
1295.000000	6.101452
1294.000000	6.942176
1293.000000	7.816474
1292.000000	8.710901
1291.000000	9.614260
1290.000000	10.499955
1289.000000	11.325846
1288.000000	12.049593
1287.000000	12.632856
1286.000000	13.043215
1285.000000	13.273885
1284.000000	13.372046
1283.000000	13.441838
1282.000000	13.613395
1281.000000	14.002826
1280.000000	14.684198
1279.000000	15.668202
1278.000000	16.896872
1277.000000	18.277034
1276.000000	19.722033
1275.000000	21.170526
1274.000000	22.585567
1273.000000	23.951052
1272.000000	25.267594
1271.000000	26.538771
1270.000000	27.761341
1269.000000	28.929562
1268.000000	30.042576
1267.000000	31.101777
1266.000000	32.109516
1265.000000	33.071971
1264.000000	33.998688
1263.000000	34.900611
1262.000000	35.787210
1261.000000	36.664771
1260.000000	37.530575
1259.000000	38.370632
1258.000000	39.170923
1257.000000	39.927187
1256.000000	40.643225
1255.000000	41.326501
1254.000000	41.989588
1253.000000	42.650369
1252.000000	43.322265
1251.000000	44.007066
1250.000000	44.698369
1249.000000	45.384615
1248.000000	46.047665
1247.000000	46.667352
1246.000000	47.234818
1245.000000	47.757597
1244.000000	48.249618
1243.000000	48.724843
1242.000000	49.199975
1241.000000	49.691130
1240.000000	50.201618
1239.000000	50.718755
1238.000000	51.227210
1237.000000	51.717659
1236.000000	52.182413
1235.000000	52.616024
1234.000000	53.024866
1233.000000	53.426658
1232.000000	53.835511
1231.000000	54.254556
1230.000000	54.682627
1229.000000	55.115366
1228.000000	55.538694
1227.000000	55.933860
1226.000000	56.294412
1225.000000	56.630730
1224.000000	56.957371
1223.000000	57.287983
1222.000000	57.641572
1221.000000	58.036525
1220.000000	58.472208
1219.000000	58.925992
1218.000000	59.370711
1217.000000	59.784872
1216.000000	60.148276
1215.000000	60.447973
1214.000000	60.694125
1213.000000	60.917346
1212.000000	61.146739
1211.000000	61.399109
1210.000000	61.686419
1209.000000	62.014109
1208.000000	62.368018
1207.000000	62.718085
1206.000000	63.040679
1205.000000	63.328716
1204.000000	63.581716
1203.000000	63.803801
1202.000000	64.013287
1201.000000	64.234624
1200.000000	64.475267
1199.000000	64.720346
1198.000000	64.948847
1197.000000	65.141552
1196.000000	65.272671
1195.000000	65.317402
1194.000000	65.272481
1193.000000	65.155445
1192.000000	64.984649
1191.000000	64.771627
1190.000000	64.534983
1189.000000	64.303448
1188.000000	64.102763
1187.000000	63.952689
1186.000000	63.876380
1185.000000	63.894807
1184.000000	64.009094
1183.000000	64.202618
1182.000000	64.459724
1181.000000	64.776772
1180.000000	65.151255
1179.000000	65.573509
1178.000000	66.031191
1177.000000	66.503700
1176.000000	66.954267
1175.000000	67.344059
1174.000000	67.660295
1173.000000	67.919697
1172.000000	68.147173
1171.000000	68.365347
1170.000000	68.599459
1169.000000	68.868418
1168.000000	69.163398
1167.000000	69.452203
1166.000000	69.706557
1165.000000	69.914293
1164.000000	70.071614
1163.000000	70.186195
1162.000000	70.290343
1161.000000	70.429793
1160.000000	70.632710
1159.000000	70.899478
1158.000000	71.215947
1157.000000	71.556704
1156.000000	71.877327
1155.000000	72.128926
1154.000000	72.291022
1153.000000	72.378232
1152.000000	72.418825
1151.000000	72.445180
1150.000000	72.499131
1149.000000	72.618039
1148.000000	72.805859
1147.000000	73.032483
1146.000000	73.261611
1145.000000	73.464881
1144.000000	73.616683
1143.000000	73.703402
1142.000000	73.743774
1141.000000	73.780391
1140.000000	73.845919
1139.000000	73.950102
1138.000000	74.090911
1137.000000	74.254762
1136.000000	74.405986
1135.000000	74.500697
1134.000000	74.521327
1133.000000	74.485055
1132.000000	74.422760
1131.000000	74.369195
1130.000000	74.367662
1129.000000	74.454390
1128.000000	74.629308
1127.000000	74.854874
1126.000000	75.083537
1125.000000	75.272926
1124.000000	75.384126
1123.000000	75.396085
1122.000000	75.329859
1121.000000	75.239773
1120.000000	75.176467
1119.000000	75.170188
1118.000000	75.238199
1117.000000	75.379536
1116.000000	75.559554
1115.000000	75.723373
1114.000000	75.833779
1113.000000	75.885998
1112.000000	75.892367
1111.000000	75.876144
1110.000000	75.877406
1109.000000	75.935316
1108.000000	76.055998
1107.000000	76.209454
1106.000000	76.356825
1105.000000	76.463530
1104.000000	76.495434
1103.000000	76.433828
1102.000000	76.301670
1101.000000	76.155448
1100.000000	76.048328
1099.000000	76.011955
1098.000000	76.062170
1097.000000	76.191188
1096.000000	76.351635
1095.000000	76.472304
1094.000000	76.499999
1093.000000	76.417755
1092.000000	76.231383
1091.000000	75.967340
1090.000000	75.679222
1089.000000	75.425576
1088.000000	75.231608
1087.000000	75.079795
1086.000000	74.933860
1085.000000	74.751203
1084.000000	74.479930
1083.000000	74.078206
1082.000000	73.542165
1081.000000	72.904498
1080.000000	72.204425
1079.000000	71.470241
1078.000000	70.723572
1077.000000	69.964744
1076.000000	69.157848
1075.000000	68.247597
1074.000000	67.193168
1073.000000	65.984819
1072.000000	64.631440
1071.000000	63.159328
1070.000000	61.616813
1069.000000	60.055976
1068.000000	58.510713
1067.000000	56.997597
1066.000000	55.535218
1065.000000	54.153343
1064.000000	52.897600
1063.000000	51.828290
1062.000000	51.022695
1061.000000	50.559873
1060.000000	50.488955
1059.000000	50.825388
1058.000000	51.543669
1057.000000	52.584009
1056.000000	53.860027
1055.000000	55.265497
1054.000000	56.704539
1053.000000	58.103789
1052.000000	59.414294
1051.000000	60.615915
1050.000000	61.723489
1049.000000	62.772526
1048.000000	63.787800
1047.000000	64.769021
1046.000000	65.699647
1045.000000	66.557100
1044.000000	67.308010
1043.000000	67.924367
1042.000000	68.412656
1041.000000	68.815718
1040.000000	69.189031
1039.000000	69.582154
1038.000000	70.036343
1037.000000	70.571557
1036.000000	71.166144
1035.000000	71.766378
1034.000000	72.319114
1033.000000	72.790469
1032.000000	73.163216
1031.000000	73.442406
1030.000000	73.668353
1029.000000	73.899393
1028.000000	74.173519
1027.000000	74.494866
1026.000000	74.847800
1025.000000	75.204960
1024.000000	75.523039
1023.000000	75.760241
1022.000000	75.910022
1021.000000	76.004136
1020.000000	76.085588
1019.000000	76.193073
1018.000000	76.361581
1017.000000	76.608235
1016.000000	76.909105
1015.000000	77.208225
1014.000000	77.453200
1013.000000	77.613605
1012.000000	77.676647
1011.000000	77.653385
1010.000000	77.591792
1009.000000	77.558803
1008.000000	77.600289
1007.000000	77.726780
1006.000000	77.926540
1005.000000	78.169628
1004.000000	78.403472
1003.000000	78.573126
1002.000000	78.656988
1001.000000	78.672365
1000.000000	78.651514
999.000000	78.629175
998.000000	78.644380
997.000000	78.725047
996.000000	78.862475
995.000000	79.016000
994.000000	79.145017
993.000000	79.224754
992.000000	79.240948
991.000000	79.197029
990.000000	79.129462
989.000000	79.093400
988.000000	79.126082
987.000000	79.233483
986.000000	79.402269
985.000000	79.602775
984.000000	79.783886
983.000000	79.892313
982.000000	79.907320
981.000000	79.846895
980.000000	79.745092
979.000000	79.641348
978.000000	79.583160
977.000000	79.608537
976.000000	79.716567
975.000000	79.868768
974.000000	80.020778
973.000000	80.139081
972.000000	80.196602
971.000000	80.181038
970.000000	80.113327
969.000000	80.037760
968.000000	79.989338
967.000000	79.981631
966.000000	80.017094
965.000000	80.085392
964.000000	80.153212
963.000000	80.179007
962.000000	80.145722
961.000000	80.067318
960.000000	79.967482
959.000000	79.871478
958.000000	79.813117
957.000000	79.821698
956.000000	79.894739
955.000000	79.998134
954.000000	80.093165
953.000000	80.148984
952.000000	80.137921
951.000000	80.046329
950.000000	79.894871
949.000000	79.729503
948.000000	79.589758
947.000000	79.496835
946.000000	79.463039
945.000000	79.486645
944.000000	79.537525
943.000000	79.569858
942.000000	79.555516
941.000000	79.492448
940.000000	79.386758
939.000000	79.249706
938.000000	79.109322
937.000000	78.999212
936.000000	78.930087
935.000000	78.886320
934.000000	78.847826
933.000000	78.798105
932.000000	78.715729
931.000000	78.583031
930.000000	78.406804
929.000000	78.214594
928.000000	78.030823
927.000000	77.870532
926.000000	77.748800
925.000000	77.671519
924.000000	77.616693
923.000000	77.544432
922.000000	77.427428
921.000000	77.257909
920.000000	77.031965
919.000000	76.751682
918.000000	76.441850
917.000000	76.140284
916.000000	75.868885
915.000000	75.626360
914.000000	75.403802
913.000000	75.188372
912.000000	74.953720
911.000000	74.670707
910.000000	74.330669
909.000000	73.945041
908.000000	73.525962
907.000000	73.083607
906.000000	72.637371
905.000000	72.205691
904.000000	71.783217
903.000000	71.345329
902.000000	70.870911
901.000000	70.347761
900.000000	69.761702
899.000000	69.103019
898.000000	68.385642
897.000000	67.640116
896.000000	66.889281
895.000000	66.140890
894.000000	65.395667
893.000000	64.645546
892.000000	63.862813
891.000000	63.010498
890.000000	62.065631
889.000000	61.022992
888.000000	59.886669
887.000000	58.669790
886.000000	57.398998
885.000000	56.101516
884.000000	54.784605
883.000000	53.438944
882.000000	52.051179
881.000000	50.605964
880.000000	49.084518
879.000000	47.474800
878.000000	45.785765
877.000000	44.042207
876.000000	42.271612
875.000000	40.500240
874.000000	38.752168
873.000000	37.042814
872.000000	35.375758
871.000000	33.750195
870.000000	32.167169
869.000000	30.632434
868.000000	29.157235
867.000000	27.760626
866.000000	26.465481
865.000000	25.286615
864.000000	24.230693
863.000000	23.296114
862.000000	22.471290
861.000000	21.737250
860.000000	21.073841
859.000000	20.470236
858.000000	19.922298
857.000000	19.428480
856.000000	18.993873
855.000000	18.628499
854.000000	18.341406
853.000000	18.133041
852.000000	17.997286
851.000000	17.928186
850.000000	17.916617
849.000000	17.951140
848.000000	18.026105
847.000000	18.148430
846.000000	18.334958
845.000000	18.600904
844.000000	18.960020
843.000000	19.426733
842.000000	20.007696
841.000000	20.694981
840.000000	21.468942
839.000000	22.313158
838.000000	23.218022
837.000000	24.173390
836.000000	25.171939
835.000000	26.216979
834.000000	27.312936
833.000000	28.433587
832.000000	29.497030
831.000000	30.307454
830.000000	30.475161
829.000000	29.421555
828.000000	26.700142
827.000000	22.555641
826.000000	18.165156
825.000000	15.123263
824.000000	14.499702
823.000000	16.294062
822.000000	19.698962
821.000000	23.773279
820.000000	27.843774
819.000000	31.528863
818.000000	34.668198
817.000000	37.274205
816.000000	39.470237
815.000000	41.386746
814.000000	43.120010
813.000000	44.741893
812.000000	46.299136
811.000000	47.784174
810.000000	49.150598
809.000000	50.360475
808.000000	51.399572
807.000000	52.275436
806.000000	53.028249
805.000000	53.737897
804.000000	54.486339
803.000000	55.311407
802.000000	56.209983
801.000000	57.160975
800.000000	58.122713
799.000000	59.028414
798.000000	59.820110
797.000000	60.488469
796.000000	61.066068
795.000000	61.599830
794.000000	62.144786
793.000000	62.756642
792.000000	63.458475
791.000000	64.217965
790.000000	64.971609
789.000000	65.662322
788.000000	66.248619
787.000000	66.710335
786.000000	67.072802
785.000000	67.409948
784.000000	67.800978
783.000000	68.287573
782.000000	68.871724
781.000000	69.525537
780.000000	70.185416
779.000000	70.762841
778.000000	71.191428
777.000000	71.464952
776.000000	71.627516
775.000000	71.747885
774.000000	71.908672
773.000000	72.185027
772.000000	72.602298
771.000000	73.117887
770.000000	73.652322
769.000000	74.128003
768.000000	74.480790
767.000000	74.674458
766.000000	74.732168
765.000000	74.737266
764.000000	74.783781
763.000000	74.930728
762.000000	75.197243
761.000000	75.566818
760.000000	75.977221
759.000000	76.333499
758.000000	76.560643
757.000000	76.644131
756.000000	76.620406
755.000000	76.554009
754.000000	76.529346
753.000000	76.627612
752.000000	76.879590
751.000000	77.245587
750.000000	77.646487
749.000000	78.001339
748.000000	78.239275
747.000000	78.318364
746.000000	78.260797
745.000000	78.152575
744.000000	78.089401
743.000000	78.130199
742.000000	78.295061
741.000000	78.569854
740.000000	78.892838
739.000000	79.166301
738.000000	79.311931
737.000000	79.311784
736.000000	79.196859
735.000000	79.024761
734.000000	78.875575
733.000000	78.830339
732.000000	78.921774
731.000000	79.113199
730.000000	79.332239
729.000000	79.507496
728.000000	79.576050
727.000000	79.500267
726.000000	79.305039
725.000000	79.080161
724.000000	78.926612
723.000000	78.909741
722.000000	79.058079
721.000000	79.366082
720.000000	79.774691
719.000000	80.180552
718.000000	80.496431
717.000000	80.695250
716.000000	80.794760
715.000000	80.834984
714.000000	80.881745
713.000000	81.011089
712.000000	81.257789
711.000000	81.590793
710.000000	81.949102
709.000000	82.277787
708.000000	82.526414
707.000000	82.657583
706.000000	82.684903
705.000000	82.679773
704.000000	82.720806
703.000000	82.849610
702.000000	83.077575
701.000000	83.394872
700.000000	83.748228
699.000000	84.046422
698.000000	84.218309
697.000000	84.253925
696.000000	84.184244
695.000000	84.055067
694.000000	83.937412
693.000000	83.917828
692.000000	84.038850
691.000000	84.270845
690.000000	84.555334
689.000000	84.844974
688.000000	85.087513
687.000000	85.221332
686.000000	85.232035
685.000000	85.179014
684.000000	85.135414
683.000000	85.133989
682.000000	85.188557
681.000000	85.315406
680.000000	85.495448
679.000000	85.659238
678.000000	85.753731
677.000000	85.783316
676.000000	85.767740
675.000000	85.732136
674.000000	85.725042
673.000000	85.803532
672.000000	85.991444
671.000000	86.276555
670.000000	86.639202
669.000000	87.033943
668.000000	87.310434
667.000000	87.288809
666.000000	87.023968
665.000000	86.730304
664.000000	86.538344
663.000000	86.476031
662.000000	86.531156
661.000000	86.680774
660.000000	86.887154
659.000000	87.097672
658.000000	87.269805
657.000000	87.385155
656.000000	87.436257
655.000000	87.439248
654.000000	87.430881
653.000000	87.441154
652.000000	87.482120
651.000000	87.552578
650.000000	87.641061
649.000000	87.723677
648.000000	87.772717
647.000000	87.776893
646.000000	87.751593
645.000000	87.728658
644.000000	87.734382
643.000000	87.779240
642.000000	87.863379
641.000000	87.976981
640.000000	88.095915
639.000000	88.189583
638.000000	88.237805
637.000000	88.238817
636.000000	88.204771
635.000000	88.155823
634.000000	88.116796
633.000000	88.105904
632.000000	88.123476
631.000000	88.159711
630.000000	88.209494
629.000000	88.268507
628.000000	88.322311
627.000000	88.357144
626.000000	88.378564
625.000000	88.405538
624.000000	88.443426
623.000000	88.479587
622.000000	88.505805
621.000000	88.524110
620.000000	88.528923
619.000000	88.505645
618.000000	88.452522
617.000000	88.384975
616.000000	88.313709
615.000000	88.237728
614.000000	88.158914
613.000000	88.082084
612.000000	87.997487
611.000000	87.884282
610.000000	87.731652
609.000000	87.533153
608.000000	87.260578
607.000000	86.858365
606.000000	86.264703
605.000000	85.403847
604.000000	84.143456
603.000000	82.285219
602.000000	79.572161
601.000000	75.749996
600.000000	70.731531
599.000000	64.856365
598.000000	58.997958
597.000000	54.308576
596.000000	51.746206
595.000000	51.686886
594.000000	53.815454
593.000000	57.346572
592.000000	61.442469
591.000000	65.463810
590.000000	69.036360
589.000000	72.052187
588.000000	74.565185
587.000000	76.665134
586.000000	78.418691
585.000000	79.882271
584.000000	81.101131
583.000000	82.114399
582.000000	82.967043
581.000000	83.711465
580.000000	84.381035
579.000000	84.975008
578.000000	85.500779
577.000000	85.992370
576.000000	86.466422
575.000000	86.888290
574.000000	87.205919
573.000000	87.400326
572.000000	87.478508
571.000000	87.455678
570.000000	87.374161
569.000000	87.305827
568.000000	87.309116
567.000000	87.399460
566.000000	87.569312
565.000000	87.810443
564.000000	88.095840
563.000000	88.368828
562.000000	88.577181
561.000000	88.705175
560.000000	88.758652
559.000000	88.745002
558.000000	88.686366
557.000000	88.621072
556.000000	88.570263
555.000000	88.527746
554.000000	88.493768
553.000000	88.489069
552.000000	88.524158
551.000000	88.587049
550.000000	88.674941
549.000000	88.806888
548.000000	88.987762
547.000000	89.188706
546.000000	89.375801
545.000000	89.528515
544.000000	89.615264
543.000000	89.591735
542.000000	89.449264
541.000000	89.235799
540.000000	89.011701
539.000000	88.818979
538.000000	88.701200
537.000000	88.708038
536.000000	88.852014
535.000000	89.088925
534.000000	89.355812
533.000000	89.606439
532.000000	89.797267
531.000000	89.876889
530.000000	89.821735
529.000000	89.654989
528.000000	89.413836
527.000000	89.136559
526.000000	88.883904
525.000000	88.714915
524.000000	88.621492
523.000000	88.528901
522.000000	88.376785
521.000000	88.158556
520.000000	87.878375
519.000000	87.523406
518.000000	87.101373
517.000000	86.664329
516.000000	86.263649
515.000000	85.914855
514.000000	85.619217
513.000000	85.380545
512.000000	85.176119
511.000000	84.946344
510.000000	84.639871
509.000000	84.248314
508.000000	83.771554
507.000000	83.183349
506.000000	82.445498
505.000000	81.525950
504.000000	80.410235
503.000000	79.157652
502.000000	77.960949
501.000000	77.070539
500.000000	76.624862
499.000000	76.601885
498.000000	76.913843
497.000000	77.457305
496.000000	78.101194
495.000000	78.713335
494.000000	79.224900
493.000000	79.658103
492.000000	80.068195
491.000000	80.497622
490.000000	80.981931
489.000000	81.548968
488.000000	82.183067
487.000000	82.824106
486.000000	83.427953
485.000000	83.999060
484.000000	84.544690
483.000000	85.032608
482.000000	85.426958
481.000000	85.729002
480.000000	85.954675
479.000000	86.121909
478.000000	86.275058
477.000000	86.471484
476.000000	86.716595
475.000000	86.958789
474.000000	87.174297
473.000000	87.399657
472.000000	87.640473
471.000000	87.818876
470.000000	87.855264
469.000000	87.753552
468.000000	87.573061
467.000000	87.370520
466.000000	87.190928
465.000000	87.071394
464.000000	87.022377
463.000000	87.018494
462.000000	87.024683
461.000000	87.010847
460.000000	86.946341
459.000000	86.833042
458.000000	86.762289
457.000000	86.849376
456.000000	87.068940
455.000000	87.263790
454.000000	87.328851
453.000000	87.276224
452.000000	87.127705
451.000000	86.844171
450.000000	86.395781
449.000000	85.835597
448.000000	85.246162
447.000000	84.653577
446.000000	84.031503
445.000000	83.330250
444.000000	82.451093
443.000000	81.237222
442.000000	79.566097
441.000000	77.454710
440.000000	75.032736
439.000000	72.487515
438.000000	70.080059
437.000000	68.171838
436.000000	67.118497
435.000000	67.071380
434.000000	67.894048
433.000000	69.315618
432.000000	71.111414
431.000000	73.069909
430.000000	74.991850
429.000000	76.799857
428.000000	78.517341
427.000000	80.133751
426.000000	81.599476
425.000000	82.913148
424.000000	84.058341
423.000000	84.913913
422.000000	85.362307
421.000000	85.454652
420.000000	85.396483
419.000000	85.467935
418.000000	85.858959
417.000000	86.529750
416.000000	87.297682
415.000000	87.991801
414.000000	88.525641
413.000000	88.924469
412.000000	89.207389
411.000000	89.289061
410.000000	89.145513
409.000000	88.948093
408.000000	88.862301
407.000000	88.858568
406.000000	88.868659
405.000000	88.931583
404.000000	89.030490
403.000000	88.976154
402.000000	88.633854
401.000000	88.133348
400.000000	87.659565
