PE IR       SUBTECH     SPECTRUM    ASCII       PEDS        4.00        
   -1
23ms125,126,130_nitrito.asc
24/08/30
17:45:30.00
24/08/30
17:45:30.00
Administrator
Sample 1077 By Administrator Date Friday, August 30 2024
400.000000
#HDR
-1
-1
#GR
cm-1
%T
1.0
0.0
4000.000000
-1.000000
3601
8
95.693539
34.313973
#DATA
4000.000000	84.995127
3999.000000	85.015020
3998.000000	85.035513
3997.000000	85.058247
3996.000000	85.083909
3995.000000	85.111886
3994.000000	85.140143
3993.000000	85.166640
3992.000000	85.191420
3991.000000	85.216543
3990.000000	85.243124
3989.000000	85.269562
3988.000000	85.293889
3987.000000	85.316736
3986.000000	85.340550
3985.000000	85.366351
3984.000000	85.392991
3983.000000	85.419047
3982.000000	85.443897
3981.000000	85.467056
3980.000000	85.487716
3979.000000	85.505835
3978.000000	85.523579
3977.000000	85.544194
3976.000000	85.568899
3975.000000	85.595474
3974.000000	85.620829
3973.000000	85.644248
3972.000000	85.667097
3971.000000	85.691233
3970.000000	85.717433
3969.000000	85.744348
3968.000000	85.768603
3967.000000	85.787097
3966.000000	85.799253
3965.000000	85.808191
3964.000000	85.819690
3963.000000	85.838456
3962.000000	85.865143
3961.000000	85.895763
3960.000000	85.923910
3959.000000	85.946811
3958.000000	85.967253
3957.000000	85.988859
3956.000000	86.010964
3955.000000	86.030106
3954.000000	86.044606
3953.000000	86.055618
3952.000000	86.065851
3951.000000	86.078551
3950.000000	86.095746
3949.000000	86.115055
3948.000000	86.131324
3947.000000	86.140739
3946.000000	86.143843
3945.000000	86.148902
3944.000000	86.170634
3943.000000	86.216794
3942.000000	86.275719
3941.000000	86.325188
3940.000000	86.353361
3939.000000	86.368486
3938.000000	86.384534
3937.000000	86.402638
3936.000000	86.411670
3935.000000	86.407102
3934.000000	86.404411
3933.000000	86.424515
3932.000000	86.469728
3931.000000	86.520243
3930.000000	86.554366
3929.000000	86.568708
3928.000000	86.574174
3927.000000	86.582603
3926.000000	86.602725
3925.000000	86.638531
3924.000000	86.679659
3923.000000	86.703955
3922.000000	86.700698
3921.000000	86.684964
3920.000000	86.680522
3919.000000	86.695325
3918.000000	86.722459
3917.000000	86.758895
3916.000000	86.805603
3915.000000	86.855655
3914.000000	86.898279
3913.000000	86.936037
3912.000000	86.976683
3911.000000	87.018366
3910.000000	87.047471
3909.000000	87.055489
3908.000000	87.046081
3907.000000	87.026576
3906.000000	87.000274
3905.000000	86.970328
3904.000000	86.942078
3903.000000	86.917476
3902.000000	86.897272
3901.000000	86.890858
3900.000000	86.916821
3899.000000	86.979931
3898.000000	87.054921
3897.000000	87.113781
3896.000000	87.152865
3895.000000	87.190767
3894.000000	87.239950
3893.000000	87.295730
3892.000000	87.342745
3891.000000	87.376163
3890.000000	87.392928
3889.000000	87.378362
3888.000000	87.328931
3887.000000	87.282079
3886.000000	87.288871
3885.000000	87.350026
3884.000000	87.404778
3883.000000	87.409980
3882.000000	87.395805
3881.000000	87.419656
3880.000000	87.489838
3879.000000	87.560482
3878.000000	87.587108
3877.000000	87.570852
3876.000000	87.552861
3875.000000	87.577310
3874.000000	87.647120
3873.000000	87.709331
3872.000000	87.707171
3871.000000	87.655084
3870.000000	87.627105
3869.000000	87.657224
3868.000000	87.690715
3867.000000	87.673527
3866.000000	87.641202
3865.000000	87.669984
3864.000000	87.761652
3863.000000	87.846495
3862.000000	87.880324
3861.000000	87.885460
3860.000000	87.898006
3859.000000	87.938641
3858.000000	88.010357
3857.000000	88.096299
3856.000000	88.154499
3855.000000	88.149065
3854.000000	88.100779
3853.000000	88.061612
3852.000000	88.039114
3851.000000	88.013665
3850.000000	87.995818
3849.000000	88.015894
3848.000000	88.076517
3847.000000	88.149398
3846.000000	88.210428
3845.000000	88.256588
3844.000000	88.290419
3843.000000	88.317858
3842.000000	88.339470
3841.000000	88.350294
3840.000000	88.348851
3839.000000	88.342810
3838.000000	88.337693
3837.000000	88.338208
3836.000000	88.349767
3835.000000	88.374601
3834.000000	88.408730
3833.000000	88.448435
3832.000000	88.495156
3831.000000	88.546570
3830.000000	88.590632
3829.000000	88.619633
3828.000000	88.639389
3827.000000	88.670615
3826.000000	88.724528
3825.000000	88.778081
3824.000000	88.788335
3823.000000	88.750889
3822.000000	88.718687
3821.000000	88.743768
3820.000000	88.805205
3819.000000	88.833472
3818.000000	88.807077
3817.000000	88.779303
3816.000000	88.817067
3815.000000	88.915103
3814.000000	88.998862
3813.000000	89.026088
3812.000000	89.034295
3811.000000	89.071676
3810.000000	89.132722
3809.000000	89.173113
3808.000000	89.174844
3807.000000	89.173877
3806.000000	89.200504
3805.000000	89.228463
3804.000000	89.217235
3803.000000	89.180338
3802.000000	89.169911
3801.000000	89.207305
3800.000000	89.247666
3799.000000	89.246376
3798.000000	89.230347
3797.000000	89.256847
3796.000000	89.340294
3795.000000	89.436915
3794.000000	89.499969
3793.000000	89.527925
3792.000000	89.551462
3791.000000	89.587427
3790.000000	89.626917
3789.000000	89.658029
3788.000000	89.682992
3787.000000	89.709337
3786.000000	89.738181
3785.000000	89.765842
3784.000000	89.787610
3783.000000	89.795610
3782.000000	89.785737
3781.000000	89.773678
3780.000000	89.785206
3779.000000	89.827924
3778.000000	89.879479
3777.000000	89.913540
3776.000000	89.927289
3775.000000	89.941300
3774.000000	89.968066
3773.000000	89.991714
3772.000000	89.990405
3771.000000	89.975030
3770.000000	89.974924
3769.000000	89.992172
3768.000000	90.002823
3767.000000	90.001073
3766.000000	90.011330
3765.000000	90.052525
3764.000000	90.104728
3763.000000	90.127318
3762.000000	90.110068
3761.000000	90.094081
3760.000000	90.116879
3759.000000	90.162534
3758.000000	90.195175
3757.000000	90.213730
3756.000000	90.231405
3755.000000	90.240072
3754.000000	90.228022
3753.000000	90.208770
3752.000000	90.199713
3751.000000	90.182385
3750.000000	90.139982
3749.000000	90.110278
3748.000000	90.121221
3747.000000	90.136543
3746.000000	90.122633
3745.000000	90.112573
3744.000000	90.159677
3743.000000	90.236686
3742.000000	90.268343
3741.000000	90.255803
3740.000000	90.253988
3739.000000	90.274046
3738.000000	90.282157
3737.000000	90.279184
3736.000000	90.318076
3735.000000	90.409755
3734.000000	90.490697
3733.000000	90.521189
3732.000000	90.536234
3731.000000	90.575388
3730.000000	90.628303
3729.000000	90.663465
3728.000000	90.682413
3727.000000	90.718230
3726.000000	90.783773
3725.000000	90.846374
3724.000000	90.877817
3723.000000	90.895168
3722.000000	90.925507
3721.000000	90.971729
3720.000000	91.019215
3719.000000	91.056924
3718.000000	91.087456
3717.000000	91.120144
3716.000000	91.149281
3715.000000	91.157205
3714.000000	91.141359
3713.000000	91.124055
3712.000000	91.126178
3711.000000	91.142582
3710.000000	91.160280
3709.000000	91.181865
3708.000000	91.216586
3707.000000	91.268124
3706.000000	91.328133
3705.000000	91.381889
3704.000000	91.422302
3703.000000	91.457014
3702.000000	91.495156
3701.000000	91.533601
3700.000000	91.562466
3699.000000	91.575923
3698.000000	91.582475
3697.000000	91.602163
3696.000000	91.638716
3695.000000	91.666135
3694.000000	91.663259
3693.000000	91.646910
3692.000000	91.648063
3691.000000	91.668644
3690.000000	91.679661
3689.000000	91.664073
3688.000000	91.643152
3687.000000	91.643921
3686.000000	91.662259
3685.000000	91.685674
3684.000000	91.716907
3683.000000	91.756144
3682.000000	91.789310
3681.000000	91.805067
3680.000000	91.817237
3679.000000	91.830710
3678.000000	91.811863
3677.000000	91.740669
3676.000000	91.669580
3675.000000	91.655232
3674.000000	91.665047
3673.000000	91.632027
3672.000000	91.559285
3671.000000	91.527337
3670.000000	91.592544
3669.000000	91.704566
3668.000000	91.779555
3667.000000	91.806510
3666.000000	91.823477
3665.000000	91.856917
3664.000000	91.903256
3663.000000	91.943755
3662.000000	91.968704
3661.000000	91.980665
3660.000000	91.982116
3659.000000	91.964236
3658.000000	91.921462
3657.000000	91.867240
3656.000000	91.824296
3655.000000	91.790467
3654.000000	91.735742
3653.000000	91.643084
3652.000000	91.539098
3651.000000	91.468780
3650.000000	91.439003
3649.000000	91.408322
3648.000000	91.362294
3647.000000	91.337808
3646.000000	91.353005
3645.000000	91.388349
3644.000000	91.427360
3643.000000	91.473480
3642.000000	91.529180
3641.000000	91.577836
3640.000000	91.596686
3639.000000	91.583335
3638.000000	91.553007
3637.000000	91.512209
3636.000000	91.456131
3635.000000	91.392333
3634.000000	91.342334
3633.000000	91.304610
3632.000000	91.241719
3631.000000	91.129259
3630.000000	91.006254
3629.000000	90.937978
3628.000000	90.921812
3627.000000	90.904689
3626.000000	90.869826
3625.000000	90.843418
3624.000000	90.844846
3623.000000	90.859481
3622.000000	90.853584
3621.000000	90.815030
3620.000000	90.762557
3619.000000	90.710563
3618.000000	90.651897
3617.000000	90.579816
3616.000000	90.501311
3615.000000	90.435229
3614.000000	90.398381
3613.000000	90.382483
3612.000000	90.355430
3611.000000	90.295829
3610.000000	90.221826
3609.000000	90.178095
3608.000000	90.185212
3607.000000	90.216490
3606.000000	90.234596
3605.000000	90.228571
3604.000000	90.211101
3603.000000	90.194790
3602.000000	90.179492
3601.000000	90.159183
3600.000000	90.129699
3599.000000	90.084850
3598.000000	90.026478
3597.000000	89.967748
3596.000000	89.921641
3595.000000	89.889132
3594.000000	89.859625
3593.000000	89.816495
3592.000000	89.748520
3591.000000	89.655529
3590.000000	89.554836
3589.000000	89.481820
3588.000000	89.461760
3587.000000	89.476113
3586.000000	89.482850
3585.000000	89.464632
3584.000000	89.435580
3583.000000	89.414902
3582.000000	89.408844
3581.000000	89.410647
3580.000000	89.410429
3579.000000	89.400780
3578.000000	89.379100
3577.000000	89.346970
3576.000000	89.307516
3575.000000	89.262580
3574.000000	89.211985
3573.000000	89.152254
3572.000000	89.077107
3571.000000	88.980760
3570.000000	88.865131
3569.000000	88.752947
3568.000000	88.679041
3567.000000	88.652609
3566.000000	88.643501
3565.000000	88.623048
3564.000000	88.592612
3563.000000	88.570897
3562.000000	88.569384
3561.000000	88.581796
3560.000000	88.591268
3559.000000	88.583444
3558.000000	88.553265
3557.000000	88.504683
3556.000000	88.446876
3555.000000	88.389935
3554.000000	88.341678
3553.000000	88.304337
3552.000000	88.270228
3551.000000	88.224467
3550.000000	88.155888
3549.000000	88.069963
3548.000000	87.988009
3547.000000	87.929533
3546.000000	87.895332
3545.000000	87.872532
3544.000000	87.851150
3543.000000	87.829761
3542.000000	87.808788
3541.000000	87.785512
3540.000000	87.756093
3539.000000	87.718628
3538.000000	87.675387
3537.000000	87.631670
3536.000000	87.590867
3535.000000	87.551318
3534.000000	87.509190
3533.000000	87.464323
3532.000000	87.420038
3531.000000	87.376673
3530.000000	87.328900
3529.000000	87.272013
3528.000000	87.208367
3527.000000	87.144709
3526.000000	87.087157
3525.000000	87.041657
3524.000000	87.013134
3523.000000	86.998436
3522.000000	86.984933
3521.000000	86.961234
3520.000000	86.927169
3519.000000	86.889877
3518.000000	86.853683
3517.000000	86.817004
3516.000000	86.777368
3515.000000	86.735357
3514.000000	86.692204
3513.000000	86.646841
3512.000000	86.598967
3511.000000	86.551389
3510.000000	86.505506
3509.000000	86.457317
3508.000000	86.401010
3507.000000	86.335769
3506.000000	86.268381
3505.000000	86.209652
3504.000000	86.166008
3503.000000	86.133122
3502.000000	86.099736
3501.000000	86.058200
3500.000000	86.009557
3499.000000	85.958572
3498.000000	85.908162
3497.000000	85.858724
3496.000000	85.809745
3495.000000	85.760585
3494.000000	85.711049
3493.000000	85.661572
3492.000000	85.612396
3491.000000	85.562070
3490.000000	85.507492
3489.000000	85.446632
3488.000000	85.380351
3487.000000	85.310292
3486.000000	85.237742
3485.000000	85.166152
3484.000000	85.101993
3483.000000	85.049853
3482.000000	85.006393
3481.000000	84.961758
3480.000000	84.907127
3479.000000	84.840185
3478.000000	84.764879
3477.000000	84.688488
3476.000000	84.617984
3475.000000	84.556018
3474.000000	84.500386
3473.000000	84.447260
3472.000000	84.393211
3471.000000	84.334383
3470.000000	84.266198
3469.000000	84.186422
3468.000000	84.098333
3467.000000	84.008683
3466.000000	83.923256
3465.000000	83.845354
3464.000000	83.776574
3463.000000	83.715726
3462.000000	83.657015
3461.000000	83.592518
3460.000000	83.517696
3459.000000	83.433859
3458.000000	83.346116
3457.000000	83.259773
3456.000000	83.178674
3455.000000	83.104193
3454.000000	83.034278
3453.000000	82.964481
3452.000000	82.889758
3451.000000	82.805461
3450.000000	82.709461
3449.000000	82.605312
3448.000000	82.501676
3447.000000	82.405157
3446.000000	82.315213
3445.000000	82.228685
3444.000000	82.145909
3443.000000	82.068283
3442.000000	81.991826
3441.000000	81.908056
3440.000000	81.812260
3439.000000	81.707800
3438.000000	81.601388
3437.000000	81.496623
3436.000000	81.393737
3435.000000	81.292109
3434.000000	81.190365
3433.000000	81.086143
3432.000000	80.976703
3431.000000	80.859747
3430.000000	80.734390
3429.000000	80.602411
3428.000000	80.468294
3427.000000	80.336161
3426.000000	80.207141
3425.000000	80.080066
3424.000000	79.953376
3423.000000	79.825366
3422.000000	79.693594
3421.000000	79.555807
3420.000000	79.411377
3419.000000	79.261329
3418.000000	79.107828
3417.000000	78.954090
3416.000000	78.803062
3415.000000	78.654506
3414.000000	78.504249
3413.000000	78.347716
3412.000000	78.182984
3411.000000	78.009939
3410.000000	77.828515
3409.000000	77.639688
3408.000000	77.446910
3407.000000	77.254178
3406.000000	77.063617
3405.000000	76.875387
3404.000000	76.687886
3403.000000	76.496938
3402.000000	76.296312
3401.000000	76.081516
3400.000000	75.853145
3399.000000	75.615868
3398.000000	75.375008
3397.000000	75.134108
3396.000000	74.894289
3395.000000	74.654529
3394.000000	74.412076
3393.000000	74.163189
3392.000000	73.903812
3391.000000	73.630713
3390.000000	73.344279
3389.000000	73.049610
3388.000000	72.753282
3387.000000	72.458489
3386.000000	72.164078
3385.000000	71.867584
3384.000000	71.566149
3383.000000	71.255637
3382.000000	70.932066
3381.000000	70.595038
3380.000000	70.247970
3379.000000	69.894447
3378.000000	69.536497
3377.000000	69.176051
3376.000000	68.814672
3375.000000	68.451031
3374.000000	68.080725
3373.000000	67.699585
3372.000000	67.306022
3371.000000	66.899867
3370.000000	66.482545
3369.000000	66.058335
3368.000000	65.632813
3367.000000	65.208640
3366.000000	64.783929
3365.000000	64.355273
3364.000000	63.919779
3363.000000	63.474417
3362.000000	63.017075
3361.000000	62.549298
3360.000000	62.075918
3359.000000	61.600886
3358.000000	61.125081
3357.000000	60.648445
3356.000000	60.170616
3355.000000	59.689261
3354.000000	59.200572
3353.000000	58.702706
3352.000000	58.197206
3351.000000	57.686844
3350.000000	57.174414
3349.000000	56.663296
3348.000000	56.156006
3347.000000	55.651569
3346.000000	55.146380
3345.000000	54.638165
3344.000000	54.126743
3343.000000	53.611547
3342.000000	53.091729
3341.000000	52.568788
3340.000000	52.046559
3339.000000	51.528444
3338.000000	51.016608
3337.000000	50.512818
3336.000000	50.016835
3335.000000	49.524562
3334.000000	49.031122
3333.000000	48.535860
3332.000000	48.041645
3331.000000	47.550545
3330.000000	47.063262
3329.000000	46.581692
3328.000000	46.108560
3327.000000	45.644470
3326.000000	45.188753
3325.000000	44.742105
3324.000000	44.304656
3323.000000	43.873183
3322.000000	43.444026
3321.000000	43.018246
3320.000000	42.600589
3319.000000	42.193630
3318.000000	41.797396
3317.000000	41.412578
3316.000000	41.040027
3315.000000	40.677676
3314.000000	40.321617
3313.000000	39.970367
3312.000000	39.624788
3311.000000	39.285293
3310.000000	38.953462
3309.000000	38.634171
3308.000000	38.332645
3307.000000	38.049776
3306.000000	37.783589
3305.000000	37.533899
3304.000000	37.299989
3303.000000	37.076971
3302.000000	36.858964
3301.000000	36.645182
3300.000000	36.439173
3299.000000	36.242918
3298.000000	36.056525
3297.000000	35.881956
3296.000000	35.721293
3295.000000	35.572742
3294.000000	35.432447
3293.000000	35.300094
3292.000000	35.178802
3291.000000	35.069614
3290.000000	34.971363
3289.000000	34.883806
3288.000000	34.807228
3287.000000	34.739551
3286.000000	34.677406
3285.000000	34.620115
3284.000000	34.568209
3283.000000	34.520123
3282.000000	34.474295
3281.000000	34.432807
3280.000000	34.399251
3279.000000	34.373748
3278.000000	34.354042
3277.000000	34.339905
3276.000000	34.331889
3275.000000	34.327330
3274.000000	34.322119
3273.000000	34.316214
3272.000000	34.313973
3271.000000	34.319403
3270.000000	34.334318
3269.000000	34.359282
3268.000000	34.392364
3267.000000	34.428241
3266.000000	34.461872
3265.000000	34.492652
3264.000000	34.522430
3263.000000	34.551480
3262.000000	34.580060
3261.000000	34.611000
3260.000000	34.646792
3259.000000	34.685681
3258.000000	34.724306
3257.000000	34.762875
3256.000000	34.803811
3255.000000	34.847074
3254.000000	34.890577
3253.000000	34.934005
3252.000000	34.978413
3251.000000	35.023281
3250.000000	35.067529
3249.000000	35.112295
3248.000000	35.159546
3247.000000	35.209059
3246.000000	35.259467
3245.000000	35.310626
3244.000000	35.362168
3243.000000	35.411871
3242.000000	35.458719
3241.000000	35.505345
3240.000000	35.554444
3239.000000	35.604497
3238.000000	35.652156
3237.000000	35.696587
3236.000000	35.738738
3235.000000	35.778795
3234.000000	35.817811
3233.000000	35.859480
3232.000000	35.906193
3231.000000	35.955220
3230.000000	36.002197
3229.000000	36.046313
3228.000000	36.088894
3227.000000	36.129297
3226.000000	36.166010
3225.000000	36.200040
3224.000000	36.233128
3223.000000	36.264441
3222.000000	36.292465
3221.000000	36.318360
3220.000000	36.343984
3219.000000	36.368264
3218.000000	36.389086
3217.000000	36.406898
3216.000000	36.423191
3215.000000	36.437315
3214.000000	36.447896
3213.000000	36.455947
3212.000000	36.463148
3211.000000	36.468646
3210.000000	36.470728
3209.000000	36.469700
3208.000000	36.466369
3207.000000	36.459502
3206.000000	36.447858
3205.000000	36.433035
3204.000000	36.417012
3203.000000	36.398945
3202.000000	36.377325
3201.000000	36.353061
3200.000000	36.327616
3199.000000	36.299907
3198.000000	36.268288
3197.000000	36.233495
3196.000000	36.196641
3195.000000	36.156693
3194.000000	36.112886
3193.000000	36.067552
3192.000000	36.023365
3191.000000	35.979703
3190.000000	35.934892
3189.000000	35.889481
3188.000000	35.844187
3187.000000	35.797019
3186.000000	35.745886
3185.000000	35.692087
3184.000000	35.638153
3183.000000	35.584416
3182.000000	35.530672
3181.000000	35.478860
3180.000000	35.430626
3179.000000	35.384182
3178.000000	35.336699
3177.000000	35.287984
3176.000000	35.239051
3175.000000	35.189546
3174.000000	35.139755
3173.000000	35.092816
3172.000000	35.051514
3171.000000	35.014950
3170.000000	34.980966
3169.000000	34.949355
3168.000000	34.919916
3167.000000	34.890043
3166.000000	34.857914
3165.000000	34.825714
3164.000000	34.796760
3163.000000	34.771808
3162.000000	34.750708
3161.000000	34.735092
3160.000000	34.725777
3159.000000	34.719851
3158.000000	34.713675
3157.000000	34.706489
3156.000000	34.698870
3155.000000	34.690640
3154.000000	34.683639
3153.000000	34.683780
3152.000000	34.695956
3151.000000	34.718967
3150.000000	34.747981
3149.000000	34.779705
3148.000000	34.812417
3147.000000	34.843886
3146.000000	34.873346
3145.000000	34.903517
3144.000000	34.937273
3143.000000	34.974396
3142.000000	35.014129
3141.000000	35.058697
3140.000000	35.110934
3139.000000	35.170296
3138.000000	35.234223
3137.000000	35.301169
3136.000000	35.370014
3135.000000	35.439106
3134.000000	35.508342
3133.000000	35.580409
3132.000000	35.657321
3131.000000	35.738383
3130.000000	35.823209
3129.000000	35.913275
3128.000000	36.008200
3127.000000	36.103751
3126.000000	36.196517
3125.000000	36.287768
3124.000000	36.379964
3123.000000	36.472901
3122.000000	36.566526
3121.000000	36.664284
3120.000000	36.769715
3119.000000	36.881808
3118.000000	36.997259
3117.000000	37.114941
3116.000000	37.235248
3115.000000	37.357444
3114.000000	37.480479
3113.000000	37.604697
3112.000000	37.730200
3111.000000	37.855906
3110.000000	37.982459
3109.000000	38.113185
3108.000000	38.249544
3107.000000	38.388097
3106.000000	38.524520
3105.000000	38.658305
3104.000000	38.791227
3103.000000	38.924016
3102.000000	39.057727
3101.000000	39.195479
3100.000000	39.339602
3099.000000	39.488549
3098.000000	39.639280
3097.000000	39.790348
3096.000000	39.940470
3095.000000	40.087007
3094.000000	40.228970
3093.000000	40.369572
3092.000000	40.513282
3091.000000	40.662009
3090.000000	40.815768
3089.000000	40.974051
3088.000000	41.134142
3087.000000	41.290943
3086.000000	41.441660
3085.000000	41.588845
3084.000000	41.736731
3083.000000	41.886738
3082.000000	42.038901
3081.000000	42.194702
3080.000000	42.355413
3079.000000	42.519533
3078.000000	42.684476
3077.000000	42.848992
3076.000000	43.011965
3075.000000	43.171462
3074.000000	43.327307
3073.000000	43.482634
3072.000000	43.640295
3071.000000	43.799533
3070.000000	43.958301
3069.000000	44.116567
3068.000000	44.275031
3067.000000	44.432672
3066.000000	44.588262
3065.000000	44.742748
3064.000000	44.898018
3063.000000	45.054815
3062.000000	45.213507
3061.000000	45.374703
3060.000000	45.537175
3059.000000	45.697305
3058.000000	45.852589
3057.000000	46.004056
3056.000000	46.153663
3055.000000	46.301806
3054.000000	46.449057
3053.000000	46.598048
3052.000000	46.751138
3051.000000	46.907662
3050.000000	47.065119
3049.000000	47.221067
3048.000000	47.372770
3047.000000	47.517734
3046.000000	47.656911
3045.000000	47.795257
3044.000000	47.937284
3043.000000	48.083775
3042.000000	48.233933
3041.000000	48.387498
3040.000000	48.542639
3039.000000	48.694501
3038.000000	48.838944
3037.000000	48.976289
3036.000000	49.109799
3035.000000	49.242527
3034.000000	49.377312
3033.000000	49.517059
3032.000000	49.662086
3031.000000	49.808906
3030.000000	49.953679
3029.000000	50.095283
3028.000000	50.233750
3027.000000	50.368320
3026.000000	50.499541
3025.000000	50.630927
3024.000000	50.765789
3023.000000	50.903624
3022.000000	51.041565
3021.000000	51.177720
3020.000000	51.311295
3019.000000	51.441074
3018.000000	51.566395
3017.000000	51.688394
3016.000000	51.808799
3015.000000	51.928816
3014.000000	52.050480
3013.000000	52.177132
3012.000000	52.310344
3011.000000	52.447834
3010.000000	52.585733
3009.000000	52.721479
3008.000000	52.853417
3007.000000	52.980044
3006.000000	53.101769
3005.000000	53.221765
3004.000000	53.343278
3003.000000	53.467016
3002.000000	53.592255
3001.000000	53.718346
3000.000000	53.843866
2999.000000	53.966329
2998.000000	54.084771
2997.000000	54.200876
2996.000000	54.316292
2995.000000	54.430982
2994.000000	54.545744
2993.000000	54.663898
2992.000000	54.787808
2991.000000	54.915273
2990.000000	55.041483
2989.000000	55.163254
2988.000000	55.279746
2987.000000	55.391042
2986.000000	55.498509
2985.000000	55.605338
2984.000000	55.714550
2983.000000	55.826991
2982.000000	55.942418
2981.000000	56.060764
2980.000000	56.180641
2979.000000	56.298177
2978.000000	56.409855
2977.000000	56.516004
2976.000000	56.620224
2975.000000	56.726371
2974.000000	56.837261
2973.000000	56.954526
2972.000000	57.077605
2971.000000	57.203620
2970.000000	57.329843
2969.000000	57.455675
2968.000000	57.581524
2967.000000	57.707424
2966.000000	57.834251
2965.000000	57.964601
2964.000000	58.100407
2963.000000	58.240329
2962.000000	58.380586
2961.000000	58.517280
2960.000000	58.646790
2959.000000	58.766093
2958.000000	58.874454
2957.000000	58.973919
2956.000000	59.066645
2955.000000	59.153011
2954.000000	59.233548
2953.000000	59.310480
2952.000000	59.385730
2951.000000	59.458705
2950.000000	59.528431
2949.000000	59.596788
2948.000000	59.668101
2947.000000	59.746550
2946.000000	59.834944
2945.000000	59.934607
2944.000000	60.044257
2943.000000	60.159941
2942.000000	60.277564
2941.000000	60.395267
2940.000000	60.512976
2939.000000	60.631258
2938.000000	60.752022
2937.000000	60.878644
2936.000000	61.013650
2935.000000	61.156923
2934.000000	61.307043
2933.000000	61.463057
2932.000000	61.623989
2931.000000	61.788524
2930.000000	61.957377
2929.000000	62.134684
2928.000000	62.325575
2927.000000	62.533101
2926.000000	62.758304
2925.000000	63.001574
2924.000000	63.261765
2923.000000	63.535490
2922.000000	63.818461
2921.000000	64.106020
2920.000000	64.389071
2919.000000	64.648385
2918.000000	64.855028
2917.000000	64.977234
2916.000000	64.992731
2915.000000	64.900228
2914.000000	64.724077
2913.000000	64.506474
2912.000000	64.290562
2911.000000	64.105851
2910.000000	63.964896
2909.000000	63.868764
2908.000000	63.812034
2907.000000	63.786448
2906.000000	63.783633
2905.000000	63.797139
2904.000000	63.821981
2903.000000	63.853744
2902.000000	63.889179
2901.000000	63.927771
2900.000000	63.969364
2899.000000	64.013174
2898.000000	64.057860
2897.000000	64.102276
2896.000000	64.145389
2895.000000	64.186628
2894.000000	64.227062
2893.000000	64.268955
2892.000000	64.312932
2891.000000	64.356803
2890.000000	64.398145
2889.000000	64.436798
2888.000000	64.473777
2887.000000	64.509326
2886.000000	64.543518
2885.000000	64.577546
2884.000000	64.612684
2883.000000	64.648731
2882.000000	64.684663
2881.000000	64.719999
2880.000000	64.754419
2879.000000	64.787446
2878.000000	64.820048
2877.000000	64.855542
2876.000000	64.897027
2875.000000	64.944238
2874.000000	64.994173
2873.000000	65.044164
2872.000000	65.093285
2871.000000	65.141943
2870.000000	65.191829
2869.000000	65.246092
2868.000000	65.308054
2867.000000	65.379798
2866.000000	65.462676
2865.000000	65.557994
2864.000000	65.665953
2863.000000	65.784478
2862.000000	65.910463
2861.000000	66.042062
2860.000000	66.179258
2859.000000	66.323712
2858.000000	66.479713
2857.000000	66.654806
2856.000000	66.858493
2855.000000	67.100020
2854.000000	67.386015
2853.000000	67.714633
2852.000000	68.065726
2851.000000	68.393633
2850.000000	68.636847
2849.000000	68.744299
2848.000000	68.702768
2847.000000	68.544907
2846.000000	68.331112
2845.000000	68.120022
2844.000000	67.948461
2843.000000	67.828194
2842.000000	67.754697
2841.000000	67.717718
2840.000000	67.706359
2839.000000	67.711451
2838.000000	67.727573
2837.000000	67.752780
2836.000000	67.786047
2835.000000	67.825519
2834.000000	67.869219
2833.000000	67.916200
2832.000000	67.966097
2831.000000	68.018070
2830.000000	68.071335
2829.000000	68.125814
2828.000000	68.181391
2827.000000	68.237220
2826.000000	68.292500
2825.000000	68.347390
2824.000000	68.402464
2823.000000	68.457909
2822.000000	68.513882
2821.000000	68.570753
2820.000000	68.628191
2819.000000	68.684779
2818.000000	68.739425
2817.000000	68.792574
2816.000000	68.845371
2815.000000	68.898437
2814.000000	68.952224
2813.000000	69.007654
2812.000000	69.065277
2811.000000	69.124286
2810.000000	69.183216
2809.000000	69.241142
2808.000000	69.297556
2807.000000	69.351930
2806.000000	69.404466
2805.000000	69.456714
2804.000000	69.510393
2803.000000	69.565849
2802.000000	69.622255
2801.000000	69.678629
2800.000000	69.733898
2799.000000	69.786764
2798.000000	69.836685
2797.000000	69.884731
2796.000000	69.932663
2795.000000	69.981545
2794.000000	70.031832
2793.000000	70.083981
2792.000000	70.137827
2791.000000	70.191759
2790.000000	70.243619
2789.000000	70.292359
2788.000000	70.338325
2787.000000	70.382495
2786.000000	70.426270
2785.000000	70.471441
2784.000000	70.519185
2783.000000	70.569041
2782.000000	70.619376
2781.000000	70.668580
2780.000000	70.715337
2779.000000	70.758561
2778.000000	70.798232
2777.000000	70.836118
2776.000000	70.874831
2775.000000	70.916207
2774.000000	70.960836
2773.000000	71.008328
2772.000000	71.057092
2771.000000	71.104456
2770.000000	71.148219
2769.000000	71.188184
2768.000000	71.225757
2767.000000	71.262544
2766.000000	71.299959
2765.000000	71.339399
2764.000000	71.381509
2763.000000	71.425303
2762.000000	71.468834
2761.000000	71.510611
2760.000000	71.549866
2759.000000	71.586067
2758.000000	71.619363
2757.000000	71.651313
2756.000000	71.684168
2755.000000	71.719319
2754.000000	71.756893
2753.000000	71.796380
2752.000000	71.836714
2751.000000	71.876000
2750.000000	71.912298
2749.000000	71.945011
2748.000000	71.975089
2747.000000	72.004078
2746.000000	72.033503
2745.000000	72.064761
2744.000000	72.098585
2743.000000	72.134444
2742.000000	72.170892
2741.000000	72.206405
2740.000000	72.239653
2739.000000	72.269609
2738.000000	72.296328
2737.000000	72.321431
2736.000000	72.347140
2735.000000	72.374926
2734.000000	72.405360
2733.000000	72.438563
2732.000000	72.473779
2731.000000	72.508876
2730.000000	72.541324
2729.000000	72.569851
2728.000000	72.594864
2727.000000	72.617860
2726.000000	72.641154
2725.000000	72.667452
2724.000000	72.698317
2723.000000	72.732895
2722.000000	72.768712
2721.000000	72.803458
2720.000000	72.835415
2719.000000	72.863010
2718.000000	72.885620
2717.000000	72.905066
2716.000000	72.925213
2715.000000	72.949538
2714.000000	72.979303
2713.000000	73.013503
2712.000000	73.049404
2711.000000	73.083192
2710.000000	73.111540
2709.000000	73.133493
2708.000000	73.150811
2707.000000	73.166635
2706.000000	73.184031
2705.000000	73.205117
2704.000000	73.230141
2703.000000	73.257001
2702.000000	73.282349
2701.000000	73.303464
2700.000000	73.319111
2699.000000	73.329275
2698.000000	73.335163
2697.000000	73.339493
2696.000000	73.345527
2695.000000	73.355236
2694.000000	73.368414
2693.000000	73.383181
2692.000000	73.396821
2691.000000	73.406549
2690.000000	73.410805
2689.000000	73.410340
2688.000000	73.407691
2687.000000	73.405593
2686.000000	73.406018
2685.000000	73.409967
2684.000000	73.416965
2683.000000	73.424667
2682.000000	73.429992
2681.000000	73.431063
2680.000000	73.427973
2679.000000	73.422222
2678.000000	73.416198
2677.000000	73.412739
2676.000000	73.413838
2675.000000	73.419323
2674.000000	73.427260
2673.000000	73.435724
2672.000000	73.443694
2671.000000	73.450827
2670.000000	73.457548
2669.000000	73.465542
2668.000000	73.477401
2667.000000	73.495135
2666.000000	73.519259
2665.000000	73.549047
2664.000000	73.582849
2663.000000	73.618564
2662.000000	73.654491
2661.000000	73.690178
2660.000000	73.726266
2659.000000	73.763576
2658.000000	73.802918
2657.000000	73.845158
2656.000000	73.890550
2655.000000	73.938005
2654.000000	73.985564
2653.000000	74.031728
2652.000000	74.075897
2651.000000	74.117983
2650.000000	74.158366
2649.000000	74.198081
2648.000000	74.238145
2647.000000	74.278630
2646.000000	74.318908
2645.000000	74.358553
2644.000000	74.397365
2643.000000	74.434695
2642.000000	74.469686
2641.000000	74.502237
2640.000000	74.532891
2639.000000	74.561927
2638.000000	74.589263
2637.000000	74.615277
2636.000000	74.640858
2635.000000	74.666421
2634.000000	74.691664
2633.000000	74.716250
2632.000000	74.739978
2631.000000	74.762287
2630.000000	74.782388
2629.000000	74.800182
2628.000000	74.816392
2627.000000	74.831721
2626.000000	74.846631
2625.000000	74.861837
2624.000000	74.878111
2623.000000	74.895243
2622.000000	74.911818
2621.000000	74.926318
2620.000000	74.937951
2619.000000	74.946649
2618.000000	74.953157
2617.000000	74.959292
2616.000000	74.967284
2615.000000	74.978329
2614.000000	74.991954
2613.000000	75.006540
2612.000000	75.019783
2611.000000	75.029087
2610.000000	75.032709
2609.000000	75.031071
2608.000000	75.026463
2607.000000	75.021295
2606.000000	75.017130
2605.000000	75.014729
2604.000000	75.013705
2603.000000	75.011912
2602.000000	75.006166
2601.000000	74.994456
2600.000000	74.977064
2599.000000	74.955828
2598.000000	74.933350
2597.000000	74.912844
2596.000000	74.897402
2595.000000	74.888481
2594.000000	74.885406
2593.000000	74.886438
2592.000000	74.890015
2591.000000	74.895087
2590.000000	74.901563
2589.000000	74.911068
2588.000000	74.926328
2587.000000	74.949783
2586.000000	74.982489
2585.000000	75.024110
2584.000000	75.073063
2583.000000	75.126254
2582.000000	75.180111
2581.000000	75.232359
2580.000000	75.282825
2579.000000	75.332816
2578.000000	75.384081
2577.000000	75.438454
2576.000000	75.497153
2575.000000	75.559797
2574.000000	75.624481
2573.000000	75.688983
2572.000000	75.751745
2571.000000	75.811958
2570.000000	75.869690
2569.000000	75.926247
2568.000000	75.983589
2567.000000	76.042959
2566.000000	76.104304
2565.000000	76.166990
2564.000000	76.230224
2563.000000	76.292685
2562.000000	76.352595
2561.000000	76.408757
2560.000000	76.461255
2559.000000	76.511014
2558.000000	76.559339
2557.000000	76.607841
2556.000000	76.657822
2555.000000	76.709243
2554.000000	76.760660
2553.000000	76.810531
2552.000000	76.857985
2551.000000	76.902366
2550.000000	76.943142
2549.000000	76.980626
2548.000000	77.016165
2547.000000	77.051087
2546.000000	77.085982
2545.000000	77.121226
2544.000000	77.157032
2543.000000	77.192580
2542.000000	77.225901
2541.000000	77.255182
2540.000000	77.279872
2539.000000	77.300063
2538.000000	77.315924
2537.000000	77.328245
2536.000000	77.338413
2535.000000	77.347206
2534.000000	77.353649
2533.000000	77.355701
2532.000000	77.351578
2531.000000	77.339859
2530.000000	77.319830
2529.000000	77.292296
2528.000000	77.259994
2527.000000	77.226602
2526.000000	77.195312
2525.000000	77.168428
2524.000000	77.147100
2523.000000	77.130974
2522.000000	77.118690
2521.000000	77.109545
2520.000000	77.104189
2519.000000	77.104034
2518.000000	77.110828
2517.000000	77.126511
2516.000000	77.152731
2515.000000	77.189099
2514.000000	77.232800
2513.000000	77.280315
2512.000000	77.328745
2511.000000	77.376156
2510.000000	77.421558
2509.000000	77.465613
2508.000000	77.510538
2507.000000	77.558329
2506.000000	77.609487
2505.000000	77.663262
2504.000000	77.718048
2503.000000	77.771064
2502.000000	77.818986
2501.000000	77.860136
2500.000000	77.895814
2499.000000	77.929090
2498.000000	77.962646
2497.000000	77.998228
2496.000000	78.036557
2495.000000	78.076680
2494.000000	78.115922
2493.000000	78.151392
2492.000000	78.181707
2491.000000	78.207051
2490.000000	78.228625
2489.000000	78.248669
2488.000000	78.269987
2487.000000	78.294367
2486.000000	78.321513
2485.000000	78.349756
2484.000000	78.377257
2483.000000	78.402112
2482.000000	78.422723
2481.000000	78.439086
2480.000000	78.453250
2479.000000	78.467719
2478.000000	78.483783
2477.000000	78.501753
2476.000000	78.521645
2475.000000	78.542726
2474.000000	78.563223
2473.000000	78.581514
2472.000000	78.597309
2471.000000	78.611181
2470.000000	78.623674
2469.000000	78.635589
2468.000000	78.648309
2467.000000	78.662862
2466.000000	78.679087
2465.000000	78.696234
2464.000000	78.713751
2463.000000	78.730876
2462.000000	78.746362
2461.000000	78.759501
2460.000000	78.770892
2459.000000	78.781589
2458.000000	78.792223
2457.000000	78.803522
2456.000000	78.816723
2455.000000	78.832439
2454.000000	78.849716
2453.000000	78.866930
2452.000000	78.883021
2451.000000	78.897305
2450.000000	78.909073
2449.000000	78.918469
2448.000000	78.927196
2447.000000	78.937447
2446.000000	78.950449
2445.000000	78.966429
2444.000000	78.985038
2443.000000	79.004925
2442.000000	79.023615
2441.000000	79.038890
2440.000000	79.050190
2439.000000	79.058493
2438.000000	79.065705
2437.000000	79.074528
2436.000000	79.087622
2435.000000	79.105700
2434.000000	79.126745
2433.000000	79.147604
2432.000000	79.165778
2431.000000	79.179676
2430.000000	79.188735
2429.000000	79.194552
2428.000000	79.200932
2427.000000	79.211594
2426.000000	79.227958
2425.000000	79.249218
2424.000000	79.273203
2423.000000	79.296531
2422.000000	79.315454
2421.000000	79.328256
2420.000000	79.336615
2419.000000	79.343995
2418.000000	79.353368
2417.000000	79.366756
2416.000000	79.385254
2415.000000	79.407915
2414.000000	79.431352
2413.000000	79.451724
2412.000000	79.467037
2411.000000	79.477424
2410.000000	79.484587
2409.000000	79.491791
2408.000000	79.502970
2407.000000	79.520132
2406.000000	79.541812
2405.000000	79.564528
2404.000000	79.585063
2403.000000	79.601203
2402.000000	79.612112
2401.000000	79.619492
2400.000000	79.627457
2399.000000	79.639849
2398.000000	79.657863
2397.000000	79.680411
2396.000000	79.705340
2395.000000	79.729527
2394.000000	79.749510
2393.000000	79.763946
2392.000000	79.774930
2391.000000	79.786254
2390.000000	79.801175
2389.000000	79.821653
2388.000000	79.848463
2387.000000	79.879805
2386.000000	79.911510
2385.000000	79.940543
2384.000000	79.966438
2383.000000	79.991199
2382.000000	80.017119
2381.000000	80.046852
2380.000000	80.083543
2379.000000	80.127227
2378.000000	80.174536
2377.000000	80.221066
2376.000000	80.264305
2375.000000	80.302263
2374.000000	80.333846
2373.000000	80.360775
2372.000000	80.388061
2371.000000	80.419966
2370.000000	80.455919
2369.000000	80.493941
2368.000000	80.532597
2367.000000	80.569062
2366.000000	80.599767
2365.000000	80.624005
2364.000000	80.648636
2363.000000	80.675987
2362.000000	80.703705
2361.000000	80.737442
2360.000000	80.779648
2359.000000	80.827082
2358.000000	80.872164
2357.000000	80.906518
2356.000000	80.935803
2355.000000	80.959942
2354.000000	80.986320
2353.000000	81.021243
2352.000000	81.068176
2351.000000	81.122217
2350.000000	81.162238
2349.000000	81.180439
2348.000000	81.188810
2347.000000	81.215908
2346.000000	81.279539
2345.000000	81.352687
2344.000000	81.408580
2343.000000	81.433129
2342.000000	81.445761
2341.000000	81.461466
2340.000000	81.479855
2339.000000	81.500089
2338.000000	81.519916
2337.000000	81.544950
2336.000000	81.572868
2335.000000	81.607986
2334.000000	81.646990
2333.000000	81.695656
2332.000000	81.743506
2331.000000	81.794870
2330.000000	81.835345
2329.000000	81.873432
2328.000000	81.903465
2327.000000	81.932732
2326.000000	81.964239
2325.000000	82.000440
2324.000000	82.044692
2323.000000	82.091192
2322.000000	82.134727
2321.000000	82.171130
2320.000000	82.198615
2319.000000	82.224351
2318.000000	82.247100
2317.000000	82.275342
2316.000000	82.305989
2315.000000	82.347539
2314.000000	82.391204
2313.000000	82.437508
2312.000000	82.475267
2311.000000	82.508978
2310.000000	82.535556
2309.000000	82.562404
2308.000000	82.588806
2307.000000	82.620464
2306.000000	82.654025
2305.000000	82.689837
2304.000000	82.723352
2303.000000	82.756497
2302.000000	82.785638
2301.000000	82.812820
2300.000000	82.836768
2299.000000	82.863294
2298.000000	82.891829
2297.000000	82.924108
2296.000000	82.957428
2295.000000	82.992272
2294.000000	83.025572
2293.000000	83.055168
2292.000000	83.080069
2291.000000	83.102447
2290.000000	83.124955
2289.000000	83.148818
2288.000000	83.175314
2287.000000	83.204511
2286.000000	83.235666
2285.000000	83.266271
2284.000000	83.295663
2283.000000	83.323733
2282.000000	83.350573
2281.000000	83.375665
2280.000000	83.399984
2279.000000	83.425259
2278.000000	83.451977
2277.000000	83.479630
2276.000000	83.507748
2275.000000	83.536453
2274.000000	83.564237
2273.000000	83.589393
2272.000000	83.611601
2271.000000	83.632107
2270.000000	83.651500
2269.000000	83.669959
2268.000000	83.688739
2267.000000	83.709690
2266.000000	83.732787
2265.000000	83.756606
2264.000000	83.780213
2263.000000	83.803059
2262.000000	83.823551
2261.000000	83.839415
2260.000000	83.850978
2259.000000	83.860542
2258.000000	83.870433
2257.000000	83.881947
2256.000000	83.896406
2255.000000	83.914483
2254.000000	83.933919
2253.000000	83.951019
2252.000000	83.963144
2251.000000	83.970027
2250.000000	83.971765
2249.000000	83.969746
2248.000000	83.966986
2247.000000	83.967869
2246.000000	83.973968
2245.000000	83.983544
2244.000000	83.993608
2243.000000	84.000828
2242.000000	84.001337
2241.000000	83.992739
2240.000000	83.976959
2239.000000	83.959242
2238.000000	83.944344
2237.000000	83.934682
2236.000000	83.931053
2235.000000	83.932113
2234.000000	83.933325
2233.000000	83.928947
2232.000000	83.915927
2231.000000	83.895013
2230.000000	83.869012
2229.000000	83.842189
2228.000000	83.820210
2227.000000	83.807475
2226.000000	83.803495
2225.000000	83.803322
2224.000000	83.801219
2223.000000	83.792836
2222.000000	83.775367
2221.000000	83.749044
2220.000000	83.718742
2219.000000	83.691796
2218.000000	83.673423
2217.000000	83.664944
2216.000000	83.664921
2215.000000	83.669431
2214.000000	83.671898
2213.000000	83.665999
2212.000000	83.650052
2211.000000	83.627714
2210.000000	83.604896
2209.000000	83.587443
2208.000000	83.580097
2207.000000	83.584281
2206.000000	83.596160
2205.000000	83.608802
2204.000000	83.616649
2203.000000	83.617192
2202.000000	83.610078
2201.000000	83.597626
2200.000000	83.585763
2199.000000	83.581266
2198.000000	83.587030
2197.000000	83.601075
2196.000000	83.619302
2195.000000	83.637214
2194.000000	83.650011
2193.000000	83.654546
2192.000000	83.652133
2191.000000	83.647704
2190.000000	83.645933
2189.000000	83.649331
2188.000000	83.658906
2187.000000	83.673925
2186.000000	83.690894
2185.000000	83.705152
2184.000000	83.713977
2183.000000	83.717147
2182.000000	83.715409
2181.000000	83.710600
2180.000000	83.706440
2179.000000	83.706469
2178.000000	83.711015
2177.000000	83.717874
2176.000000	83.725322
2175.000000	83.732432
2174.000000	83.737393
2173.000000	83.738350
2172.000000	83.735836
2171.000000	83.732079
2170.000000	83.728305
2169.000000	83.724778
2168.000000	83.722888
2167.000000	83.724513
2166.000000	83.729439
2165.000000	83.735642
2164.000000	83.741867
2163.000000	83.747745
2162.000000	83.751904
2161.000000	83.752632
2160.000000	83.750363
2159.000000	83.747405
2158.000000	83.745506
2157.000000	83.745737
2156.000000	83.749935
2155.000000	83.759370
2154.000000	83.771994
2153.000000	83.783364
2152.000000	83.790388
2151.000000	83.792396
2150.000000	83.789595
2149.000000	83.783227
2148.000000	83.777057
2147.000000	83.775785
2146.000000	83.781391
2145.000000	83.792387
2144.000000	83.806112
2143.000000	83.819215
2142.000000	83.827111
2141.000000	83.826238
2140.000000	83.817671
2139.000000	83.806624
2138.000000	83.798487
2137.000000	83.796752
2136.000000	83.803300
2135.000000	83.817401
2134.000000	83.834351
2133.000000	83.847744
2132.000000	83.853682
2131.000000	83.851973
2130.000000	83.844592
2129.000000	83.835604
2128.000000	83.831324
2127.000000	83.836957
2126.000000	83.852334
2125.000000	83.872485
2124.000000	83.891836
2123.000000	83.906000
2122.000000	83.911504
2121.000000	83.907819
2120.000000	83.899798
2119.000000	83.895091
2118.000000	83.898690
2117.000000	83.911392
2116.000000	83.931906
2115.000000	83.957004
2114.000000	83.980408
2113.000000	83.995733
2112.000000	84.001811
2111.000000	84.003180
2110.000000	84.005795
2109.000000	84.014595
2108.000000	84.033622
2107.000000	84.064130
2106.000000	84.101889
2105.000000	84.139374
2104.000000	84.171307
2103.000000	84.196714
2102.000000	84.216735
2101.000000	84.234189
2100.000000	84.254958
2099.000000	84.285163
2098.000000	84.326178
2097.000000	84.373629
2096.000000	84.421893
2095.000000	84.466650
2094.000000	84.504078
2093.000000	84.532189
2092.000000	84.554166
2091.000000	84.577205
2090.000000	84.606757
2089.000000	84.643484
2088.000000	84.685163
2087.000000	84.728315
2086.000000	84.767601
2085.000000	84.797486
2084.000000	84.816210
2083.000000	84.826623
2082.000000	84.833021
2081.000000	84.839285
2080.000000	84.849428
2079.000000	84.865619
2078.000000	84.885332
2077.000000	84.902260
2076.000000	84.911508
2075.000000	84.912200
2074.000000	84.905110
2073.000000	84.892490
2072.000000	84.878864
2071.000000	84.869779
2070.000000	84.867818
2069.000000	84.871210
2068.000000	84.876685
2067.000000	84.881521
2066.000000	84.883283
2065.000000	84.880391
2064.000000	84.873701
2063.000000	84.866290
2062.000000	84.861804
2061.000000	84.863757
2060.000000	84.874957
2059.000000	84.894910
2058.000000	84.918489
2057.000000	84.939780
2056.000000	84.957019
2055.000000	84.972231
2054.000000	84.987307
2053.000000	85.004235
2052.000000	85.026794
2051.000000	85.058353
2050.000000	85.097918
2049.000000	85.141335
2048.000000	85.185480
2047.000000	85.229167
2046.000000	85.270861
2045.000000	85.309365
2044.000000	85.347211
2043.000000	85.389821
2042.000000	85.440722
2041.000000	85.499547
2040.000000	85.563890
2039.000000	85.630634
2038.000000	85.696048
2037.000000	85.757605
2036.000000	85.816278
2035.000000	85.875058
2034.000000	85.935972
2033.000000	86.000515
2032.000000	86.071112
2031.000000	86.148531
2030.000000	86.228706
2029.000000	86.306269
2028.000000	86.378911
2027.000000	86.447822
2026.000000	86.513004
2025.000000	86.575234
2024.000000	86.638288
2023.000000	86.706438
2022.000000	86.779624
2021.000000	86.853732
2020.000000	86.925627
2019.000000	86.994469
2018.000000	87.059483
2017.000000	87.119937
2016.000000	87.176811
2015.000000	87.232361
2014.000000	87.288699
2013.000000	87.348427
2012.000000	87.413997
2011.000000	87.483559
2010.000000	87.549431
2009.000000	87.604725
2008.000000	87.649070
2007.000000	87.687003
2006.000000	87.721974
2005.000000	87.758219
2004.000000	87.802003
2003.000000	87.856302
2002.000000	87.916632
2001.000000	87.972876
2000.000000	88.019988
1999.000000	88.056733
1998.000000	88.082796
1997.000000	88.101079
1996.000000	88.119691
1995.000000	88.146685
1994.000000	88.185061
1993.000000	88.234885
1992.000000	88.294040
1991.000000	88.352305
1990.000000	88.393098
1989.000000	88.409259
1988.000000	88.411803
1987.000000	88.417389
1986.000000	88.432676
1985.000000	88.457253
1984.000000	88.493759
1983.000000	88.543180
1982.000000	88.595460
1981.000000	88.633937
1980.000000	88.653483
1979.000000	88.659622
1978.000000	88.658663
1977.000000	88.656305
1976.000000	88.663493
1975.000000	88.690388
1974.000000	88.733978
1973.000000	88.780818
1972.000000	88.820454
1971.000000	88.847890
1970.000000	88.857438
1969.000000	88.848095
1968.000000	88.833804
1967.000000	88.835039
1966.000000	88.857332
1965.000000	88.889903
1964.000000	88.924532
1963.000000	88.961385
1962.000000	88.995848
1961.000000	89.016125
1960.000000	89.017235
1959.000000	89.006540
1958.000000	88.994201
1957.000000	88.987545
1956.000000	88.995160
1955.000000	89.023280
1954.000000	89.064047
1953.000000	89.100960
1952.000000	89.123291
1951.000000	89.133001
1950.000000	89.132795
1949.000000	89.121869
1948.000000	89.107846
1947.000000	89.105237
1946.000000	89.118502
1945.000000	89.138548
1944.000000	89.159188
1943.000000	89.185233
1942.000000	89.216117
1941.000000	89.236097
1940.000000	89.233724
1939.000000	89.218019
1938.000000	89.204995
1937.000000	89.201495
1936.000000	89.206804
1935.000000	89.219925
1934.000000	89.238147
1933.000000	89.256345
1932.000000	89.268347
1931.000000	89.274379
1930.000000	89.275034
1929.000000	89.267563
1928.000000	89.256904
1927.000000	89.248179
1926.000000	89.244901
1925.000000	89.242319
1924.000000	89.242607
1923.000000	89.257969
1922.000000	89.287539
1921.000000	89.308906
1920.000000	89.304324
1919.000000	89.282159
1918.000000	89.266715
1917.000000	89.264360
1916.000000	89.260546
1915.000000	89.248610
1914.000000	89.238410
1913.000000	89.238059
1912.000000	89.241944
1911.000000	89.241536
1910.000000	89.234477
1909.000000	89.222210
1908.000000	89.206954
1907.000000	89.186996
1906.000000	89.169516
1905.000000	89.161065
1904.000000	89.163532
1903.000000	89.175476
1902.000000	89.189203
1901.000000	89.194478
1900.000000	89.187252
1899.000000	89.167754
1898.000000	89.142454
1897.000000	89.118556
1896.000000	89.104789
1895.000000	89.110643
1894.000000	89.134708
1893.000000	89.161207
1892.000000	89.173532
1891.000000	89.169470
1890.000000	89.160404
1889.000000	89.155164
1888.000000	89.148402
1887.000000	89.134376
1886.000000	89.121394
1885.000000	89.122291
1884.000000	89.138112
1883.000000	89.158039
1882.000000	89.168725
1881.000000	89.165069
1880.000000	89.152704
1879.000000	89.137560
1878.000000	89.124587
1877.000000	89.118970
1876.000000	89.120737
1875.000000	89.127602
1874.000000	89.137503
1873.000000	89.146696
1872.000000	89.148406
1871.000000	89.134636
1870.000000	89.107459
1869.000000	89.086972
1868.000000	89.089015
1867.000000	89.100934
1866.000000	89.102747
1865.000000	89.091291
1864.000000	89.075412
1863.000000	89.061381
1862.000000	89.047866
1861.000000	89.033779
1860.000000	89.022983
1859.000000	89.017996
1858.000000	89.015622
1857.000000	89.011365
1856.000000	89.002470
1855.000000	88.987730
1854.000000	88.967743
1853.000000	88.942378
1852.000000	88.921660
1851.000000	88.905941
1850.000000	88.892882
1849.000000	88.889138
1848.000000	88.902760
1847.000000	88.923954
1846.000000	88.924479
1845.000000	88.893120
1844.000000	88.855921
1843.000000	88.835009
1842.000000	88.814217
1841.000000	88.778476
1840.000000	88.739062
1839.000000	88.711037
1838.000000	88.694976
1837.000000	88.670915
1836.000000	88.629799
1835.000000	88.587949
1834.000000	88.562205
1833.000000	88.548558
1832.000000	88.536686
1831.000000	88.520951
1830.000000	88.512974
1829.000000	88.513708
1828.000000	88.496071
1827.000000	88.442938
1826.000000	88.369433
1825.000000	88.311469
1824.000000	88.286243
1823.000000	88.276804
1822.000000	88.261877
1821.000000	88.240807
1820.000000	88.220257
1819.000000	88.192400
1818.000000	88.146470
1817.000000	88.084469
1816.000000	88.024636
1815.000000	87.980635
1814.000000	87.947325
1813.000000	87.922765
1812.000000	87.908440
1811.000000	87.900224
1810.000000	87.883314
1809.000000	87.844025
1808.000000	87.787726
1807.000000	87.728311
1806.000000	87.675023
1805.000000	87.636068
1804.000000	87.618610
1803.000000	87.619831
1802.000000	87.616379
1801.000000	87.596222
1800.000000	87.555765
1799.000000	87.495494
1798.000000	87.423927
1797.000000	87.364070
1796.000000	87.338213
1795.000000	87.341083
1794.000000	87.339208
1793.000000	87.320289
1792.000000	87.304214
1791.000000	87.293198
1790.000000	87.254474
1789.000000	87.179308
1788.000000	87.096019
1787.000000	87.034768
1786.000000	87.005008
1785.000000	87.000384
1784.000000	87.005922
1783.000000	87.001896
1782.000000	86.961853
1781.000000	86.900142
1780.000000	86.843933
1779.000000	86.799439
1778.000000	86.754234
1777.000000	86.713373
1776.000000	86.705497
1775.000000	86.724866
1774.000000	86.720500
1773.000000	86.666301
1772.000000	86.610849
1771.000000	86.584827
1770.000000	86.549090
1769.000000	86.474624
1768.000000	86.390826
1767.000000	86.340205
1766.000000	86.314740
1765.000000	86.286476
1764.000000	86.246115
1763.000000	86.206647
1762.000000	86.170635
1761.000000	86.128758
1760.000000	86.067042
1759.000000	85.994321
1758.000000	85.916875
1757.000000	85.844664
1756.000000	85.800133
1755.000000	85.776382
1754.000000	85.736577
1753.000000	85.653238
1752.000000	85.545710
1751.000000	85.459323
1750.000000	85.406065
1749.000000	85.345873
1748.000000	85.275439
1747.000000	85.220336
1746.000000	85.174363
1745.000000	85.126005
1744.000000	85.086842
1743.000000	85.076288
1742.000000	85.068105
1741.000000	85.005973
1740.000000	84.887145
1739.000000	84.786898
1738.000000	84.744381
1737.000000	84.723384
1736.000000	84.669024
1735.000000	84.568357
1734.000000	84.479661
1733.000000	84.417556
1732.000000	84.316669
1731.000000	84.175902
1730.000000	84.030841
1729.000000	83.893881
1728.000000	83.769285
1727.000000	83.660628
1726.000000	83.562908
1725.000000	83.471827
1724.000000	83.378554
1723.000000	83.291657
1722.000000	83.216018
1721.000000	83.134185
1720.000000	83.016213
1719.000000	82.838878
1718.000000	82.631265
1717.000000	82.462137
1716.000000	82.345981
1715.000000	82.245518
1714.000000	82.133651
1713.000000	81.990112
1712.000000	81.810870
1711.000000	81.614168
1710.000000	81.418731
1709.000000	81.239395
1708.000000	81.086504
1707.000000	80.945978
1706.000000	80.813093
1705.000000	80.716733
1704.000000	80.678534
1703.000000	80.662660
1702.000000	80.570982
1701.000000	80.329832
1700.000000	80.027092
1699.000000	79.774295
1698.000000	79.545749
1697.000000	79.311605
1696.000000	79.097890
1695.000000	78.927834
1694.000000	78.743730
1693.000000	78.501373
1692.000000	78.214897
1691.000000	77.922250
1690.000000	77.664338
1689.000000	77.472869
1688.000000	77.360393
1687.000000	77.282077
1686.000000	77.148830
1685.000000	76.884409
1684.000000	76.572983
1683.000000	76.323466
1682.000000	76.063320
1681.000000	75.760717
1680.000000	75.480171
1679.000000	75.283850
1678.000000	75.157119
1677.000000	75.020437
1676.000000	74.813284
1675.000000	74.559250
1674.000000	74.294545
1673.000000	74.019400
1672.000000	73.729768
1671.000000	73.444933
1670.000000	73.185289
1669.000000	72.953256
1668.000000	72.734339
1667.000000	72.524714
1666.000000	72.321929
1665.000000	72.097773
1664.000000	71.821419
1663.000000	71.519487
1662.000000	71.234469
1661.000000	70.971417
1660.000000	70.719220
1659.000000	70.491922
1658.000000	70.319399
1657.000000	70.219124
1656.000000	70.166856
1655.000000	70.070523
1654.000000	69.821673
1653.000000	69.457500
1652.000000	69.104229
1651.000000	68.783329
1650.000000	68.520599
1649.000000	68.290327
1648.000000	68.054991
1647.000000	67.828171
1646.000000	67.634022
1645.000000	67.420534
1644.000000	67.163296
1643.000000	66.905468
1642.000000	66.668170
1641.000000	66.453199
1640.000000	66.274902
1639.000000	66.145486
1638.000000	66.043063
1637.000000	65.905453
1636.000000	65.719474
1635.000000	65.532033
1634.000000	65.349924
1633.000000	65.145422
1632.000000	64.936111
1631.000000	64.755677
1630.000000	64.612225
1629.000000	64.488874
1628.000000	64.378503
1627.000000	64.292198
1626.000000	64.216876
1625.000000	64.115858
1624.000000	63.972005
1623.000000	63.824212
1622.000000	63.715353
1621.000000	63.644859
1620.000000	63.602894
1619.000000	63.583721
1618.000000	63.570303
1617.000000	63.542485
1616.000000	63.503196
1615.000000	63.459105
1614.000000	63.409209
1613.000000	63.351460
1612.000000	63.296727
1611.000000	63.273543
1610.000000	63.295978
1609.000000	63.346634
1608.000000	63.402711
1607.000000	63.461248
1606.000000	63.514622
1605.000000	63.548264
1604.000000	63.560898
1603.000000	63.575013
1602.000000	63.614716
1601.000000	63.677854
1600.000000	63.753530
1599.000000	63.842338
1598.000000	63.941736
1597.000000	64.032180
1596.000000	64.096374
1595.000000	64.142428
1594.000000	64.187061
1593.000000	64.233226
1592.000000	64.281401
1591.000000	64.346370
1590.000000	64.438942
1589.000000	64.544939
1588.000000	64.640767
1587.000000	64.720280
1586.000000	64.788215
1585.000000	64.839559
1584.000000	64.878697
1583.000000	64.920758
1582.000000	64.983713
1581.000000	65.072535
1580.000000	65.182827
1579.000000	65.302505
1578.000000	65.408833
1577.000000	65.473448
1576.000000	65.497691
1575.000000	65.513604
1574.000000	65.528860
1573.000000	65.544360
1572.000000	65.564307
1571.000000	65.597275
1570.000000	65.657796
1569.000000	65.733394
1568.000000	65.785930
1567.000000	65.803063
1566.000000	65.814861
1565.000000	65.845229
1564.000000	65.916859
1563.000000	66.041382
1562.000000	66.210010
1561.000000	66.363122
1560.000000	66.429815
1559.000000	66.495102
1558.000000	66.673796
1557.000000	66.780649
1556.000000	66.782086
1555.000000	66.791287
1554.000000	66.857234
1553.000000	66.956426
1552.000000	67.054470
1551.000000	67.158212
1550.000000	67.301945
1549.000000	67.476638
1548.000000	67.649226
1547.000000	67.813539
1546.000000	67.998818
1545.000000	68.230368
1544.000000	68.502604
1543.000000	68.777859
1542.000000	69.026508
1541.000000	69.248625
1540.000000	69.495310
1539.000000	69.769601
1538.000000	69.982514
1537.000000	70.127725
1536.000000	70.266719
1535.000000	70.442684
1534.000000	70.682125
1533.000000	70.984174
1532.000000	71.273121
1531.000000	71.495346
1530.000000	71.690928
1529.000000	71.916471
1528.000000	72.196215
1527.000000	72.528067
1526.000000	72.887173
1525.000000	73.237475
1524.000000	73.551727
1523.000000	73.835511
1522.000000	74.133652
1521.000000	74.476246
1520.000000	74.802361
1519.000000	75.056864
1518.000000	75.286807
1517.000000	75.567435
1516.000000	75.907203
1515.000000	76.237246
1514.000000	76.502774
1513.000000	76.720863
1512.000000	76.931776
1511.000000	77.164088
1510.000000	77.410260
1509.000000	77.654379
1508.000000	77.921539
1507.000000	78.311974
1506.000000	78.803420
1505.000000	79.151263
1504.000000	79.312314
1503.000000	79.433000
1502.000000	79.599381
1501.000000	79.822788
1500.000000	80.094054
1499.000000	80.398674
1498.000000	80.711067
1497.000000	81.009888
1496.000000	81.284982
1495.000000	81.525015
1494.000000	81.707096
1493.000000	81.832752
1492.000000	81.933778
1491.000000	82.061604
1490.000000	82.242797
1489.000000	82.449588
1488.000000	82.635357
1487.000000	82.794240
1486.000000	82.928492
1485.000000	83.017378
1484.000000	83.063468
1483.000000	83.079956
1482.000000	83.070947
1481.000000	83.024408
1480.000000	82.940989
1479.000000	82.828495
1478.000000	82.677667
1477.000000	82.479100
1476.000000	82.246574
1475.000000	81.968162
1474.000000	81.532727
1473.000000	80.831653
1472.000000	79.909553
1471.000000	78.887192
1470.000000	77.792908
1469.000000	76.606178
1468.000000	75.316544
1467.000000	73.877360
1466.000000	72.151460
1465.000000	70.065431
1464.000000	67.785969
1463.000000	65.548350
1462.000000	63.422625
1461.000000	61.377080
1460.000000	59.406699
1459.000000	57.458616
1458.000000	55.390804
1457.000000	53.258018
1456.000000	51.490748
1455.000000	50.329204
1454.000000	49.615580
1453.000000	49.186537
1452.000000	49.029970
1451.000000	49.172709
1450.000000	49.591723
1449.000000	50.271159
1448.000000	51.219678
1447.000000	52.370120
1446.000000	53.575169
1445.000000	54.765632
1444.000000	55.965706
1443.000000	57.190445
1442.000000	58.404177
1441.000000	59.567519
1440.000000	60.682696
1439.000000	61.789613
1438.000000	62.955589
1437.000000	64.213618
1436.000000	65.453972
1435.000000	66.480851
1434.000000	67.261233
1433.000000	67.913144
1432.000000	68.526306
1431.000000	69.101888
1430.000000	69.601898
1429.000000	69.998328
1428.000000	70.277082
1427.000000	70.437192
1426.000000	70.486724
1425.000000	70.457103
1424.000000	70.399386
1423.000000	70.359780
1422.000000	70.357085
1421.000000	70.394440
1420.000000	70.491144
1419.000000	70.677612
1418.000000	70.936729
1417.000000	71.219828
1416.000000	71.532674
1415.000000	71.907526
1414.000000	72.355602
1413.000000	72.877662
1412.000000	73.477075
1411.000000	74.145326
1410.000000	74.849847
1409.000000	75.550333
1408.000000	76.217272
1407.000000	76.838065
1406.000000	77.410782
1405.000000	77.949322
1404.000000	78.458102
1403.000000	78.922227
1402.000000	79.343682
1401.000000	79.751885
1400.000000	80.170769
1399.000000	80.584560
1398.000000	80.950126
1397.000000	81.244747
1396.000000	81.484046
1395.000000	81.697406
1394.000000	81.893997
1393.000000	82.063656
1392.000000	82.203573
1391.000000	82.326737
1390.000000	82.440163
1389.000000	82.525489
1388.000000	82.543615
1387.000000	82.476772
1386.000000	82.353415
1385.000000	82.227056
1384.000000	82.140391
1383.000000	82.109047
1382.000000	82.126108
1381.000000	82.158000
1380.000000	82.156789
1379.000000	82.091824
1378.000000	81.967395
1377.000000	81.800732
1376.000000	81.599781
1375.000000	81.380869
1374.000000	81.179914
1373.000000	81.015254
1372.000000	80.861010
1371.000000	80.693897
1370.000000	80.519975
1369.000000	80.347708
1368.000000	80.163162
1367.000000	79.948779
1366.000000	79.708091
1365.000000	79.452192
1364.000000	79.178972
1363.000000	78.890120
1362.000000	78.608143
1361.000000	78.349960
1360.000000	78.111770
1359.000000	77.892856
1358.000000	77.711880
1357.000000	77.589737
1356.000000	77.529480
1355.000000	77.525262
1354.000000	77.574172
1353.000000	77.665791
1352.000000	77.767564
1351.000000	77.841572
1350.000000	77.858629
1349.000000	77.791555
1348.000000	77.601500
1347.000000	77.256749
1346.000000	76.751308
1345.000000	76.096177
1344.000000	75.306835
1343.000000	74.400909
1342.000000	73.396661
1341.000000	72.301369
1340.000000	71.113747
1339.000000	69.843377
1338.000000	68.501125
1337.000000	67.077348
1336.000000	65.550240
1335.000000	63.913451
1334.000000	62.184068
1333.000000	60.384146
1332.000000	58.538725
1331.000000	56.690012
1330.000000	54.888202
1329.000000	53.167124
1328.000000	51.543589
1327.000000	50.030588
1326.000000	48.628512
1325.000000	47.316281
1324.000000	46.070340
1323.000000	44.888031
1322.000000	43.776089
1321.000000	42.738228
1320.000000	41.802190
1319.000000	41.034982
1318.000000	40.511336
1317.000000	40.272347
1316.000000	40.323170
1315.000000	40.655008
1314.000000	41.236909
1313.000000	42.012862
1312.000000	42.925541
1311.000000	43.932812
1310.000000	45.007340
1309.000000	46.125585
1308.000000	47.268595
1307.000000	48.422114
1306.000000	49.567192
1305.000000	50.681448
1304.000000	51.750578
1303.000000	52.771034
1302.000000	53.739491
1301.000000	54.648347
1300.000000	55.490909
1299.000000	56.266407
1298.000000	56.976057
1297.000000	57.620011
1296.000000	58.206355
1295.000000	58.757143
1294.000000	59.302866
1293.000000	59.871374
1292.000000	60.482212
1291.000000	61.146575
1290.000000	61.867615
1289.000000	62.641364
1288.000000	63.459867
1287.000000	64.314599
1286.000000	65.195010
1285.000000	66.086123
1284.000000	66.968035
1283.000000	67.818400
1282.000000	68.615894
1281.000000	69.343032
1280.000000	69.988681
1279.000000	70.553741
1278.000000	71.054841
1277.000000	71.514889
1276.000000	71.952657
1275.000000	72.380880
1274.000000	72.809375
1273.000000	73.244445
1272.000000	73.686571
1271.000000	74.136566
1270.000000	74.601094
1269.000000	75.086914
1268.000000	75.593075
1267.000000	76.114951
1266.000000	76.651575
1265.000000	77.199729
1264.000000	77.743113
1263.000000	78.257131
1262.000000	78.724171
1261.000000	79.137747
1260.000000	79.495341
1259.000000	79.798035
1258.000000	80.057399
1257.000000	80.287643
1256.000000	80.493010
1255.000000	80.669746
1254.000000	80.814858
1253.000000	80.926685
1252.000000	80.997585
1251.000000	81.019283
1250.000000	80.993625
1249.000000	80.927425
1248.000000	80.823111
1247.000000	80.679940
1246.000000	80.501329
1245.000000	80.291721
1244.000000	80.047017
1243.000000	79.759818
1242.000000	79.427895
1241.000000	79.051633
1240.000000	78.629763
1239.000000	78.163830
1238.000000	77.666088
1237.000000	77.153919
1236.000000	76.641158
1235.000000	76.140186
1234.000000	75.665326
1233.000000	75.227258
1232.000000	74.827986
1231.000000	74.466460
1230.000000	74.143982
1229.000000	73.864050
1228.000000	73.629339
1227.000000	73.444674
1226.000000	73.319899
1225.000000	73.261779
1224.000000	73.268845
1223.000000	73.331866
1222.000000	73.437287
1221.000000	73.570216
1220.000000	73.716735
1219.000000	73.872850
1218.000000	74.046800
1217.000000	74.249391
1216.000000	74.484465
1215.000000	74.748056
1214.000000	75.034521
1213.000000	75.337344
1212.000000	75.646676
1211.000000	75.952669
1210.000000	76.250497
1209.000000	76.539619
1208.000000	76.819783
1207.000000	77.092465
1206.000000	77.364157
1205.000000	77.642302
1204.000000	77.928582
1203.000000	78.220430
1202.000000	78.516857
1201.000000	78.816917
1200.000000	79.114692
1199.000000	79.402002
1198.000000	79.675098
1197.000000	79.933925
1196.000000	80.176862
1195.000000	80.403863
1194.000000	80.622717
1193.000000	80.844636
1192.000000	81.074368
1191.000000	81.308924
1190.000000	81.543799
1189.000000	81.772539
1188.000000	81.982559
1187.000000	82.162632
1186.000000	82.315886
1185.000000	82.459272
1184.000000	82.608284
1183.000000	82.765435
1182.000000	82.922718
1181.000000	83.069152
1180.000000	83.198279
1179.000000	83.313036
1178.000000	83.420789
1177.000000	83.521457
1176.000000	83.605755
1175.000000	83.671294
1174.000000	83.734571
1173.000000	83.819290
1172.000000	83.936127
1171.000000	84.078846
1170.000000	84.232363
1169.000000	84.375502
1168.000000	84.482746
1167.000000	84.539111
1166.000000	84.555042
1165.000000	84.560302
1164.000000	84.584918
1163.000000	84.649322
1162.000000	84.762401
1161.000000	84.914369
1160.000000	85.073041
1159.000000	85.199899
1158.000000	85.274000
1157.000000	85.298767
1156.000000	85.293939
1155.000000	85.290724
1154.000000	85.325487
1153.000000	85.419629
1152.000000	85.561968
1151.000000	85.716924
1150.000000	85.848619
1149.000000	85.933819
1148.000000	85.962084
1147.000000	85.941557
1146.000000	85.904779
1145.000000	85.894814
1144.000000	85.939886
1143.000000	86.042512
1142.000000	86.184703
1141.000000	86.333203
1140.000000	86.446041
1139.000000	86.492772
1138.000000	86.474602
1137.000000	86.421287
1136.000000	86.371299
1135.000000	86.358802
1134.000000	86.406732
1133.000000	86.513870
1132.000000	86.647064
1131.000000	86.757797
1130.000000	86.810410
1129.000000	86.794774
1128.000000	86.721991
1127.000000	86.621766
1126.000000	86.538125
1125.000000	86.508765
1124.000000	86.541991
1123.000000	86.615454
1122.000000	86.692189
1121.000000	86.733197
1120.000000	86.704491
1119.000000	86.592896
1118.000000	86.418642
1117.000000	86.223378
1116.000000	86.044999
1115.000000	85.903874
1114.000000	85.802065
1113.000000	85.719885
1112.000000	85.614670
1111.000000	85.441057
1110.000000	85.175662
1109.000000	84.823373
1108.000000	84.407067
1107.000000	83.958172
1106.000000	83.510387
1105.000000	83.081410
1104.000000	82.658119
1103.000000	82.204083
1102.000000	81.675812
1101.000000	81.036382
1100.000000	80.263178
1099.000000	79.354298
1098.000000	78.335769
1097.000000	77.241618
1096.000000	76.095815
1095.000000	74.903165
1094.000000	73.648350
1093.000000	72.301628
1092.000000	70.824453
1091.000000	69.191424
1090.000000	67.402877
1089.000000	65.483785
1088.000000	63.481295
1087.000000	61.454618
1086.000000	59.459350
1085.000000	57.532154
1084.000000	55.691455
1083.000000	53.942008
1082.000000	52.277727
1081.000000	50.688760
1080.000000	49.178033
1079.000000	47.768615
1078.000000	46.480608
1077.000000	45.323011
1076.000000	44.298300
1075.000000	43.402183
1074.000000	42.617010
1073.000000	41.910368
1072.000000	41.257586
1071.000000	40.649071
1070.000000	40.079357
1069.000000	39.550464
1068.000000	39.079053
1067.000000	38.691648
1066.000000	38.402419
1065.000000	38.206002
1064.000000	38.095231
1063.000000	38.061467
1062.000000	38.086333
1061.000000	38.149074
1060.000000	38.244535
1059.000000	38.386500
1058.000000	38.586742
1057.000000	38.850164
1056.000000	39.184399
1055.000000	39.593632
1054.000000	40.065395
1053.000000	40.572993
1052.000000	41.096106
1051.000000	41.629031
1050.000000	42.170229
1049.000000	42.724883
1048.000000	43.311638
1047.000000	43.953320
1046.000000	44.657679
1045.000000	45.413813
1044.000000	46.205508
1043.000000	47.014800
1042.000000	47.819832
1041.000000	48.605514
1040.000000	49.376213
1039.000000	50.153346
1038.000000	50.958581
1037.000000	51.804111
1036.000000	52.692381
1035.000000	53.612255
1034.000000	54.536420
1033.000000	55.432280
1032.000000	56.280178
1031.000000	57.081560
1030.000000	57.854450
1029.000000	58.625609
1028.000000	59.420952
1027.000000	60.253311
1026.000000	61.112630
1025.000000	61.970579
1024.000000	62.793229
1023.000000	63.554425
1022.000000	64.246244
1021.000000	64.882599
1020.000000	65.495005
1019.000000	66.119421
1018.000000	66.779540
1017.000000	67.476209
1016.000000	68.185192
1015.000000	68.868079
1014.000000	69.489728
1013.000000	70.033660
1012.000000	70.508607
1011.000000	70.944968
1010.000000	71.384152
1009.000000	71.861149
1008.000000	72.387088
1007.000000	72.945429
1006.000000	73.500206
1005.000000	74.011205
1004.000000	74.449022
1003.000000	74.808485
1002.000000	75.113964
1001.000000	75.408218
1000.000000	75.731638
999.000000	76.106631
998.000000	76.531020
997.000000	76.979285
996.000000	77.409573
995.000000	77.782223
994.000000	78.080503
993.000000	78.316409
992.000000	78.521015
991.000000	78.732256
990.000000	78.983203
989.000000	79.288478
988.000000	79.634881
987.000000	79.989527
986.000000	80.317348
985.000000	80.594131
984.000000	80.811822
983.000000	80.982999
982.000000	81.139823
981.000000	81.318604
980.000000	81.539590
979.000000	81.801892
978.000000	82.090201
977.000000	82.379799
976.000000	82.640113
975.000000	82.848167
974.000000	83.004092
973.000000	83.128428
972.000000	83.246344
971.000000	83.378623
970.000000	83.540883
969.000000	83.738519
968.000000	83.958931
967.000000	84.177171
966.000000	84.371490
965.000000	84.530838
964.000000	84.652775
963.000000	84.744936
962.000000	84.827711
961.000000	84.925090
960.000000	85.049404
959.000000	85.199521
958.000000	85.367955
957.000000	85.541606
956.000000	85.699355
955.000000	85.821781
954.000000	85.906369
953.000000	85.967113
952.000000	86.021582
951.000000	86.085301
950.000000	86.172970
949.000000	86.291612
948.000000	86.430193
947.000000	86.564700
946.000000	86.675631
945.000000	86.755057
944.000000	86.802874
943.000000	86.828204
942.000000	86.852907
941.000000	86.900859
940.000000	86.980134
939.000000	87.080953
938.000000	87.186910
937.000000	87.280645
936.000000	87.344130
935.000000	87.368070
934.000000	87.363909
933.000000	87.357960
932.000000	87.371502
931.000000	87.411905
930.000000	87.475915
929.000000	87.549499
928.000000	87.606584
927.000000	87.622244
926.000000	87.592349
925.000000	87.534818
924.000000	87.474765
923.000000	87.434365
922.000000	87.429277
921.000000	87.459733
920.000000	87.502190
919.000000	87.520390
918.000000	87.488824
917.000000	87.402695
916.000000	87.273348
915.000000	87.126476
914.000000	86.999147
913.000000	86.920879
912.000000	86.889836
911.000000	86.873862
910.000000	86.831761
909.000000	86.731174
908.000000	86.556028
907.000000	86.314565
906.000000	86.043383
905.000000	85.790808
904.000000	85.587778
903.000000	85.435237
902.000000	85.309543
901.000000	85.171407
900.000000	84.975394
899.000000	84.690521
898.000000	84.321373
897.000000	83.904561
896.000000	83.486457
895.000000	83.104132
894.000000	82.773418
893.000000	82.480556
892.000000	82.181426
891.000000	81.822520
890.000000	81.369961
889.000000	80.820883
888.000000	80.197255
887.000000	79.536828
886.000000	78.881960
885.000000	78.259294
884.000000	77.661229
883.000000	77.052979
882.000000	76.393166
881.000000	75.650695
880.000000	74.813042
879.000000	73.891013
878.000000	72.917836
877.000000	71.932369
876.000000	70.958048
875.000000	69.996325
874.000000	69.031083
873.000000	68.037948
872.000000	66.993381
871.000000	65.886853
870.000000	64.728060
869.000000	63.540386
868.000000	62.349233
867.000000	61.173224
866.000000	60.019328
865.000000	58.882365
864.000000	57.748675
863.000000	56.604225
862.000000	55.442100
861.000000	54.268109
860.000000	53.100417
859.000000	51.965179
858.000000	50.889707
857.000000	49.899966
856.000000	49.024130
855.000000	48.285943
854.000000	47.699350
853.000000	47.265127
852.000000	46.971297
851.000000	46.795831
850.000000	46.704930
849.000000	46.664930
848.000000	46.651277
847.000000	46.648594
846.000000	46.649570
845.000000	46.654780
844.000000	46.674189
843.000000	46.721212
842.000000	46.806843
841.000000	46.942696
840.000000	47.141077
839.000000	47.409391
838.000000	47.745877
837.000000	48.142804
836.000000	48.591912
835.000000	49.080589
834.000000	49.591569
833.000000	50.110921
832.000000	50.634819
831.000000	51.169015
830.000000	51.723116
829.000000	52.306430
828.000000	52.923377
827.000000	53.570725
826.000000	54.242914
825.000000	54.938283
824.000000	55.657142
823.000000	56.396727
822.000000	57.152882
821.000000	57.924241
820.000000	58.707432
819.000000	59.491831
818.000000	60.263854
817.000000	61.013165
816.000000	61.729481
815.000000	62.400090
814.000000	63.017945
813.000000	63.588267
812.000000	64.124052
811.000000	64.638473
810.000000	65.146049
809.000000	65.662434
808.000000	66.194486
807.000000	66.735259
806.000000	67.272212
805.000000	67.796277
804.000000	68.300190
803.000000	68.777411
802.000000	69.230456
801.000000	69.673619
800.000000	70.122044
799.000000	70.582972
798.000000	71.058218
797.000000	71.544792
796.000000	72.027375
795.000000	72.481173
794.000000	72.890724
793.000000	73.260348
792.000000	73.605008
791.000000	73.940309
790.000000	74.283185
789.000000	74.648967
788.000000	75.038512
787.000000	75.434820
786.000000	75.815941
785.000000	76.165282
784.000000	76.471034
783.000000	76.729958
782.000000	76.957886
781.000000	77.185667
780.000000	77.437717
779.000000	77.719691
778.000000	78.024771
777.000000	78.339498
776.000000	78.641253
775.000000	78.905470
774.000000	79.124632
773.000000	79.313976
772.000000	79.497026
771.000000	79.694113
770.000000	79.922348
769.000000	80.189753
768.000000	80.482064
767.000000	80.766408
766.000000	81.013950
765.000000	81.212143
764.000000	81.359325
763.000000	81.465173
762.000000	81.559539
761.000000	81.681421
760.000000	81.847997
759.000000	82.043374
758.000000	82.239896
757.000000	82.418408
756.000000	82.567010
755.000000	82.679732
754.000000	82.766454
753.000000	82.851321
752.000000	82.952509
751.000000	83.071214
750.000000	83.200231
749.000000	83.329232
748.000000	83.438461
747.000000	83.505243
746.000000	83.525828
745.000000	83.520449
744.000000	83.512556
743.000000	83.514844
742.000000	83.535856
741.000000	83.581183
740.000000	83.639979
739.000000	83.686832
738.000000	83.706428
737.000000	83.705945
736.000000	83.700644
735.000000	83.703624
734.000000	83.733667
733.000000	83.811800
732.000000	83.937431
731.000000	84.080547
730.000000	84.207118
729.000000	84.301443
728.000000	84.364293
727.000000	84.408565
726.000000	84.460911
725.000000	84.552135
724.000000	84.694781
723.000000	84.877871
722.000000	85.082564
721.000000	85.286989
720.000000	85.456919
719.000000	85.560622
718.000000	85.604657
717.000000	85.636157
716.000000	85.700482
715.000000	85.810597
714.000000	85.958216
713.000000	86.129611
712.000000	86.300804
711.000000	86.440488
710.000000	86.536092
709.000000	86.604351
708.000000	86.669100
707.000000	86.745291
706.000000	86.845830
705.000000	86.982729
704.000000	87.148149
703.000000	87.308652
702.000000	87.434058
701.000000	87.520749
700.000000	87.578224
699.000000	87.617869
698.000000	87.661182
697.000000	87.737147
696.000000	87.855411
695.000000	87.993637
694.000000	88.125511
693.000000	88.241643
692.000000	88.332249
691.000000	88.382459
690.000000	88.398564
689.000000	88.417971
688.000000	88.473561
687.000000	88.562718
686.000000	88.670696
685.000000	88.792281
684.000000	88.909152
683.000000	88.983385
682.000000	89.000642
681.000000	88.992027
680.000000	88.993186
679.000000	89.013039
678.000000	89.061460
677.000000	89.155146
676.000000	89.277627
675.000000	89.386801
674.000000	89.456818
673.000000	89.494840
672.000000	89.524375
671.000000	89.574535
670.000000	89.682077
669.000000	89.878596
668.000000	90.097711
667.000000	90.195224
666.000000	90.174584
665.000000	90.114443
664.000000	90.053947
663.000000	89.996176
662.000000	89.938086
661.000000	89.894268
660.000000	89.890960
659.000000	89.948806
658.000000	90.069129
657.000000	90.223134
656.000000	90.362125
655.000000	90.453420
654.000000	90.481958
653.000000	90.443842
652.000000	90.365848
651.000000	90.307101
650.000000	90.319692
649.000000	90.411146
648.000000	90.555425
647.000000	90.718055
646.000000	90.855950
645.000000	90.922520
644.000000	90.895226
643.000000	90.796270
642.000000	90.683556
641.000000	90.616279
640.000000	90.631978
639.000000	90.740172
638.000000	90.913590
637.000000	91.090225
636.000000	91.204473
635.000000	91.220653
634.000000	91.143901
633.000000	91.011944
632.000000	90.882922
631.000000	90.820734
630.000000	90.867196
629.000000	91.014732
628.000000	91.209064
627.000000	91.379370
626.000000	91.466690
625.000000	91.444907
624.000000	91.330002
623.000000	91.178178
622.000000	91.066501
621.000000	91.055858
620.000000	91.162634
619.000000	91.354218
618.000000	91.562224
617.000000	91.707284
616.000000	91.732184
615.000000	91.631733
614.000000	91.458245
613.000000	91.295072
612.000000	91.217776
611.000000	91.265107
610.000000	91.427878
609.000000	91.649774
608.000000	91.843609
607.000000	91.928837
606.000000	91.870977
605.000000	91.698631
604.000000	91.484957
603.000000	91.313211
602.000000	91.245645
601.000000	91.296869
600.000000	91.417909
599.000000	91.513440
598.000000	91.488426
597.000000	91.294534
596.000000	90.952858
595.000000	90.552860
594.000000	90.225021
593.000000	90.082660
592.000000	90.171060
591.000000	90.452490
590.000000	90.826751
589.000000	91.173749
588.000000	91.397478
587.000000	91.460890
586.000000	91.398947
585.000000	91.299614
584.000000	91.257008
583.000000	91.334543
582.000000	91.544686
581.000000	91.840646
580.000000	92.126488
579.000000	92.300527
578.000000	92.310433
577.000000	92.175958
576.000000	91.975267
575.000000	91.811881
574.000000	91.771561
573.000000	91.885086
572.000000	92.119062
571.000000	92.388984
570.000000	92.591319
569.000000	92.646072
568.000000	92.533671
567.000000	92.306848
566.000000	92.069725
565.000000	91.929074
564.000000	91.946508
563.000000	92.120024
562.000000	92.382997
561.000000	92.626842
560.000000	92.748142
559.000000	92.696773
558.000000	92.498141
557.000000	92.239152
556.000000	92.028869
555.000000	91.957585
554.000000	92.061949
553.000000	92.305225
552.000000	92.590324
551.000000	92.801150
550.000000	92.854288
549.000000	92.733603
548.000000	92.493929
547.000000	92.241663
546.000000	92.095541
545.000000	92.129071
544.000000	92.334739
543.000000	92.633347
542.000000	92.910167
541.000000	93.058612
540.000000	93.020874
539.000000	92.817120
538.000000	92.542192
537.000000	92.321240
536.000000	92.249427
535.000000	92.359292
534.000000	92.611222
533.000000	92.912798
532.000000	93.146277
531.000000	93.212091
530.000000	93.082146
529.000000	92.816557
528.000000	92.525695
527.000000	92.328617
526.000000	92.314532
525.000000	92.489951
524.000000	92.769197
523.000000	93.023318
522.000000	93.144240
521.000000	93.080202
520.000000	92.843846
519.000000	92.511013
518.000000	92.202194
517.000000	92.029409
516.000000	92.036410
515.000000	92.180131
514.000000	92.359495
513.000000	92.460915
512.000000	92.390152
511.000000	92.108703
510.000000	91.665693
509.000000	91.182143
508.000000	90.777215
507.000000	90.521658
506.000000	90.426948
505.000000	90.441169
504.000000	90.462955
503.000000	90.380879
502.000000	90.135463
501.000000	89.758390
500.000000	89.343987
499.000000	89.002931
498.000000	88.839856
497.000000	88.918570
496.000000	89.216749
495.000000	89.624876
494.000000	90.005794
493.000000	90.258131
492.000000	90.339691
491.000000	90.288839
490.000000	90.220189
489.000000	90.270822
488.000000	90.515854
487.000000	90.936464
486.000000	91.449129
485.000000	91.934535
484.000000	92.260500
483.000000	92.339561
482.000000	92.196300
481.000000	91.953551
480.000000	91.754096
479.000000	91.706136
478.000000	91.853216
477.000000	92.153228
476.000000	92.484988
475.000000	92.708003
474.000000	92.733012
473.000000	92.562814
472.000000	92.291919
471.000000	92.072696
470.000000	92.037109
469.000000	92.239213
468.000000	92.637845
467.000000	93.103846
466.000000	93.464030
465.000000	93.602826
464.000000	93.505479
463.000000	93.241698
462.000000	92.951520
461.000000	92.789186
460.000000	92.850142
459.000000	93.134779
458.000000	93.539134
457.000000	93.889512
456.000000	94.032499
455.000000	93.919704
454.000000	93.613814
453.000000	93.256175
452.000000	93.022032
451.000000	93.035302
450.000000	93.291427
449.000000	93.688066
448.000000	94.081571
447.000000	94.328320
446.000000	94.338031
445.000000	94.132103
444.000000	93.825489
443.000000	93.569089
442.000000	93.498691
441.000000	93.673685
440.000000	94.044046
439.000000	94.467476
438.000000	94.780562
437.000000	94.880054
436.000000	94.756477
435.000000	94.484352
434.000000	94.200548
433.000000	94.059301
432.000000	94.154679
431.000000	94.452999
430.000000	94.824507
429.000000	95.131338
428.000000	95.271954
427.000000	95.202478
426.000000	94.971515
425.000000	94.703758
424.000000	94.512994
423.000000	94.461078
422.000000	94.566282
421.000000	94.806076
420.000000	95.074817
419.000000	95.218898
418.000000	95.176895
417.000000	94.988839
416.000000	94.742212
415.000000	94.520659
414.000000	94.400728
413.000000	94.460984
412.000000	94.712349
411.000000	95.049639
410.000000	95.347137
409.000000	95.530497
408.000000	95.551858
407.000000	95.382964
406.000000	95.084326
405.000000	94.804265
404.000000	94.666979
403.000000	94.711614
402.000000	94.935774
401.000000	95.311708
400.000000	95.693539
