PE IR       SUBTECH     SPECTRUM    ASCII       PEDS        4.00        
   -1
23MS015_nitrito.asc
24/09/03
16:50:09.00
24/09/03
16:50:09.00
Administrator
Sample 1100 By Administrator Date Tuesday, September 03 2024
400.000000
#HDR
-1
-1
#GR
cm-1
%T
1.0
0.0
4000.000000
-1.000000
3601
8
72.911166
0.986563
#DATA
4000.000000	53.097588
3999.000000	53.165647
3998.000000	53.233268
3997.000000	53.300493
3996.000000	53.366952
3995.000000	53.431688
3994.000000	53.494219
3993.000000	53.555694
3992.000000	53.618478
3991.000000	53.684481
3990.000000	53.753792
3989.000000	53.825012
3988.000000	53.896571
3987.000000	53.967456
3986.000000	54.037100
3985.000000	54.104944
3984.000000	54.170421
3983.000000	54.233489
3982.000000	54.295030
3981.000000	54.356341
3980.000000	54.418181
3979.000000	54.480541
3978.000000	54.543096
3977.000000	54.605595
3976.000000	54.667765
3975.000000	54.728972
3974.000000	54.788260
3973.000000	54.845340
3972.000000	54.901528
3971.000000	54.959088
3970.000000	55.019171
3969.000000	55.080767
3968.000000	55.141680
3967.000000	55.200189
3966.000000	55.256162
3965.000000	55.311023
3964.000000	55.366647
3963.000000	55.423674
3962.000000	55.481061
3961.000000	55.537155
3960.000000	55.591414
3959.000000	55.644870
3958.000000	55.698916
3957.000000	55.754568
3956.000000	55.812262
3955.000000	55.870805
3954.000000	55.927416
3953.000000	55.979734
3952.000000	56.028263
3951.000000	56.076145
3950.000000	56.126552
3949.000000	56.179723
3948.000000	56.232743
3947.000000	56.283509
3946.000000	56.334665
3945.000000	56.391938
3944.000000	56.457814
3943.000000	56.528874
3942.000000	56.600193
3941.000000	56.670862
3940.000000	56.743405
3939.000000	56.818634
3938.000000	56.893094
3937.000000	56.962471
3936.000000	57.025690
3935.000000	57.084262
3934.000000	57.140252
3933.000000	57.195304
3932.000000	57.251114
3931.000000	57.307912
3930.000000	57.363497
3929.000000	57.416776
3928.000000	57.471455
3927.000000	57.533567
3926.000000	57.603148
3925.000000	57.671770
3924.000000	57.732021
3923.000000	57.785614
3922.000000	57.837705
3921.000000	57.889092
3920.000000	57.940200
3919.000000	57.996097
3918.000000	58.060352
3917.000000	58.128436
3916.000000	58.194123
3915.000000	58.259352
3914.000000	58.331314
3913.000000	58.411398
3912.000000	58.493360
3911.000000	58.570251
3910.000000	58.636939
3909.000000	58.689599
3908.000000	58.728950
3907.000000	58.759906
3906.000000	58.787593
3905.000000	58.811184
3904.000000	58.827726
3903.000000	58.841341
3902.000000	58.865615
3901.000000	58.910335
3900.000000	58.971747
3899.000000	59.040770
3898.000000	59.115993
3897.000000	59.200104
3896.000000	59.288689
3895.000000	59.375321
3894.000000	59.461798
3893.000000	59.552411
3892.000000	59.638367
3891.000000	59.700240
3890.000000	59.734369
3889.000000	59.764237
3888.000000	59.814604
3887.000000	59.882105
3886.000000	59.944940
3885.000000	59.989088
3884.000000	60.024615
3883.000000	60.071325
3882.000000	60.131859
3881.000000	60.193927
3880.000000	60.252894
3879.000000	60.314855
3878.000000	60.388230
3877.000000	60.472272
3876.000000	60.551684
3875.000000	60.609463
3874.000000	60.644104
3873.000000	60.673420
3872.000000	60.720056
3871.000000	60.781853
3870.000000	60.829685
3869.000000	60.853653
3868.000000	60.887576
3867.000000	60.961076
3866.000000	61.052472
3865.000000	61.123583
3864.000000	61.175856
3863.000000	61.236173
3862.000000	61.312291
3861.000000	61.387292
3860.000000	61.446770
3859.000000	61.490667
3858.000000	61.521583
3857.000000	61.541167
3856.000000	61.562150
3855.000000	61.603900
3854.000000	61.667337
3853.000000	61.721055
3852.000000	61.753444
3851.000000	61.801428
3850.000000	61.882744
3849.000000	61.973589
3848.000000	62.071409
3847.000000	62.188317
3846.000000	62.311955
3845.000000	62.418819
3844.000000	62.496297
3843.000000	62.546747
3842.000000	62.582980
3841.000000	62.622462
3840.000000	62.674497
3839.000000	62.733916
3838.000000	62.792104
3837.000000	62.845544
3836.000000	62.898735
3835.000000	62.960106
3834.000000	63.035108
3833.000000	63.120161
3832.000000	63.206581
3831.000000	63.288500
3830.000000	63.369118
3829.000000	63.452795
3828.000000	63.534221
3827.000000	63.601858
3826.000000	63.651324
3825.000000	63.695192
3824.000000	63.753905
3823.000000	63.831745
3822.000000	63.907586
3821.000000	63.954604
3820.000000	63.979277
3819.000000	64.023848
3818.000000	64.107460
3817.000000	64.194206
3816.000000	64.251560
3815.000000	64.295225
3814.000000	64.361510
3813.000000	64.455275
3812.000000	64.539853
3811.000000	64.597632
3810.000000	64.656950
3809.000000	64.741257
3808.000000	64.836091
3807.000000	64.908176
3806.000000	64.945897
3805.000000	64.978707
3804.000000	65.035899
3803.000000	65.106833
3802.000000	65.162724
3801.000000	65.197572
3800.000000	65.239664
3799.000000	65.320523
3798.000000	65.425076
3797.000000	65.510463
3796.000000	65.574158
3795.000000	65.645232
3794.000000	65.737001
3793.000000	65.835268
3792.000000	65.919749
3791.000000	65.990201
3790.000000	66.059376
3789.000000	66.131673
3788.000000	66.202272
3787.000000	66.269114
3786.000000	66.332481
3785.000000	66.389969
3784.000000	66.440935
3783.000000	66.494803
3782.000000	66.563254
3781.000000	66.644722
3780.000000	66.724902
3779.000000	66.794408
3778.000000	66.857789
3777.000000	66.923427
3776.000000	66.988589
3775.000000	67.043292
3774.000000	67.089448
3773.000000	67.142218
3772.000000	67.211046
3771.000000	67.285999
3770.000000	67.348894
3769.000000	67.396928
3768.000000	67.447369
3767.000000	67.511873
3766.000000	67.580709
3765.000000	67.641634
3764.000000	67.701710
3763.000000	67.776083
3762.000000	67.861759
3761.000000	67.938572
3760.000000	67.998189
3759.000000	68.054362
3758.000000	68.116309
3757.000000	68.172179
3756.000000	68.210519
3755.000000	68.237519
3754.000000	68.263879
3753.000000	68.293334
3752.000000	68.331771
3751.000000	68.383386
3750.000000	68.434363
3749.000000	68.463906
3748.000000	68.480074
3747.000000	68.514496
3746.000000	68.580249
3745.000000	68.663956
3744.000000	68.750315
3743.000000	68.849179
3742.000000	68.983821
3741.000000	69.123070
3740.000000	69.204696
3739.000000	69.238823
3738.000000	69.274296
3737.000000	69.325642
3736.000000	69.388995
3735.000000	69.465962
3734.000000	69.562394
3733.000000	69.667700
3732.000000	69.758849
3731.000000	69.835335
3730.000000	69.919374
3729.000000	70.014817
3728.000000	70.100308
3727.000000	70.162878
3726.000000	70.214931
3725.000000	70.277131
3724.000000	70.354661
3723.000000	70.434667
3722.000000	70.509688
3721.000000	70.591428
3720.000000	70.690018
3719.000000	70.798005
3718.000000	70.896063
3717.000000	70.970096
3716.000000	71.021375
3715.000000	71.059218
3714.000000	71.090400
3713.000000	71.122428
3712.000000	71.169887
3711.000000	71.243105
3710.000000	71.338509
3709.000000	71.440890
3708.000000	71.535351
3707.000000	71.616249
3706.000000	71.686715
3705.000000	71.751845
3704.000000	71.814810
3703.000000	71.878910
3702.000000	71.946737
3701.000000	72.017776
3700.000000	72.089567
3699.000000	72.160806
3698.000000	72.225721
3697.000000	72.275461
3696.000000	72.310614
3695.000000	72.342927
3694.000000	72.377908
3693.000000	72.408611
3692.000000	72.434189
3691.000000	72.469281
3690.000000	72.525445
3689.000000	72.588942
3688.000000	72.636409
3687.000000	72.669670
3686.000000	72.711407
3685.000000	72.764991
3684.000000	72.813619
3683.000000	72.852715
3682.000000	72.887664
3681.000000	72.911166
3680.000000	72.905875
3679.000000	72.869164
3678.000000	72.823555
3677.000000	72.792882
3676.000000	72.775397
3675.000000	72.756125
3674.000000	72.744355
3673.000000	72.762267
3672.000000	72.784989
3671.000000	72.769371
3670.000000	72.729508
3669.000000	72.714588
3668.000000	72.749018
3667.000000	72.809986
3666.000000	72.852338
3665.000000	72.860337
3664.000000	72.849392
3663.000000	72.832234
3662.000000	72.807149
3661.000000	72.764595
3660.000000	72.700025
3659.000000	72.616073
3658.000000	72.515940
3657.000000	72.400869
3656.000000	72.277037
3655.000000	72.158246
3654.000000	72.052602
3653.000000	71.942831
3652.000000	71.797968
3651.000000	71.613912
3650.000000	71.420787
3649.000000	71.253859
3648.000000	71.124831
3647.000000	71.020269
3646.000000	70.927858
3645.000000	70.848651
3644.000000	70.777147
3643.000000	70.698220
3642.000000	70.603727
3641.000000	70.496764
3640.000000	70.382362
3639.000000	70.257470
3638.000000	70.114344
3637.000000	69.951836
3636.000000	69.776461
3635.000000	69.590415
3634.000000	69.390095
3633.000000	69.176424
3632.000000	68.953340
3631.000000	68.715316
3630.000000	68.456018
3629.000000	68.194525
3628.000000	67.972206
3627.000000	67.819270
3626.000000	67.721010
3625.000000	67.626195
3624.000000	67.505528
3623.000000	67.364903
3622.000000	67.203813
3621.000000	67.009209
3620.000000	66.781985
3619.000000	66.546682
3618.000000	66.330763
3617.000000	66.142729
3616.000000	65.972795
3615.000000	65.805058
3614.000000	65.629387
3613.000000	65.447120
3612.000000	65.265449
3611.000000	65.085837
3610.000000	64.901885
3609.000000	64.711723
3608.000000	64.529157
3607.000000	64.372933
3606.000000	64.244922
3605.000000	64.126483
3604.000000	63.996184
3603.000000	63.844980
3602.000000	63.674251
3601.000000	63.489543
3600.000000	63.298367
3599.000000	63.108330
3598.000000	62.922171
3597.000000	62.738162
3596.000000	62.558021
3595.000000	62.386590
3594.000000	62.224232
3593.000000	62.066423
3592.000000	61.907207
3591.000000	61.738768
3590.000000	61.554732
3589.000000	61.359458
3588.000000	61.172258
3587.000000	61.012927
3586.000000	60.883287
3585.000000	60.769922
3584.000000	60.658691
3583.000000	60.542370
3582.000000	60.418749
3581.000000	60.287706
3580.000000	60.150064
3579.000000	60.006897
3578.000000	59.857866
3577.000000	59.702632
3576.000000	59.543582
3575.000000	59.384581
3574.000000	59.226839
3573.000000	59.068616
3572.000000	58.906855
3571.000000	58.735175
3570.000000	58.543993
3569.000000	58.328868
3568.000000	58.101483
3567.000000	57.886646
3566.000000	57.703431
3565.000000	57.553715
3564.000000	57.428720
3563.000000	57.317276
3562.000000	57.208135
3561.000000	57.092106
3560.000000	56.964677
3559.000000	56.824784
3558.000000	56.672484
3557.000000	56.509541
3556.000000	56.340366
3555.000000	56.169340
3554.000000	55.997172
3553.000000	55.822042
3552.000000	55.643756
3551.000000	55.463081
3550.000000	55.278327
3549.000000	55.087090
3548.000000	54.891945
3547.000000	54.701058
3546.000000	54.521019
3545.000000	54.351889
3544.000000	54.190662
3543.000000	54.034772
3542.000000	53.880833
3541.000000	53.724849
3540.000000	53.565495
3539.000000	53.404381
3538.000000	53.242719
3537.000000	53.080373
3536.000000	52.918526
3535.000000	52.759673
3534.000000	52.604942
3533.000000	52.453675
3532.000000	52.305324
3531.000000	52.159543
3530.000000	52.014991
3529.000000	51.870862
3528.000000	51.729503
3527.000000	51.594773
3526.000000	51.467722
3525.000000	51.345663
3524.000000	51.224950
3523.000000	51.103430
3522.000000	50.981112
3521.000000	50.860690
3520.000000	50.746313
3519.000000	50.639704
3518.000000	50.538540
3517.000000	50.439757
3516.000000	50.341827
3515.000000	50.241639
3514.000000	50.132823
3513.000000	50.010868
3512.000000	49.878008
3511.000000	49.740534
3510.000000	49.603489
3509.000000	49.469694
3508.000000	49.340911
3507.000000	49.216636
3506.000000	49.093011
3505.000000	48.966351
3504.000000	48.837174
3503.000000	48.708101
3502.000000	48.579558
3501.000000	48.451004
3500.000000	48.323790
3499.000000	48.198368
3498.000000	48.070555
3497.000000	47.935164
3496.000000	47.792648
3495.000000	47.648353
3494.000000	47.505794
3493.000000	47.364310
3492.000000	47.222416
3491.000000	47.079707
3490.000000	46.935801
3489.000000	46.790103
3488.000000	46.642328
3487.000000	46.491821
3486.000000	46.337418
3485.000000	46.179431
3484.000000	46.020801
3483.000000	45.864622
3482.000000	45.711403
3481.000000	45.559666
3480.000000	45.407308
3479.000000	45.251498
3478.000000	45.090147
3477.000000	44.925361
3476.000000	44.762851
3475.000000	44.605878
3474.000000	44.452300
3473.000000	44.299248
3472.000000	44.147171
3471.000000	43.996414
3470.000000	43.843210
3469.000000	43.682853
3468.000000	43.514534
3467.000000	43.340383
3466.000000	43.162403
3465.000000	42.983029
3464.000000	42.806057
3463.000000	42.633637
3462.000000	42.463857
3461.000000	42.293594
3460.000000	42.121957
3459.000000	41.949259
3458.000000	41.775306
3457.000000	41.600872
3456.000000	41.427988
3455.000000	41.256125
3454.000000	41.081062
3453.000000	40.900031
3452.000000	40.715673
3451.000000	40.532486
3450.000000	40.351446
3449.000000	40.170583
3448.000000	39.988605
3447.000000	39.805117
3446.000000	39.619166
3445.000000	39.430244
3444.000000	39.239335
3443.000000	39.047478
3442.000000	38.855211
3441.000000	38.664578
3440.000000	38.478652
3439.000000	38.297122
3438.000000	38.114862
3437.000000	37.926612
3436.000000	37.730663
3435.000000	37.526923
3434.000000	37.315464
3433.000000	37.099078
3432.000000	36.883205
3431.000000	36.670229
3430.000000	36.456188
3429.000000	36.235741
3428.000000	36.008093
3427.000000	35.775518
3426.000000	35.539528
3425.000000	35.301474
3424.000000	35.063760
3423.000000	34.827098
3422.000000	34.588450
3421.000000	34.344677
3420.000000	34.096073
3419.000000	33.843998
3418.000000	33.588151
3417.000000	33.328614
3416.000000	33.067698
3415.000000	32.806736
3414.000000	32.543245
3413.000000	32.274051
3412.000000	31.998612
3411.000000	31.717178
3410.000000	31.428434
3409.000000	31.131546
3408.000000	30.828569
3407.000000	30.522280
3406.000000	30.213848
3405.000000	29.904220
3404.000000	29.594575
3403.000000	29.283344
3402.000000	28.965465
3401.000000	28.636931
3400.000000	28.297911
3399.000000	27.950097
3398.000000	27.594694
3397.000000	27.234528
3396.000000	26.873987
3395.000000	26.514450
3394.000000	26.152449
3393.000000	25.784364
3392.000000	25.409784
3391.000000	25.028850
3390.000000	24.640875
3389.000000	24.247289
3388.000000	23.852027
3387.000000	23.456396
3386.000000	23.056904
3385.000000	22.650679
3384.000000	22.239168
3383.000000	21.824720
3382.000000	21.407408
3381.000000	20.987359
3380.000000	20.566633
3379.000000	20.146121
3378.000000	19.723904
3377.000000	19.298745
3376.000000	18.871792
3375.000000	18.443381
3374.000000	18.011926
3373.000000	17.578038
3372.000000	17.146071
3371.000000	16.719014
3370.000000	16.294964
3369.000000	15.870319
3368.000000	15.443529
3367.000000	15.014733
3366.000000	14.585196
3365.000000	14.158254
3364.000000	13.737434
3363.000000	13.322657
3362.000000	12.911457
3361.000000	12.504223
3360.000000	12.104075
3359.000000	11.711304
3358.000000	11.322657
3357.000000	10.936903
3356.000000	10.556690
3355.000000	10.183721
3354.000000	9.816927
3353.000000	9.456570
3352.000000	9.105379
3351.000000	8.764612
3350.000000	8.432656
3349.000000	8.108596
3348.000000	7.793283
3347.000000	7.485770
3346.000000	7.183748
3345.000000	6.888155
3344.000000	6.602966
3343.000000	6.329690
3342.000000	6.065671
3341.000000	5.809041
3340.000000	5.560918
3339.000000	5.321998
3338.000000	5.091601
3337.000000	4.870320
3336.000000	4.659814
3335.000000	4.459129
3334.000000	4.265249
3333.000000	4.078123
3332.000000	3.900343
3331.000000	3.732008
3330.000000	3.570098
3329.000000	3.413215
3328.000000	3.263237
3327.000000	3.121364
3326.000000	2.987080
3325.000000	2.861118
3324.000000	2.744661
3323.000000	2.635712
3322.000000	2.530139
3321.000000	2.427041
3320.000000	2.329301
3319.000000	2.238273
3318.000000	2.152569
3317.000000	2.071626
3316.000000	1.996242
3315.000000	1.925532
3314.000000	1.857166
3313.000000	1.791149
3312.000000	1.729299
3311.000000	1.671057
3310.000000	1.614105
3309.000000	1.558732
3308.000000	1.507791
3307.000000	1.462412
3306.000000	1.421655
3305.000000	1.386043
3304.000000	1.356608
3303.000000	1.331035
3302.000000	1.305176
3301.000000	1.278217
3300.000000	1.252474
3299.000000	1.228313
3298.000000	1.203808
3297.000000	1.179157
3296.000000	1.156730
3295.000000	1.136891
3294.000000	1.118020
3293.000000	1.100660
3292.000000	1.087291
3291.000000	1.077736
3290.000000	1.069242
3289.000000	1.060969
3288.000000	1.054374
3287.000000	1.049275
3286.000000	1.043523
3285.000000	1.036834
3284.000000	1.030848
3283.000000	1.025576
3282.000000	1.019620
3281.000000	1.013637
3280.000000	1.009750
3279.000000	1.007567
3278.000000	1.004609
3277.000000	1.000449
3276.000000	0.996730
3275.000000	0.993592
3274.000000	0.989923
3273.000000	0.986795
3272.000000	0.986563
3271.000000	0.988866
3270.000000	0.991300
3269.000000	0.993608
3268.000000	0.997298
3267.000000	1.001694
3266.000000	1.004503
3265.000000	1.005919
3264.000000	1.008324
3263.000000	1.012095
3262.000000	1.015574
3261.000000	1.018708
3260.000000	1.022762
3259.000000	1.026881
3258.000000	1.028936
3257.000000	1.029653
3256.000000	1.031986
3255.000000	1.036584
3254.000000	1.041462
3253.000000	1.045856
3252.000000	1.050621
3251.000000	1.055167
3250.000000	1.057935
3249.000000	1.059950
3248.000000	1.063999
3247.000000	1.069719
3246.000000	1.072915
3245.000000	1.070534
3244.000000	1.064315
3243.000000	1.059630
3242.000000	1.062217
3241.000000	1.074517
3240.000000	1.092523
3239.000000	1.107599
3238.000000	1.114373
3237.000000	1.115595
3236.000000	1.117203
3235.000000	1.121049
3234.000000	1.125525
3233.000000	1.130484
3232.000000	1.136906
3231.000000	1.143490
3230.000000	1.148162
3229.000000	1.151925
3228.000000	1.157140
3227.000000	1.163061
3226.000000	1.167102
3225.000000	1.169509
3224.000000	1.172642
3223.000000	1.176627
3222.000000	1.179750
3221.000000	1.182298
3220.000000	1.185994
3219.000000	1.190277
3218.000000	1.193029
3217.000000	1.194364
3216.000000	1.196046
3215.000000	1.197931
3214.000000	1.198588
3213.000000	1.198606
3212.000000	1.199579
3211.000000	1.200682
3210.000000	1.199917
3209.000000	1.197968
3208.000000	1.197201
3207.000000	1.197596
3206.000000	1.197171
3205.000000	1.195688
3204.000000	1.194469
3203.000000	1.193388
3202.000000	1.191395
3201.000000	1.189128
3200.000000	1.187680
3199.000000	1.185722
3198.000000	1.181252
3197.000000	1.175234
3196.000000	1.170226
3195.000000	1.166437
3194.000000	1.162401
3193.000000	1.158233
3192.000000	1.154887
3191.000000	1.151419
3190.000000	1.146467
3189.000000	1.141282
3188.000000	1.137820
3187.000000	1.135017
3186.000000	1.130333
3185.000000	1.123806
3184.000000	1.117255
3183.000000	1.110858
3182.000000	1.103968
3181.000000	1.097839
3180.000000	1.093899
3179.000000	1.090582
3178.000000	1.085504
3177.000000	1.079546
3176.000000	1.075197
3175.000000	1.072204
3174.000000	1.068534
3173.000000	1.064331
3172.000000	1.061130
3171.000000	1.058392
3170.000000	1.054601
3169.000000	1.050719
3168.000000	1.048808
3167.000000	1.048181
3166.000000	1.046617
3165.000000	1.044412
3164.000000	1.043561
3163.000000	1.043814
3162.000000	1.043174
3161.000000	1.041560
3160.000000	1.040484
3159.000000	1.039862
3158.000000	1.038433
3157.000000	1.036606
3156.000000	1.035771
3155.000000	1.035646
3154.000000	1.035341
3153.000000	1.036002
3152.000000	1.039233
3151.000000	1.044055
3150.000000	1.048480
3149.000000	1.052935
3148.000000	1.058959
3147.000000	1.065754
3146.000000	1.071315
3145.000000	1.075780
3144.000000	1.080442
3143.000000	1.084710
3142.000000	1.087456
3141.000000	1.090352
3140.000000	1.096450
3139.000000	1.106125
3138.000000	1.117385
3137.000000	1.129155
3136.000000	1.141314
3135.000000	1.152717
3134.000000	1.162295
3133.000000	1.171364
3132.000000	1.181909
3131.000000	1.193614
3130.000000	1.205258
3129.000000	1.217638
3128.000000	1.232087
3127.000000	1.247279
3126.000000	1.260645
3125.000000	1.272163
3124.000000	1.283932
3123.000000	1.296694
3122.000000	1.309179
3121.000000	1.320230
3120.000000	1.329879
3119.000000	1.339604
3118.000000	1.353057
3117.000000	1.374245
3116.000000	1.402673
3115.000000	1.432522
3114.000000	1.458763
3113.000000	1.481724
3112.000000	1.503637
3111.000000	1.524290
3110.000000	1.543389
3109.000000	1.563947
3108.000000	1.588968
3107.000000	1.616778
3106.000000	1.643630
3105.000000	1.669085
3104.000000	1.695131
3103.000000	1.721910
3102.000000	1.748292
3101.000000	1.775118
3100.000000	1.803990
3099.000000	1.833921
3098.000000	1.862945
3097.000000	1.891907
3096.000000	1.923117
3095.000000	1.956341
3094.000000	1.989386
3093.000000	2.021703
3092.000000	2.054337
3091.000000	2.087393
3090.000000	2.120633
3089.000000	2.155439
3088.000000	2.193148
3087.000000	2.232426
3086.000000	2.270984
3085.000000	2.308805
3084.000000	2.347185
3083.000000	2.386099
3082.000000	2.425243
3081.000000	2.466027
3080.000000	2.509724
3079.000000	2.555019
3078.000000	2.600118
3077.000000	2.645744
3076.000000	2.693346
3075.000000	2.742094
3074.000000	2.790336
3073.000000	2.838225
3072.000000	2.886215
3071.000000	2.932959
3070.000000	2.977846
3069.000000	3.023718
3068.000000	3.073704
3067.000000	3.126933
3066.000000	3.180432
3065.000000	3.233718
3064.000000	3.288172
3063.000000	3.343464
3062.000000	3.398056
3061.000000	3.452155
3060.000000	3.507071
3059.000000	3.562689
3058.000000	3.618303
3057.000000	3.674786
3056.000000	3.733128
3055.000000	3.792131
3054.000000	3.850327
3053.000000	3.908833
3052.000000	3.969602
3051.000000	4.032073
3050.000000	4.094245
3049.000000	4.155791
3048.000000	4.217520
3047.000000	4.279156
3046.000000	4.340244
3045.000000	4.401907
3044.000000	4.465280
3043.000000	4.529613
3042.000000	4.594282
3041.000000	4.660860
3040.000000	4.730461
3039.000000	4.800706
3038.000000	4.868202
3037.000000	4.932757
3036.000000	4.996757
3035.000000	5.061857
3034.000000	5.128698
3033.000000	5.198079
3032.000000	5.269626
3031.000000	5.340788
3030.000000	5.409734
3029.000000	5.477816
3028.000000	5.547035
3027.000000	5.617035
3026.000000	5.686951
3025.000000	5.757846
3024.000000	5.830415
3023.000000	5.902451
3022.000000	5.971859
3021.000000	6.040376
3020.000000	6.111028
3019.000000	6.183468
3018.000000	6.255082
3017.000000	6.325346
3016.000000	6.395925
3015.000000	6.467708
3014.000000	6.540765
3013.000000	6.616020
3012.000000	6.693902
3011.000000	6.772452
3010.000000	6.849537
3009.000000	6.925945
3008.000000	7.003652
3007.000000	7.082293
3006.000000	7.159958
3005.000000	7.236244
3004.000000	7.311985
3003.000000	7.387187
3002.000000	7.461885
3001.000000	7.537837
3000.000000	7.616714
2999.000000	7.697437
2998.000000	7.777517
2997.000000	7.855951
2996.000000	7.932940
2995.000000	8.008512
2994.000000	8.083772
2993.000000	8.161634
2992.000000	8.243448
2991.000000	8.326393
2990.000000	8.406923
2989.000000	8.485387
2988.000000	8.564595
2987.000000	8.645367
2986.000000	8.726429
2985.000000	8.807259
2984.000000	8.888037
2983.000000	8.967924
2982.000000	9.046415
2981.000000	9.125447
2980.000000	9.207289
2979.000000	9.291122
2978.000000	9.374374
2977.000000	9.456513
2976.000000	9.538969
2975.000000	9.622221
2974.000000	9.705662
2973.000000	9.789421
2972.000000	9.873763
2971.000000	9.957533
2970.000000	10.039759
2969.000000	10.121957
2968.000000	10.206268
2967.000000	10.292220
2966.000000	10.377716
2965.000000	10.462273
2964.000000	10.546664
2963.000000	10.630356
2962.000000	10.712133
2961.000000	10.792561
2960.000000	10.873318
2959.000000	10.954798
2958.000000	11.036553
2957.000000	11.118999
2956.000000	11.202281
2955.000000	11.284662
2954.000000	11.364594
2953.000000	11.443296
2952.000000	11.522912
2951.000000	11.603294
2950.000000	11.683104
2949.000000	11.762649
2948.000000	11.842980
2947.000000	11.923403
2946.000000	12.002761
2945.000000	12.082214
2944.000000	12.163958
2943.000000	12.247892
2942.000000	12.332035
2941.000000	12.415423
2940.000000	12.498107
2939.000000	12.579268
2938.000000	12.658070
2937.000000	12.735746
2936.000000	12.814295
2935.000000	12.893689
2934.000000	12.972719
2933.000000	13.051725
2932.000000	13.131912
2931.000000	13.212673
2930.000000	13.292199
2929.000000	13.370216
2928.000000	13.447707
2927.000000	13.524640
2926.000000	13.600348
2925.000000	13.675413
2924.000000	13.750838
2923.000000	13.826150
2922.000000	13.900586
2921.000000	13.975137
2920.000000	14.051153
2919.000000	14.128059
2918.000000	14.204707
2917.000000	14.281782
2916.000000	14.360320
2915.000000	14.438968
2914.000000	14.515272
2913.000000	14.588917
2912.000000	14.661337
2911.000000	14.732896
2910.000000	14.802826
2909.000000	14.871329
2908.000000	14.939586
2907.000000	15.008156
2906.000000	15.077197
2905.000000	15.147390
2904.000000	15.218585
2903.000000	15.288390
2902.000000	15.354402
2901.000000	15.417327
2900.000000	15.480162
2899.000000	15.544708
2898.000000	15.610863
2897.000000	15.677845
2896.000000	15.744190
2895.000000	15.807331
2894.000000	15.865654
2893.000000	15.920720
2892.000000	15.975590
2891.000000	16.031467
2890.000000	16.087530
2889.000000	16.143161
2888.000000	16.198228
2887.000000	16.251769
2886.000000	16.302458
2885.000000	16.350064
2884.000000	16.394851
2883.000000	16.436264
2882.000000	16.473868
2881.000000	16.508836
2880.000000	16.542743
2879.000000	16.575637
2878.000000	16.607031
2877.000000	16.637877
2876.000000	16.669610
2875.000000	16.701931
2874.000000	16.733698
2873.000000	16.765382
2872.000000	16.799012
2871.000000	16.836676
2870.000000	16.880891
2869.000000	16.935273
2868.000000	17.002093
2867.000000	17.079502
2866.000000	17.163418
2865.000000	17.251716
2864.000000	17.344791
2863.000000	17.442798
2862.000000	17.544661
2861.000000	17.649296
2860.000000	17.755690
2859.000000	17.861864
2858.000000	17.965881
2857.000000	18.067874
2856.000000	18.169517
2855.000000	18.271819
2854.000000	18.374723
2853.000000	18.478067
2852.000000	18.581186
2851.000000	18.682148
2850.000000	18.779113
2849.000000	18.872035
2848.000000	18.961869
2847.000000	19.049090
2846.000000	19.134576
2845.000000	19.220639
2844.000000	19.309061
2843.000000	19.398701
2842.000000	19.486870
2841.000000	19.572373
2840.000000	19.655481
2839.000000	19.736056
2838.000000	19.814008
2837.000000	19.891019
2836.000000	19.969342
2835.000000	20.048954
2834.000000	20.127690
2833.000000	20.204040
2832.000000	20.278061
2831.000000	20.350044
2830.000000	20.420348
2829.000000	20.490473
2828.000000	20.562267
2827.000000	20.635820
2826.000000	20.709555
2825.000000	20.782285
2824.000000	20.853799
2823.000000	20.923850
2822.000000	20.992276
2821.000000	21.060046
2820.000000	21.128592
2819.000000	21.198241
2818.000000	21.268530
2817.000000	21.339468
2816.000000	21.410813
2815.000000	21.480727
2814.000000	21.547286
2813.000000	21.611330
2812.000000	21.676021
2811.000000	21.743648
2810.000000	21.814272
2809.000000	21.887046
2808.000000	21.960727
2807.000000	22.033056
2806.000000	22.101765
2805.000000	22.166809
2804.000000	22.230254
2803.000000	22.294030
2802.000000	22.359117
2801.000000	22.426461
2800.000000	22.496580
2799.000000	22.568086
2798.000000	22.638250
2797.000000	22.705439
2796.000000	22.769861
2795.000000	22.832314
2794.000000	22.893867
2793.000000	22.956487
2792.000000	23.021893
2791.000000	23.089377
2790.000000	23.156236
2789.000000	23.220499
2788.000000	23.281924
2787.000000	23.340706
2786.000000	23.397252
2785.000000	23.453285
2784.000000	23.511160
2783.000000	23.571486
2782.000000	23.632743
2781.000000	23.693372
2780.000000	23.752687
2779.000000	23.809867
2778.000000	23.864151
2777.000000	23.916517
2776.000000	23.969539
2775.000000	24.024923
2774.000000	24.082343
2773.000000	24.140599
2772.000000	24.198316
2771.000000	24.253523
2770.000000	24.304634
2769.000000	24.352563
2768.000000	24.400456
2767.000000	24.450812
2766.000000	24.504006
2765.000000	24.559489
2764.000000	24.616433
2763.000000	24.672749
2762.000000	24.725500
2761.000000	24.773467
2760.000000	24.818367
2759.000000	24.863016
2758.000000	24.909470
2757.000000	24.958937
2756.000000	25.011642
2755.000000	25.065813
2754.000000	25.118088
2753.000000	25.166015
2752.000000	25.209673
2751.000000	25.250820
2750.000000	25.291688
2749.000000	25.334596
2748.000000	25.381051
2747.000000	25.430252
2746.000000	25.479310
2745.000000	25.525401
2744.000000	25.567231
2743.000000	25.605037
2742.000000	25.640731
2741.000000	25.677849
2740.000000	25.719438
2739.000000	25.765228
2738.000000	25.811927
2737.000000	25.856341
2736.000000	25.897080
2735.000000	25.933824
2734.000000	25.967154
2733.000000	25.999498
2732.000000	26.034197
2731.000000	26.072717
2730.000000	26.113919
2729.000000	26.156101
2728.000000	26.197924
2727.000000	26.237241
2726.000000	26.271570
2725.000000	26.301136
2724.000000	26.329787
2723.000000	26.361603
2722.000000	26.397685
2721.000000	26.436714
2720.000000	26.476896
2719.000000	26.516202
2718.000000	26.552357
2717.000000	26.584387
2716.000000	26.613727
2715.000000	26.643014
2714.000000	26.674288
2713.000000	26.708563
2712.000000	26.745639
2711.000000	26.783326
2710.000000	26.817915
2709.000000	26.846562
2708.000000	26.869185
2707.000000	26.888156
2706.000000	26.906801
2705.000000	26.927931
2704.000000	26.952038
2703.000000	26.976339
2702.000000	26.996763
2701.000000	27.011306
2700.000000	27.020825
2699.000000	27.026950
2698.000000	27.030963
2697.000000	27.034804
2696.000000	27.040732
2695.000000	27.049017
2694.000000	27.057266
2693.000000	27.062711
2692.000000	27.064085
2691.000000	27.061054
2690.000000	27.053883
2689.000000	27.044578
2688.000000	27.036553
2687.000000	27.031914
2686.000000	27.029871
2685.000000	27.028260
2684.000000	27.025227
2683.000000	27.018990
2682.000000	27.008153
2681.000000	26.993637
2680.000000	26.978994
2679.000000	26.967499
2678.000000	26.959672
2677.000000	26.954243
2676.000000	26.950131
2675.000000	26.946515
2674.000000	26.942343
2673.000000	26.937407
2672.000000	26.933441
2671.000000	26.933542
2670.000000	26.940859
2669.000000	26.957749
2668.000000	26.985088
2667.000000	27.021259
2666.000000	27.062924
2665.000000	27.107635
2664.000000	27.155183
2663.000000	27.207006
2662.000000	27.264929
2661.000000	27.330642
2660.000000	27.404658
2659.000000	27.484607
2658.000000	27.565939
2657.000000	27.644917
2656.000000	27.720465
2655.000000	27.793269
2654.000000	27.864533
2653.000000	27.936272
2652.000000	28.010908
2651.000000	28.089053
2650.000000	28.168281
2649.000000	28.244902
2648.000000	28.316257
2647.000000	28.381173
2646.000000	28.439777
2645.000000	28.493977
2644.000000	28.547206
2643.000000	28.602121
2642.000000	28.658742
2641.000000	28.715004
2640.000000	28.768073
2639.000000	28.815135
2638.000000	28.854496
2637.000000	28.887377
2636.000000	28.917950
2635.000000	28.950234
2634.000000	28.985337
2633.000000	29.021650
2632.000000	29.056572
2631.000000	29.087487
2630.000000	29.112343
2629.000000	29.131034
2628.000000	29.145880
2627.000000	29.159989
2626.000000	29.175465
2625.000000	29.193138
2624.000000	29.212962
2623.000000	29.233760
2622.000000	29.253200
2621.000000	29.268858
2620.000000	29.279224
2619.000000	29.284258
2618.000000	29.286100
2617.000000	29.289023
2616.000000	29.296876
2615.000000	29.309514
2614.000000	29.322629
2613.000000	29.331425
2612.000000	29.333632
2611.000000	29.329455
2610.000000	29.320566
2609.000000	29.309834
2608.000000	29.300141
2607.000000	29.291788
2606.000000	29.281936
2605.000000	29.266828
2604.000000	29.243915
2603.000000	29.212144
2602.000000	29.172037
2601.000000	29.126667
2600.000000	29.080674
2599.000000	29.037177
2598.000000	28.996547
2597.000000	28.958358
2596.000000	28.923059
2595.000000	28.891278
2594.000000	28.863468
2593.000000	28.841417
2592.000000	28.829286
2591.000000	28.831530
2590.000000	28.850629
2589.000000	28.887016
2588.000000	28.938998
2587.000000	29.002967
2586.000000	29.074538
2585.000000	29.151306
2584.000000	29.234183
2583.000000	29.324951
2582.000000	29.424245
2581.000000	29.531416
2580.000000	29.644829
2579.000000	29.761459
2578.000000	29.877154
2577.000000	29.989083
2576.000000	30.097282
2575.000000	30.203545
2574.000000	30.309927
2573.000000	30.418519
2572.000000	30.530979
2571.000000	30.646850
2570.000000	30.763222
2569.000000	30.877057
2568.000000	30.987229
2567.000000	31.093990
2566.000000	31.198020
2565.000000	31.300975
2564.000000	31.405394
2563.000000	31.512543
2562.000000	31.620860
2561.000000	31.727278
2560.000000	31.829206
2559.000000	31.924739
2558.000000	32.013085
2557.000000	32.096075
2556.000000	32.177904
2555.000000	32.261791
2554.000000	32.347384
2553.000000	32.432333
2552.000000	32.514735
2551.000000	32.592938
2550.000000	32.665071
2549.000000	32.730727
2548.000000	32.792422
2547.000000	32.853505
2546.000000	32.915070
2545.000000	32.976097
2544.000000	33.034990
2543.000000	33.089777
2542.000000	33.137930
2541.000000	33.177760
2540.000000	33.209936
2539.000000	33.236152
2538.000000	33.257423
2537.000000	33.274287
2536.000000	33.286707
2535.000000	33.292840
2534.000000	33.288560
2533.000000	33.270274
2532.000000	33.237556
2531.000000	33.191879
2530.000000	33.135359
2529.000000	33.071486
2528.000000	33.005371
2527.000000	32.940999
2526.000000	32.878898
2525.000000	32.818526
2524.000000	32.761694
2523.000000	32.712459
2522.000000	32.674889
2521.000000	32.653000
2520.000000	32.650597
2519.000000	32.669366
2518.000000	32.707449
2517.000000	32.760699
2516.000000	32.825825
2515.000000	32.900270
2514.000000	32.981296
2513.000000	33.067111
2512.000000	33.157598
2511.000000	33.253264
2510.000000	33.353190
2509.000000	33.455407
2508.000000	33.558317
2507.000000	33.660202
2506.000000	33.758656
2505.000000	33.851990
2504.000000	33.940713
2503.000000	34.026411
2502.000000	34.110009
2501.000000	34.191722
2500.000000	34.271428
2499.000000	34.347695
2498.000000	34.417658
2497.000000	34.479844
2496.000000	34.536019
2495.000000	34.589430
2494.000000	34.642385
2493.000000	34.696296
2492.000000	34.752202
2491.000000	34.809092
2490.000000	34.863307
2489.000000	34.911626
2488.000000	34.953769
2487.000000	34.991061
2486.000000	35.024462
2485.000000	35.055694
2484.000000	35.088065
2483.000000	35.123364
2482.000000	35.159485
2481.000000	35.193195
2480.000000	35.223989
2479.000000	35.253241
2478.000000	35.281248
2477.000000	35.307865
2476.000000	35.334505
2475.000000	35.362581
2474.000000	35.390841
2473.000000	35.416706
2472.000000	35.439579
2471.000000	35.460650
2470.000000	35.480381
2469.000000	35.498710
2468.000000	35.516873
2467.000000	35.536626
2466.000000	35.558051
2465.000000	35.580085
2464.000000	35.602559
2463.000000	35.625765
2462.000000	35.648807
2461.000000	35.670299
2460.000000	35.690103
2459.000000	35.708826
2458.000000	35.726582
2457.000000	35.743871
2456.000000	35.762382
2455.000000	35.783012
2454.000000	35.804257
2453.000000	35.824370
2452.000000	35.843934
2451.000000	35.864515
2450.000000	35.886150
2449.000000	35.908139
2448.000000	35.930824
2447.000000	35.954363
2446.000000	35.977053
2445.000000	35.997135
2444.000000	36.015185
2443.000000	36.032774
2442.000000	36.050111
2441.000000	36.067086
2440.000000	36.085160
2439.000000	36.105829
2438.000000	36.128456
2437.000000	36.151707
2436.000000	36.175666
2435.000000	36.200308
2434.000000	36.223600
2433.000000	36.243844
2432.000000	36.262606
2431.000000	36.282618
2430.000000	36.303979
2429.000000	36.325065
2428.000000	36.345944
2427.000000	36.368022
2426.000000	36.391267
2425.000000	36.414605
2424.000000	36.438332
2423.000000	36.463583
2422.000000	36.490113
2421.000000	36.516925
2420.000000	36.544305
2419.000000	36.572953
2418.000000	36.601939
2417.000000	36.629734
2416.000000	36.656261
2415.000000	36.681787
2414.000000	36.705115
2413.000000	36.725447
2412.000000	36.744921
2411.000000	36.766710
2410.000000	36.791478
2409.000000	36.817926
2408.000000	36.845605
2407.000000	36.874650
2406.000000	36.903817
2405.000000	36.931555
2404.000000	36.958321
2403.000000	36.985495
2402.000000	37.012909
2401.000000	37.039645
2400.000000	37.066133
2399.000000	37.093185
2398.000000	37.120132
2397.000000	37.146357
2396.000000	37.173555
2395.000000	37.204057
2394.000000	37.238116
2393.000000	37.274990
2392.000000	37.315119
2391.000000	37.358767
2390.000000	37.403979
2389.000000	37.448493
2388.000000	37.492869
2387.000000	37.539020
2386.000000	37.587517
2385.000000	37.639068
2384.000000	37.696294
2383.000000	37.761953
2382.000000	37.835297
2381.000000	37.913283
2380.000000	37.994052
2379.000000	38.075463
2378.000000	38.153531
2377.000000	38.225712
2376.000000	38.293939
2375.000000	38.361464
2374.000000	38.427725
2373.000000	38.489825
2372.000000	38.548798
2371.000000	38.608582
2370.000000	38.669952
2369.000000	38.732198
2368.000000	38.798128
2367.000000	38.870005
2366.000000	38.943002
2365.000000	39.012790
2364.000000	39.084374
2363.000000	39.156360
2362.000000	39.223428
2361.000000	39.283473
2360.000000	39.333858
2359.000000	39.380658
2358.000000	39.420583
2357.000000	39.451787
2356.000000	39.482465
2355.000000	39.513548
2354.000000	39.551036
2353.000000	39.605245
2352.000000	39.708436
2351.000000	39.866606
2350.000000	40.034500
2349.000000	40.165848
2348.000000	40.240555
2347.000000	40.292237
2346.000000	40.353931
2345.000000	40.430215
2344.000000	40.508587
2343.000000	40.567536
2342.000000	40.621877
2341.000000	40.677894
2340.000000	40.741851
2339.000000	40.813455
2338.000000	40.892745
2337.000000	40.979769
2336.000000	41.073992
2335.000000	41.172259
2334.000000	41.266270
2333.000000	41.347734
2332.000000	41.418220
2331.000000	41.490624
2330.000000	41.561968
2329.000000	41.643990
2328.000000	41.723830
2327.000000	41.807240
2326.000000	41.880826
2325.000000	41.944290
2324.000000	42.004697
2323.000000	42.066570
2322.000000	42.136678
2321.000000	42.207343
2320.000000	42.281252
2319.000000	42.358062
2318.000000	42.435913
2317.000000	42.509738
2316.000000	42.574753
2315.000000	42.637872
2314.000000	42.699749
2313.000000	42.766486
2312.000000	42.834659
2311.000000	42.909804
2310.000000	42.985219
2309.000000	43.059797
2308.000000	43.127427
2307.000000	43.192555
2306.000000	43.254965
2305.000000	43.318189
2304.000000	43.383810
2303.000000	43.455960
2302.000000	43.531172
2301.000000	43.605280
2300.000000	43.672276
2299.000000	43.733833
2298.000000	43.789240
2297.000000	43.843263
2296.000000	43.899409
2295.000000	43.964852
2294.000000	44.037837
2293.000000	44.114153
2292.000000	44.187855
2291.000000	44.256708
2290.000000	44.317911
2289.000000	44.371232
2288.000000	44.421791
2287.000000	44.476925
2286.000000	44.539535
2285.000000	44.606358
2284.000000	44.674090
2283.000000	44.739835
2282.000000	44.800321
2281.000000	44.852694
2280.000000	44.900258
2279.000000	44.949684
2278.000000	45.005160
2277.000000	45.066027
2276.000000	45.130752
2275.000000	45.197404
2274.000000	45.260198
2273.000000	45.312662
2272.000000	45.353735
2271.000000	45.388876
2270.000000	45.423783
2269.000000	45.461986
2268.000000	45.506753
2267.000000	45.559637
2266.000000	45.616176
2265.000000	45.668448
2264.000000	45.711631
2263.000000	45.746734
2262.000000	45.776388
2261.000000	45.803737
2260.000000	45.834114
2259.000000	45.871076
2258.000000	45.911832
2257.000000	45.948400
2256.000000	45.975794
2255.000000	45.993679
2254.000000	46.003324
2253.000000	46.007633
2252.000000	46.013224
2251.000000	46.027197
2250.000000	46.049606
2249.000000	46.074189
2248.000000	46.094185
2247.000000	46.104913
2246.000000	46.101985
2245.000000	46.084234
2244.000000	46.058271
2243.000000	46.034491
2242.000000	46.017956
2241.000000	46.006782
2240.000000	45.997379
2239.000000	45.985810
2238.000000	45.965678
2237.000000	45.931780
2236.000000	45.887086
2235.000000	45.840906
2234.000000	45.800083
2233.000000	45.765717
2232.000000	45.736552
2231.000000	45.709320
2230.000000	45.676345
2229.000000	45.629571
2228.000000	45.568536
2227.000000	45.500464
2226.000000	45.433141
2225.000000	45.371909
2224.000000	45.321504
2223.000000	45.283834
2222.000000	45.253233
2221.000000	45.219468
2220.000000	45.176652
2219.000000	45.125920
2218.000000	45.070764
2217.000000	45.015133
2216.000000	44.965051
2215.000000	44.925596
2214.000000	44.895023
2213.000000	44.866072
2212.000000	44.833369
2211.000000	44.796012
2210.000000	44.754708
2209.000000	44.712317
2208.000000	44.676643
2207.000000	44.656526
2206.000000	44.653548
2205.000000	44.660924
2204.000000	44.669846
2203.000000	44.673140
2202.000000	44.665118
2201.000000	44.644720
2200.000000	44.619473
2199.000000	44.601160
2198.000000	44.596457
2197.000000	44.604573
2196.000000	44.621876
2195.000000	44.643463
2194.000000	44.661809
2193.000000	44.670841
2192.000000	44.672617
2191.000000	44.675489
2190.000000	44.685593
2189.000000	44.703642
2188.000000	44.727924
2187.000000	44.754447
2186.000000	44.774883
2185.000000	44.781038
2184.000000	44.772743
2183.000000	44.757538
2182.000000	44.743320
2181.000000	44.735617
2180.000000	44.739425
2179.000000	44.756303
2178.000000	44.779197
2177.000000	44.796009
2176.000000	44.799462
2175.000000	44.790055
2174.000000	44.771404
2173.000000	44.748636
2172.000000	44.729788
2171.000000	44.721304
2170.000000	44.721036
2169.000000	44.720529
2168.000000	44.714391
2167.000000	44.702991
2166.000000	44.687896
2165.000000	44.671367
2164.000000	44.659829
2163.000000	44.660775
2162.000000	44.674620
2161.000000	44.693851
2160.000000	44.709881
2159.000000	44.716592
2158.000000	44.709271
2157.000000	44.687458
2156.000000	44.659405
2155.000000	44.637824
2154.000000	44.630051
2153.000000	44.635720
2152.000000	44.651610
2151.000000	44.672562
2150.000000	44.689210
2149.000000	44.692687
2148.000000	44.683141
2147.000000	44.668754
2146.000000	44.656630
2145.000000	44.649367
2144.000000	44.648183
2143.000000	44.651792
2142.000000	44.652778
2141.000000	44.642288
2140.000000	44.619730
2139.000000	44.593134
2138.000000	44.570972
2137.000000	44.558861
2136.000000	44.561616
2135.000000	44.580103
2134.000000	44.605543
2133.000000	44.623890
2132.000000	44.627207
2131.000000	44.616662
2130.000000	44.596272
2129.000000	44.571148
2128.000000	44.550651
2127.000000	44.544264
2126.000000	44.552341
2125.000000	44.566870
2124.000000	44.581790
2123.000000	44.596122
2122.000000	44.607848
2121.000000	44.613223
2120.000000	44.614144
2119.000000	44.618972
2118.000000	44.633348
2117.000000	44.655048
2116.000000	44.678504
2115.000000	44.698801
2114.000000	44.711047
2113.000000	44.713249
2112.000000	44.712317
2111.000000	44.721619
2110.000000	44.750596
2109.000000	44.800075
2108.000000	44.866195
2107.000000	44.942726
2106.000000	45.019642
2105.000000	45.086946
2104.000000	45.143035
2103.000000	45.195335
2102.000000	45.252172
2101.000000	45.318567
2100.000000	45.397798
2099.000000	45.489754
2098.000000	45.586974
2097.000000	45.678917
2096.000000	45.762788
2095.000000	45.844962
2094.000000	45.932041
2093.000000	46.026608
2092.000000	46.130670
2091.000000	46.244916
2090.000000	46.362357
2089.000000	46.469589
2088.000000	46.557204
2087.000000	46.624762
2086.000000	46.676523
2085.000000	46.719190
2084.000000	46.763255
2083.000000	46.818306
2082.000000	46.883990
2081.000000	46.950521
2080.000000	47.008447
2079.000000	47.052996
2078.000000	47.081049
2077.000000	47.091730
2076.000000	47.091631
2075.000000	47.091052
2074.000000	47.093498
2073.000000	47.094500
2072.000000	47.089147
2071.000000	47.075605
2070.000000	47.051709
2069.000000	47.015894
2068.000000	46.973743
2067.000000	46.938049
2066.000000	46.920665
2065.000000	46.926342
2064.000000	46.951941
2063.000000	46.986527
2062.000000	47.014471
2061.000000	47.025599
2060.000000	47.023541
2059.000000	47.020191
2058.000000	47.024029
2057.000000	47.038848
2056.000000	47.069459
2055.000000	47.118654
2054.000000	47.180153
2053.000000	47.243249
2052.000000	47.304224
2051.000000	47.367987
2050.000000	47.439759
2049.000000	47.522103
2048.000000	47.618666
2047.000000	47.731801
2046.000000	47.854632
2045.000000	47.973054
2044.000000	48.078851
2043.000000	48.175867
2042.000000	48.273812
2041.000000	48.382875
2040.000000	48.513078
2039.000000	48.670000
2038.000000	48.848704
2037.000000	49.037027
2036.000000	49.225892
2035.000000	49.411367
2034.000000	49.589221
2033.000000	49.756991
2032.000000	49.921270
2031.000000	50.092916
2030.000000	50.275124
2029.000000	50.462452
2028.000000	50.650849
2027.000000	50.839698
2026.000000	51.024763
2025.000000	51.201286
2024.000000	51.373485
2023.000000	51.553387
2022.000000	51.746777
2021.000000	51.947158
2020.000000	52.145671
2019.000000	52.338244
2018.000000	52.522406
2017.000000	52.695494
2016.000000	52.857996
2015.000000	53.012519
2014.000000	53.160279
2013.000000	53.304353
2012.000000	53.454144
2011.000000	53.616882
2010.000000	53.786024
2009.000000	53.947179
2008.000000	54.094993
2007.000000	54.234379
2006.000000	54.367603
2005.000000	54.494599
2004.000000	54.620491
2003.000000	54.752343
2002.000000	54.885068
2001.000000	55.004293
2000.000000	55.105485
1999.000000	55.195497
1998.000000	55.282841
1997.000000	55.373214
1996.000000	55.470048
1995.000000	55.571878
1994.000000	55.672984
1993.000000	55.774289
1992.000000	55.885293
1991.000000	56.003300
1990.000000	56.104542
1989.000000	56.173094
1988.000000	56.224444
1987.000000	56.285689
1986.000000	56.361982
1985.000000	56.439750
1984.000000	56.513230
1983.000000	56.588217
1982.000000	56.662354
1981.000000	56.726192
1980.000000	56.783409
1979.000000	56.847172
1978.000000	56.921809
1977.000000	57.000867
1976.000000	57.080655
1975.000000	57.159487
1974.000000	57.226871
1973.000000	57.271537
1972.000000	57.297765
1971.000000	57.318547
1970.000000	57.336567
1969.000000	57.350405
1968.000000	57.375925
1967.000000	57.437440
1966.000000	57.531857
1965.000000	57.625462
1964.000000	57.693011
1963.000000	57.737728
1962.000000	57.772032
1961.000000	57.802179
1960.000000	57.833591
1959.000000	57.871822
1958.000000	57.912290
1957.000000	57.942579
1956.000000	57.961504
1955.000000	57.979633
1954.000000	58.001776
1953.000000	58.024348
1952.000000	58.050941
1951.000000	58.094602
1950.000000	58.152899
1949.000000	58.205652
1948.000000	58.243877
1947.000000	58.274914
1946.000000	58.296873
1945.000000	58.293257
1944.000000	58.265502
1943.000000	58.249772
1942.000000	58.277627
1941.000000	58.334434
1940.000000	58.384240
1939.000000	58.414162
1938.000000	58.431442
1937.000000	58.442321
1936.000000	58.450845
1935.000000	58.462333
1934.000000	58.479588
1933.000000	58.498538
1932.000000	58.514332
1931.000000	58.528848
1930.000000	58.534851
1929.000000	58.523558
1928.000000	58.502654
1927.000000	58.485479
1926.000000	58.468730
1925.000000	58.433839
1924.000000	58.393383
1923.000000	58.396692
1922.000000	58.463289
1921.000000	58.550004
1920.000000	58.602061
1919.000000	58.606629
1918.000000	58.586876
1917.000000	58.556975
1916.000000	58.511239
1915.000000	58.453564
1914.000000	58.398510
1913.000000	58.348050
1912.000000	58.293883
1911.000000	58.237628
1910.000000	58.188732
1909.000000	58.158415
1908.000000	58.150452
1907.000000	58.157028
1906.000000	58.165073
1905.000000	58.158804
1904.000000	58.138064
1903.000000	58.114487
1902.000000	58.087169
1901.000000	58.050289
1900.000000	58.009747
1899.000000	57.977120
1898.000000	57.952782
1897.000000	57.925887
1896.000000	57.903988
1895.000000	57.913965
1894.000000	57.958714
1893.000000	58.002838
1892.000000	58.013442
1891.000000	57.995154
1890.000000	57.981622
1889.000000	57.996173
1888.000000	58.023854
1887.000000	58.034732
1886.000000	58.017896
1885.000000	57.984459
1884.000000	57.956600
1883.000000	57.948774
1882.000000	57.952783
1881.000000	57.956459
1880.000000	57.963202
1879.000000	57.979442
1878.000000	57.999033
1877.000000	58.006381
1876.000000	57.996406
1875.000000	57.982317
1874.000000	57.975727
1873.000000	57.974994
1872.000000	57.971397
1871.000000	57.948075
1870.000000	57.888799
1869.000000	57.813660
1868.000000	57.769131
1867.000000	57.763908
1866.000000	57.765158
1865.000000	57.748396
1864.000000	57.717190
1863.000000	57.686204
1862.000000	57.656526
1861.000000	57.618021
1860.000000	57.571341
1859.000000	57.527262
1858.000000	57.486144
1857.000000	57.439097
1856.000000	57.387891
1855.000000	57.342465
1854.000000	57.308916
1853.000000	57.274400
1852.000000	57.236317
1851.000000	57.202871
1850.000000	57.168573
1849.000000	57.121501
1848.000000	57.063924
1847.000000	57.010228
1846.000000	56.960212
1845.000000	56.899258
1844.000000	56.827752
1843.000000	56.762788
1842.000000	56.704927
1841.000000	56.638610
1840.000000	56.562809
1839.000000	56.492135
1838.000000	56.430760
1837.000000	56.367549
1836.000000	56.298906
1835.000000	56.233061
1834.000000	56.169352
1833.000000	56.095726
1832.000000	56.011130
1831.000000	55.924305
1830.000000	55.845058
1829.000000	55.776598
1828.000000	55.713738
1827.000000	55.623868
1826.000000	55.500640
1825.000000	55.378777
1824.000000	55.285758
1823.000000	55.211585
1822.000000	55.128911
1821.000000	55.030453
1820.000000	54.925085
1819.000000	54.822038
1818.000000	54.719400
1817.000000	54.608746
1816.000000	54.498370
1815.000000	54.396510
1814.000000	54.289919
1813.000000	54.163736
1812.000000	54.027770
1811.000000	53.917731
1810.000000	53.841604
1809.000000	53.766568
1808.000000	53.678193
1807.000000	53.592284
1806.000000	53.515241
1805.000000	53.431394
1804.000000	53.334888
1803.000000	53.232305
1802.000000	53.124220
1801.000000	53.012858
1800.000000	52.903651
1799.000000	52.799158
1798.000000	52.691425
1797.000000	52.589379
1796.000000	52.534810
1795.000000	52.545060
1794.000000	52.562048
1793.000000	52.507413
1792.000000	52.383916
1791.000000	52.247613
1790.000000	52.109386
1789.000000	51.964420
1788.000000	51.833222
1787.000000	51.730889
1786.000000	51.645267
1785.000000	51.552707
1784.000000	51.449150
1783.000000	51.332757
1782.000000	51.194934
1781.000000	51.056721
1780.000000	50.954967
1779.000000	50.897805
1778.000000	50.846594
1777.000000	50.786706
1776.000000	50.762357
1775.000000	50.795749
1774.000000	50.817017
1773.000000	50.742188
1772.000000	50.603568
1771.000000	50.469664
1770.000000	50.332849
1769.000000	50.167677
1768.000000	49.991125
1767.000000	49.837869
1766.000000	49.713021
1765.000000	49.601030
1764.000000	49.492355
1763.000000	49.381518
1762.000000	49.272826
1761.000000	49.164225
1760.000000	49.038550
1759.000000	48.902245
1758.000000	48.756559
1757.000000	48.605866
1756.000000	48.478337
1755.000000	48.393027
1754.000000	48.340979
1753.000000	48.283488
1752.000000	48.172597
1751.000000	47.998497
1750.000000	47.780185
1749.000000	47.534820
1748.000000	47.308377
1747.000000	47.128692
1746.000000	46.958983
1745.000000	46.770314
1744.000000	46.581347
1743.000000	46.474329
1742.000000	46.347516
1741.000000	46.185852
1740.000000	45.990901
1739.000000	45.775603
1738.000000	45.582401
1737.000000	45.400207
1736.000000	45.205152
1735.000000	44.981051
1734.000000	44.727424
1733.000000	44.460885
1732.000000	44.206202
1731.000000	43.968695
1730.000000	43.725025
1729.000000	43.455751
1728.000000	43.174142
1727.000000	42.916521
1726.000000	42.661481
1725.000000	42.381357
1724.000000	42.085679
1723.000000	41.824717
1722.000000	41.635668
1721.000000	41.505251
1720.000000	41.379215
1719.000000	41.179312
1718.000000	40.874497
1717.000000	40.489706
1716.000000	40.047613
1715.000000	39.591053
1714.000000	39.159958
1713.000000	38.745914
1712.000000	38.341120
1711.000000	37.964547
1710.000000	37.627202
1709.000000	37.317195
1708.000000	37.008736
1707.000000	36.671667
1706.000000	36.301258
1705.000000	35.954666
1704.000000	35.724527
1703.000000	35.647550
1702.000000	35.596674
1701.000000	35.328141
1700.000000	34.829072
1699.000000	34.318476
1698.000000	33.884762
1697.000000	33.469230
1696.000000	33.002843
1695.000000	32.488081
1694.000000	31.949722
1693.000000	31.425686
1692.000000	30.954279
1691.000000	30.530310
1690.000000	30.132139
1689.000000	29.782896
1688.000000	29.540534
1687.000000	29.407780
1686.000000	29.241803
1685.000000	28.821812
1684.000000	28.196949
1683.000000	27.601658
1682.000000	27.074656
1681.000000	26.594287
1680.000000	26.183335
1679.000000	25.866687
1678.000000	25.623168
1677.000000	25.362078
1676.000000	24.995774
1675.000000	24.543369
1674.000000	24.095422
1673.000000	23.698718
1672.000000	23.347696
1671.000000	23.007310
1670.000000	22.628495
1669.000000	22.199891
1668.000000	21.764597
1667.000000	21.381985
1666.000000	21.072041
1665.000000	20.791688
1664.000000	20.481935
1663.000000	20.134656
1662.000000	19.778265
1661.000000	19.426105
1660.000000	19.086095
1659.000000	18.780211
1658.000000	18.532854
1657.000000	18.369489
1656.000000	18.305456
1655.000000	18.275405
1654.000000	18.098344
1653.000000	17.696611
1652.000000	17.201494
1651.000000	16.749325
1650.000000	16.418113
1649.000000	16.179317
1648.000000	15.949066
1647.000000	15.694954
1646.000000	15.435564
1645.000000	15.161767
1644.000000	14.881648
1643.000000	14.635179
1642.000000	14.427244
1641.000000	14.233624
1640.000000	14.053871
1639.000000	13.918611
1638.000000	13.827691
1637.000000	13.714944
1636.000000	13.526857
1635.000000	13.292188
1634.000000	13.054251
1633.000000	12.830769
1632.000000	12.646078
1631.000000	12.511157
1630.000000	12.402999
1629.000000	12.285831
1628.000000	12.158144
1627.000000	12.050482
1626.000000	11.970214
1625.000000	11.884389
1624.000000	11.765119
1623.000000	11.632770
1622.000000	11.525020
1621.000000	11.457889
1620.000000	11.438952
1619.000000	11.465024
1618.000000	11.493924
1617.000000	11.465848
1616.000000	11.375159
1615.000000	11.271628
1614.000000	11.196265
1613.000000	11.155825
1612.000000	11.141029
1611.000000	11.144887
1610.000000	11.159160
1609.000000	11.172208
1608.000000	11.182352
1607.000000	11.199396
1606.000000	11.224898
1605.000000	11.250767
1604.000000	11.275892
1603.000000	11.310516
1602.000000	11.358000
1601.000000	11.408160
1600.000000	11.455573
1599.000000	11.505166
1598.000000	11.556992
1597.000000	11.602741
1596.000000	11.642764
1595.000000	11.689983
1594.000000	11.749443
1593.000000	11.811769
1592.000000	11.871187
1591.000000	11.932113
1590.000000	11.993788
1589.000000	12.047324
1588.000000	12.091937
1587.000000	12.138982
1586.000000	12.193974
1585.000000	12.250904
1584.000000	12.307579
1583.000000	12.367246
1582.000000	12.427917
1581.000000	12.485101
1580.000000	12.550748
1579.000000	12.645658
1578.000000	12.765076
1577.000000	12.866644
1576.000000	12.917709
1575.000000	12.925937
1574.000000	12.921687
1573.000000	12.943687
1572.000000	13.005135
1571.000000	13.081542
1570.000000	13.140789
1569.000000	13.177603
1568.000000	13.205634
1567.000000	13.242803
1566.000000	13.300872
1565.000000	13.375814
1564.000000	13.472020
1563.000000	13.616037
1562.000000	13.830208
1561.000000	14.077291
1560.000000	14.241297
1559.000000	14.302096
1558.000000	14.349642
1557.000000	14.350230
1556.000000	14.337447
1555.000000	14.374692
1554.000000	14.453728
1553.000000	14.535901
1552.000000	14.609603
1551.000000	14.701838
1550.000000	14.836864
1549.000000	15.007640
1548.000000	15.194354
1547.000000	15.390862
1546.000000	15.598233
1545.000000	15.814633
1544.000000	16.050355
1543.000000	16.322319
1542.000000	16.626811
1541.000000	16.934751
1540.000000	17.242616
1539.000000	17.522059
1538.000000	17.703129
1537.000000	17.826996
1536.000000	17.994594
1535.000000	18.246016
1534.000000	18.562257
1533.000000	18.907794
1532.000000	19.239950
1531.000000	19.553942
1530.000000	19.882122
1529.000000	20.238959
1528.000000	20.621250
1527.000000	21.028578
1526.000000	21.454292
1525.000000	21.880796
1524.000000	22.310723
1523.000000	22.773797
1522.000000	23.284716
1521.000000	23.795156
1520.000000	24.205083
1519.000000	24.502251
1518.000000	24.781556
1517.000000	25.117847
1516.000000	25.515925
1515.000000	25.930068
1514.000000	26.330675
1513.000000	26.717296
1512.000000	27.086314
1511.000000	27.450845
1510.000000	27.838817
1509.000000	28.262938
1508.000000	28.723686
1507.000000	29.303975
1506.000000	29.972413
1505.000000	30.417702
1504.000000	30.615234
1503.000000	30.812990
1502.000000	31.150967
1501.000000	31.616432
1500.000000	32.149464
1499.000000	32.720062
1498.000000	33.324768
1497.000000	33.940554
1496.000000	34.517623
1495.000000	35.013174
1494.000000	35.425577
1493.000000	35.792546
1492.000000	36.146902
1491.000000	36.509493
1490.000000	36.899415
1489.000000	37.302670
1488.000000	37.682612
1487.000000	38.040959
1486.000000	38.362559
1485.000000	38.603243
1484.000000	38.762150
1483.000000	38.870299
1482.000000	38.942885
1481.000000	38.965143
1480.000000	38.942344
1479.000000	38.886741
1478.000000	38.761810
1477.000000	38.508946
1476.000000	38.138770
1475.000000	37.675733
1474.000000	36.995619
1473.000000	35.928394
1472.000000	34.536246
1471.000000	33.037666
1470.000000	31.507386
1469.000000	29.903521
1468.000000	28.185116
1467.000000	26.282186
1466.000000	24.035718
1465.000000	21.392004
1464.000000	18.637025
1463.000000	16.150224
1462.000000	14.028511
1461.000000	12.172246
1460.000000	10.511703
1459.000000	8.988730
1458.000000	7.478754
1457.000000	5.973851
1456.000000	4.771373
1455.000000	4.053624
1454.000000	3.662897
1453.000000	3.423340
1452.000000	3.299377
1451.000000	3.307572
1450.000000	3.425901
1449.000000	3.633211
1448.000000	3.956852
1447.000000	4.407156
1446.000000	4.933767
1445.000000	5.507515
1444.000000	6.158620
1443.000000	6.907497
1442.000000	7.716529
1441.000000	8.540608
1440.000000	9.384414
1439.000000	10.292935
1438.000000	11.319421
1437.000000	12.483425
1436.000000	13.697537
1435.000000	14.804738
1434.000000	15.776601
1433.000000	16.711290
1432.000000	17.673785
1431.000000	18.632440
1430.000000	19.517858
1429.000000	20.289808
1428.000000	20.935243
1427.000000	21.456007
1426.000000	21.874623
1425.000000	22.230990
1424.000000	22.558185
1423.000000	22.876031
1422.000000	23.204352
1421.000000	23.557954
1420.000000	23.927441
1419.000000	24.302194
1418.000000	24.696047
1417.000000	25.130670
1416.000000	25.641847
1415.000000	26.249045
1414.000000	26.938558
1413.000000	27.694440
1412.000000	28.508230
1411.000000	29.363437
1410.000000	30.240606
1409.000000	31.128105
1408.000000	32.012459
1407.000000	32.876963
1406.000000	33.719669
1405.000000	34.557963
1404.000000	35.374941
1403.000000	36.119940
1402.000000	36.789998
1401.000000	37.434182
1400.000000	38.076777
1399.000000	38.689212
1398.000000	39.242018
1397.000000	39.744556
1396.000000	40.220057
1395.000000	40.666750
1394.000000	41.064996
1393.000000	41.399466
1392.000000	41.671969
1391.000000	41.908218
1390.000000	42.129971
1389.000000	42.316872
1388.000000	42.404224
1387.000000	42.355989
1386.000000	42.226931
1385.000000	42.121869
1384.000000	42.106790
1383.000000	42.178291
1382.000000	42.290985
1381.000000	42.380740
1380.000000	42.385205
1379.000000	42.278023
1378.000000	42.089778
1377.000000	41.868841
1376.000000	41.631002
1375.000000	41.381783
1374.000000	41.160142
1373.000000	40.992732
1372.000000	40.836295
1371.000000	40.632624
1370.000000	40.366781
1369.000000	40.060211
1368.000000	39.728956
1367.000000	39.374286
1366.000000	38.996579
1365.000000	38.584509
1364.000000	38.105742
1363.000000	37.548310
1362.000000	36.949495
1361.000000	36.346378
1360.000000	35.742652
1359.000000	35.149402
1358.000000	34.616302
1357.000000	34.206222
1356.000000	33.957164
1355.000000	33.881890
1354.000000	33.975704
1353.000000	34.199020
1352.000000	34.468069
1351.000000	34.690728
1350.000000	34.796302
1349.000000	34.734834
1348.000000	34.456335
1347.000000	33.924858
1346.000000	33.136915
1345.000000	32.113318
1344.000000	30.882096
1343.000000	29.469866
1342.000000	27.898720
1341.000000	26.183571
1340.000000	24.351588
1339.000000	22.466054
1338.000000	20.592689
1337.000000	18.748416
1336.000000	16.913747
1335.000000	15.086103
1334.000000	13.295509
1333.000000	11.577958
1332.000000	9.964745
1331.000000	8.496174
1330.000000	7.214533
1329.000000	6.133993
1328.000000	5.241654
1327.000000	4.519015
1326.000000	3.942287
1325.000000	3.476224
1324.000000	3.084153
1323.000000	2.748537
1322.000000	2.464391
1321.000000	2.221238
1320.000000	2.011251
1319.000000	1.842624
1318.000000	1.731163
1317.000000	1.682799
1316.000000	1.696731
1315.000000	1.779108
1314.000000	1.935103
1313.000000	2.157243
1312.000000	2.433853
1311.000000	2.760674
1310.000000	3.136928
1309.000000	3.554109
1308.000000	4.001328
1307.000000	4.474821
1306.000000	4.971711
1305.000000	5.482228
1304.000000	5.994781
1303.000000	6.505360
1302.000000	7.015413
1301.000000	7.524559
1300.000000	8.031829
1299.000000	8.539118
1298.000000	9.046034
1297.000000	9.544714
1296.000000	10.027268
1295.000000	10.498570
1294.000000	10.977316
1293.000000	11.486945
1292.000000	12.050661
1291.000000	12.689605
1290.000000	13.419101
1289.000000	14.241660
1288.000000	15.145319
1287.000000	16.110355
1286.000000	17.113780
1285.000000	18.130789
1284.000000	19.135271
1283.000000	20.104350
1282.000000	21.023345
1281.000000	21.883311
1280.000000	22.675082
1279.000000	23.392220
1278.000000	24.039683
1277.000000	24.630113
1276.000000	25.176639
1275.000000	25.695191
1274.000000	26.211880
1273.000000	26.758239
1272.000000	27.356521
1271.000000	28.015279
1270.000000	28.734909
1269.000000	29.507196
1268.000000	30.310650
1267.000000	31.119605
1266.000000	31.921276
1265.000000	32.715607
1264.000000	33.499836
1263.000000	34.265177
1262.000000	35.006643
1261.000000	35.721083
1260.000000	36.394207
1259.000000	37.004150
1258.000000	37.544100
1257.000000	38.023118
1256.000000	38.448343
1255.000000	38.821708
1254.000000	39.148513
1253.000000	39.433886
1252.000000	39.665758
1251.000000	39.821046
1250.000000	39.890880
1249.000000	39.884668
1248.000000	39.816250
1247.000000	39.695883
1246.000000	39.534341
1245.000000	39.336970
1244.000000	39.089946
1243.000000	38.771393
1242.000000	38.370884
1241.000000	37.889923
1240.000000	37.334100
1239.000000	36.717582
1238.000000	36.072543
1237.000000	35.434396
1236.000000	34.820512
1235.000000	34.233432
1234.000000	33.676796
1233.000000	33.156968
1232.000000	32.677029
1231.000000	32.244052
1230.000000	31.876173
1229.000000	31.594963
1228.000000	31.408910
1227.000000	31.313574
1226.000000	31.302266
1225.000000	31.363072
1224.000000	31.477167
1223.000000	31.628338
1222.000000	31.816098
1221.000000	32.053799
1220.000000	32.351272
1219.000000	32.710401
1218.000000	33.128332
1217.000000	33.593452
1216.000000	34.081241
1215.000000	34.564054
1214.000000	35.030289
1213.000000	35.485872
1212.000000	35.940293
1211.000000	36.402023
1210.000000	36.881404
1209.000000	37.382885
1208.000000	37.893004
1207.000000	38.388275
1206.000000	38.856464
1205.000000	39.302167
1204.000000	39.735630
1203.000000	40.169992
1202.000000	40.625257
1201.000000	41.115962
1200.000000	41.631957
1199.000000	42.143083
1198.000000	42.623861
1197.000000	43.064460
1196.000000	43.463654
1195.000000	43.830855
1194.000000	44.194114
1193.000000	44.586462
1192.000000	45.018946
1191.000000	45.475943
1190.000000	45.934966
1189.000000	46.376843
1188.000000	46.781980
1187.000000	47.140188
1186.000000	47.467335
1185.000000	47.795344
1184.000000	48.141596
1183.000000	48.497406
1182.000000	48.842721
1181.000000	49.154877
1180.000000	49.410985
1179.000000	49.604988
1178.000000	49.764198
1177.000000	49.932597
1176.000000	50.136679
1175.000000	50.378353
1174.000000	50.648788
1173.000000	50.926437
1172.000000	51.169710
1171.000000	51.336633
1170.000000	51.418873
1169.000000	51.443417
1168.000000	51.444370
1167.000000	51.450945
1166.000000	51.491513
1165.000000	51.580799
1164.000000	51.700273
1163.000000	51.810011
1162.000000	51.884630
1161.000000	51.924707
1160.000000	51.941206
1159.000000	51.950561
1158.000000	51.979342
1157.000000	52.046940
1156.000000	52.139860
1155.000000	52.220170
1154.000000	52.260616
1153.000000	52.257549
1152.000000	52.219058
1151.000000	52.165321
1150.000000	52.137508
1149.000000	52.177531
1148.000000	52.292455
1147.000000	52.451365
1146.000000	52.613595
1145.000000	52.744781
1144.000000	52.816127
1143.000000	52.818096
1142.000000	52.778751
1141.000000	52.747530
1140.000000	52.756102
1139.000000	52.806391
1138.000000	52.886141
1137.000000	52.974818
1136.000000	53.040171
1135.000000	53.056440
1134.000000	53.031329
1133.000000	52.997927
1132.000000	52.980808
1131.000000	52.984253
1130.000000	53.001614
1129.000000	53.013426
1128.000000	52.980353
1127.000000	52.866126
1126.000000	52.673112
1125.000000	52.437086
1124.000000	52.193644
1123.000000	51.966645
1122.000000	51.776074
1121.000000	51.625518
1120.000000	51.476835
1119.000000	51.266003
1118.000000	50.950596
1117.000000	50.528738
1116.000000	50.020751
1115.000000	49.453528
1114.000000	48.861298
1113.000000	48.270685
1112.000000	47.673365
1111.000000	47.032080
1110.000000	46.309292
1109.000000	45.484222
1108.000000	44.549127
1107.000000	43.509362
1106.000000	42.390618
1105.000000	41.218863
1104.000000	39.993130
1103.000000	38.687878
1102.000000	37.273034
1101.000000	35.731001
1100.000000	34.056435
1099.000000	32.261089
1098.000000	30.378008
1097.000000	28.441890
1096.000000	26.472978
1095.000000	24.476823
1094.000000	22.454417
1093.000000	20.409543
1092.000000	18.356216
1091.000000	16.325917
1090.000000	14.363102
1089.000000	12.511948
1088.000000	10.805709
1087.000000	9.270528
1086.000000	7.918797
1085.000000	6.747053
1084.000000	5.747450
1083.000000	4.907900
1082.000000	4.212916
1081.000000	3.640436
1080.000000	3.170260
1079.000000	2.791224
1078.000000	2.488274
1077.000000	2.242744
1076.000000	2.039738
1075.000000	1.870673
1074.000000	1.728540
1073.000000	1.604511
1072.000000	1.496262
1071.000000	1.407359
1070.000000	1.336725
1069.000000	1.277678
1068.000000	1.226698
1067.000000	1.186512
1066.000000	1.157968
1065.000000	1.137381
1064.000000	1.124613
1063.000000	1.123794
1062.000000	1.135575
1061.000000	1.156328
1060.000000	1.186049
1059.000000	1.229527
1058.000000	1.287231
1057.000000	1.354251
1056.000000	1.429547
1055.000000	1.517496
1054.000000	1.620035
1053.000000	1.734464
1052.000000	1.861157
1051.000000	2.005155
1050.000000	2.167456
1049.000000	2.344835
1048.000000	2.537886
1047.000000	2.751949
1046.000000	2.989508
1045.000000	3.248586
1044.000000	3.531422
1043.000000	3.844685
1042.000000	4.191141
1041.000000	4.568191
1040.000000	4.972724
1039.000000	5.403979
1038.000000	5.859854
1037.000000	6.337853
1036.000000	6.841614
1035.000000	7.378148
1034.000000	7.950851
1033.000000	8.556733
1032.000000	9.189580
1031.000000	9.843154
1030.000000	10.510576
1029.000000	11.187684
1028.000000	11.876149
1027.000000	12.580967
1026.000000	13.306274
1025.000000	14.052460
1024.000000	14.815516
1023.000000	15.586781
1022.000000	16.355186
1021.000000	17.111998
1020.000000	17.853574
1019.000000	18.582735
1018.000000	19.309584
1017.000000	20.047567
1016.000000	20.803795
1015.000000	21.572817
1014.000000	22.340468
1013.000000	23.091913
1012.000000	23.816705
1011.000000	24.512942
1010.000000	25.191331
1009.000000	25.869859
1008.000000	26.559220
1007.000000	27.256421
1006.000000	27.951944
1005.000000	28.636310
1004.000000	29.298247
1003.000000	29.928307
1002.000000	30.533393
1001.000000	31.139051
1000.000000	31.767690
999.000000	32.416116
998.000000	33.059391
997.000000	33.674128
996.000000	34.251492
995.000000	34.794144
994.000000	35.309061
993.000000	35.804122
992.000000	36.289832
991.000000	36.781225
990.000000	37.294115
989.000000	37.832873
988.000000	38.381782
987.000000	38.915600
986.000000	39.418618
985.000000	39.890737
984.000000	40.339918
983.000000	40.777968
982.000000	41.220949
981.000000	41.678955
980.000000	42.142699
979.000000	42.589987
978.000000	43.005225
977.000000	43.387185
976.000000	43.742378
975.000000	44.084438
974.000000	44.438138
973.000000	44.826204
972.000000	45.248063
971.000000	45.679123
970.000000	46.091033
969.000000	46.464818
968.000000	46.788744
967.000000	47.063129
966.000000	47.309393
965.000000	47.558806
964.000000	47.829158
963.000000	48.119465
962.000000	48.423234
961.000000	48.732305
960.000000	49.030098
959.000000	49.300808
958.000000	49.547665
957.000000	49.788940
956.000000	50.034496
955.000000	50.278311
954.000000	50.512309
953.000000	50.729515
952.000000	50.916160
951.000000	51.060828
950.000000	51.174705
949.000000	51.288603
948.000000	51.427706
947.000000	51.600423
946.000000	51.807148
945.000000	52.039474
944.000000	52.270862
943.000000	52.467052
942.000000	52.612125
941.000000	52.713338
940.000000	52.782332
939.000000	52.829690
938.000000	52.873906
937.000000	52.934184
936.000000	53.011715
935.000000	53.092684
934.000000	53.170380
933.000000	53.248554
932.000000	53.324640
931.000000	53.389216
930.000000	53.440801
929.000000	53.482900
928.000000	53.505422
927.000000	53.487277
926.000000	53.421192
925.000000	53.318777
924.000000	53.194132
923.000000	53.059643
922.000000	52.934505
921.000000	52.836677
920.000000	52.761685
919.000000	52.685305
918.000000	52.587823
917.000000	52.459654
916.000000	52.288877
915.000000	52.063971
914.000000	51.791045
913.000000	51.489689
912.000000	51.168238
911.000000	50.822082
910.000000	50.452803
909.000000	50.070875
908.000000	49.679668
907.000000	49.273027
906.000000	48.850750
905.000000	48.416743
904.000000	47.960923
903.000000	47.461561
902.000000	46.905285
901.000000	46.293042
900.000000	45.627022
899.000000	44.908959
898.000000	44.152972
897.000000	43.379439
896.000000	42.595999
895.000000	41.794551
894.000000	40.965415
893.000000	40.103301
892.000000	39.198618
891.000000	38.240698
890.000000	37.230786
889.000000	36.179543
888.000000	35.093496
887.000000	33.971438
886.000000	32.813604
885.000000	31.623555
884.000000	30.401703
883.000000	29.148839
882.000000	27.874317
881.000000	26.592927
880.000000	25.313087
879.000000	24.034605
878.000000	22.757212
877.000000	21.485578
876.000000	20.225591
875.000000	18.978599
874.000000	17.742836
873.000000	16.519812
872.000000	15.322306
871.000000	14.173059
870.000000	13.088892
869.000000	12.070256
868.000000	11.106139
867.000000	10.188753
866.000000	9.319789
865.000000	8.503340
864.000000	7.742936
863.000000	7.040408
862.000000	6.395631
861.000000	5.807103
860.000000	5.271237
859.000000	4.785479
858.000000	4.348479
857.000000	3.962127
856.000000	3.634302
855.000000	3.372539
854.000000	3.178726
853.000000	3.047460
852.000000	2.968665
851.000000	2.929466
850.000000	2.913173
849.000000	2.905431
848.000000	2.899546
847.000000	2.894273
846.000000	2.889526
845.000000	2.886246
844.000000	2.889291
843.000000	2.904727
842.000000	2.934917
841.000000	2.979838
840.000000	3.040600
839.000000	3.119238
838.000000	3.216777
837.000000	3.334697
836.000000	3.477196
835.000000	3.647292
834.000000	3.842838
833.000000	4.058486
832.000000	4.289790
831.000000	4.535200
830.000000	4.795835
829.000000	5.076712
828.000000	5.385719
827.000000	5.728315
826.000000	6.105553
825.000000	6.515362
824.000000	6.953266
823.000000	7.412528
822.000000	7.887624
821.000000	8.379285
820.000000	8.891278
819.000000	9.424039
818.000000	9.974502
817.000000	10.537805
816.000000	11.104428
815.000000	11.658629
814.000000	12.187918
813.000000	12.693743
812.000000	13.188604
811.000000	13.686078
810.000000	14.197131
809.000000	14.729370
808.000000	15.281296
807.000000	15.839856
806.000000	16.390547
805.000000	16.929001
804.000000	17.460084
803.000000	17.992419
802.000000	18.539048
801.000000	19.115066
800.000000	19.724613
799.000000	20.352912
798.000000	20.976596
797.000000	21.578013
796.000000	22.148541
795.000000	22.690187
794.000000	23.221646
793.000000	23.772677
792.000000	24.362156
791.000000	24.983954
790.000000	25.614761
789.000000	26.227046
788.000000	26.794700
787.000000	27.304738
786.000000	27.774549
785.000000	28.246451
784.000000	28.755747
783.000000	29.308040
782.000000	29.885169
781.000000	30.456984
780.000000	30.984877
779.000000	31.436875
778.000000	31.816125
777.000000	32.165980
776.000000	32.537809
775.000000	32.960265
774.000000	33.437226
773.000000	33.952538
772.000000	34.466548
771.000000	34.928328
770.000000	35.311943
769.000000	35.636929
768.000000	35.947602
767.000000	36.283674
766.000000	36.670714
765.000000	37.113616
764.000000	37.582433
763.000000	38.018184
762.000000	38.372258
761.000000	38.639931
760.000000	38.854878
759.000000	39.066978
758.000000	39.327818
757.000000	39.670891
756.000000	40.083844
755.000000	40.506388
754.000000	40.869992
753.000000	41.139829
752.000000	41.321609
751.000000	41.447617
750.000000	41.564391
749.000000	41.715979
748.000000	41.920713
747.000000	42.163694
746.000000	42.410196
745.000000	42.617230
744.000000	42.742729
743.000000	42.773260
742.000000	42.751314
741.000000	42.754443
740.000000	42.836007
739.000000	42.993640
738.000000	43.187040
737.000000	43.362153
736.000000	43.461628
735.000000	43.451931
734.000000	43.363525
733.000000	43.285402
732.000000	43.305899
731.000000	43.465888
730.000000	43.758340
729.000000	44.136880
728.000000	44.517198
727.000000	44.809599
726.000000	44.982150
725.000000	45.083753
724.000000	45.198052
723.000000	45.391979
722.000000	45.702425
721.000000	46.128324
720.000000	46.611426
719.000000	47.054092
718.000000	47.388166
717.000000	47.620763
716.000000	47.810394
715.000000	48.025698
714.000000	48.329195
713.000000	48.754463
712.000000	49.265512
711.000000	49.757726
710.000000	50.127153
709.000000	50.336400
708.000000	50.418938
707.000000	50.454994
706.000000	50.551753
705.000000	50.803027
704.000000	51.227200
703.000000	51.746676
702.000000	52.243132
701.000000	52.624095
700.000000	52.844834
699.000000	52.918197
698.000000	52.927435
697.000000	52.993975
696.000000	53.196324
695.000000	53.523047
694.000000	53.904977
693.000000	54.262017
692.000000	54.517786
691.000000	54.629193
690.000000	54.638937
689.000000	54.670001
688.000000	54.832405
687.000000	55.144805
686.000000	55.552498
685.000000	55.971136
684.000000	56.292393
683.000000	56.416787
682.000000	56.340323
681.000000	56.181744
680.000000	56.092452
679.000000	56.161789
678.000000	56.413598
677.000000	56.815854
676.000000	57.259306
675.000000	57.595045
674.000000	57.741961
673.000000	57.747230
672.000000	57.736242
671.000000	57.819696
670.000000	58.045026
669.000000	58.387140
668.000000	58.727357
667.000000	58.932432
666.000000	58.965462
665.000000	58.860525
664.000000	58.694271
663.000000	58.576127
662.000000	58.613197
661.000000	58.857219
660.000000	59.259717
659.000000	59.695586
658.000000	60.025615
657.000000	60.151265
656.000000	60.055737
655.000000	59.830147
654.000000	59.633622
653.000000	59.600754
652.000000	59.783406
651.000000	60.142444
650.000000	60.562615
649.000000	60.895354
648.000000	61.033720
647.000000	60.974789
646.000000	60.818270
645.000000	60.701411
644.000000	60.723559
643.000000	60.906869
642.000000	61.191927
641.000000	61.461285
640.000000	61.595302
639.000000	61.542861
638.000000	61.355825
637.000000	61.156952
636.000000	61.072644
635.000000	61.178255
634.000000	61.465875
633.000000	61.835165
632.000000	62.128087
631.000000	62.212475
630.000000	62.062248
629.000000	61.765729
628.000000	61.471069
627.000000	61.326927
626.000000	61.426404
625.000000	61.747103
624.000000	62.138838
623.000000	62.407560
622.000000	62.446694
621.000000	62.290284
620.000000	62.054069
619.000000	61.862436
618.000000	61.814343
617.000000	61.950942
616.000000	62.218142
615.000000	62.480538
614.000000	62.603767
613.000000	62.536106
612.000000	62.323530
611.000000	62.079191
610.000000	61.940991
609.000000	62.009138
608.000000	62.282556
607.000000	62.649516
606.000000	62.950609
605.000000	63.060340
604.000000	62.932779
603.000000	62.617846
602.000000	62.249727
601.000000	61.980341
600.000000	61.885506
599.000000	61.920001
598.000000	61.958151
597.000000	61.872043
596.000000	61.591182
595.000000	61.143567
594.000000	60.667338
593.000000	60.349328
592.000000	60.321443
591.000000	60.597637
590.000000	61.082121
589.000000	61.620505
588.000000	62.052505
587.000000	62.272569
586.000000	62.290763
585.000000	62.227096
584.000000	62.223760
583.000000	62.366289
582.000000	62.667994
581.000000	63.071450
580.000000	63.448264
579.000000	63.649940
578.000000	63.612642
577.000000	63.402056
576.000000	63.156473
575.000000	63.008575
574.000000	63.036240
573.000000	63.234831
572.000000	63.505914
571.000000	63.695888
570.000000	63.692786
569.000000	63.494023
568.000000	63.180819
567.000000	62.866151
566.000000	62.663784
565.000000	62.640441
564.000000	62.762782
563.000000	62.910281
562.000000	62.960286
561.000000	62.860798
560.000000	62.634073
559.000000	62.357454
558.000000	62.148591
557.000000	62.110511
556.000000	62.254345
555.000000	62.485248
554.000000	62.672165
553.000000	62.722433
552.000000	62.604949
551.000000	62.359465
550.000000	62.103015
549.000000	61.976265
548.000000	62.050808
547.000000	62.295823
546.000000	62.620209
545.000000	62.918579
544.000000	63.089461
543.000000	63.073756
542.000000	62.913072
541.000000	62.735781
540.000000	62.656348
539.000000	62.705979
538.000000	62.849890
537.000000	63.023874
536.000000	63.147862
535.000000	63.159656
534.000000	63.076848
533.000000	62.999836
532.000000	63.031155
531.000000	63.210882
530.000000	63.520013
529.000000	63.896817
528.000000	64.233734
527.000000	64.406400
526.000000	64.364366
525.000000	64.178358
524.000000	63.967576
523.000000	63.820309
522.000000	63.789886
521.000000	63.890977
520.000000	64.065080
519.000000	64.188524
518.000000	64.158514
517.000000	63.962436
516.000000	63.645680
515.000000	63.262669
514.000000	62.873516
513.000000	62.524020
512.000000	62.195171
511.000000	61.800109
510.000000	61.259900
509.000000	60.561899
508.000000	59.740816
507.000000	58.859434
506.000000	58.014092
505.000000	57.295587
504.000000	56.718504
503.000000	56.210925
502.000000	55.682409
501.000000	55.096166
500.000000	54.487754
499.000000	53.947126
498.000000	53.592088
497.000000	53.509646
496.000000	53.704862
495.000000	54.117916
494.000000	54.678064
493.000000	55.323369
492.000000	55.976463
491.000000	56.560893
490.000000	57.064095
489.000000	57.544487
488.000000	58.062170
487.000000	58.631684
486.000000	59.237553
485.000000	59.844386
484.000000	60.379798
483.000000	60.755247
482.000000	60.945126
481.000000	61.016676
480.000000	61.061024
479.000000	61.134118
478.000000	61.263743
477.000000	61.455014
476.000000	61.665624
475.000000	61.823147
474.000000	61.898715
473.000000	61.945559
472.000000	62.041904
471.000000	62.213135
470.000000	62.465417
469.000000	62.826230
468.000000	63.280098
467.000000	63.728937
466.000000	64.072347
465.000000	64.299826
464.000000	64.453313
463.000000	64.566616
462.000000	64.695449
461.000000	64.921131
460.000000	65.255279
459.000000	65.585755
458.000000	65.785582
457.000000	65.838103
456.000000	65.786643
455.000000	65.673808
454.000000	65.573797
453.000000	65.584026
452.000000	65.751311
451.000000	66.017888
450.000000	66.289081
449.000000	66.513869
448.000000	66.661264
447.000000	66.709848
446.000000	66.707855
445.000000	66.766959
444.000000	66.941945
443.000000	67.181536
442.000000	67.426191
441.000000	67.672776
440.000000	67.903473
439.000000	68.053565
438.000000	68.101158
437.000000	68.118565
436.000000	68.182120
435.000000	68.296921
434.000000	68.467147
433.000000	68.734128
432.000000	69.060420
431.000000	69.293321
430.000000	69.346259
429.000000	69.303380
428.000000	69.267215
427.000000	69.248794
426.000000	69.268403
425.000000	69.395862
424.000000	69.610688
423.000000	69.784046
422.000000	69.876713
421.000000	69.965477
420.000000	69.992501
419.000000	69.828993
418.000000	69.582507
417.000000	69.449524
416.000000	69.465623
415.000000	69.510435
414.000000	69.460203
413.000000	69.358150
412.000000	69.291762
411.000000	69.218489
410.000000	69.122418
409.000000	69.154975
408.000000	69.406800
407.000000	69.722837
406.000000	69.929897
405.000000	70.068757
404.000000	70.196421
403.000000	70.229973
402.000000	70.144925
401.000000	70.182598
400.000000	70.442643
