PE IR       SUBTECH     SPECTRUM    ASCII       PEDS        4.00        
   -1
23ms070_072nitrito.asc
24/09/05
15:59:03.00
24/09/05
15:59:03.00
Administrator
Sample 1103 By Administrator Date Thursday, September 05 2024
400.000000
#HDR
-1
-1
#GR
cm-1
%T
1.0
0.0
4000.000000
-1.000000
3601
8
85.224061
9.811127
#DATA
4000.000000	68.409905
3999.000000	68.460701
3998.000000	68.511432
3997.000000	68.561793
3996.000000	68.611575
3995.000000	68.660795
3994.000000	68.709861
3993.000000	68.759631
3992.000000	68.810945
3991.000000	68.863909
3990.000000	68.917681
3989.000000	68.971207
3988.000000	69.024163
3987.000000	69.076941
3986.000000	69.129804
3985.000000	69.182333
3984.000000	69.233720
3983.000000	69.283367
3982.000000	69.331103
3981.000000	69.377140
3980.000000	69.422111
3979.000000	69.467070
3978.000000	69.513208
3977.000000	69.561235
3976.000000	69.610935
3975.000000	69.661386
3974.000000	69.711703
3973.000000	69.761746
3972.000000	69.812053
3971.000000	69.863015
3970.000000	69.914017
3969.000000	69.963396
3968.000000	70.009524
3967.000000	70.052169
3966.000000	70.092889
3965.000000	70.134242
3964.000000	70.178278
3963.000000	70.225054
3962.000000	70.272605
3961.000000	70.318806
3960.000000	70.363437
3959.000000	70.408324
3958.000000	70.455328
3957.000000	70.504289
3956.000000	70.553495
3955.000000	70.601557
3954.000000	70.648242
3953.000000	70.694216
3952.000000	70.740648
3951.000000	70.788910
3950.000000	70.839267
3949.000000	70.889491
3948.000000	70.936027
3947.000000	70.977583
3946.000000	71.017391
3945.000000	71.061238
3944.000000	71.112536
3943.000000	71.168259
3942.000000	71.221706
3941.000000	71.270107
3940.000000	71.316566
3939.000000	71.364297
3938.000000	71.412042
3937.000000	71.456218
3936.000000	71.497395
3935.000000	71.542193
3934.000000	71.596990
3933.000000	71.660279
3932.000000	71.722564
3931.000000	71.774894
3930.000000	71.816010
3929.000000	71.851820
3928.000000	71.890915
3927.000000	71.939252
3926.000000	71.996536
3925.000000	72.056112
3924.000000	72.110375
3923.000000	72.158192
3922.000000	72.204191
3921.000000	72.252435
3920.000000	72.303669
3919.000000	72.356997
3918.000000	72.410828
3917.000000	72.461611
3916.000000	72.505201
3915.000000	72.541176
3914.000000	72.574203
3913.000000	72.610023
3912.000000	72.650288
3911.000000	72.692110
3910.000000	72.732476
3909.000000	72.771217
3908.000000	72.811067
3907.000000	72.856722
3906.000000	72.912541
3905.000000	72.978814
3904.000000	73.049701
3903.000000	73.118994
3902.000000	73.186345
3901.000000	73.252160
3900.000000	73.310827
3899.000000	73.353839
3898.000000	73.380285
3897.000000	73.399481
3896.000000	73.422224
3895.000000	73.454097
3894.000000	73.498062
3893.000000	73.554960
3892.000000	73.617354
3891.000000	73.669706
3890.000000	73.705768
3889.000000	73.737180
3888.000000	73.782102
3887.000000	73.849947
3886.000000	73.925833
3885.000000	73.981935
3884.000000	74.015223
3883.000000	74.050413
3882.000000	74.105053
3881.000000	74.168414
3880.000000	74.215661
3879.000000	74.240920
3878.000000	74.265044
3877.000000	74.308147
3876.000000	74.369187
3875.000000	74.427774
3874.000000	74.464608
3873.000000	74.486426
3872.000000	74.522759
3871.000000	74.590016
3870.000000	74.664933
3869.000000	74.713592
3868.000000	74.739585
3867.000000	74.773981
3866.000000	74.833275
3865.000000	74.903674
3864.000000	74.958649
3863.000000	74.993166
3862.000000	75.027356
3861.000000	75.073840
3860.000000	75.121257
3859.000000	75.147431
3858.000000	75.139030
3857.000000	75.105805
3856.000000	75.087684
3855.000000	75.136998
3854.000000	75.254943
3853.000000	75.367072
3852.000000	75.435145
3851.000000	75.497409
3850.000000	75.571944
3849.000000	75.641832
3848.000000	75.693719
3847.000000	75.730920
3846.000000	75.767968
3845.000000	75.815768
3844.000000	75.871509
3843.000000	75.925350
3842.000000	75.972435
3841.000000	76.016082
3840.000000	76.063578
3839.000000	76.117866
3838.000000	76.173586
3837.000000	76.224530
3836.000000	76.271977
3835.000000	76.321503
3834.000000	76.374354
3833.000000	76.426007
3832.000000	76.471082
3831.000000	76.509562
3830.000000	76.549942
3829.000000	76.601401
3828.000000	76.661406
3827.000000	76.715438
3826.000000	76.751345
3825.000000	76.774353
3824.000000	76.807825
3823.000000	76.874628
3822.000000	76.965012
3821.000000	77.031861
3820.000000	77.054139
3819.000000	77.069643
3818.000000	77.116353
3817.000000	77.191023
3816.000000	77.258678
3815.000000	77.295356
3814.000000	77.320187
3813.000000	77.361771
3812.000000	77.417761
3811.000000	77.466831
3810.000000	77.500901
3809.000000	77.534867
3808.000000	77.584274
3807.000000	77.640308
3806.000000	77.685056
3805.000000	77.724464
3804.000000	77.779303
3803.000000	77.858015
3802.000000	77.940045
3801.000000	77.992438
3800.000000	78.022738
3799.000000	78.071319
3798.000000	78.148426
3797.000000	78.225163
3796.000000	78.272770
3795.000000	78.293475
3794.000000	78.313695
3793.000000	78.351260
3792.000000	78.401247
3791.000000	78.449868
3790.000000	78.492635
3789.000000	78.536084
3788.000000	78.587623
3787.000000	78.648088
3786.000000	78.711374
3785.000000	78.769789
3784.000000	78.821736
3783.000000	78.874520
3782.000000	78.936552
3781.000000	79.005914
3780.000000	79.067961
3779.000000	79.109823
3778.000000	79.137345
3777.000000	79.168248
3776.000000	79.210699
3775.000000	79.258782
3774.000000	79.305183
3773.000000	79.351779
3772.000000	79.407391
3771.000000	79.474723
3770.000000	79.543288
3769.000000	79.603262
3768.000000	79.661673
3767.000000	79.728859
3766.000000	79.798578
3765.000000	79.854778
3764.000000	79.893964
3763.000000	79.932047
3762.000000	79.984769
3761.000000	80.049496
3760.000000	80.109652
3759.000000	80.155531
3758.000000	80.195460
3757.000000	80.240029
3756.000000	80.286977
3755.000000	80.331187
3754.000000	80.377652
3753.000000	80.436550
3752.000000	80.507338
3751.000000	80.574127
3750.000000	80.625839
3749.000000	80.670212
3748.000000	80.715299
3747.000000	80.761997
3746.000000	80.819238
3745.000000	80.889291
3744.000000	80.945915
3743.000000	80.990184
3742.000000	81.062240
3741.000000	81.166406
3740.000000	81.268141
3739.000000	81.343295
3738.000000	81.400416
3737.000000	81.463803
3736.000000	81.538070
3735.000000	81.604033
3734.000000	81.649138
3733.000000	81.679607
3732.000000	81.703756
3731.000000	81.726209
3730.000000	81.754618
3729.000000	81.797207
3728.000000	81.855065
3727.000000	81.918945
3726.000000	81.976879
3725.000000	82.029034
3724.000000	82.085785
3723.000000	82.149819
3722.000000	82.211002
3721.000000	82.262105
3720.000000	82.308646
3719.000000	82.357570
3718.000000	82.408146
3717.000000	82.455665
3716.000000	82.499184
3715.000000	82.545154
3714.000000	82.601410
3713.000000	82.666372
3712.000000	82.724632
3711.000000	82.764555
3710.000000	82.798163
3709.000000	82.845444
3708.000000	82.909521
3707.000000	82.979653
3706.000000	83.046072
3705.000000	83.105992
3704.000000	83.160142
3703.000000	83.206105
3702.000000	83.238944
3701.000000	83.261023
3700.000000	83.287262
3699.000000	83.330346
3698.000000	83.386777
3697.000000	83.443231
3696.000000	83.491148
3695.000000	83.535076
3694.000000	83.586462
3693.000000	83.649104
3692.000000	83.714437
3691.000000	83.771514
3690.000000	83.815633
3689.000000	83.846977
3688.000000	83.872492
3687.000000	83.906517
3686.000000	83.955079
3685.000000	84.008860
3684.000000	84.055555
3683.000000	84.090873
3682.000000	84.118737
3681.000000	84.144165
3680.000000	84.168012
3679.000000	84.191766
3678.000000	84.223935
3677.000000	84.270478
3676.000000	84.309930
3675.000000	84.312813
3674.000000	84.306295
3673.000000	84.340489
3672.000000	84.411248
3671.000000	84.469807
3670.000000	84.470233
3669.000000	84.419132
3668.000000	84.377943
3667.000000	84.386087
3666.000000	84.422471
3665.000000	84.448822
3664.000000	84.451217
3663.000000	84.440572
3662.000000	84.431831
3661.000000	84.429986
3660.000000	84.432250
3659.000000	84.434478
3658.000000	84.429790
3657.000000	84.408530
3656.000000	84.370359
3655.000000	84.336159
3654.000000	84.330029
3653.000000	84.350620
3652.000000	84.374637
3651.000000	84.375026
3650.000000	84.331706
3649.000000	84.247127
3648.000000	84.153446
3647.000000	84.084573
3646.000000	84.045996
3645.000000	84.022591
3644.000000	83.997552
3643.000000	83.959361
3642.000000	83.903410
3641.000000	83.833603
3640.000000	83.760391
3639.000000	83.692207
3638.000000	83.629636
3637.000000	83.569982
3636.000000	83.512251
3635.000000	83.455066
3634.000000	83.394317
3633.000000	83.328839
3632.000000	83.264817
3631.000000	83.207966
3630.000000	83.147527
3629.000000	83.057535
3628.000000	82.943503
3627.000000	82.857959
3626.000000	82.826128
3625.000000	82.814693
3624.000000	82.783566
3623.000000	82.721581
3622.000000	82.640325
3621.000000	82.552985
3620.000000	82.461502
3619.000000	82.364320
3618.000000	82.274567
3617.000000	82.212233
3616.000000	82.176594
3615.000000	82.142979
3614.000000	82.085233
3613.000000	81.998186
3612.000000	81.901221
3611.000000	81.817152
3610.000000	81.747724
3609.000000	81.675073
3608.000000	81.585995
3607.000000	81.488858
3606.000000	81.402706
3605.000000	81.334666
3604.000000	81.276086
3603.000000	81.214400
3602.000000	81.143191
3601.000000	81.064832
3600.000000	80.986733
3599.000000	80.914425
3598.000000	80.846857
3597.000000	80.777508
3596.000000	80.699139
3595.000000	80.609742
3594.000000	80.514035
3593.000000	80.421816
3592.000000	80.341932
3591.000000	80.275251
3590.000000	80.213878
3589.000000	80.146854
3588.000000	80.066792
3587.000000	79.977662
3586.000000	79.894944
3585.000000	79.828832
3584.000000	79.771725
3583.000000	79.707713
3582.000000	79.627556
3581.000000	79.533708
3580.000000	79.435193
3579.000000	79.339359
3578.000000	79.247263
3577.000000	79.156405
3576.000000	79.064972
3575.000000	78.973284
3574.000000	78.883008
3573.000000	78.796961
3572.000000	78.718990
3571.000000	78.651114
3570.000000	78.590241
3569.000000	78.528019
3568.000000	78.453939
3567.000000	78.362673
3566.000000	78.262668
3565.000000	78.169743
3564.000000	78.088678
3563.000000	78.008994
3562.000000	77.917347
3561.000000	77.809483
3560.000000	77.691827
3559.000000	77.573863
3558.000000	77.460986
3557.000000	77.355076
3556.000000	77.257641
3555.000000	77.168548
3554.000000	77.083506
3553.000000	76.996715
3552.000000	76.906958
3551.000000	76.818324
3550.000000	76.733704
3549.000000	76.650501
3548.000000	76.563326
3547.000000	76.468031
3546.000000	76.363300
3545.000000	76.251507
3544.000000	76.137597
3543.000000	76.025481
3542.000000	75.916113
3541.000000	75.809953
3540.000000	75.709456
3539.000000	75.616943
3538.000000	75.531177
3537.000000	75.447940
3536.000000	75.363779
3535.000000	75.277841
3534.000000	75.190416
3533.000000	75.101922
3532.000000	75.012814
3531.000000	74.922837
3530.000000	74.830788
3529.000000	74.736873
3528.000000	74.645046
3527.000000	74.560777
3526.000000	74.486098
3525.000000	74.417710
3524.000000	74.349365
3523.000000	74.275578
3522.000000	74.194724
3521.000000	74.109729
3520.000000	74.024914
3519.000000	73.941735
3518.000000	73.858522
3517.000000	73.774525
3516.000000	73.691551
3515.000000	73.610519
3514.000000	73.528744
3513.000000	73.442804
3512.000000	73.352117
3511.000000	73.257979
3510.000000	73.161543
3509.000000	73.065494
3508.000000	72.975172
3507.000000	72.894074
3506.000000	72.819276
3505.000000	72.743882
3504.000000	72.663064
3503.000000	72.576195
3502.000000	72.484722
3501.000000	72.390214
3500.000000	72.293543
3499.000000	72.193937
3498.000000	72.089210
3497.000000	71.978540
3496.000000	71.864626
3495.000000	71.751603
3494.000000	71.641682
3493.000000	71.535273
3492.000000	71.432744
3491.000000	71.333891
3490.000000	71.236595
3489.000000	71.138421
3488.000000	71.038901
3487.000000	70.938571
3486.000000	70.836669
3485.000000	70.731380
3484.000000	70.621507
3483.000000	70.506806
3482.000000	70.388031
3481.000000	70.267881
3480.000000	70.149848
3479.000000	70.034296
3478.000000	69.917511
3477.000000	69.796518
3476.000000	69.673236
3475.000000	69.551986
3474.000000	69.434891
3473.000000	69.321619
3472.000000	69.211632
3471.000000	69.103962
3470.000000	68.995683
3469.000000	68.882864
3468.000000	68.762672
3467.000000	68.633662
3466.000000	68.495849
3465.000000	68.352150
3464.000000	68.208178
3463.000000	68.068692
3462.000000	67.935011
3461.000000	67.806442
3460.000000	67.681807
3459.000000	67.558262
3458.000000	67.431384
3457.000000	67.298809
3456.000000	67.162215
3455.000000	67.023909
3454.000000	66.883464
3453.000000	66.739964
3452.000000	66.595195
3451.000000	66.451888
3450.000000	66.309980
3449.000000	66.166961
3448.000000	66.021118
3447.000000	65.872749
3446.000000	65.723247
3445.000000	65.573904
3444.000000	65.424406
3443.000000	65.271971
3442.000000	65.113741
3441.000000	64.951087
3440.000000	64.789207
3439.000000	64.631205
3438.000000	64.474691
3437.000000	64.315294
3436.000000	64.150897
3435.000000	63.980860
3434.000000	63.804157
3433.000000	63.621262
3432.000000	63.435258
3431.000000	63.248565
3430.000000	63.060101
3429.000000	62.867605
3428.000000	62.671131
3427.000000	62.472016
3426.000000	62.270645
3425.000000	62.067223
3424.000000	61.862575
3423.000000	61.656088
3422.000000	61.444526
3421.000000	61.225299
3420.000000	60.999222
3419.000000	60.768081
3418.000000	60.531811
3417.000000	60.290010
3416.000000	60.044276
3415.000000	59.796624
3414.000000	59.546950
3413.000000	59.294196
3412.000000	59.037960
3411.000000	58.777402
3410.000000	58.510403
3409.000000	58.235455
3408.000000	57.952999
3407.000000	57.663305
3406.000000	57.365389
3405.000000	57.059496
3404.000000	56.748235
3403.000000	56.433805
3402.000000	56.115638
3401.000000	55.791923
3400.000000	55.461234
3399.000000	55.121669
3398.000000	54.771661
3397.000000	54.412979
3396.000000	54.049770
3395.000000	53.683287
3394.000000	53.310066
3393.000000	52.926872
3392.000000	52.534127
3391.000000	52.132598
3390.000000	51.720877
3389.000000	51.298007
3388.000000	50.865959
3387.000000	50.427120
3386.000000	49.981707
3385.000000	49.529995
3384.000000	49.073599
3383.000000	48.613016
3382.000000	48.146399
3381.000000	47.672319
3380.000000	47.191377
3379.000000	46.703423
3378.000000	46.206444
3377.000000	45.699769
3376.000000	45.185133
3375.000000	44.663479
3374.000000	44.133612
3373.000000	43.595523
3372.000000	43.052065
3371.000000	42.505256
3370.000000	41.954489
3369.000000	41.399194
3368.000000	40.840066
3367.000000	40.276602
3366.000000	39.706713
3365.000000	39.130427
3364.000000	38.550418
3363.000000	37.967946
3362.000000	37.381899
3361.000000	36.792447
3360.000000	36.201882
3359.000000	35.610680
3358.000000	35.016621
3357.000000	34.419315
3356.000000	33.821382
3355.000000	33.224288
3354.000000	32.627044
3353.000000	32.030114
3352.000000	31.436638
3351.000000	30.848432
3350.000000	30.264385
3349.000000	29.683809
3348.000000	29.107649
3347.000000	28.535461
3346.000000	27.965474
3345.000000	27.398461
3344.000000	26.837609
3343.000000	26.283893
3342.000000	25.735302
3341.000000	25.191543
3340.000000	24.655412
3339.000000	24.128871
3338.000000	23.611849
3337.000000	23.104948
3336.000000	22.609583
3335.000000	22.124918
3334.000000	21.648625
3333.000000	21.181378
3332.000000	20.726030
3331.000000	20.282815
3330.000000	19.849202
3329.000000	19.424158
3328.000000	19.009194
3327.000000	18.604932
3326.000000	18.211421
3325.000000	17.831115
3324.000000	17.466513
3323.000000	17.115869
3322.000000	16.775114
3321.000000	16.443828
3320.000000	16.125133
3319.000000	15.819635
3318.000000	15.525363
3317.000000	15.242085
3316.000000	14.971082
3315.000000	14.711123
3314.000000	14.458952
3313.000000	14.214040
3312.000000	13.978000
3311.000000	13.750018
3310.000000	13.528147
3309.000000	13.313837
3308.000000	13.111199
3307.000000	12.922066
3306.000000	12.746066
3305.000000	12.584581
3304.000000	12.438415
3303.000000	12.303311
3302.000000	12.172691
3301.000000	12.044301
3300.000000	11.920045
3299.000000	11.800209
3298.000000	11.683587
3297.000000	11.572128
3296.000000	11.469391
3295.000000	11.375189
3294.000000	11.286562
3293.000000	11.203752
3292.000000	11.130027
3291.000000	11.065417
3290.000000	11.006317
3289.000000	10.950510
3288.000000	10.898285
3287.000000	10.849178
3286.000000	10.802069
3285.000000	10.758473
3284.000000	10.720750
3283.000000	10.687844
3282.000000	10.656928
3281.000000	10.628082
3280.000000	10.603162
3279.000000	10.580988
3278.000000	10.558655
3277.000000	10.536667
3276.000000	10.517795
3275.000000	10.501790
3274.000000	10.485983
3273.000000	10.470760
3272.000000	10.459826
3271.000000	10.455217
3270.000000	10.456111
3269.000000	10.461550
3268.000000	10.470233
3267.000000	10.478773
3266.000000	10.484306
3265.000000	10.488152
3264.000000	10.493238
3263.000000	10.499185
3262.000000	10.504011
3261.000000	10.508651
3260.000000	10.515354
3259.000000	10.523219
3258.000000	10.529989
3257.000000	10.537028
3256.000000	10.547650
3255.000000	10.561752
3254.000000	10.576451
3253.000000	10.590893
3252.000000	10.605900
3251.000000	10.620146
3250.000000	10.631468
3249.000000	10.641191
3248.000000	10.652820
3247.000000	10.667176
3246.000000	10.682637
3245.000000	10.698887
3244.000000	10.716457
3243.000000	10.733830
3242.000000	10.749240
3241.000000	10.764113
3240.000000	10.780799
3239.000000	10.798121
3238.000000	10.813088
3237.000000	10.825603
3236.000000	10.837786
3235.000000	10.850311
3234.000000	10.863243
3233.000000	10.878619
3232.000000	10.897830
3231.000000	10.917998
3230.000000	10.935118
3229.000000	10.949277
3228.000000	10.962893
3227.000000	10.975809
3226.000000	10.986406
3225.000000	10.995846
3224.000000	11.006553
3223.000000	11.017904
3222.000000	11.027549
3221.000000	11.035695
3220.000000	11.044050
3219.000000	11.051980
3218.000000	11.057792
3217.000000	11.062256
3216.000000	11.066868
3215.000000	11.070285
3214.000000	11.070383
3213.000000	11.068331
3212.000000	11.066556
3211.000000	11.064398
3210.000000	11.059782
3209.000000	11.053351
3208.000000	11.046988
3207.000000	11.039937
3206.000000	11.030361
3205.000000	11.019121
3204.000000	11.007915
3203.000000	10.995519
3202.000000	10.979845
3201.000000	10.961938
3200.000000	10.944052
3199.000000	10.925416
3198.000000	10.903962
3197.000000	10.880399
3196.000000	10.856617
3195.000000	10.831977
3194.000000	10.805091
3193.000000	10.777390
3192.000000	10.750924
3191.000000	10.724421
3190.000000	10.695597
3189.000000	10.665416
3188.000000	10.636151
3187.000000	10.607106
3186.000000	10.576279
3185.000000	10.544377
3184.000000	10.513125
3183.000000	10.481538
3182.000000	10.447938
3181.000000	10.413826
3180.000000	10.381774
3179.000000	10.351270
3178.000000	10.320416
3177.000000	10.289834
3176.000000	10.260980
3175.000000	10.232661
3174.000000	10.203221
3173.000000	10.174175
3172.000000	10.147714
3171.000000	10.122620
3170.000000	10.096532
3169.000000	10.070230
3168.000000	10.045836
3167.000000	10.022770
3166.000000	9.999493
3165.000000	9.977130
3164.000000	9.957433
3163.000000	9.939215
3162.000000	9.920680
3161.000000	9.903329
3160.000000	9.889568
3159.000000	9.878424
3158.000000	9.867393
3157.000000	9.856352
3156.000000	9.846082
3155.000000	9.835336
3154.000000	9.823516
3153.000000	9.814125
3152.000000	9.811127
3151.000000	9.813682
3150.000000	9.818081
3149.000000	9.822959
3148.000000	9.829015
3147.000000	9.835761
3146.000000	9.842632
3145.000000	9.851297
3144.000000	9.862965
3143.000000	9.875360
3142.000000	9.885936
3141.000000	9.896372
3140.000000	9.910335
3139.000000	9.928640
3138.000000	9.949987
3137.000000	9.974139
3136.000000	10.000876
3135.000000	10.027992
3134.000000	10.053771
3133.000000	10.079727
3132.000000	10.107830
3131.000000	10.137512
3130.000000	10.168389
3129.000000	10.202854
3128.000000	10.242483
3127.000000	10.284414
3126.000000	10.324906
3125.000000	10.363932
3124.000000	10.402873
3123.000000	10.440804
3122.000000	10.476965
3121.000000	10.514150
3120.000000	10.555594
3119.000000	10.600776
3118.000000	10.648146
3117.000000	10.699351
3116.000000	10.756664
3115.000000	10.818503
3114.000000	10.881227
3113.000000	10.943370
3112.000000	11.004734
3111.000000	11.064103
3110.000000	11.121698
3109.000000	11.181355
3108.000000	11.246251
3107.000000	11.314421
3106.000000	11.381928
3105.000000	11.448182
3104.000000	11.514692
3103.000000	11.581322
3102.000000	11.647768
3101.000000	11.716392
3100.000000	11.789686
3099.000000	11.866522
3098.000000	11.944404
3097.000000	12.023303
3096.000000	12.103822
3095.000000	12.183969
3094.000000	12.261457
3093.000000	12.337428
3092.000000	12.414656
3091.000000	12.493871
3090.000000	12.574744
3089.000000	12.658066
3088.000000	12.743818
3087.000000	12.829504
3086.000000	12.913673
3085.000000	12.998924
3084.000000	13.088149
3083.000000	13.180127
3082.000000	13.272189
3081.000000	13.364791
3080.000000	13.460146
3079.000000	13.558451
3078.000000	13.658754
3077.000000	13.761395
3076.000000	13.866156
3075.000000	13.970210
3074.000000	14.071175
3073.000000	14.170312
3072.000000	14.269804
3071.000000	14.369134
3070.000000	14.467410
3069.000000	14.567010
3068.000000	14.671356
3067.000000	14.780765
3066.000000	14.893276
3065.000000	15.007761
3064.000000	15.123297
3063.000000	15.237582
3062.000000	15.349074
3061.000000	15.459000
3060.000000	15.568810
3059.000000	15.677755
3058.000000	15.785418
3057.000000	15.894126
3056.000000	16.005875
3055.000000	16.119019
3054.000000	16.231065
3053.000000	16.342787
3052.000000	16.456823
3051.000000	16.573980
3050.000000	16.693330
3049.000000	16.813807
3048.000000	16.933308
3047.000000	17.048599
3046.000000	17.158868
3045.000000	17.267422
3044.000000	17.377730
3043.000000	17.490046
3042.000000	17.603913
3041.000000	17.720784
3040.000000	17.841111
3039.000000	17.961609
3038.000000	18.078779
3037.000000	18.193230
3036.000000	18.307892
3035.000000	18.424098
3034.000000	18.541975
3033.000000	18.662165
3032.000000	18.784118
3031.000000	18.904770
3030.000000	19.021757
3029.000000	19.136001
3028.000000	19.249019
3027.000000	19.360282
3026.000000	19.469850
3025.000000	19.580735
3024.000000	19.695365
3023.000000	19.811947
3022.000000	19.927370
3021.000000	20.041606
3020.000000	20.156248
3019.000000	20.270794
3018.000000	20.383542
3017.000000	20.494487
3016.000000	20.604590
3015.000000	20.713917
3014.000000	20.823163
3013.000000	20.935157
3012.000000	21.051997
3011.000000	21.172184
3010.000000	21.292789
3009.000000	21.412720
3008.000000	21.531796
3007.000000	21.648908
3006.000000	21.763626
3005.000000	21.877747
3004.000000	21.992796
3003.000000	22.107580
3002.000000	22.220249
3001.000000	22.330910
3000.000000	22.440477
2999.000000	22.549081
2998.000000	22.657485
2997.000000	22.767538
2996.000000	22.879159
2995.000000	22.989524
2994.000000	23.097637
2993.000000	23.206994
2992.000000	23.321003
2991.000000	23.438254
2990.000000	23.555114
2989.000000	23.670598
2988.000000	23.785612
2987.000000	23.899601
2986.000000	24.011151
2985.000000	24.120419
2984.000000	24.228195
2983.000000	24.334163
2982.000000	24.438641
2981.000000	24.544308
2980.000000	24.653467
2979.000000	24.764931
2978.000000	24.875994
2977.000000	24.986036
2976.000000	25.096110
2975.000000	25.206744
2974.000000	25.318402
2973.000000	25.432197
2972.000000	25.547777
2971.000000	25.662164
2970.000000	25.772941
2969.000000	25.880953
2968.000000	25.987830
2967.000000	26.093090
2966.000000	26.196056
2965.000000	26.298515
2964.000000	26.402742
2963.000000	26.508688
2962.000000	26.615634
2961.000000	26.724532
2960.000000	26.836082
2959.000000	26.948425
2958.000000	27.059252
2957.000000	27.168292
2956.000000	27.275452
2955.000000	27.379012
2954.000000	27.478466
2953.000000	27.576713
2952.000000	27.676301
2951.000000	27.775410
2950.000000	27.870706
2949.000000	27.962425
2948.000000	28.053736
2947.000000	28.146821
2946.000000	28.242534
2945.000000	28.342368
2944.000000	28.447308
2943.000000	28.555333
2942.000000	28.662592
2941.000000	28.766615
2940.000000	28.866672
2939.000000	28.962495
2938.000000	29.054816
2937.000000	29.145882
2936.000000	29.237235
2935.000000	29.328037
2934.000000	29.417355
2933.000000	29.506541
2932.000000	29.597515
2931.000000	29.690429
2930.000000	29.784965
2929.000000	29.881925
2928.000000	29.981244
2927.000000	30.080401
2926.000000	30.177241
2925.000000	30.272535
2924.000000	30.367563
2923.000000	30.461209
2922.000000	30.551957
2921.000000	30.640737
2920.000000	30.729213
2919.000000	30.817128
2918.000000	30.903742
2917.000000	30.990141
2916.000000	31.077596
2915.000000	31.165145
2914.000000	31.251106
2913.000000	31.335502
2912.000000	31.419027
2911.000000	31.501161
2910.000000	31.581388
2909.000000	31.660773
2908.000000	31.740294
2907.000000	31.819027
2906.000000	31.895848
2905.000000	31.971410
2904.000000	32.046563
2903.000000	32.120449
2902.000000	32.192367
2901.000000	32.263959
2900.000000	32.337612
2899.000000	32.413953
2898.000000	32.492356
2897.000000	32.572392
2896.000000	32.652695
2895.000000	32.730256
2894.000000	32.803133
2893.000000	32.872649
2892.000000	32.940894
2891.000000	33.007551
2890.000000	33.071168
2889.000000	33.132008
2888.000000	33.191379
2887.000000	33.249420
2886.000000	33.305803
2885.000000	33.361533
2884.000000	33.417844
2883.000000	33.474241
2882.000000	33.529540
2881.000000	33.583845
2880.000000	33.637621
2879.000000	33.689898
2878.000000	33.739403
2877.000000	33.786487
2876.000000	33.832059
2875.000000	33.875525
2874.000000	33.915731
2873.000000	33.953161
2872.000000	33.989654
2871.000000	34.027045
2870.000000	34.067650
2869.000000	34.114892
2868.000000	34.171309
2867.000000	34.236639
2866.000000	34.309321
2865.000000	34.388611
2864.000000	34.473795
2863.000000	34.562843
2862.000000	34.653715
2861.000000	34.745819
2860.000000	34.838604
2859.000000	34.930205
2858.000000	35.019473
2857.000000	35.108017
2856.000000	35.198271
2855.000000	35.290773
2854.000000	35.385118
2853.000000	35.482018
2852.000000	35.582153
2851.000000	35.684021
2850.000000	35.785066
2849.000000	35.884058
2848.000000	35.980661
2847.000000	36.073731
2846.000000	36.162031
2845.000000	36.245928
2844.000000	36.326635
2843.000000	36.404518
2842.000000	36.479738
2841.000000	36.553730
2840.000000	36.628309
2839.000000	36.703923
2838.000000	36.780139
2837.000000	36.857115
2836.000000	36.935175
2835.000000	37.013654
2834.000000	37.091543
2833.000000	37.168569
2832.000000	37.244499
2831.000000	37.318294
2830.000000	37.389335
2829.000000	37.458580
2828.000000	37.527182
2827.000000	37.594856
2826.000000	37.660903
2825.000000	37.725796
2824.000000	37.790366
2823.000000	37.854352
2822.000000	37.917310
2821.000000	37.980116
2820.000000	38.044082
2819.000000	38.109354
2818.000000	38.175495
2817.000000	38.242722
2816.000000	38.311054
2815.000000	38.379067
2814.000000	38.445049
2813.000000	38.508773
2812.000000	38.570901
2811.000000	38.631509
2810.000000	38.690540
2809.000000	38.748849
2808.000000	38.807362
2807.000000	38.865997
2806.000000	38.924768
2805.000000	38.985038
2804.000000	39.048100
2803.000000	39.113271
2802.000000	39.178859
2801.000000	39.244241
2800.000000	39.309606
2799.000000	39.374385
2798.000000	39.437457
2797.000000	39.498357
2796.000000	39.556963
2795.000000	39.612713
2794.000000	39.665567
2793.000000	39.717117
2792.000000	39.769444
2791.000000	39.823508
2790.000000	39.879731
2789.000000	39.939007
2788.000000	40.001455
2787.000000	40.064995
2786.000000	40.126855
2785.000000	40.185993
2784.000000	40.242715
2783.000000	40.296776
2782.000000	40.347583
2781.000000	40.395788
2780.000000	40.442940
2779.000000	40.489827
2778.000000	40.536599
2777.000000	40.584107
2776.000000	40.633642
2775.000000	40.685520
2774.000000	40.739031
2773.000000	40.793409
2772.000000	40.847766
2771.000000	40.900637
2770.000000	40.950891
2769.000000	40.998790
2768.000000	41.045164
2767.000000	41.090142
2766.000000	41.133735
2765.000000	41.176876
2764.000000	41.220618
2763.000000	41.264933
2762.000000	41.309535
2761.000000	41.355130
2760.000000	41.402484
2759.000000	41.450920
2758.000000	41.499122
2757.000000	41.546790
2756.000000	41.594134
2755.000000	41.640369
2754.000000	41.684289
2753.000000	41.725984
2752.000000	41.766583
2751.000000	41.806714
2750.000000	41.846542
2749.000000	41.886820
2748.000000	41.928408
2747.000000	41.971007
2746.000000	42.013620
2745.000000	42.056021
2744.000000	42.098630
2743.000000	42.141399
2742.000000	42.183995
2741.000000	42.226610
2740.000000	42.269355
2739.000000	42.311346
2738.000000	42.351635
2737.000000	42.390555
2736.000000	42.428903
2735.000000	42.466358
2734.000000	42.502026
2733.000000	42.536118
2732.000000	42.569734
2731.000000	42.603396
2730.000000	42.637191
2729.000000	42.671903
2728.000000	42.708485
2727.000000	42.746622
2726.000000	42.785096
2725.000000	42.823376
2724.000000	42.861617
2723.000000	42.899415
2722.000000	42.935833
2721.000000	42.970458
2720.000000	43.003322
2719.000000	43.034129
2718.000000	43.062824
2717.000000	43.090624
2716.000000	43.119163
2715.000000	43.148864
2714.000000	43.179244
2713.000000	43.210483
2712.000000	43.243426
2711.000000	43.278241
2710.000000	43.314174
2709.000000	43.350325
2708.000000	43.385591
2707.000000	43.418266
2706.000000	43.446943
2705.000000	43.471725
2704.000000	43.493494
2703.000000	43.512450
2702.000000	43.528546
2701.000000	43.542857
2700.000000	43.557284
2699.000000	43.573095
2698.000000	43.590740
2697.000000	43.610605
2696.000000	43.632571
2695.000000	43.655225
2694.000000	43.676792
2693.000000	43.696600
2692.000000	43.714597
2691.000000	43.729959
2690.000000	43.741633
2689.000000	43.749862
2688.000000	43.755849
2687.000000	43.760316
2686.000000	43.763722
2685.000000	43.767521
2684.000000	43.773656
2683.000000	43.782761
2682.000000	43.794138
2681.000000	43.807216
2680.000000	43.821676
2679.000000	43.836364
2678.000000	43.849639
2677.000000	43.860931
2676.000000	43.870860
2675.000000	43.879943
2674.000000	43.888337
2673.000000	43.896778
2672.000000	43.906584
2671.000000	43.918812
2670.000000	43.934316
2669.000000	43.954327
2668.000000	43.979928
2667.000000	44.011017
2666.000000	44.046967
2665.000000	44.087979
2664.000000	44.134506
2663.000000	44.185934
2662.000000	44.240833
2661.000000	44.298443
2660.000000	44.358839
2659.000000	44.421612
2658.000000	44.485736
2657.000000	44.550456
2656.000000	44.615282
2655.000000	44.679387
2654.000000	44.741995
2653.000000	44.803323
2652.000000	44.864118
2651.000000	44.924504
2650.000000	44.984272
2649.000000	45.043985
2648.000000	45.104598
2647.000000	45.166115
2646.000000	45.227671
2645.000000	45.288650
2644.000000	45.348629
2643.000000	45.406352
2642.000000	45.460086
2641.000000	45.509049
2640.000000	45.553430
2639.000000	45.593374
2638.000000	45.629055
2637.000000	45.661762
2636.000000	45.693725
2635.000000	45.726580
2634.000000	45.761036
2633.000000	45.797702
2632.000000	45.836948
2631.000000	45.877876
2630.000000	45.918550
2629.000000	45.957426
2628.000000	45.993604
2627.000000	46.025898
2626.000000	46.053071
2625.000000	46.075181
2624.000000	46.093791
2623.000000	46.110638
2622.000000	46.126985
2621.000000	46.144241
2620.000000	46.163793
2619.000000	46.185982
2618.000000	46.210083
2617.000000	46.235379
2616.000000	46.261414
2615.000000	46.287265
2614.000000	46.311612
2613.000000	46.333663
2612.000000	46.353167
2611.000000	46.369721
2610.000000	46.382960
2609.000000	46.393387
2608.000000	46.401964
2607.000000	46.408815
2606.000000	46.413489
2605.000000	46.416105
2604.000000	46.417120
2603.000000	46.416182
2602.000000	46.412400
2601.000000	46.405911
2600.000000	46.397821
2599.000000	46.388658
2598.000000	46.378329
2597.000000	46.367698
2596.000000	46.358826
2595.000000	46.353350
2594.000000	46.351751
2593.000000	46.354395
2592.000000	46.362296
2591.000000	46.376280
2590.000000	46.396642
2589.000000	46.423977
2588.000000	46.459142
2587.000000	46.502653
2586.000000	46.554489
2585.000000	46.614760
2584.000000	46.683774
2583.000000	46.760764
2582.000000	46.843962
2581.000000	46.931582
2580.000000	47.022122
2579.000000	47.113920
2578.000000	47.205126
2577.000000	47.294745
2576.000000	47.382806
2575.000000	47.469454
2574.000000	47.554779
2573.000000	47.639460
2572.000000	47.724705
2571.000000	47.811221
2570.000000	47.898959
2569.000000	47.987898
2568.000000	48.078154
2567.000000	48.169153
2566.000000	48.259578
2565.000000	48.348377
2564.000000	48.434972
2563.000000	48.518536
2562.000000	48.598130
2561.000000	48.673950
2560.000000	48.747482
2559.000000	48.819867
2558.000000	48.891106
2557.000000	48.961083
2556.000000	49.030413
2555.000000	49.099834
2554.000000	49.169411
2553.000000	49.238902
2552.000000	49.308041
2551.000000	49.376021
2550.000000	49.441639
2549.000000	49.504284
2548.000000	49.564249
2547.000000	49.621687
2546.000000	49.676087
2545.000000	49.727280
2544.000000	49.775759
2543.000000	49.821731
2542.000000	49.864674
2541.000000	49.904271
2540.000000	49.941119
2539.000000	49.975638
2538.000000	50.007306
2537.000000	50.035353
2536.000000	50.059086
2535.000000	50.077373
2534.000000	50.088311
2533.000000	50.090424
2532.000000	50.083556
2531.000000	50.067869
2530.000000	50.043530
2529.000000	50.011426
2528.000000	49.973568
2527.000000	49.932197
2526.000000	49.888996
2525.000000	49.845976
2524.000000	49.805895
2523.000000	49.771237
2522.000000	49.743523
2521.000000	49.724142
2520.000000	49.714578
2519.000000	49.715475
2518.000000	49.726327
2517.000000	49.746285
2516.000000	49.775214
2515.000000	49.812870
2514.000000	49.858397
2513.000000	49.911132
2512.000000	49.970585
2511.000000	50.035908
2510.000000	50.105552
2509.000000	50.178213
2508.000000	50.253360
2507.000000	50.330033
2506.000000	50.406363
2505.000000	50.480646
2504.000000	50.552260
2503.000000	50.620988
2502.000000	50.686218
2501.000000	50.747393
2500.000000	50.804644
2499.000000	50.858406
2498.000000	50.908902
2497.000000	50.956706
2496.000000	51.002820
2495.000000	51.047820
2494.000000	51.091633
2493.000000	51.134444
2492.000000	51.177173
2491.000000	51.220404
2490.000000	51.263684
2489.000000	51.306264
2488.000000	51.347498
2487.000000	51.386276
2486.000000	51.421054
2485.000000	51.451210
2484.000000	51.477537
2483.000000	51.500766
2482.000000	51.520905
2481.000000	51.538565
2480.000000	51.555811
2479.000000	51.574858
2478.000000	51.596731
2477.000000	51.621868
2476.000000	51.650743
2475.000000	51.682955
2474.000000	51.716634
2473.000000	51.749689
2472.000000	51.780826
2471.000000	51.808721
2470.000000	51.831422
2469.000000	51.847848
2468.000000	51.859066
2467.000000	51.867305
2466.000000	51.874461
2465.000000	51.882293
2464.000000	51.893029
2463.000000	51.908473
2462.000000	51.929084
2461.000000	51.954610
2460.000000	51.984785
2459.000000	52.018440
2458.000000	52.052906
2457.000000	52.085284
2456.000000	52.113821
2455.000000	52.137546
2454.000000	52.155664
2453.000000	52.168352
2452.000000	52.177398
2451.000000	52.185089
2450.000000	52.192998
2449.000000	52.202560
2448.000000	52.215746
2447.000000	52.234121
2446.000000	52.257816
2445.000000	52.286154
2444.000000	52.318330
2443.000000	52.352912
2442.000000	52.387659
2441.000000	52.420745
2440.000000	52.451521
2439.000000	52.479378
2438.000000	52.502949
2437.000000	52.521348
2436.000000	52.535389
2435.000000	52.546622
2434.000000	52.556238
2433.000000	52.565692
2432.000000	52.577365
2431.000000	52.593469
2430.000000	52.614981
2429.000000	52.642223
2428.000000	52.675453
2427.000000	52.713997
2426.000000	52.755613
2425.000000	52.797699
2424.000000	52.838181
2423.000000	52.874739
2422.000000	52.904622
2421.000000	52.926534
2420.000000	52.941805
2419.000000	52.952823
2418.000000	52.961450
2417.000000	52.969842
2416.000000	52.981436
2415.000000	52.999472
2414.000000	53.025213
2413.000000	53.058444
2412.000000	53.098622
2411.000000	53.144145
2410.000000	53.191613
2409.000000	53.237249
2408.000000	53.278540
2407.000000	53.313822
2406.000000	53.341519
2405.000000	53.361178
2404.000000	53.374517
2403.000000	53.384385
2402.000000	53.393415
2401.000000	53.404582
2400.000000	53.421539
2399.000000	53.446856
2398.000000	53.480566
2397.000000	53.521445
2396.000000	53.568446
2395.000000	53.619831
2394.000000	53.672252
2393.000000	53.722207
2392.000000	53.767871
2391.000000	53.808446
2390.000000	53.843049
2389.000000	53.871694
2388.000000	53.896635
2387.000000	53.921086
2386.000000	53.947573
2385.000000	53.978538
2384.000000	54.016856
2383.000000	54.064441
2382.000000	54.120655
2381.000000	54.183517
2380.000000	54.251500
2379.000000	54.322351
2378.000000	54.392338
2377.000000	54.458023
2376.000000	54.518135
2375.000000	54.572604
2374.000000	54.620697
2373.000000	54.662826
2372.000000	54.702413
2371.000000	54.743053
2370.000000	54.785479
2369.000000	54.830334
2368.000000	54.880731
2367.000000	54.938642
2366.000000	55.002445
2365.000000	55.071509
2364.000000	55.145888
2363.000000	55.223219
2362.000000	55.300776
2361.000000	55.374046
2360.000000	55.442252
2359.000000	55.505426
2358.000000	55.559217
2357.000000	55.603169
2356.000000	55.638384
2355.000000	55.669344
2354.000000	55.702824
2353.000000	55.752449
2352.000000	55.832055
2351.000000	55.929067
2350.000000	56.017484
2349.000000	56.078807
2348.000000	56.120572
2347.000000	56.167122
2346.000000	56.229700
2345.000000	56.305754
2344.000000	56.379291
2343.000000	56.443515
2342.000000	56.500129
2341.000000	56.550479
2340.000000	56.598586
2339.000000	56.646865
2338.000000	56.698408
2337.000000	56.755329
2336.000000	56.820185
2335.000000	56.893579
2334.000000	56.972012
2333.000000	57.049809
2332.000000	57.127495
2331.000000	57.202464
2330.000000	57.275929
2329.000000	57.345266
2328.000000	57.408986
2327.000000	57.468159
2326.000000	57.519014
2325.000000	57.565234
2324.000000	57.608543
2323.000000	57.654957
2322.000000	57.705303
2321.000000	57.759071
2320.000000	57.818454
2319.000000	57.884189
2318.000000	57.956196
2317.000000	58.029553
2316.000000	58.102305
2315.000000	58.172150
2314.000000	58.237276
2313.000000	58.295048
2312.000000	58.345928
2311.000000	58.392334
2310.000000	58.435533
2309.000000	58.477033
2308.000000	58.519415
2307.000000	58.566884
2306.000000	58.620177
2305.000000	58.678629
2304.000000	58.741561
2303.000000	58.808961
2302.000000	58.878989
2301.000000	58.948618
2300.000000	59.016342
2299.000000	59.081378
2298.000000	59.141534
2297.000000	59.194357
2296.000000	59.240041
2295.000000	59.281396
2294.000000	59.320020
2293.000000	59.357580
2292.000000	59.397075
2291.000000	59.442652
2290.000000	59.495110
2289.000000	59.553238
2288.000000	59.616265
2287.000000	59.684139
2286.000000	59.754158
2285.000000	59.821766
2284.000000	59.883831
2283.000000	59.939241
2282.000000	59.986666
2281.000000	60.025127
2280.000000	60.056683
2279.000000	60.085488
2278.000000	60.114645
2277.000000	60.145821
2276.000000	60.181893
2275.000000	60.225747
2274.000000	60.277423
2273.000000	60.334687
2272.000000	60.396077
2271.000000	60.460445
2270.000000	60.523929
2269.000000	60.581128
2268.000000	60.629133
2267.000000	60.667760
2266.000000	60.696888
2265.000000	60.716649
2264.000000	60.730105
2263.000000	60.742304
2262.000000	60.756446
2261.000000	60.774306
2260.000000	60.798645
2259.000000	60.832329
2258.000000	60.874818
2257.000000	60.922769
2256.000000	60.973679
2255.000000	61.025395
2254.000000	61.073425
2253.000000	61.112060
2252.000000	61.138758
2251.000000	61.154130
2250.000000	61.158526
2249.000000	61.152301
2248.000000	61.138974
2247.000000	61.124463
2246.000000	61.113028
2245.000000	61.106936
2244.000000	61.109011
2243.000000	61.121741
2242.000000	61.143808
2241.000000	61.170842
2240.000000	61.199221
2239.000000	61.226098
2238.000000	61.246576
2237.000000	61.254929
2236.000000	61.248977
2235.000000	61.230202
2234.000000	61.200177
2233.000000	61.160485
2232.000000	61.115592
2231.000000	61.072034
2230.000000	61.034386
2229.000000	61.004846
2228.000000	60.985758
2227.000000	60.978871
2226.000000	60.982275
2225.000000	60.991297
2224.000000	61.002267
2223.000000	61.012469
2222.000000	61.017347
2221.000000	61.011679
2220.000000	60.993698
2219.000000	60.965029
2218.000000	60.927313
2217.000000	60.882343
2216.000000	60.834925
2215.000000	60.791621
2214.000000	60.756661
2213.000000	60.731798
2212.000000	60.719282
2211.000000	60.721190
2210.000000	60.735963
2209.000000	60.758976
2208.000000	60.786193
2207.000000	60.814386
2206.000000	60.838505
2205.000000	60.852942
2204.000000	60.855526
2203.000000	60.847398
2202.000000	60.829746
2201.000000	60.804283
2200.000000	60.776224
2199.000000	60.752877
2198.000000	60.739211
2197.000000	60.737669
2196.000000	60.751222
2195.000000	60.782250
2194.000000	60.828472
2193.000000	60.883407
2192.000000	60.940868
2191.000000	60.995817
2190.000000	61.041982
2189.000000	61.073144
2188.000000	61.087482
2187.000000	61.087549
2186.000000	61.076309
2185.000000	61.056872
2184.000000	61.035344
2183.000000	61.019596
2182.000000	61.014564
2181.000000	61.021745
2180.000000	61.042226
2179.000000	61.076238
2178.000000	61.119882
2177.000000	61.166165
2176.000000	61.209551
2175.000000	61.246526
2174.000000	61.272619
2173.000000	61.283409
2172.000000	61.278931
2171.000000	61.263445
2170.000000	61.241103
2169.000000	61.215238
2168.000000	61.191210
2167.000000	61.175395
2166.000000	61.170996
2165.000000	61.177892
2164.000000	61.196086
2163.000000	61.225565
2162.000000	61.262995
2161.000000	61.302495
2160.000000	61.339865
2159.000000	61.372975
2158.000000	61.398651
2157.000000	61.413461
2156.000000	61.417459
2155.000000	61.413521
2154.000000	61.403423
2153.000000	61.388352
2152.000000	61.372514
2151.000000	61.362056
2150.000000	61.360456
2149.000000	61.368321
2148.000000	61.386849
2147.000000	61.417066
2146.000000	61.455831
2145.000000	61.496826
2144.000000	61.535584
2143.000000	61.569628
2142.000000	61.594911
2141.000000	61.606961
2140.000000	61.605653
2139.000000	61.594824
2138.000000	61.577579
2137.000000	61.556247
2136.000000	61.536254
2135.000000	61.524880
2134.000000	61.525549
2133.000000	61.537352
2132.000000	61.559504
2131.000000	61.591814
2130.000000	61.630849
2129.000000	61.670216
2128.000000	61.705232
2127.000000	61.733708
2126.000000	61.752684
2125.000000	61.759113
2124.000000	61.754280
2123.000000	61.743330
2122.000000	61.730321
2121.000000	61.717695
2120.000000	61.709944
2119.000000	61.712687
2118.000000	61.727853
2117.000000	61.753714
2116.000000	61.789246
2115.000000	61.834098
2114.000000	61.884448
2113.000000	61.933674
2112.000000	61.977848
2111.000000	62.016620
2110.000000	62.049084
2109.000000	62.073703
2108.000000	62.092465
2107.000000	62.110484
2106.000000	62.131212
2105.000000	62.156181
2104.000000	62.188932
2103.000000	62.234479
2102.000000	62.294171
2101.000000	62.365417
2100.000000	62.446083
2099.000000	62.534720
2098.000000	62.626780
2097.000000	62.715157
2096.000000	62.795830
2095.000000	62.868814
2094.000000	62.933618
2093.000000	62.988787
2092.000000	63.036103
2091.000000	63.080559
2090.000000	63.125769
2089.000000	63.173452
2088.000000	63.226935
2087.000000	63.290000
2086.000000	63.361829
2085.000000	63.437527
2084.000000	63.513416
2083.000000	63.587481
2082.000000	63.654991
2081.000000	63.709559
2080.000000	63.749005
2079.000000	63.775405
2078.000000	63.790268
2077.000000	63.793954
2076.000000	63.790291
2075.000000	63.785831
2074.000000	63.783864
2073.000000	63.784753
2072.000000	63.790308
2071.000000	63.803143
2070.000000	63.822210
2069.000000	63.843630
2068.000000	63.865602
2067.000000	63.887586
2066.000000	63.906155
2065.000000	63.917325
2064.000000	63.922123
2063.000000	63.924296
2062.000000	63.924085
2061.000000	63.920144
2060.000000	63.916236
2059.000000	63.919560
2058.000000	63.932989
2057.000000	63.954959
2056.000000	63.986406
2055.000000	64.030744
2054.000000	64.087317
2053.000000	64.151627
2052.000000	64.221271
2051.000000	64.295852
2050.000000	64.371768
2049.000000	64.443305
2048.000000	64.508724
2047.000000	64.570385
2046.000000	64.629366
2045.000000	64.685333
2044.000000	64.741695
2043.000000	64.804849
2042.000000	64.878262
2041.000000	64.962714
2040.000000	65.061263
2039.000000	65.177690
2038.000000	65.309991
2037.000000	65.450953
2036.000000	65.595290
2035.000000	65.740407
2034.000000	65.880774
2033.000000	66.008813
2032.000000	66.122930
2031.000000	66.227487
2030.000000	66.325620
2029.000000	66.418552
2028.000000	66.511602
2027.000000	66.613871
2026.000000	66.729842
2025.000000	66.858862
2024.000000	67.000793
2023.000000	67.155994
2022.000000	67.319946
2021.000000	67.483936
2020.000000	67.642310
2019.000000	67.792402
2018.000000	67.928723
2017.000000	68.045466
2016.000000	68.144500
2015.000000	68.232989
2014.000000	68.314634
2013.000000	68.390396
2012.000000	68.466468
2011.000000	68.552257
2010.000000	68.650573
2009.000000	68.757401
2008.000000	68.871157
2007.000000	68.993873
2006.000000	69.121540
2005.000000	69.245416
2004.000000	69.360835
2003.000000	69.468486
2002.000000	69.566039
2001.000000	69.646578
2000.000000	69.710361
1999.000000	69.763764
1998.000000	69.809220
1997.000000	69.846945
1996.000000	69.883719
1995.000000	69.930099
1994.000000	69.989421
1993.000000	70.059276
1992.000000	70.142587
1991.000000	70.243227
1990.000000	70.351145
1989.000000	70.448534
1988.000000	70.529310
1987.000000	70.600346
1986.000000	70.664056
1985.000000	70.714243
1984.000000	70.749033
1983.000000	70.775602
1982.000000	70.798898
1981.000000	70.817664
1980.000000	70.836246
1979.000000	70.864000
1978.000000	70.903691
1977.000000	70.950999
1976.000000	71.005427
1975.000000	71.070788
1974.000000	71.143548
1973.000000	71.213398
1972.000000	71.276283
1971.000000	71.336167
1970.000000	71.392966
1969.000000	71.438994
1968.000000	71.468918
1967.000000	71.486106
1966.000000	71.495799
1965.000000	71.499453
1964.000000	71.500888
1963.000000	71.508324
1962.000000	71.525774
1961.000000	71.552154
1960.000000	71.589606
1959.000000	71.642183
1958.000000	71.706383
1957.000000	71.771036
1956.000000	71.829305
1955.000000	71.880741
1954.000000	71.922155
1953.000000	71.947611
1952.000000	71.956012
1951.000000	71.955152
1950.000000	71.951945
1949.000000	71.945909
1948.000000	71.938146
1947.000000	71.935035
1946.000000	71.941642
1945.000000	71.959808
1944.000000	71.992606
1943.000000	72.043571
1942.000000	72.109632
1941.000000	72.177339
1940.000000	72.231613
1939.000000	72.265836
1938.000000	72.279878
1937.000000	72.276651
1936.000000	72.264302
1935.000000	72.250673
1934.000000	72.236678
1933.000000	72.222033
1932.000000	72.210579
1931.000000	72.212116
1930.000000	72.227398
1929.000000	72.246529
1928.000000	72.266520
1927.000000	72.292161
1926.000000	72.327936
1925.000000	72.364656
1924.000000	72.385723
1923.000000	72.386381
1922.000000	72.372024
1921.000000	72.346430
1920.000000	72.314645
1919.000000	72.289756
1918.000000	72.284924
1917.000000	72.298165
1916.000000	72.314736
1915.000000	72.321474
1914.000000	72.315219
1913.000000	72.305345
1912.000000	72.304023
1911.000000	72.314813
1910.000000	72.325211
1909.000000	72.323581
1908.000000	72.315713
1907.000000	72.309844
1906.000000	72.305785
1905.000000	72.294970
1904.000000	72.275233
1903.000000	72.256171
1902.000000	72.238709
1901.000000	72.215414
1900.000000	72.189175
1899.000000	72.171763
1898.000000	72.169414
1897.000000	72.174987
1896.000000	72.179874
1895.000000	72.185707
1894.000000	72.194183
1893.000000	72.200721
1892.000000	72.206272
1891.000000	72.217853
1890.000000	72.235293
1889.000000	72.253957
1888.000000	72.271938
1887.000000	72.285237
1886.000000	72.285364
1885.000000	72.269373
1884.000000	72.249341
1883.000000	72.243195
1882.000000	72.251979
1881.000000	72.263489
1880.000000	72.275991
1879.000000	72.294805
1878.000000	72.316443
1877.000000	72.330709
1876.000000	72.332727
1875.000000	72.324769
1874.000000	72.304098
1873.000000	72.264322
1872.000000	72.216228
1871.000000	72.191224
1870.000000	72.206765
1869.000000	72.243338
1868.000000	72.278256
1867.000000	72.306132
1866.000000	72.318596
1865.000000	72.308011
1864.000000	72.284929
1863.000000	72.267368
1862.000000	72.256592
1861.000000	72.239594
1860.000000	72.212820
1859.000000	72.184957
1858.000000	72.157358
1857.000000	72.124822
1856.000000	72.090606
1855.000000	72.066772
1854.000000	72.053450
1853.000000	72.038307
1852.000000	72.025735
1851.000000	72.023364
1850.000000	72.021153
1849.000000	72.003761
1848.000000	71.972323
1847.000000	71.936186
1846.000000	71.891981
1845.000000	71.841041
1844.000000	71.803643
1843.000000	71.794189
1842.000000	71.793906
1841.000000	71.773509
1840.000000	71.729268
1839.000000	71.682870
1838.000000	71.651103
1837.000000	71.623655
1836.000000	71.587215
1835.000000	71.545205
1834.000000	71.498121
1833.000000	71.443728
1832.000000	71.399402
1831.000000	71.373400
1830.000000	71.344152
1829.000000	71.294491
1828.000000	71.225770
1827.000000	71.148281
1826.000000	71.074359
1825.000000	71.017587
1824.000000	70.987686
1823.000000	70.974393
1822.000000	70.949791
1821.000000	70.901235
1820.000000	70.845948
1819.000000	70.805190
1818.000000	70.780747
1817.000000	70.754622
1816.000000	70.718043
1815.000000	70.678623
1814.000000	70.635693
1813.000000	70.581817
1812.000000	70.512560
1811.000000	70.436465
1810.000000	70.364657
1809.000000	70.291210
1808.000000	70.212173
1807.000000	70.135642
1806.000000	70.064714
1805.000000	69.991306
1804.000000	69.921115
1803.000000	69.878164
1802.000000	69.867668
1801.000000	69.874158
1800.000000	69.883140
1799.000000	69.886784
1798.000000	69.868929
1797.000000	69.808681
1796.000000	69.709326
1795.000000	69.590775
1794.000000	69.469072
1793.000000	69.357127
1792.000000	69.271440
1791.000000	69.231711
1790.000000	69.224422
1789.000000	69.204811
1788.000000	69.155366
1787.000000	69.100535
1786.000000	69.070307
1785.000000	69.062431
1784.000000	69.064509
1783.000000	69.072286
1782.000000	69.059013
1781.000000	69.001875
1780.000000	68.912835
1779.000000	68.820016
1778.000000	68.732121
1777.000000	68.651973
1776.000000	68.605593
1775.000000	68.599020
1774.000000	68.591490
1773.000000	68.538481
1772.000000	68.452092
1771.000000	68.386945
1770.000000	68.359881
1769.000000	68.333778
1768.000000	68.286215
1767.000000	68.232470
1766.000000	68.174385
1765.000000	68.084936
1764.000000	67.955912
1763.000000	67.822752
1762.000000	67.721386
1761.000000	67.652245
1760.000000	67.592964
1759.000000	67.538091
1758.000000	67.485412
1757.000000	67.438259
1756.000000	67.424058
1755.000000	67.450329
1754.000000	67.473612
1753.000000	67.440104
1752.000000	67.360168
1751.000000	67.289869
1750.000000	67.245158
1749.000000	67.181795
1748.000000	67.079166
1747.000000	66.959625
1746.000000	66.831474
1745.000000	66.686635
1744.000000	66.525963
1743.000000	66.373330
1742.000000	66.250372
1741.000000	66.148004
1740.000000	66.048725
1739.000000	65.968935
1738.000000	65.935574
1737.000000	65.922107
1736.000000	65.870580
1735.000000	65.779682
1734.000000	65.660527
1733.000000	65.480172
1732.000000	65.240188
1731.000000	64.990440
1730.000000	64.747711
1729.000000	64.505230
1728.000000	64.280451
1727.000000	64.086020
1726.000000	63.910570
1725.000000	63.740886
1724.000000	63.565521
1723.000000	63.385554
1722.000000	63.219429
1721.000000	63.091642
1720.000000	63.020194
1719.000000	62.971944
1718.000000	62.839685
1717.000000	62.545304
1716.000000	62.143135
1715.000000	61.753280
1714.000000	61.432862
1713.000000	61.153869
1712.000000	60.881117
1711.000000	60.615160
1710.000000	60.356427
1709.000000	60.096353
1708.000000	59.848732
1707.000000	59.621212
1706.000000	59.383284
1705.000000	59.110423
1704.000000	58.827614
1703.000000	58.520573
1702.000000	58.143132
1701.000000	57.784017
1700.000000	57.568545
1699.000000	57.496476
1698.000000	57.442361
1697.000000	57.196253
1696.000000	56.711703
1695.000000	56.192814
1694.000000	55.783751
1693.000000	55.471416
1692.000000	55.186449
1691.000000	54.883583
1690.000000	54.579258
1689.000000	54.316974
1688.000000	54.124990
1687.000000	53.933351
1686.000000	53.626859
1685.000000	53.132674
1684.000000	52.524489
1683.000000	52.019584
1682.000000	51.660040
1681.000000	51.316342
1680.000000	50.918924
1679.000000	50.498172
1678.000000	50.089346
1677.000000	49.674054
1676.000000	49.262143
1675.000000	48.904412
1674.000000	48.600874
1673.000000	48.299641
1672.000000	47.962389
1671.000000	47.588837
1670.000000	47.190837
1669.000000	46.779206
1668.000000	46.378051
1667.000000	46.003006
1666.000000	45.638055
1665.000000	45.253929
1664.000000	44.851604
1663.000000	44.469864
1662.000000	44.127538
1661.000000	43.802957
1660.000000	43.473368
1659.000000	43.135269
1658.000000	42.807028
1657.000000	42.523652
1656.000000	42.294576
1655.000000	42.083682
1654.000000	41.812960
1653.000000	41.430228
1652.000000	40.972184
1651.000000	40.517426
1650.000000	40.152411
1649.000000	39.867915
1648.000000	39.577340
1647.000000	39.250735
1646.000000	38.931458
1645.000000	38.621296
1644.000000	38.302592
1643.000000	38.002715
1642.000000	37.716531
1641.000000	37.417976
1640.000000	37.122415
1639.000000	36.867019
1638.000000	36.643920
1637.000000	36.388022
1636.000000	36.081164
1635.000000	35.798948
1634.000000	35.572771
1633.000000	35.358821
1632.000000	35.134848
1631.000000	34.913608
1630.000000	34.712048
1629.000000	34.524633
1628.000000	34.339628
1627.000000	34.165135
1626.000000	34.002532
1625.000000	33.840260
1624.000000	33.679375
1623.000000	33.539067
1622.000000	33.424757
1621.000000	33.325855
1620.000000	33.250839
1619.000000	33.210008
1618.000000	33.185165
1617.000000	33.137661
1616.000000	33.054271
1615.000000	32.963310
1614.000000	32.891754
1613.000000	32.835370
1612.000000	32.787103
1611.000000	32.762275
1610.000000	32.763648
1609.000000	32.765437
1608.000000	32.755512
1607.000000	32.754637
1606.000000	32.773219
1605.000000	32.800395
1604.000000	32.834997
1603.000000	32.888445
1602.000000	32.960580
1601.000000	33.034962
1600.000000	33.106891
1599.000000	33.188196
1598.000000	33.280875
1597.000000	33.370341
1596.000000	33.448184
1595.000000	33.521996
1594.000000	33.594576
1593.000000	33.656521
1592.000000	33.707571
1591.000000	33.762755
1590.000000	33.828841
1589.000000	33.897555
1588.000000	33.966942
1587.000000	34.049234
1586.000000	34.147842
1585.000000	34.247230
1584.000000	34.344293
1583.000000	34.447014
1582.000000	34.549336
1581.000000	34.643889
1580.000000	34.750977
1579.000000	34.893700
1578.000000	35.050498
1577.000000	35.166025
1576.000000	35.211857
1575.000000	35.205417
1574.000000	35.174701
1573.000000	35.145414
1572.000000	35.137766
1571.000000	35.189613
1570.000000	35.323269
1569.000000	35.492435
1568.000000	35.638554
1567.000000	35.749339
1566.000000	35.845748
1565.000000	35.941862
1564.000000	36.039662
1563.000000	36.123574
1562.000000	36.143845
1561.000000	36.119296
1560.000000	36.222380
1559.000000	36.454780
1558.000000	36.694613
1557.000000	36.851305
1556.000000	36.942839
1555.000000	37.047618
1554.000000	37.179806
1553.000000	37.326250
1552.000000	37.477436
1551.000000	37.651504
1550.000000	37.856760
1549.000000	38.064017
1548.000000	38.235998
1547.000000	38.381479
1546.000000	38.549677
1545.000000	38.767424
1544.000000	39.021587
1543.000000	39.313996
1542.000000	39.692376
1541.000000	40.152036
1540.000000	40.604925
1539.000000	40.977320
1538.000000	41.212519
1537.000000	41.348484
1536.000000	41.494818
1535.000000	41.743335
1534.000000	42.137765
1533.000000	42.615595
1532.000000	43.057618
1531.000000	43.408281
1530.000000	43.700086
1529.000000	43.991737
1528.000000	44.322157
1527.000000	44.706123
1526.000000	45.133184
1525.000000	45.575823
1524.000000	46.027929
1523.000000	46.517763
1522.000000	47.061650
1521.000000	47.606369
1520.000000	48.070967
1519.000000	48.473790
1518.000000	48.899429
1517.000000	49.361260
1516.000000	49.814181
1515.000000	50.224441
1514.000000	50.586945
1513.000000	50.924814
1512.000000	51.267626
1511.000000	51.646382
1510.000000	52.087156
1509.000000	52.620464
1508.000000	53.233205
1507.000000	53.871647
1506.000000	54.542021
1505.000000	55.088570
1504.000000	55.434511
1503.000000	55.718608
1502.000000	56.018769
1501.000000	56.348059
1500.000000	56.729414
1499.000000	57.196888
1498.000000	57.734948
1497.000000	58.270499
1496.000000	58.731767
1495.000000	59.107118
1494.000000	59.422715
1493.000000	59.712486
1492.000000	60.041661
1491.000000	60.490813
1490.000000	61.036820
1489.000000	61.564746
1488.000000	62.014758
1487.000000	62.419303
1486.000000	62.802818
1485.000000	63.132171
1484.000000	63.405855
1483.000000	63.661615
1482.000000	63.905067
1481.000000	64.088756
1480.000000	64.184324
1479.000000	64.219046
1478.000000	64.223229
1477.000000	64.200968
1476.000000	64.150117
1475.000000	64.064098
1474.000000	63.851387
1473.000000	63.363080
1472.000000	62.603255
1471.000000	61.706525
1470.000000	60.674049
1469.000000	59.391013
1468.000000	57.787520
1467.000000	55.820801
1466.000000	53.355433
1465.000000	50.304556
1464.000000	46.930286
1463.000000	43.635674
1462.000000	40.542397
1461.000000	37.579152
1460.000000	34.718372
1459.000000	31.917614
1458.000000	29.004730
1457.000000	26.048288
1456.000000	23.623656
1455.000000	22.047208
1454.000000	21.038038
1453.000000	20.302409
1452.000000	19.794896
1451.000000	19.560916
1450.000000	19.580976
1449.000000	19.828795
1448.000000	20.338200
1447.000000	21.090593
1446.000000	21.966719
1445.000000	22.896589
1444.000000	23.920244
1443.000000	25.063083
1442.000000	26.260456
1441.000000	27.428075
1440.000000	28.546880
1439.000000	29.672913
1438.000000	30.944453
1437.000000	32.503508
1436.000000	34.257993
1435.000000	35.913379
1434.000000	37.352301
1433.000000	38.702900
1432.000000	40.113597
1431.000000	41.616213
1430.000000	43.139636
1429.000000	44.597022
1428.000000	45.915812
1427.000000	47.065821
1426.000000	48.090012
1425.000000	49.062885
1424.000000	49.985049
1423.000000	50.779740
1422.000000	51.420685
1421.000000	51.993573
1420.000000	52.633751
1419.000000	53.361236
1418.000000	54.079362
1417.000000	54.738354
1416.000000	55.350159
1415.000000	55.931655
1414.000000	56.510087
1413.000000	57.116264
1412.000000	57.744023
1411.000000	58.353732
1410.000000	58.927782
1409.000000	59.475771
1408.000000	59.991159
1407.000000	60.468215
1406.000000	60.931027
1405.000000	61.406007
1404.000000	61.865949
1403.000000	62.249859
1402.000000	62.554491
1401.000000	62.845267
1400.000000	63.172566
1399.000000	63.515532
1398.000000	63.836023
1397.000000	64.127802
1396.000000	64.390057
1395.000000	64.621063
1394.000000	64.831936
1393.000000	65.018323
1392.000000	65.136510
1391.000000	65.150906
1390.000000	65.075279
1389.000000	64.939867
1388.000000	64.735415
1387.000000	64.446189
1386.000000	64.132549
1385.000000	63.894514
1384.000000	63.776804
1383.000000	63.762510
1382.000000	63.812628
1381.000000	63.868614
1380.000000	63.857387
1379.000000	63.735600
1378.000000	63.521047
1377.000000	63.255284
1376.000000	62.948639
1375.000000	62.590245
1374.000000	62.200433
1373.000000	61.828728
1372.000000	61.484081
1371.000000	61.138306
1370.000000	60.779867
1369.000000	60.414306
1368.000000	60.035448
1367.000000	59.629175
1366.000000	59.196079
1365.000000	58.741918
1364.000000	58.251951
1363.000000	57.705736
1362.000000	57.126629
1361.000000	56.564162
1360.000000	56.037174
1359.000000	55.552609
1358.000000	55.144863
1357.000000	54.856796
1356.000000	54.703909
1355.000000	54.674791
1354.000000	54.745160
1353.000000	54.871512
1352.000000	54.983727
1351.000000	55.012040
1350.000000	54.907711
1349.000000	54.638068
1348.000000	54.175728
1347.000000	53.508644
1346.000000	52.647072
1345.000000	51.609548
1344.000000	50.416021
1343.000000	49.090091
1342.000000	47.651530
1341.000000	46.095670
1340.000000	44.407057
1339.000000	42.609682
1338.000000	40.759051
1337.000000	38.879732
1336.000000	36.956481
1335.000000	34.982786
1334.000000	32.981373
1333.000000	30.982810
1332.000000	29.021447
1331.000000	27.151632
1330.000000	25.432432
1329.000000	23.890258
1328.000000	22.518854
1327.000000	21.302700
1326.000000	20.216002
1325.000000	19.218721
1324.000000	18.278462
1323.000000	17.394447
1322.000000	16.580402
1321.000000	15.839723
1320.000000	15.182557
1319.000000	14.644306
1318.000000	14.267432
1317.000000	14.073309
1316.000000	14.068366
1315.000000	14.264638
1314.000000	14.663973
1313.000000	15.243572
1312.000000	15.973750
1311.000000	16.834425
1310.000000	17.810247
1309.000000	18.876896
1308.000000	20.007889
1307.000000	21.184324
1306.000000	22.386178
1305.000000	23.588924
1304.000000	24.773237
1303.000000	25.931112
1302.000000	27.057757
1301.000000	28.142892
1300.000000	29.172929
1299.000000	30.136571
1298.000000	31.023648
1297.000000	31.824815
1296.000000	32.543984
1295.000000	33.209618
1294.000000	33.869462
1293.000000	34.572580
1292.000000	35.355011
1291.000000	36.235494
1290.000000	37.216015
1289.000000	38.282649
1288.000000	39.409158
1287.000000	40.564499
1286.000000	41.718080
1285.000000	42.838876
1284.000000	43.893296
1283.000000	44.849900
1282.000000	45.686519
1281.000000	46.391739
1280.000000	46.959469
1279.000000	47.392153
1278.000000	47.709721
1277.000000	47.943355
1276.000000	48.127006
1275.000000	48.298353
1274.000000	48.501281
1273.000000	48.776915
1272.000000	49.150568
1271.000000	49.631455
1270.000000	50.220533
1269.000000	50.909876
1268.000000	51.676690
1267.000000	52.490949
1266.000000	53.328378
1265.000000	54.171170
1264.000000	55.000015
1263.000000	55.796555
1262.000000	56.554213
1261.000000	57.273451
1260.000000	57.947096
1259.000000	58.562641
1258.000000	59.119312
1257.000000	59.624332
1256.000000	60.076261
1255.000000	60.467057
1254.000000	60.796225
1253.000000	61.071047
1252.000000	61.290454
1251.000000	61.446733
1250.000000	61.540939
1249.000000	61.578322
1248.000000	61.555264
1247.000000	61.461340
1246.000000	61.294649
1245.000000	61.061522
1244.000000	60.760858
1243.000000	60.388864
1242.000000	59.951900
1241.000000	59.461610
1240.000000	58.922469
1239.000000	58.333822
1238.000000	57.703913
1237.000000	57.046438
1236.000000	56.368618
1235.000000	55.675950
1234.000000	54.982583
1233.000000	54.307081
1232.000000	53.662385
1231.000000	53.059275
1230.000000	52.512925
1229.000000	52.038943
1228.000000	51.643827
1227.000000	51.327859
1226.000000	51.093373
1225.000000	50.939656
1224.000000	50.859274
1223.000000	50.842127
1222.000000	50.881944
1221.000000	50.975397
1220.000000	51.114446
1219.000000	51.290790
1218.000000	51.501992
1217.000000	51.747752
1216.000000	52.024459
1215.000000	52.326519
1214.000000	52.653158
1213.000000	53.005261
1212.000000	53.377262
1211.000000	53.760182
1210.000000	54.149339
1209.000000	54.542707
1208.000000	54.933426
1207.000000	55.312691
1206.000000	55.679312
1205.000000	56.038056
1204.000000	56.390071
1203.000000	56.733783
1202.000000	57.073509
1201.000000	57.417068
1200.000000	57.766036
1199.000000	58.116991
1198.000000	58.470665
1197.000000	58.830268
1196.000000	59.191473
1195.000000	59.544610
1194.000000	59.885431
1193.000000	60.213939
1192.000000	60.525090
1191.000000	60.810947
1190.000000	61.072145
1189.000000	61.316012
1188.000000	61.544648
1187.000000	61.757151
1186.000000	61.960621
1185.000000	62.167389
1184.000000	62.381198
1183.000000	62.596302
1182.000000	62.809442
1181.000000	63.020975
1180.000000	63.226619
1179.000000	63.420059
1178.000000	63.601572
1177.000000	63.772848
1176.000000	63.924629
1175.000000	64.043085
1174.000000	64.126664
1173.000000	64.184153
1172.000000	64.221016
1171.000000	64.239469
1170.000000	64.249552
1169.000000	64.266008
1168.000000	64.294284
1167.000000	64.331977
1166.000000	64.380844
1165.000000	64.444679
1164.000000	64.517384
1163.000000	64.586010
1162.000000	64.644476
1161.000000	64.692531
1160.000000	64.724548
1159.000000	64.733290
1158.000000	64.722809
1157.000000	64.705318
1156.000000	64.687377
1155.000000	64.671537
1154.000000	64.667951
1153.000000	64.690612
1152.000000	64.743290
1151.000000	64.821766
1150.000000	64.927823
1149.000000	65.066497
1148.000000	65.232760
1147.000000	65.412945
1146.000000	65.598615
1145.000000	65.787020
1144.000000	65.969391
1143.000000	66.133785
1142.000000	66.278834
1141.000000	66.412254
1140.000000	66.537516
1139.000000	66.655315
1138.000000	66.776052
1137.000000	66.916615
1136.000000	67.085193
1135.000000	67.281568
1134.000000	67.508584
1133.000000	67.769685
1132.000000	68.055366
1131.000000	68.345268
1130.000000	68.623576
1129.000000	68.880410
1128.000000	69.101085
1127.000000	69.270096
1126.000000	69.386870
1125.000000	69.461951
1124.000000	69.501757
1123.000000	69.509899
1122.000000	69.500402
1121.000000	69.494250
1120.000000	69.500875
1119.000000	69.517512
1118.000000	69.542179
1117.000000	69.571309
1116.000000	69.587756
1115.000000	69.564697
1114.000000	69.483575
1113.000000	69.335111
1112.000000	69.104826
1111.000000	68.778795
1110.000000	68.356193
1109.000000	67.846143
1108.000000	67.252915
1107.000000	66.574060
1106.000000	65.815897
1105.000000	64.987380
1104.000000	64.086095
1103.000000	63.102454
1102.000000	62.027018
1101.000000	60.850580
1100.000000	59.553193
1099.000000	58.110015
1098.000000	56.506996
1097.000000	54.733683
1096.000000	52.781345
1095.000000	50.648061
1094.000000	48.345018
1093.000000	45.896161
1092.000000	43.330498
1091.000000	40.688531
1090.000000	38.020221
1089.000000	35.375876
1088.000000	32.804456
1087.000000	30.356507
1086.000000	28.072830
1085.000000	25.975610
1084.000000	24.078512
1083.000000	22.387000
1082.000000	20.895968
1081.000000	19.585803
1080.000000	18.436136
1079.000000	17.436284
1078.000000	16.565969
1077.000000	15.798755
1076.000000	15.117706
1075.000000	14.517382
1074.000000	13.990656
1073.000000	13.521095
1072.000000	13.101769
1071.000000	12.737595
1070.000000	12.426432
1069.000000	12.157538
1068.000000	11.926307
1067.000000	11.738679
1066.000000	11.594449
1065.000000	11.483075
1064.000000	11.402317
1063.000000	11.359381
1062.000000	11.354880
1061.000000	11.380914
1060.000000	11.436774
1059.000000	11.532108
1058.000000	11.668691
1057.000000	11.838966
1056.000000	12.043426
1055.000000	12.291124
1054.000000	12.584301
1053.000000	12.915387
1052.000000	13.283532
1051.000000	13.697210
1050.000000	14.155494
1049.000000	14.647988
1048.000000	15.171304
1047.000000	15.731793
1046.000000	16.331620
1045.000000	16.965521
1044.000000	17.635743
1043.000000	18.351561
1042.000000	19.115249
1041.000000	19.922217
1040.000000	20.771260
1039.000000	21.666002
1038.000000	22.602990
1037.000000	23.570753
1036.000000	24.561925
1035.000000	25.572956
1034.000000	26.595406
1033.000000	27.616095
1032.000000	28.626890
1031.000000	29.626775
1030.000000	30.614659
1029.000000	31.587978
1028.000000	32.547975
1027.000000	33.500143
1026.000000	34.448205
1025.000000	35.393197
1024.000000	36.336544
1023.000000	37.279579
1022.000000	38.220124
1021.000000	39.151566
1020.000000	40.066704
1019.000000	40.959563
1018.000000	41.824522
1017.000000	42.656606
1016.000000	43.451571
1015.000000	44.208460
1014.000000	44.931254
1013.000000	45.627640
1012.000000	46.306931
1011.000000	46.977672
1010.000000	47.647622
1009.000000	48.322179
1008.000000	49.001700
1007.000000	49.682495
1006.000000	50.359088
1005.000000	51.024378
1004.000000	51.668553
1003.000000	52.281935
1002.000000	52.860870
1001.000000	53.406665
1000.000000	53.921360
999.000000	54.408713
998.000000	54.877500
997.000000	55.339612
996.000000	55.803463
995.000000	56.273834
994.000000	56.755690
993.000000	57.251135
992.000000	57.754035
991.000000	58.253030
990.000000	58.739832
989.000000	59.209648
988.000000	59.655082
987.000000	60.069176
986.000000	60.453025
985.000000	60.813798
984.000000	61.156740
983.000000	61.485366
982.000000	61.808631
981.000000	62.137877
980.000000	62.477576
979.000000	62.826978
978.000000	63.188111
977.000000	63.563244
976.000000	63.945584
975.000000	64.321754
974.000000	64.683511
973.000000	65.027446
972.000000	65.346420
971.000000	65.631885
970.000000	65.884274
969.000000	66.112216
968.000000	66.321324
967.000000	66.515340
966.000000	66.705959
965.000000	66.909734
964.000000	67.135452
963.000000	67.383351
962.000000	67.654281
961.000000	67.948248
960.000000	68.254176
959.000000	68.552670
958.000000	68.828809
957.000000	69.073647
956.000000	69.276228
955.000000	69.426705
954.000000	69.529658
953.000000	69.601997
952.000000	69.659469
951.000000	69.715249
950.000000	69.787768
949.000000	69.896657
948.000000	70.049689
947.000000	70.242658
946.000000	70.469181
945.000000	70.719443
944.000000	70.971492
943.000000	71.197641
942.000000	71.380647
941.000000	71.514980
940.000000	71.595264
939.000000	71.619529
938.000000	71.601378
937.000000	71.565253
936.000000	71.530740
935.000000	71.511145
934.000000	71.523242
933.000000	71.582661
932.000000	71.689744
931.000000	71.831078
930.000000	71.993252
929.000000	72.162765
928.000000	72.316179
927.000000	72.425697
926.000000	72.476842
925.000000	72.468478
924.000000	72.400112
923.000000	72.273389
922.000000	72.103153
921.000000	71.914484
920.000000	71.727013
919.000000	71.553902
918.000000	71.411180
917.000000	71.312569
916.000000	71.255679
915.000000	71.224328
914.000000	71.202214
913.000000	71.173398
912.000000	71.112812
911.000000	70.993054
910.000000	70.800802
909.000000	70.536259
908.000000	70.201269
907.000000	69.799595
906.000000	69.349042
905.000000	68.876334
904.000000	68.400800
903.000000	67.934221
902.000000	67.489655
901.000000	67.077107
900.000000	66.690496
899.000000	66.309776
898.000000	65.915623
897.000000	65.490931
896.000000	65.013613
895.000000	64.461665
894.000000	63.825245
893.000000	63.107239
892.000000	62.311410
891.000000	61.443342
890.000000	60.518553
889.000000	59.557139
888.000000	58.574282
887.000000	57.579609
886.000000	56.583306
885.000000	55.593025
884.000000	54.605555
883.000000	53.608921
882.000000	52.588801
881.000000	51.529243
880.000000	50.412264
879.000000	49.222766
878.000000	47.955497
877.000000	46.613035
876.000000	45.203148
875.000000	43.742201
874.000000	42.253965
873.000000	40.762667
872.000000	39.287080
871.000000	37.841133
870.000000	36.434068
869.000000	35.068835
868.000000	33.742238
867.000000	32.446841
866.000000	31.172313
865.000000	29.908201
864.000000	28.650445
863.000000	27.401233
862.000000	26.163306
861.000000	24.940836
860.000000	23.745599
859.000000	22.598864
858.000000	21.522590
857.000000	20.536347
856.000000	19.665297
855.000000	18.935247
854.000000	18.362652
853.000000	17.947983
852.000000	17.678109
851.000000	17.528345
850.000000	17.457654
849.000000	17.421504
848.000000	17.388413
847.000000	17.342681
846.000000	17.277987
845.000000	17.195740
844.000000	17.110074
843.000000	17.041255
842.000000	17.003420
841.000000	17.006351
840.000000	17.062920
839.000000	17.185603
838.000000	17.376348
837.000000	17.628209
836.000000	17.937476
835.000000	18.302094
834.000000	18.713663
833.000000	19.159997
832.000000	19.634160
831.000000	20.135550
830.000000	20.662018
829.000000	21.210475
828.000000	21.782738
827.000000	22.382812
826.000000	23.011508
825.000000	23.668081
824.000000	24.354579
823.000000	25.071875
822.000000	25.813603
821.000000	26.569910
820.000000	27.332379
819.000000	28.091759
818.000000	28.835558
817.000000	29.553173
816.000000	30.240456
815.000000	30.897059
814.000000	31.523232
813.000000	32.121524
812.000000	32.699170
811.000000	33.265221
810.000000	33.827973
809.000000	34.395515
808.000000	34.975235
807.000000	35.571327
806.000000	36.183921
805.000000	36.810330
804.000000	37.444519
803.000000	38.076534
802.000000	38.696646
801.000000	39.299708
800.000000	39.883475
799.000000	40.445685
798.000000	40.986536
797.000000	41.512544
796.000000	42.034060
795.000000	42.561179
794.000000	43.103761
793.000000	43.671030
792.000000	44.266229
791.000000	44.883485
790.000000	45.512137
789.000000	46.140927
788.000000	46.756637
787.000000	47.344662
786.000000	47.895646
785.000000	48.407926
784.000000	48.882543
783.000000	49.321201
782.000000	49.732192
781.000000	50.131659
780.000000	50.535461
779.000000	50.953971
778.000000	51.394634
777.000000	51.861924
776.000000	52.350795
775.000000	52.846094
774.000000	53.331790
773.000000	53.796006
772.000000	54.227094
771.000000	54.614512
770.000000	54.957313
769.000000	55.265838
768.000000	55.552031
767.000000	55.825278
766.000000	56.098030
765.000000	56.385962
764.000000	56.699087
763.000000	57.038987
762.000000	57.405865
761.000000	57.798858
760.000000	58.206684
759.000000	58.606953
758.000000	58.979041
757.000000	59.311130
756.000000	59.595139
755.000000	59.825362
754.000000	60.006266
753.000000	60.152072
752.000000	60.275959
751.000000	60.387851
750.000000	60.502591
749.000000	60.639325
748.000000	60.808507
747.000000	61.007898
746.000000	61.231953
745.000000	61.474470
744.000000	61.719573
743.000000	61.942209
742.000000	62.122408
741.000000	62.251816
740.000000	62.325979
739.000000	62.343372
738.000000	62.315353
737.000000	62.265763
736.000000	62.217010
735.000000	62.184911
734.000000	62.187652
733.000000	62.245248
732.000000	62.365621
731.000000	62.540670
730.000000	62.759338
729.000000	63.012833
728.000000	63.284749
727.000000	63.550086
726.000000	63.790747
725.000000	64.002500
724.000000	64.183443
723.000000	64.329418
722.000000	64.445851
721.000000	64.552396
720.000000	64.669444
719.000000	64.809717
718.000000	64.985314
717.000000	65.210009
716.000000	65.487979
715.000000	65.810144
714.000000	66.165280
713.000000	66.543356
712.000000	66.924940
711.000000	67.281649
710.000000	67.593793
709.000000	67.855891
708.000000	68.064225
707.000000	68.214250
706.000000	68.314514
705.000000	68.388892
704.000000	68.460583
703.000000	68.545363
702.000000	68.662693
701.000000	68.836069
700.000000	69.074707
699.000000	69.367615
698.000000	69.698648
697.000000	70.052775
696.000000	70.403469
695.000000	70.713706
694.000000	70.958587
693.000000	71.133922
692.000000	71.240783
691.000000	71.280550
690.000000	71.270347
689.000000	71.246462
688.000000	71.242922
687.000000	71.278808
686.000000	71.371300
685.000000	71.538912
684.000000	71.780767
683.000000	72.070373
682.000000	72.378619
681.000000	72.684998
680.000000	72.962244
679.000000	73.176606
678.000000	73.312247
677.000000	73.377666
676.000000	73.387050
675.000000	73.352124
674.000000	73.299847
673.000000	73.276138
672.000000	73.316923
671.000000	73.426389
670.000000	73.592156
669.000000	73.793546
668.000000	73.994863
667.000000	74.196855
666.000000	74.408481
665.000000	74.608262
664.000000	74.779916
663.000000	74.913967
662.000000	75.004852
661.000000	75.056375
660.000000	75.072703
659.000000	75.060510
658.000000	75.038316
657.000000	75.029463
656.000000	75.048589
655.000000	75.101756
654.000000	75.194283
653.000000	75.328916
652.000000	75.499210
651.000000	75.690112
650.000000	75.885325
649.000000	76.069746
648.000000	76.226886
647.000000	76.342745
646.000000	76.415285
645.000000	76.452959
644.000000	76.462458
643.000000	76.447514
642.000000	76.419198
641.000000	76.395896
640.000000	76.391928
639.000000	76.415861
638.000000	76.476715
637.000000	76.579922
636.000000	76.716567
635.000000	76.867184
634.000000	77.017994
633.000000	77.163255
632.000000	77.291708
631.000000	77.385336
630.000000	77.435973
629.000000	77.450458
628.000000	77.437613
627.000000	77.402742
626.000000	77.357994
625.000000	77.323362
624.000000	77.313404
623.000000	77.333942
622.000000	77.391227
621.000000	77.489938
620.000000	77.619913
619.000000	77.758292
618.000000	77.887321
617.000000	77.998894
616.000000	78.081970
615.000000	78.123602
614.000000	78.124783
613.000000	78.100592
612.000000	78.062908
611.000000	78.019401
610.000000	77.987729
609.000000	77.990848
608.000000	78.035762
607.000000	78.111511
606.000000	78.208704
605.000000	78.323649
604.000000	78.442434
603.000000	78.541086
602.000000	78.606482
601.000000	78.639292
600.000000	78.635625
599.000000	78.586524
598.000000	78.499335
597.000000	78.398680
596.000000	78.304723
595.000000	78.229658
594.000000	78.193420
593.000000	78.219414
592.000000	78.308179
591.000000	78.434339
590.000000	78.573212
589.000000	78.713712
588.000000	78.842828
587.000000	78.942145
586.000000	79.006847
585.000000	79.049983
584.000000	79.081279
583.000000	79.100315
582.000000	79.115232
581.000000	79.144041
580.000000	79.192642
579.000000	79.253235
578.000000	79.329364
577.000000	79.437725
576.000000	79.575634
575.000000	79.710537
574.000000	79.813399
573.000000	79.879948
572.000000	79.913117
571.000000	79.911846
570.000000	79.885046
569.000000	79.852229
568.000000	79.821680
567.000000	79.790043
566.000000	79.765670
565.000000	79.767792
564.000000	79.798108
563.000000	79.838143
562.000000	79.878821
561.000000	79.927532
560.000000	79.981175
559.000000	80.020205
558.000000	80.036316
557.000000	80.039168
556.000000	80.030323
555.000000	79.999258
554.000000	79.951895
553.000000	79.912791
552.000000	79.892570
551.000000	79.880868
550.000000	79.877455
549.000000	79.900947
548.000000	79.957953
547.000000	80.031048
546.000000	80.108085
545.000000	80.198131
544.000000	80.307130
543.000000	80.422209
542.000000	80.530006
541.000000	80.627587
540.000000	80.705278
539.000000	80.743664
538.000000	80.737234
537.000000	80.701027
536.000000	80.645922
535.000000	80.574847
534.000000	80.506421
533.000000	80.473724
532.000000	80.497416
531.000000	80.577100
530.000000	80.705912
529.000000	80.872601
528.000000	81.050977
527.000000	81.206298
526.000000	81.317824
525.000000	81.379526
524.000000	81.374685
523.000000	81.280396
522.000000	81.109905
521.000000	80.914793
520.000000	80.736302
519.000000	80.583663
518.000000	80.462306
517.000000	80.388867
516.000000	80.361516
515.000000	80.348989
514.000000	80.319420
513.000000	80.250246
512.000000	80.109190
511.000000	79.860384
510.000000	79.500001
509.000000	79.055864
508.000000	78.547450
507.000000	77.980199
506.000000	77.380904
505.000000	76.796530
504.000000	76.255288
503.000000	75.767326
502.000000	75.355489
501.000000	75.049217
500.000000	74.845463
499.000000	74.707955
498.000000	74.619434
497.000000	74.596973
496.000000	74.658759
495.000000	74.807863
494.000000	75.045219
493.000000	75.375280
492.000000	75.780895
491.000000	76.218201
490.000000	76.648444
489.000000	77.057394
488.000000	77.446243
487.000000	77.819199
486.000000	78.186043
485.000000	78.554948
484.000000	78.912677
483.000000	79.228750
482.000000	79.488699
481.000000	79.702980
480.000000	79.871399
479.000000	79.968830
478.000000	79.978847
477.000000	79.918854
476.000000	79.818136
475.000000	79.697104
474.000000	79.585962
473.000000	79.522618
472.000000	79.523417
471.000000	79.588584
470.000000	79.726824
469.000000	79.956051
468.000000	80.272947
467.000000	80.630752
466.000000	80.975034
465.000000	81.280133
464.000000	81.536141
463.000000	81.725126
462.000000	81.830583
461.000000	81.853032
460.000000	81.792157
459.000000	81.656905
458.000000	81.497861
457.000000	81.391591
456.000000	81.372913
455.000000	81.408120
454.000000	81.479638
453.000000	81.624673
452.000000	81.850408
451.000000	82.090622
450.000000	82.292589
449.000000	82.473549
448.000000	82.649330
447.000000	82.776969
446.000000	82.822483
445.000000	82.820349
444.000000	82.820370
443.000000	82.822225
442.000000	82.808167
441.000000	82.800484
440.000000	82.827150
439.000000	82.887934
438.000000	82.997549
437.000000	83.199049
436.000000	83.490221
435.000000	83.792924
434.000000	84.040585
433.000000	84.232244
432.000000	84.368538
431.000000	84.412253
430.000000	84.353681
429.000000	84.253462
428.000000	84.163205
427.000000	84.069500
426.000000	83.962801
425.000000	83.901169
424.000000	83.945392
423.000000	84.065161
422.000000	84.181734
421.000000	84.266384
420.000000	84.366796
419.000000	84.481562
418.000000	84.578764
417.000000	84.746649
416.000000	84.960807
415.000000	85.073292
414.000000	85.035322
413.000000	84.946293
412.000000	84.884430
411.000000	84.799561
410.000000	84.643089
409.000000	84.494452
408.000000	84.441910
407.000000	84.462695
406.000000	84.526173
405.000000	84.678573
404.000000	84.928884
403.000000	85.144419
402.000000	85.224061
401.000000	85.187420
400.000000	85.105918
