PE IR       SUBTECH     SPECTRUM    ASCII       PEDS        4.00        
   -1
23ms030_nitro.asc
24/09/10
15:53:03.00
24/09/10
15:53:03.00
Administrator
Sample 1153 By Administrator Date Tuesday, September 10 2024
400.000000
#HDR
-1
-1
#GR
cm-1
%T
1.0
0.0
4000.000000
-1.000000
3601
8
86.236640
9.807582
#DATA
4000.000000	55.161886
3999.000000	55.195399
3998.000000	55.227374
3997.000000	55.257654
3996.000000	55.286303
3995.000000	55.313368
3994.000000	55.339558
3993.000000	55.366657
3992.000000	55.396189
3991.000000	55.427578
3990.000000	55.458468
3989.000000	55.487248
3988.000000	55.514854
3987.000000	55.543498
3986.000000	55.573886
3985.000000	55.604363
3984.000000	55.632664
3983.000000	55.657960
3982.000000	55.681059
3981.000000	55.703254
3980.000000	55.725594
3979.000000	55.748834
3978.000000	55.773356
3977.000000	55.799120
3976.000000	55.825779
3975.000000	55.852876
3974.000000	55.879786
3973.000000	55.905678
3972.000000	55.929997
3971.000000	55.953043
3970.000000	55.975951
3969.000000	55.999766
3968.000000	56.024659
3967.000000	56.050226
3966.000000	56.076207
3965.000000	56.102733
3964.000000	56.129856
3963.000000	56.156977
3962.000000	56.182845
3961.000000	56.206409
3960.000000	56.227820
3959.000000	56.248269
3958.000000	56.269178
3957.000000	56.291282
3956.000000	56.314448
3955.000000	56.338450
3954.000000	56.363362
3953.000000	56.389388
3952.000000	56.416290
3951.000000	56.443398
3950.000000	56.470144
3949.000000	56.495703
3948.000000	56.518947
3947.000000	56.539571
3946.000000	56.559352
3945.000000	56.581679
3944.000000	56.608958
3943.000000	56.640539
3942.000000	56.672906
3941.000000	56.702775
3940.000000	56.730244
3939.000000	56.757475
3938.000000	56.785300
3937.000000	56.812212
3936.000000	56.836036
3935.000000	56.856514
3934.000000	56.875632
3933.000000	56.896000
3932.000000	56.918738
3931.000000	56.942960
3930.000000	56.967488
3929.000000	56.991934
3928.000000	57.017081
3927.000000	57.044694
3926.000000	57.075419
3925.000000	57.107150
3924.000000	57.135742
3923.000000	57.158496
3922.000000	57.176965
3921.000000	57.194744
3920.000000	57.214397
3919.000000	57.236755
3918.000000	57.261793
3917.000000	57.289343
3916.000000	57.318550
3915.000000	57.348441
3914.000000	57.378744
3913.000000	57.409017
3912.000000	57.438675
3911.000000	57.466391
3910.000000	57.490954
3909.000000	57.512629
3908.000000	57.532945
3907.000000	57.553988
3906.000000	57.576250
3905.000000	57.597615
3904.000000	57.614429
3903.000000	57.624545
3902.000000	57.631677
3901.000000	57.643618
3900.000000	57.664513
3899.000000	57.692099
3898.000000	57.720752
3897.000000	57.747702
3896.000000	57.775229
3895.000000	57.806334
3894.000000	57.841926
3893.000000	57.880518
3892.000000	57.918531
3891.000000	57.950388
3890.000000	57.971655
3889.000000	57.984823
3888.000000	57.996314
3887.000000	58.011021
3886.000000	58.031345
3885.000000	58.053165
3884.000000	58.069481
3883.000000	58.082130
3882.000000	58.100773
3881.000000	58.131900
3880.000000	58.170047
3879.000000	58.202121
3878.000000	58.223203
3877.000000	58.240641
3876.000000	58.263554
3875.000000	58.294608
3874.000000	58.326770
3873.000000	58.349711
3872.000000	58.361044
3871.000000	58.369258
3870.000000	58.384577
3869.000000	58.405390
3868.000000	58.424366
3867.000000	58.442313
3866.000000	58.464964
3865.000000	58.496696
3864.000000	58.536279
3863.000000	58.574274
3862.000000	58.603407
3861.000000	58.625074
3860.000000	58.646625
3859.000000	58.676054
3858.000000	58.716002
3857.000000	58.760586
3856.000000	58.796353
3855.000000	58.813353
3854.000000	58.819534
3853.000000	58.823782
3852.000000	58.822858
3851.000000	58.824188
3850.000000	58.841670
3849.000000	58.875376
3848.000000	58.918757
3847.000000	58.965249
3846.000000	59.009410
3845.000000	59.048597
3844.000000	59.082536
3843.000000	59.110910
3842.000000	59.134506
3841.000000	59.154228
3840.000000	59.170321
3839.000000	59.184004
3838.000000	59.197791
3837.000000	59.214936
3836.000000	59.236970
3835.000000	59.262914
3834.000000	59.291198
3833.000000	59.321288
3832.000000	59.353798
3831.000000	59.387721
3830.000000	59.420065
3829.000000	59.450737
3828.000000	59.483683
3827.000000	59.520255
3826.000000	59.555910
3825.000000	59.584238
3824.000000	59.602767
3823.000000	59.616037
3822.000000	59.635079
3821.000000	59.664329
3820.000000	59.690763
3819.000000	59.704875
3818.000000	59.713562
3817.000000	59.728474
3816.000000	59.757162
3815.000000	59.795525
3814.000000	59.833858
3813.000000	59.869929
3812.000000	59.906671
3811.000000	59.944367
3810.000000	59.979490
3809.000000	60.008524
3808.000000	60.032010
3807.000000	60.052643
3806.000000	60.070326
3805.000000	60.083659
3804.000000	60.095776
3803.000000	60.111069
3802.000000	60.134595
3801.000000	60.165177
3800.000000	60.192371
3799.000000	60.214747
3798.000000	60.241100
3797.000000	60.276602
3796.000000	60.317907
3795.000000	60.357573
3794.000000	60.391893
3793.000000	60.423612
3792.000000	60.457026
3791.000000	60.493159
3790.000000	60.529008
3789.000000	60.561178
3788.000000	60.589062
3787.000000	60.614828
3786.000000	60.641057
3785.000000	60.667629
3784.000000	60.691897
3783.000000	60.712166
3782.000000	60.731192
3781.000000	60.755154
3780.000000	60.788485
3779.000000	60.827384
3778.000000	60.863141
3777.000000	60.892621
3776.000000	60.920218
3775.000000	60.950117
3774.000000	60.981613
3773.000000	61.011551
3772.000000	61.038059
3771.000000	61.061773
3770.000000	61.084036
3769.000000	61.104256
3768.000000	61.122416
3767.000000	61.143120
3766.000000	61.171249
3765.000000	61.206168
3764.000000	61.242020
3763.000000	61.273586
3762.000000	61.301543
3761.000000	61.329704
3760.000000	61.360961
3759.000000	61.392573
3758.000000	61.418752
3757.000000	61.439427
3756.000000	61.459194
3755.000000	61.480335
3754.000000	61.500591
3753.000000	61.517527
3752.000000	61.533901
3751.000000	61.553478
3750.000000	61.574031
3749.000000	61.593231
3748.000000	61.615137
3747.000000	61.641618
3746.000000	61.667036
3745.000000	61.693620
3744.000000	61.727665
3743.000000	61.761276
3742.000000	61.792902
3741.000000	61.830349
3740.000000	61.873443
3739.000000	61.916820
3738.000000	61.955747
3737.000000	61.991809
3736.000000	62.030537
3735.000000	62.072985
3734.000000	62.112571
3733.000000	62.143880
3732.000000	62.170452
3731.000000	62.198966
3730.000000	62.232409
3729.000000	62.269915
3728.000000	62.310023
3727.000000	62.354077
3726.000000	62.401894
3725.000000	62.448248
3724.000000	62.488729
3723.000000	62.524757
3722.000000	62.560411
3721.000000	62.595481
3720.000000	62.628656
3719.000000	62.661477
3718.000000	62.695284
3717.000000	62.729467
3716.000000	62.761735
3715.000000	62.789760
3714.000000	62.812247
3713.000000	62.831381
3712.000000	62.854132
3711.000000	62.884395
3710.000000	62.919097
3709.000000	62.954703
3708.000000	62.990841
3707.000000	63.029010
3706.000000	63.069708
3705.000000	63.112026
3704.000000	63.155894
3703.000000	63.202802
3702.000000	63.252709
3701.000000	63.299896
3700.000000	63.338169
3699.000000	63.368740
3698.000000	63.397101
3697.000000	63.426184
3696.000000	63.455384
3695.000000	63.482490
3694.000000	63.506653
3693.000000	63.530023
3692.000000	63.556840
3691.000000	63.589755
3690.000000	63.627022
3689.000000	63.663791
3688.000000	63.695362
3687.000000	63.722945
3686.000000	63.752295
3685.000000	63.785540
3684.000000	63.820125
3683.000000	63.853990
3682.000000	63.887652
3681.000000	63.923075
3680.000000	63.959451
3679.000000	63.992130
3678.000000	64.015602
3677.000000	64.031066
3676.000000	64.053670
3675.000000	64.089295
3674.000000	64.120696
3673.000000	64.137925
3672.000000	64.147999
3671.000000	64.166638
3670.000000	64.210675
3669.000000	64.274946
3668.000000	64.338317
3667.000000	64.393439
3666.000000	64.445719
3665.000000	64.498519
3664.000000	64.550679
3663.000000	64.600180
3662.000000	64.646197
3661.000000	64.688170
3660.000000	64.723246
3659.000000	64.749357
3658.000000	64.769191
3657.000000	64.789715
3656.000000	64.814380
3655.000000	64.839130
3654.000000	64.861082
3653.000000	64.880719
3652.000000	64.896383
3651.000000	64.907679
3650.000000	64.919791
3649.000000	64.937215
3648.000000	64.961684
3647.000000	64.994758
3646.000000	65.036214
3645.000000	65.082027
3644.000000	65.129523
3643.000000	65.179044
3642.000000	65.230674
3641.000000	65.281258
3640.000000	65.325790
3639.000000	65.362647
3638.000000	65.392806
3637.000000	65.417078
3636.000000	65.436697
3635.000000	65.455455
3634.000000	65.477376
3633.000000	65.500419
3632.000000	65.517479
3631.000000	65.523999
3630.000000	65.529671
3629.000000	65.552468
3628.000000	65.589636
3627.000000	65.624636
3626.000000	65.655374
3625.000000	65.686281
3624.000000	65.716757
3623.000000	65.745041
3622.000000	65.770236
3621.000000	65.793137
3620.000000	65.817644
3619.000000	65.846389
3618.000000	65.874241
3617.000000	65.895493
3616.000000	65.911238
3615.000000	65.926643
3614.000000	65.945786
3613.000000	65.967112
3612.000000	65.984639
3611.000000	65.995901
3610.000000	66.006813
3609.000000	66.027987
3608.000000	66.065769
3607.000000	66.115788
3606.000000	66.167678
3605.000000	66.213898
3604.000000	66.251983
3603.000000	66.283752
3602.000000	66.311644
3601.000000	66.335918
3600.000000	66.355823
3599.000000	66.371704
3598.000000	66.384733
3597.000000	66.397944
3596.000000	66.416486
3595.000000	66.444847
3594.000000	66.482323
3593.000000	66.521294
3592.000000	66.552932
3591.000000	66.572793
3590.000000	66.582628
3589.000000	66.591617
3588.000000	66.613049
3587.000000	66.651281
3586.000000	66.696796
3585.000000	66.738924
3584.000000	66.775548
3583.000000	66.810362
3582.000000	66.846449
3581.000000	66.883237
3580.000000	66.918258
3579.000000	66.950131
3578.000000	66.978949
3577.000000	67.004794
3576.000000	67.028665
3575.000000	67.052521
3574.000000	67.077946
3573.000000	67.104533
3572.000000	67.130148
3571.000000	67.152533
3570.000000	67.170002
3569.000000	67.184308
3568.000000	67.203135
3567.000000	67.234561
3566.000000	67.276834
3565.000000	67.321864
3564.000000	67.365123
3563.000000	67.407467
3562.000000	67.450839
3561.000000	67.495069
3560.000000	67.538465
3559.000000	67.580005
3558.000000	67.619563
3557.000000	67.656248
3556.000000	67.689077
3555.000000	67.719047
3554.000000	67.749013
3553.000000	67.781114
3552.000000	67.814491
3551.000000	67.846203
3550.000000	67.874437
3549.000000	67.901025
3548.000000	67.931781
3547.000000	67.973098
3546.000000	68.025583
3545.000000	68.081829
3544.000000	68.132797
3543.000000	68.174641
3542.000000	68.208620
3541.000000	68.237367
3540.000000	68.264184
3539.000000	68.293951
3538.000000	68.330836
3537.000000	68.374905
3536.000000	68.421644
3535.000000	68.465898
3534.000000	68.504924
3533.000000	68.538574
3532.000000	68.568247
3531.000000	68.595828
3530.000000	68.622646
3529.000000	68.649232
3528.000000	68.676679
3527.000000	68.707344
3526.000000	68.743432
3525.000000	68.785158
3524.000000	68.830867
3523.000000	68.877632
3522.000000	68.921731
3521.000000	68.960431
3520.000000	68.994216
3519.000000	69.026118
3518.000000	69.058048
3517.000000	69.089439
3516.000000	69.119750
3515.000000	69.150153
3514.000000	69.181316
3513.000000	69.211628
3512.000000	69.239775
3511.000000	69.267634
3510.000000	69.298005
3509.000000	69.330384
3508.000000	69.361061
3507.000000	69.387209
3506.000000	69.409201
3505.000000	69.429819
3504.000000	69.452467
3503.000000	69.478707
3502.000000	69.506709
3501.000000	69.533286
3500.000000	69.558064
3499.000000	69.583605
3498.000000	69.611041
3497.000000	69.637570
3496.000000	69.659384
3495.000000	69.675334
3494.000000	69.686261
3493.000000	69.692742
3492.000000	69.695785
3491.000000	69.698471
3490.000000	69.704578
3489.000000	69.715872
3488.000000	69.731587
3487.000000	69.749085
3486.000000	69.764001
3485.000000	69.771968
3484.000000	69.772373
3483.000000	69.769673
3482.000000	69.768805
3481.000000	69.769915
3480.000000	69.769036
3479.000000	69.763018
3478.000000	69.752263
3477.000000	69.739699
3476.000000	69.728914
3475.000000	69.722226
3474.000000	69.719028
3473.000000	69.716649
3472.000000	69.713299
3471.000000	69.708835
3470.000000	69.702012
3469.000000	69.689015
3468.000000	69.666454
3467.000000	69.634664
3466.000000	69.597016
3465.000000	69.557634
3464.000000	69.520783
3463.000000	69.490159
3462.000000	69.465952
3461.000000	69.443213
3460.000000	69.414964
3459.000000	69.376958
3458.000000	69.329181
3457.000000	69.274413
3456.000000	69.216588
3455.000000	69.159583
3454.000000	69.105666
3453.000000	69.054954
3452.000000	69.006462
3451.000000	68.958874
3450.000000	68.910291
3449.000000	68.858552
3448.000000	68.802563
3447.000000	68.742158
3446.000000	68.676436
3445.000000	68.604109
3444.000000	68.526118
3443.000000	68.446358
3442.000000	68.368964
3441.000000	68.295852
3440.000000	68.227139
3439.000000	68.161932
3438.000000	68.097344
3437.000000	68.028042
3436.000000	67.948388
3435.000000	67.855244
3434.000000	67.748833
3433.000000	67.632474
3432.000000	67.511498
3431.000000	67.390582
3430.000000	67.270804
3429.000000	67.149773
3428.000000	67.025379
3427.000000	66.897819
3426.000000	66.767818
3425.000000	66.634615
3424.000000	66.496635
3423.000000	66.353112
3422.000000	66.203765
3421.000000	66.048242
3420.000000	65.886881
3419.000000	65.721107
3418.000000	65.552566
3417.000000	65.382352
3416.000000	65.211299
3415.000000	65.039308
3414.000000	64.863520
3413.000000	64.678999
3412.000000	64.482152
3411.000000	64.272866
3410.000000	64.052821
3409.000000	63.823019
3408.000000	63.584482
3407.000000	63.339846
3406.000000	63.093035
3405.000000	62.847781
3404.000000	62.606107
3403.000000	62.366828
3402.000000	62.123860
3401.000000	61.867442
3400.000000	61.589379
3399.000000	61.288046
3398.000000	60.969147
3397.000000	60.642020
3396.000000	60.314693
3395.000000	59.990960
3394.000000	59.669866
3393.000000	59.347361
3392.000000	59.018321
3391.000000	58.677601
3390.000000	58.321629
3389.000000	57.950085
3388.000000	57.565992
3387.000000	57.172978
3386.000000	56.772516
3385.000000	56.365117
3384.000000	55.952630
3383.000000	55.538084
3382.000000	55.123227
3381.000000	54.707285
3380.000000	54.288146
3379.000000	53.863339
3378.000000	53.430403
3377.000000	52.987627
3376.000000	52.534582
3375.000000	52.071955
3374.000000	51.601324
3373.000000	51.125588
3372.000000	50.648595
3371.000000	50.172580
3370.000000	49.696674
3369.000000	49.218146
3368.000000	48.734509
3367.000000	48.244249
3366.000000	47.746650
3365.000000	47.242300
3364.000000	46.732762
3363.000000	46.219104
3362.000000	45.701591
3361.000000	45.180955
3360.000000	44.658943
3359.000000	44.137256
3358.000000	43.617132
3357.000000	43.100253
3356.000000	42.588208
3355.000000	42.080669
3354.000000	41.575640
3353.000000	41.071661
3352.000000	40.567994
3351.000000	40.062564
3350.000000	39.552267
3349.000000	39.036468
3348.000000	38.518587
3347.000000	38.003517
3346.000000	37.494866
3345.000000	36.994618
3344.000000	36.503031
3343.000000	36.018061
3342.000000	35.536574
3341.000000	35.056884
3340.000000	34.578776
3339.000000	34.101315
3338.000000	33.622997
3337.000000	33.144238
3336.000000	32.667788
3335.000000	32.196353
3334.000000	31.731556
3333.000000	31.275109
3332.000000	30.828222
3331.000000	30.389762
3330.000000	29.956963
3329.000000	29.528047
3328.000000	29.102743
3327.000000	28.680451
3326.000000	28.260519
3325.000000	27.844059
3324.000000	27.433032
3323.000000	27.028097
3322.000000	26.629171
3321.000000	26.237590
3320.000000	25.855293
3319.000000	25.481924
3318.000000	25.115660
3317.000000	24.755859
3316.000000	24.402771
3315.000000	24.055544
3314.000000	23.712964
3313.000000	23.376006
3312.000000	23.046830
3311.000000	22.726014
3310.000000	22.413735
3309.000000	22.112139
3308.000000	21.824301
3307.000000	21.551121
3306.000000	21.291637
3305.000000	21.045651
3304.000000	20.812318
3303.000000	20.588440
3302.000000	20.371035
3301.000000	20.160930
3300.000000	19.961448
3299.000000	19.774020
3298.000000	19.598395
3297.000000	19.435496
3296.000000	19.286277
3295.000000	19.149468
3294.000000	19.023072
3293.000000	18.907552
3292.000000	18.804316
3291.000000	18.711507
3290.000000	18.625709
3289.000000	18.546059
3288.000000	18.474140
3287.000000	18.410653
3286.000000	18.354865
3285.000000	18.307082
3284.000000	18.267748
3283.000000	18.235264
3282.000000	18.207435
3281.000000	18.183941
3280.000000	18.165078
3279.000000	18.149050
3278.000000	18.133762
3277.000000	18.120112
3276.000000	18.110216
3275.000000	18.103727
3274.000000	18.099008
3273.000000	18.096997
3272.000000	18.100566
3271.000000	18.110355
3270.000000	18.124192
3269.000000	18.139813
3268.000000	18.155558
3267.000000	18.169489
3266.000000	18.180673
3265.000000	18.190890
3264.000000	18.202729
3263.000000	18.216646
3262.000000	18.232074
3261.000000	18.249737
3260.000000	18.270388
3259.000000	18.292608
3258.000000	18.314567
3257.000000	18.336875
3256.000000	18.360954
3255.000000	18.385968
3254.000000	18.409967
3253.000000	18.432903
3252.000000	18.455887
3251.000000	18.478784
3250.000000	18.501348
3249.000000	18.525482
3248.000000	18.553446
3247.000000	18.584617
3246.000000	18.616413
3245.000000	18.647385
3244.000000	18.677209
3243.000000	18.704911
3242.000000	18.729855
3241.000000	18.753433
3240.000000	18.777415
3239.000000	18.801603
3238.000000	18.825263
3237.000000	18.849495
3236.000000	18.875899
3235.000000	18.904151
3234.000000	18.933010
3233.000000	18.962279
3232.000000	18.991477
3231.000000	19.018219
3230.000000	19.040508
3229.000000	19.059355
3228.000000	19.077025
3227.000000	19.094191
3226.000000	19.110956
3225.000000	19.128835
3224.000000	19.148922
3223.000000	19.169543
3222.000000	19.188151
3221.000000	19.204262
3220.000000	19.218303
3219.000000	19.229250
3218.000000	19.236098
3217.000000	19.240175
3216.000000	19.243502
3215.000000	19.246229
3214.000000	19.247884
3213.000000	19.249626
3212.000000	19.252582
3211.000000	19.255388
3210.000000	19.255933
3209.000000	19.254037
3208.000000	19.250172
3207.000000	19.243099
3206.000000	19.231395
3205.000000	19.216128
3204.000000	19.199441
3203.000000	19.181832
3202.000000	19.163023
3201.000000	19.143980
3200.000000	19.125693
3199.000000	19.107117
3198.000000	19.086645
3197.000000	19.064229
3196.000000	19.039975
3195.000000	19.012436
3194.000000	18.980526
3193.000000	18.945686
3192.000000	18.909963
3191.000000	18.873489
3190.000000	18.836152
3189.000000	18.799777
3188.000000	18.766109
3187.000000	18.734123
3186.000000	18.701637
3185.000000	18.668111
3184.000000	18.633619
3183.000000	18.596898
3182.000000	18.557074
3181.000000	18.515827
3180.000000	18.475484
3179.000000	18.436301
3178.000000	18.397739
3177.000000	18.360773
3176.000000	18.326613
3175.000000	18.294630
3174.000000	18.263734
3173.000000	18.234194
3172.000000	18.206040
3171.000000	18.177579
3170.000000	18.147624
3169.000000	18.117584
3168.000000	18.089301
3167.000000	18.062619
3166.000000	18.037262
3165.000000	18.014939
3164.000000	17.997195
3163.000000	17.983007
3162.000000	17.970645
3161.000000	17.960165
3160.000000	17.951831
3159.000000	17.944116
3158.000000	17.935714
3157.000000	17.927636
3156.000000	17.921388
3155.000000	17.917025
3154.000000	17.915116
3153.000000	17.918322
3152.000000	17.928234
3151.000000	17.942587
3150.000000	17.957880
3149.000000	17.972992
3148.000000	17.988304
3147.000000	18.003429
3146.000000	18.018401
3145.000000	18.035059
3144.000000	18.054733
3143.000000	18.076476
3142.000000	18.099624
3141.000000	18.126173
3140.000000	18.158202
3139.000000	18.194690
3138.000000	18.233306
3137.000000	18.273311
3136.000000	18.314604
3135.000000	18.355933
3134.000000	18.396413
3133.000000	18.437412
3132.000000	18.480654
3131.000000	18.526201
3130.000000	18.574130
3129.000000	18.626001
3128.000000	18.682573
3127.000000	18.741814
3126.000000	18.801259
3125.000000	18.860574
3124.000000	18.919983
3123.000000	18.978600
3122.000000	19.036398
3121.000000	19.095723
3120.000000	19.158685
3119.000000	19.224835
3118.000000	19.293456
3117.000000	19.365811
3116.000000	19.442876
3115.000000	19.522893
3114.000000	19.603281
3113.000000	19.683312
3112.000000	19.763058
3111.000000	19.841864
3110.000000	19.919955
3109.000000	19.999426
3108.000000	20.081655
3107.000000	20.165597
3106.000000	20.250391
3105.000000	20.337432
3104.000000	20.427851
3103.000000	20.520244
3102.000000	20.612951
3101.000000	20.706331
3100.000000	20.800770
3099.000000	20.894600
3098.000000	20.986384
3097.000000	21.077346
3096.000000	21.169416
3095.000000	21.262855
3094.000000	21.357717
3093.000000	21.455607
3092.000000	21.557705
3091.000000	21.662596
3090.000000	21.767980
3089.000000	21.872893
3088.000000	21.976754
3087.000000	22.078330
3086.000000	22.177505
3085.000000	22.276256
3084.000000	22.376101
3083.000000	22.476490
3082.000000	22.577299
3081.000000	22.680641
3080.000000	22.788246
3079.000000	22.898882
3078.000000	23.010129
3077.000000	23.120792
3076.000000	23.229906
3075.000000	23.335713
3074.000000	23.437741
3073.000000	23.538105
3072.000000	23.638926
3071.000000	23.740274
3070.000000	23.842326
3069.000000	23.947270
3068.000000	24.056752
3067.000000	24.169123
3066.000000	24.281209
3065.000000	24.391346
3064.000000	24.498993
3063.000000	24.603322
3062.000000	24.704350
3061.000000	24.804113
3060.000000	24.904848
3059.000000	25.007083
3058.000000	25.110706
3057.000000	25.216242
3056.000000	25.323614
3055.000000	25.431227
3054.000000	25.537834
3053.000000	25.643841
3052.000000	25.749472
3051.000000	25.853225
3050.000000	25.953564
3049.000000	26.050749
3048.000000	26.146021
3047.000000	26.240676
3046.000000	26.336933
3045.000000	26.437650
3044.000000	26.543579
3043.000000	26.652313
3042.000000	26.760868
3041.000000	26.867583
3040.000000	26.970808
3039.000000	27.068355
3038.000000	27.160138
3037.000000	27.249509
3036.000000	27.340344
3035.000000	27.434133
3034.000000	27.530867
3033.000000	27.630788
3032.000000	27.733552
3031.000000	27.837312
3030.000000	27.940113
3029.000000	28.041023
3028.000000	28.139132
3027.000000	28.233236
3026.000000	28.323606
3025.000000	28.412358
3024.000000	28.501128
3023.000000	28.590202
3022.000000	28.680622
3021.000000	28.774693
3020.000000	28.873021
3019.000000	28.973049
3018.000000	29.071895
3017.000000	29.168724
3016.000000	29.263313
3015.000000	29.354602
3014.000000	29.442311
3013.000000	29.528160
3012.000000	29.614060
3011.000000	29.700772
3010.000000	29.789314
3009.000000	29.881536
3008.000000	29.977875
3007.000000	30.076311
3006.000000	30.174570
3005.000000	30.271527
3004.000000	30.365623
3003.000000	30.454467
3002.000000	30.537500
3001.000000	30.617102
3000.000000	30.696025
2999.000000	30.775868
2998.000000	30.858849
2997.000000	30.947687
2996.000000	31.041603
2995.000000	31.135302
2994.000000	31.224655
2993.000000	31.311375
2992.000000	31.399442
2991.000000	31.488773
2990.000000	31.575410
2989.000000	31.656870
2988.000000	31.734567
2987.000000	31.811654
2986.000000	31.890848
2985.000000	31.974005
2984.000000	32.061659
2983.000000	32.152586
2982.000000	32.244763
2981.000000	32.336421
2980.000000	32.425584
2979.000000	32.509833
2978.000000	32.587939
2977.000000	32.661311
2976.000000	32.733055
2975.000000	32.806318
2974.000000	32.883717
2973.000000	32.966655
2972.000000	33.054057
2971.000000	33.142882
2970.000000	33.230824
2969.000000	33.317446
2968.000000	33.402156
2967.000000	33.482951
2966.000000	33.558408
2965.000000	33.629583
2964.000000	33.698917
2963.000000	33.768619
2962.000000	33.841025
2961.000000	33.918562
2960.000000	34.001746
2959.000000	34.088302
2958.000000	34.175234
2957.000000	34.260512
2956.000000	34.342244
2955.000000	34.418442
2954.000000	34.489068
2953.000000	34.556595
2952.000000	34.623253
2951.000000	34.689335
2950.000000	34.755435
2949.000000	34.824343
2948.000000	34.898896
2947.000000	34.979205
2946.000000	35.063298
2945.000000	35.149054
2944.000000	35.233975
2943.000000	35.314693
2942.000000	35.388757
2941.000000	35.456601
2940.000000	35.520684
2939.000000	35.583655
2938.000000	35.648103
2937.000000	35.716512
2936.000000	35.789674
2935.000000	35.865736
2934.000000	35.941956
2933.000000	36.016609
2932.000000	36.088614
2931.000000	36.156742
2930.000000	36.220479
2929.000000	36.280664
2928.000000	36.338253
2927.000000	36.393613
2926.000000	36.447931
2925.000000	36.503912
2924.000000	36.563851
2923.000000	36.627978
2922.000000	36.695474
2921.000000	36.765600
2920.000000	36.836892
2919.000000	36.906746
2918.000000	36.973163
2917.000000	37.036145
2916.000000	37.096843
2915.000000	37.156583
2914.000000	37.217176
2913.000000	37.280579
2912.000000	37.347175
2911.000000	37.415513
2910.000000	37.484281
2909.000000	37.553230
2908.000000	37.621581
2907.000000	37.687161
2906.000000	37.748239
2905.000000	37.805122
2904.000000	37.859206
2903.000000	37.911812
2902.000000	37.964617
2901.000000	38.019979
2900.000000	38.079447
2899.000000	38.142615
2898.000000	38.208321
2897.000000	38.275262
2896.000000	38.341265
2895.000000	38.403463
2894.000000	38.460542
2893.000000	38.513880
2892.000000	38.565728
2891.000000	38.617392
2890.000000	38.669795
2889.000000	38.724304
2888.000000	38.781708
2887.000000	38.841268
2886.000000	38.901634
2885.000000	38.961852
2884.000000	39.020889
2883.000000	39.077402
2882.000000	39.130915
2881.000000	39.182273
2880.000000	39.232329
2879.000000	39.281458
2878.000000	39.331205
2877.000000	39.384859
2876.000000	39.444694
2875.000000	39.509028
2874.000000	39.573073
2873.000000	39.632377
2872.000000	39.685194
2871.000000	39.732695
2870.000000	39.777904
2869.000000	39.823806
2868.000000	39.871463
2867.000000	39.920076
2866.000000	39.969036
2865.000000	40.019082
2864.000000	40.071218
2863.000000	40.125413
2862.000000	40.180706
2861.000000	40.235505
2860.000000	40.287467
2859.000000	40.334458
2858.000000	40.376538
2857.000000	40.416248
2856.000000	40.456512
2855.000000	40.499054
2854.000000	40.544956
2853.000000	40.595187
2852.000000	40.649790
2851.000000	40.707506
2850.000000	40.766674
2849.000000	40.825575
2848.000000	40.881912
2847.000000	40.933586
2846.000000	40.980737
2845.000000	41.026038
2844.000000	41.072710
2843.000000	41.123170
2842.000000	41.179233
2841.000000	41.241337
2840.000000	41.306673
2839.000000	41.369857
2838.000000	41.426901
2837.000000	41.477734
2836.000000	41.524364
2835.000000	41.568122
2834.000000	41.609647
2833.000000	41.650185
2832.000000	41.691494
2831.000000	41.735096
2830.000000	41.782420
2829.000000	41.834758
2828.000000	41.892141
2827.000000	41.952839
2826.000000	42.014570
2825.000000	42.075451
2824.000000	42.133492
2823.000000	42.186578
2822.000000	42.234098
2821.000000	42.277845
2820.000000	42.320569
2819.000000	42.364359
2818.000000	42.410789
2817.000000	42.461329
2816.000000	42.516382
2815.000000	42.574585
2814.000000	42.633813
2813.000000	42.692156
2812.000000	42.747445
2811.000000	42.797018
2810.000000	42.839275
2809.000000	42.875136
2808.000000	42.907381
2807.000000	42.939138
2806.000000	42.973355
2805.000000	43.012469
2804.000000	43.057336
2803.000000	43.106806
2802.000000	43.158811
2801.000000	43.211218
2800.000000	43.261329
2799.000000	43.305916
2798.000000	43.343042
2797.000000	43.373582
2796.000000	43.400430
2795.000000	43.426869
2794.000000	43.456064
2793.000000	43.490835
2792.000000	43.532409
2791.000000	43.579513
2790.000000	43.629383
2789.000000	43.679312
2788.000000	43.727106
2787.000000	43.771138
2786.000000	43.810918
2785.000000	43.847136
2784.000000	43.880644
2783.000000	43.912048
2782.000000	43.942744
2781.000000	43.975309
2780.000000	44.011820
2779.000000	44.052269
2778.000000	44.095174
2777.000000	44.138831
2776.000000	44.181198
2775.000000	44.219410
2774.000000	44.250796
2773.000000	44.274419
2772.000000	44.291029
2771.000000	44.302101
2770.000000	44.309438
2769.000000	44.314996
2768.000000	44.320159
2767.000000	44.325204
2766.000000	44.329922
2765.000000	44.334140
2764.000000	44.337034
2763.000000	44.336873
2762.000000	44.332330
2761.000000	44.323766
2760.000000	44.312628
2759.000000	44.300126
2758.000000	44.287233
2757.000000	44.275201
2756.000000	44.265036
2755.000000	44.256732
2754.000000	44.249619
2753.000000	44.243055
2752.000000	44.236089
2751.000000	44.226989
2750.000000	44.213910
2749.000000	44.195697
2748.000000	44.171660
2747.000000	44.141058
2746.000000	44.103638
2745.000000	44.060251
2744.000000	44.012117
2743.000000	43.960112
2742.000000	43.905351
2741.000000	43.849820
2740.000000	43.795773
2739.000000	43.744931
2738.000000	43.698983
2737.000000	43.660512
2736.000000	43.632487
2735.000000	43.617157
2734.000000	43.616284
2733.000000	43.631265
2732.000000	43.662333
2731.000000	43.707994
2730.000000	43.765715
2729.000000	43.833498
2728.000000	43.909792
2727.000000	43.992498
2726.000000	44.079180
2725.000000	44.167934
2724.000000	44.258036
2723.000000	44.349618
2722.000000	44.442677
2721.000000	44.536223
2720.000000	44.628044
2719.000000	44.715628
2718.000000	44.797480
2717.000000	44.873145
2716.000000	44.942061
2715.000000	45.003400
2714.000000	45.057092
2713.000000	45.104310
2712.000000	45.146540
2711.000000	45.184442
2710.000000	45.218268
2709.000000	45.248455
2708.000000	45.275248
2707.000000	45.298405
2706.000000	45.317511
2705.000000	45.332483
2704.000000	45.343247
2703.000000	45.349522
2702.000000	45.351671
2701.000000	45.351115
2700.000000	45.349523
2699.000000	45.347846
2698.000000	45.346463
2697.000000	45.345763
2696.000000	45.345830
2695.000000	45.345991
2694.000000	45.345254
2693.000000	45.342948
2692.000000	45.338682
2691.000000	45.332159
2690.000000	45.323650
2689.000000	45.314264
2688.000000	45.305169
2687.000000	45.296781
2686.000000	45.289037
2685.000000	45.282076
2684.000000	45.276147
2683.000000	45.271112
2682.000000	45.266448
2681.000000	45.261556
2680.000000	45.255885
2679.000000	45.249233
2678.000000	45.242314
2677.000000	45.236619
2676.000000	45.233421
2675.000000	45.233151
2674.000000	45.235867
2673.000000	45.241839
2672.000000	45.251260
2671.000000	45.263855
2670.000000	45.279068
2669.000000	45.296194
2668.000000	45.314349
2667.000000	45.332694
2666.000000	45.350935
2665.000000	45.369174
2664.000000	45.387123
2663.000000	45.404097
2662.000000	45.419826
2661.000000	45.434539
2660.000000	45.448052
2659.000000	45.459494
2658.000000	45.468130
2657.000000	45.473975
2656.000000	45.477392
2655.000000	45.478831
2654.000000	45.479329
2653.000000	45.480570
2652.000000	45.484121
2651.000000	45.491205
2650.000000	45.503342
2649.000000	45.522225
2648.000000	45.548642
2647.000000	45.581935
2646.000000	45.620835
2645.000000	45.664410
2644.000000	45.711751
2643.000000	45.761973
2642.000000	45.814849
2641.000000	45.870766
2640.000000	45.929883
2639.000000	45.991603
2638.000000	46.055288
2637.000000	46.120673
2636.000000	46.187041
2635.000000	46.252574
2634.000000	46.314891
2633.000000	46.371878
2632.000000	46.421937
2631.000000	46.464220
2630.000000	46.498873
2629.000000	46.526982
2628.000000	46.549860
2627.000000	46.568699
2626.000000	46.585083
2625.000000	46.600765
2624.000000	46.616888
2623.000000	46.633684
2622.000000	46.650928
2621.000000	46.668116
2620.000000	46.683739
2619.000000	46.695373
2618.000000	46.700918
2617.000000	46.699455
2616.000000	46.691099
2615.000000	46.676518
2614.000000	46.657018
2613.000000	46.634265
2612.000000	46.609299
2611.000000	46.582535
2610.000000	46.554739
2609.000000	46.527418
2608.000000	46.501994
2607.000000	46.479215
2606.000000	46.459694
2605.000000	46.444373
2604.000000	46.434090
2603.000000	46.429367
2602.000000	46.431226
2601.000000	46.441057
2600.000000	46.459676
2599.000000	46.487011
2598.000000	46.522669
2597.000000	46.566385
2596.000000	46.617038
2595.000000	46.672510
2594.000000	46.730954
2593.000000	46.791206
2592.000000	46.852073
2591.000000	46.911836
2590.000000	46.969166
2589.000000	47.023913
2588.000000	47.076500
2587.000000	47.127432
2586.000000	47.177739
2585.000000	47.229158
2584.000000	47.283204
2583.000000	47.340496
2582.000000	47.401305
2581.000000	47.465895
2580.000000	47.533835
2579.000000	47.603650
2578.000000	47.673655
2577.000000	47.742769
2576.000000	47.810172
2575.000000	47.874916
2574.000000	47.936434
2573.000000	47.995025
2572.000000	48.051346
2571.000000	48.105941
2570.000000	48.159588
2569.000000	48.213298
2568.000000	48.267446
2567.000000	48.321007
2566.000000	48.372051
2565.000000	48.418644
2564.000000	48.458748
2563.000000	48.490336
2562.000000	48.511905
2561.000000	48.522759
2560.000000	48.522623
2559.000000	48.511030
2558.000000	48.488268
2557.000000	48.455984
2556.000000	48.416621
2555.000000	48.373156
2554.000000	48.329589
2553.000000	48.291301
2552.000000	48.263846
2551.000000	48.251427
2550.000000	48.256493
2549.000000	48.280204
2548.000000	48.321654
2547.000000	48.377489
2546.000000	48.443473
2545.000000	48.515852
2544.000000	48.591891
2543.000000	48.669228
2542.000000	48.745817
2541.000000	48.820488
2540.000000	48.892378
2539.000000	48.960300
2538.000000	49.023189
2537.000000	49.081093
2536.000000	49.135070
2535.000000	49.186296
2534.000000	49.235571
2533.000000	49.283511
2532.000000	49.330452
2531.000000	49.375932
2530.000000	49.419155
2529.000000	49.459831
2528.000000	49.498259
2527.000000	49.534662
2526.000000	49.568902
2525.000000	49.601153
2524.000000	49.632244
2523.000000	49.663213
2522.000000	49.694844
2521.000000	49.727511
2520.000000	49.761090
2519.000000	49.794765
2518.000000	49.827258
2517.000000	49.857476
2516.000000	49.884814
2515.000000	49.909152
2514.000000	49.930958
2513.000000	49.951413
2512.000000	49.972097
2511.000000	49.994284
2510.000000	50.018681
2509.000000	50.045572
2508.000000	50.074701
2507.000000	50.104917
2506.000000	50.134263
2505.000000	50.160709
2504.000000	50.182914
2503.000000	50.200637
2502.000000	50.214850
2501.000000	50.227362
2500.000000	50.240047
2499.000000	50.254289
2498.000000	50.271032
2497.000000	50.290933
2496.000000	50.313912
2495.000000	50.338702
2494.000000	50.363339
2493.000000	50.386044
2492.000000	50.405496
2491.000000	50.420709
2490.000000	50.431470
2489.000000	50.439033
2488.000000	50.445822
2487.000000	50.454267
2486.000000	50.466018
2485.000000	50.481893
2484.000000	50.501781
2483.000000	50.524298
2482.000000	50.547011
2481.000000	50.567343
2480.000000	50.583384
2479.000000	50.594243
2478.000000	50.600251
2477.000000	50.603099
2476.000000	50.605335
2475.000000	50.609394
2474.000000	50.616983
2473.000000	50.628917
2472.000000	50.644892
2471.000000	50.663396
2470.000000	50.682270
2469.000000	50.699596
2468.000000	50.713976
2467.000000	50.724394
2466.000000	50.730485
2465.000000	50.733138
2464.000000	50.734490
2463.000000	50.737145
2462.000000	50.743404
2461.000000	50.754695
2460.000000	50.770940
2459.000000	50.790308
2458.000000	50.810078
2457.000000	50.827940
2456.000000	50.842443
2455.000000	50.852706
2454.000000	50.858538
2453.000000	50.860987
2452.000000	50.862203
2451.000000	50.864526
2450.000000	50.869906
2449.000000	50.879840
2448.000000	50.894925
2447.000000	50.914100
2446.000000	50.934805
2445.000000	50.954195
2444.000000	50.970073
2443.000000	50.981080
2442.000000	50.986975
2441.000000	50.989115
2440.000000	50.990145
2439.000000	50.992732
2438.000000	50.998716
2437.000000	51.009225
2436.000000	51.024694
2435.000000	51.044307
2434.000000	51.065789
2433.000000	51.086230
2432.000000	51.103145
2431.000000	51.115002
2430.000000	51.121552
2429.000000	51.124168
2428.000000	51.125536
2427.000000	51.128548
2426.000000	51.135394
2425.000000	51.147286
2424.000000	51.164247
2423.000000	51.184812
2422.000000	51.206397
2421.000000	51.226371
2420.000000	51.242815
2419.000000	51.254589
2418.000000	51.261546
2417.000000	51.265075
2416.000000	51.267943
2415.000000	51.273076
2414.000000	51.282434
2413.000000	51.296798
2412.000000	51.315866
2411.000000	51.338108
2410.000000	51.360997
2409.000000	51.381898
2408.000000	51.398841
2407.000000	51.410730
2406.000000	51.417632
2405.000000	51.421307
2404.000000	51.424940
2403.000000	51.431745
2402.000000	51.443720
2401.000000	51.461452
2400.000000	51.484301
2399.000000	51.510366
2398.000000	51.536736
2397.000000	51.560397
2396.000000	51.579123
2395.000000	51.591894
2394.000000	51.599198
2393.000000	51.603334
2392.000000	51.607878
2391.000000	51.616361
2390.000000	51.631312
2389.000000	51.653898
2388.000000	51.683807
2387.000000	51.718677
2386.000000	51.754531
2385.000000	51.787458
2384.000000	51.814577
2383.000000	51.834844
2382.000000	51.849044
2381.000000	51.860151
2380.000000	51.872807
2379.000000	51.891070
2378.000000	51.917628
2377.000000	51.953786
2376.000000	51.999293
2375.000000	52.051193
2374.000000	52.104533
2373.000000	52.154707
2372.000000	52.198548
2371.000000	52.233808
2370.000000	52.258921
2369.000000	52.275517
2368.000000	52.288437
2367.000000	52.303081
2366.000000	52.323634
2365.000000	52.352761
2364.000000	52.392945
2363.000000	52.442393
2362.000000	52.494359
2361.000000	52.544981
2360.000000	52.590832
2359.000000	52.628422
2358.000000	52.656366
2357.000000	52.675584
2356.000000	52.692948
2355.000000	52.713594
2354.000000	52.743083
2353.000000	52.785930
2352.000000	52.838510
2351.000000	52.892341
2350.000000	52.934715
2349.000000	52.961742
2348.000000	52.981282
2347.000000	53.008787
2346.000000	53.055964
2345.000000	53.111290
2344.000000	53.156249
2343.000000	53.182891
2342.000000	53.201587
2341.000000	53.227339
2340.000000	53.263251
2339.000000	53.308331
2338.000000	53.358613
2337.000000	53.410586
2336.000000	53.458363
2335.000000	53.497392
2334.000000	53.527332
2333.000000	53.553213
2332.000000	53.578869
2331.000000	53.608775
2330.000000	53.642569
2329.000000	53.680789
2328.000000	53.723423
2327.000000	53.768159
2326.000000	53.816674
2325.000000	53.865808
2324.000000	53.915703
2323.000000	53.961909
2322.000000	54.001564
2321.000000	54.033417
2320.000000	54.058179
2319.000000	54.080732
2318.000000	54.104591
2317.000000	54.134616
2316.000000	54.172932
2315.000000	54.221103
2314.000000	54.276459
2313.000000	54.333409
2312.000000	54.385434
2311.000000	54.427877
2310.000000	54.460173
2309.000000	54.483736
2308.000000	54.503004
2307.000000	54.522160
2306.000000	54.545869
2305.000000	54.576266
2304.000000	54.614721
2303.000000	54.660213
2302.000000	54.709698
2301.000000	54.758145
2300.000000	54.801035
2299.000000	54.835922
2298.000000	54.862628
2297.000000	54.882277
2296.000000	54.897931
2295.000000	54.913349
2294.000000	54.932927
2293.000000	54.959192
2292.000000	54.993711
2291.000000	55.035423
2290.000000	55.081413
2289.000000	55.126733
2288.000000	55.167124
2287.000000	55.199849
2286.000000	55.224215
2285.000000	55.241104
2284.000000	55.253430
2283.000000	55.265678
2282.000000	55.282545
2281.000000	55.307622
2280.000000	55.342285
2279.000000	55.385275
2278.000000	55.432509
2277.000000	55.478909
2276.000000	55.520175
2275.000000	55.553890
2274.000000	55.579172
2273.000000	55.597000
2272.000000	55.610612
2271.000000	55.624463
2270.000000	55.642523
2269.000000	55.667361
2268.000000	55.700275
2267.000000	55.740615
2266.000000	55.784948
2265.000000	55.828112
2264.000000	55.865686
2263.000000	55.895243
2262.000000	55.916134
2261.000000	55.929137
2260.000000	55.937039
2259.000000	55.943924
2258.000000	55.953577
2257.000000	55.968555
2256.000000	55.989949
2255.000000	56.016880
2254.000000	56.045642
2253.000000	56.070993
2252.000000	56.088395
2251.000000	56.095436
2250.000000	56.091384
2249.000000	56.077212
2248.000000	56.055798
2247.000000	56.030881
2246.000000	56.005476
2245.000000	55.980933
2244.000000	55.957606
2243.000000	55.934636
2242.000000	55.909402
2241.000000	55.878313
2240.000000	55.838628
2239.000000	55.789418
2238.000000	55.731521
2237.000000	55.667952
2236.000000	55.604251
2235.000000	55.546987
2234.000000	55.501350
2233.000000	55.470045
2232.000000	55.453651
2231.000000	55.450529
2230.000000	55.456442
2229.000000	55.465641
2228.000000	55.473148
2227.000000	55.476134
2226.000000	55.473631
2225.000000	55.466419
2224.000000	55.457260
2223.000000	55.450084
2222.000000	55.448145
2221.000000	55.452845
2220.000000	55.463806
2219.000000	55.478989
2218.000000	55.494805
2217.000000	55.507179
2216.000000	55.513235
2215.000000	55.512017
2214.000000	55.504272
2213.000000	55.492495
2212.000000	55.480875
2211.000000	55.473866
2210.000000	55.474258
2209.000000	55.482729
2208.000000	55.498461
2207.000000	55.519066
2206.000000	55.540216
2205.000000	55.556853
2204.000000	55.565492
2203.000000	55.565210
2202.000000	55.557057
2201.000000	55.543777
2200.000000	55.529898
2199.000000	55.520568
2198.000000	55.519437
2197.000000	55.527640
2196.000000	55.544068
2195.000000	55.565462
2194.000000	55.586386
2193.000000	55.600636
2192.000000	55.603622
2191.000000	55.593559
2190.000000	55.571338
2189.000000	55.540574
2188.000000	55.507477
2187.000000	55.478973
2186.000000	55.460120
2185.000000	55.453168
2184.000000	55.458044
2183.000000	55.472296
2182.000000	55.490792
2181.000000	55.507251
2180.000000	55.516994
2179.000000	55.518245
2178.000000	55.511600
2177.000000	55.499805
2176.000000	55.488047
2175.000000	55.482729
2174.000000	55.489006
2173.000000	55.509380
2172.000000	55.543791
2171.000000	55.589480
2170.000000	55.640667
2169.000000	55.690028
2168.000000	55.731598
2167.000000	55.762376
2166.000000	55.781957
2165.000000	55.792424
2164.000000	55.798787
2163.000000	55.807797
2162.000000	55.825188
2161.000000	55.854011
2160.000000	55.894764
2159.000000	55.945400
2158.000000	56.000903
2157.000000	56.054503
2156.000000	56.100481
2155.000000	56.135827
2154.000000	56.159895
2153.000000	56.174188
2152.000000	56.182847
2151.000000	56.191773
2150.000000	56.206213
2149.000000	56.229267
2148.000000	56.261999
2147.000000	56.303281
2146.000000	56.349261
2145.000000	56.394432
2144.000000	56.434172
2143.000000	56.466009
2142.000000	56.489180
2141.000000	56.504850
2140.000000	56.517036
2139.000000	56.531598
2138.000000	56.553363
2137.000000	56.584651
2136.000000	56.625898
2135.000000	56.675736
2134.000000	56.730027
2133.000000	56.782535
2132.000000	56.827818
2131.000000	56.863167
2130.000000	56.888177
2129.000000	56.904366
2128.000000	56.915683
2127.000000	56.927703
2126.000000	56.945197
2125.000000	56.970667
2124.000000	57.004700
2123.000000	57.045989
2122.000000	57.090669
2121.000000	57.133240
2120.000000	57.169207
2119.000000	57.196511
2118.000000	57.214965
2117.000000	57.226154
2116.000000	57.234225
2115.000000	57.245046
2114.000000	57.263614
2113.000000	57.292533
2112.000000	57.332246
2111.000000	57.380735
2110.000000	57.432695
2109.000000	57.480926
2108.000000	57.519814
2107.000000	57.547137
2106.000000	57.563107
2105.000000	57.569635
2104.000000	57.570792
2103.000000	57.572040
2102.000000	57.577829
2101.000000	57.590285
2100.000000	57.609583
2099.000000	57.633646
2098.000000	57.657368
2097.000000	57.673998
2096.000000	57.678328
2095.000000	57.668417
2094.000000	57.645100
2093.000000	57.611760
2092.000000	57.574444
2091.000000	57.540200
2090.000000	57.514474
2089.000000	57.500395
2088.000000	57.499580
2087.000000	57.511691
2086.000000	57.532954
2085.000000	57.556987
2084.000000	57.578100
2083.000000	57.593319
2082.000000	57.602025
2081.000000	57.605797
2080.000000	57.608971
2079.000000	57.617603
2078.000000	57.636721
2077.000000	57.668870
2076.000000	57.714375
2075.000000	57.771188
2074.000000	57.834343
2073.000000	57.897234
2072.000000	57.954412
2071.000000	58.002657
2070.000000	58.040552
2069.000000	58.069537
2068.000000	58.095252
2067.000000	58.125413
2066.000000	58.165549
2065.000000	58.217803
2064.000000	58.282863
2063.000000	58.359971
2062.000000	58.444655
2061.000000	58.529278
2060.000000	58.607134
2059.000000	58.674927
2058.000000	58.731756
2057.000000	58.778487
2056.000000	58.818901
2055.000000	58.859141
2054.000000	58.904443
2053.000000	58.957422
2052.000000	59.019233
2051.000000	59.089530
2050.000000	59.164703
2049.000000	59.238645
2048.000000	59.306169
2047.000000	59.364372
2046.000000	59.411572
2045.000000	59.447999
2044.000000	59.477754
2043.000000	59.507457
2042.000000	59.542510
2041.000000	59.586170
2040.000000	59.641042
2039.000000	59.708086
2038.000000	59.783813
2037.000000	59.861246
2036.000000	59.934592
2035.000000	60.001325
2034.000000	60.060504
2033.000000	60.112369
2032.000000	60.159984
2031.000000	60.208466
2030.000000	60.261471
2029.000000	60.320362
2028.000000	60.386199
2027.000000	60.459593
2026.000000	60.538151
2025.000000	60.616671
2024.000000	60.690707
2023.000000	60.757915
2022.000000	60.816915
2021.000000	60.868038
2020.000000	60.915137
2019.000000	60.963488
2018.000000	61.015571
2017.000000	61.071499
2016.000000	61.132874
2015.000000	61.202004
2014.000000	61.277378
2013.000000	61.353808
2012.000000	61.426942
2011.000000	61.495203
2010.000000	61.558306
2009.000000	61.617358
2008.000000	61.676205
2007.000000	61.739601
2006.000000	61.809651
2005.000000	61.885917
2004.000000	61.968202
2003.000000	62.055912
2002.000000	62.145811
2001.000000	62.233112
2000.000000	62.314475
1999.000000	62.388161
1998.000000	62.452700
1997.000000	62.509577
1996.000000	62.565738
1995.000000	62.628460
1994.000000	62.698427
1993.000000	62.771664
1992.000000	62.847544
1991.000000	62.929638
1990.000000	63.016678
1989.000000	63.100035
1988.000000	63.173071
1987.000000	63.236016
1986.000000	63.290913
1985.000000	63.338719
1984.000000	63.383222
1983.000000	63.431290
1982.000000	63.486887
1981.000000	63.548878
1980.000000	63.615686
1979.000000	63.687042
1978.000000	63.759170
1977.000000	63.824354
1976.000000	63.878020
1975.000000	63.921951
1974.000000	63.959335
1973.000000	63.991905
1972.000000	64.023502
1971.000000	64.060646
1970.000000	64.106894
1969.000000	64.160797
1968.000000	64.219765
1967.000000	64.281708
1966.000000	64.343100
1965.000000	64.399123
1964.000000	64.447304
1963.000000	64.488466
1962.000000	64.523070
1961.000000	64.551312
1960.000000	64.578018
1959.000000	64.611391
1958.000000	64.655195
1957.000000	64.706992
1956.000000	64.764032
1955.000000	64.825039
1954.000000	64.885508
1953.000000	64.938222
1952.000000	64.980054
1951.000000	65.013246
1950.000000	65.040611
1949.000000	65.064287
1948.000000	65.088404
1947.000000	65.116971
1946.000000	65.149171
1945.000000	65.182493
1944.000000	65.219563
1943.000000	65.264744
1942.000000	65.316497
1941.000000	65.368774
1940.000000	65.415697
1939.000000	65.453401
1938.000000	65.479968
1937.000000	65.496696
1936.000000	65.511199
1935.000000	65.534205
1934.000000	65.570353
1933.000000	65.616925
1932.000000	65.670477
1931.000000	65.728241
1930.000000	65.784772
1929.000000	65.832173
1928.000000	65.866515
1927.000000	65.889680
1926.000000	65.904805
1925.000000	65.915776
1924.000000	65.927647
1923.000000	65.942164
1922.000000	65.956911
1921.000000	65.969778
1920.000000	65.984685
1919.000000	66.012424
1918.000000	66.058956
1917.000000	66.118828
1916.000000	66.180736
1915.000000	66.232963
1914.000000	66.267999
1913.000000	66.287484
1912.000000	66.302305
1911.000000	66.324046
1910.000000	66.356173
1909.000000	66.395531
1908.000000	66.441233
1907.000000	66.494118
1906.000000	66.548975
1905.000000	66.596932
1904.000000	66.633484
1903.000000	66.659689
1902.000000	66.677599
1901.000000	66.689157
1900.000000	66.700202
1899.000000	66.718469
1898.000000	66.746616
1897.000000	66.782392
1896.000000	66.823064
1895.000000	66.865032
1894.000000	66.901056
1893.000000	66.922871
1892.000000	66.928689
1891.000000	66.925374
1890.000000	66.919897
1889.000000	66.918393
1888.000000	66.930620
1887.000000	66.959895
1886.000000	66.997499
1885.000000	67.033904
1884.000000	67.067671
1883.000000	67.101722
1882.000000	67.134966
1881.000000	67.162067
1880.000000	67.180992
1879.000000	67.194583
1878.000000	67.204600
1877.000000	67.211926
1876.000000	67.222129
1875.000000	67.241497
1874.000000	67.266255
1873.000000	67.283327
1872.000000	67.285151
1871.000000	67.280087
1870.000000	67.284203
1869.000000	67.301934
1868.000000	67.328141
1867.000000	67.360641
1866.000000	67.393257
1865.000000	67.417322
1864.000000	67.435130
1863.000000	67.455777
1862.000000	67.482087
1861.000000	67.511156
1860.000000	67.542188
1859.000000	67.574494
1858.000000	67.601599
1857.000000	67.616079
1856.000000	67.618908
1855.000000	67.616184
1854.000000	67.610368
1853.000000	67.601201
1852.000000	67.593103
1851.000000	67.593921
1850.000000	67.604254
1849.000000	67.613750
1848.000000	67.608805
1847.000000	67.581241
1846.000000	67.533636
1845.000000	67.485437
1844.000000	67.467304
1843.000000	67.495242
1842.000000	67.549192
1841.000000	67.594353
1840.000000	67.618801
1839.000000	67.633039
1838.000000	67.645051
1837.000000	67.652756
1836.000000	67.655827
1835.000000	67.655193
1834.000000	67.640333
1833.000000	67.595229
1832.000000	67.524611
1831.000000	67.457240
1830.000000	67.408824
1829.000000	67.375840
1828.000000	67.356041
1827.000000	67.346121
1826.000000	67.345413
1825.000000	67.359237
1824.000000	67.391902
1823.000000	67.434986
1822.000000	67.462626
1821.000000	67.453892
1820.000000	67.413524
1819.000000	67.360140
1818.000000	67.304441
1817.000000	67.251297
1816.000000	67.210489
1815.000000	67.188496
1814.000000	67.176509
1813.000000	67.161748
1812.000000	67.144529
1811.000000	67.130162
1810.000000	67.115694
1809.000000	67.095559
1808.000000	67.070268
1807.000000	67.041881
1806.000000	67.005927
1805.000000	66.958187
1804.000000	66.905763
1803.000000	66.863506
1802.000000	66.840047
1801.000000	66.836495
1800.000000	66.856707
1799.000000	66.898592
1798.000000	66.939016
1797.000000	66.946846
1796.000000	66.907590
1795.000000	66.826552
1794.000000	66.720954
1793.000000	66.622692
1792.000000	66.572166
1791.000000	66.593097
1790.000000	66.666507
1789.000000	66.741484
1788.000000	66.779450
1787.000000	66.773892
1786.000000	66.735903
1785.000000	66.681272
1784.000000	66.625812
1783.000000	66.576257
1782.000000	66.524209
1781.000000	66.460546
1780.000000	66.397097
1779.000000	66.354731
1778.000000	66.330214
1777.000000	66.300346
1776.000000	66.252790
1775.000000	66.186184
1774.000000	66.093836
1773.000000	65.968841
1772.000000	65.828274
1771.000000	65.718005
1770.000000	65.657840
1769.000000	65.625649
1768.000000	65.613339
1767.000000	65.632542
1766.000000	65.666520
1765.000000	65.670904
1764.000000	65.625031
1763.000000	65.554259
1762.000000	65.491294
1761.000000	65.443149
1760.000000	65.398969
1759.000000	65.343048
1758.000000	65.269570
1757.000000	65.191397
1756.000000	65.138710
1755.000000	65.125804
1754.000000	65.119442
1753.000000	65.073369
1752.000000	64.986767
1751.000000	64.902112
1750.000000	64.840988
1749.000000	64.782138
1748.000000	64.711048
1747.000000	64.640597
1746.000000	64.573648
1745.000000	64.492888
1744.000000	64.394470
1743.000000	64.294099
1742.000000	64.198545
1741.000000	64.103493
1740.000000	64.017851
1739.000000	63.954414
1738.000000	63.891165
1737.000000	63.776583
1736.000000	63.577826
1735.000000	63.332342
1734.000000	63.118210
1733.000000	62.982067
1732.000000	62.907411
1731.000000	62.853628
1730.000000	62.800033
1729.000000	62.734960
1728.000000	62.656119
1727.000000	62.564112
1726.000000	62.442258
1725.000000	62.270442
1724.000000	62.055666
1723.000000	61.823755
1722.000000	61.582151
1721.000000	61.324062
1720.000000	61.064975
1719.000000	60.844037
1718.000000	60.657805
1717.000000	60.465147
1716.000000	60.271902
1715.000000	60.106913
1714.000000	59.967530
1713.000000	59.825937
1712.000000	59.655286
1711.000000	59.447695
1710.000000	59.205552
1709.000000	58.933875
1708.000000	58.650238
1707.000000	58.381838
1706.000000	58.137745
1705.000000	57.912443
1704.000000	57.699649
1703.000000	57.460870
1702.000000	57.126540
1701.000000	56.714664
1700.000000	56.379617
1699.000000	56.221565
1698.000000	56.144899
1697.000000	55.995844
1696.000000	55.733840
1695.000000	55.470469
1694.000000	55.294370
1693.000000	55.163124
1692.000000	55.019834
1691.000000	54.837492
1690.000000	54.611561
1689.000000	54.360939
1688.000000	54.115093
1687.000000	53.867038
1686.000000	53.558637
1685.000000	53.159370
1684.000000	52.727401
1683.000000	52.425747
1682.000000	52.305761
1681.000000	52.237819
1680.000000	52.123073
1679.000000	51.944767
1678.000000	51.708604
1677.000000	51.406719
1676.000000	51.054964
1675.000000	50.729291
1674.000000	50.487986
1673.000000	50.295348
1672.000000	50.089267
1671.000000	49.859784
1670.000000	49.630718
1669.000000	49.429470
1668.000000	49.276992
1667.000000	49.158081
1666.000000	49.018354
1665.000000	48.809123
1664.000000	48.527614
1663.000000	48.220139
1662.000000	47.943521
1661.000000	47.720358
1660.000000	47.533323
1659.000000	47.361213
1658.000000	47.185396
1657.000000	46.993689
1656.000000	46.774793
1655.000000	46.520928
1654.000000	46.210898
1653.000000	45.838726
1652.000000	45.552746
1651.000000	45.390613
1650.000000	45.233082
1649.000000	45.044301
1648.000000	44.819754
1647.000000	44.569291
1646.000000	44.353815
1645.000000	44.216450
1644.000000	44.115696
1643.000000	44.002291
1642.000000	43.856872
1641.000000	43.662490
1640.000000	43.424112
1639.000000	43.170583
1638.000000	42.911619
1637.000000	42.625868
1636.000000	42.309366
1635.000000	42.050985
1634.000000	41.928595
1633.000000	41.881992
1632.000000	41.824936
1631.000000	41.726299
1630.000000	41.581735
1629.000000	41.396055
1628.000000	41.185231
1627.000000	40.978849
1626.000000	40.791989
1625.000000	40.614414
1624.000000	40.445024
1623.000000	40.308223
1622.000000	40.225791
1621.000000	40.182219
1620.000000	40.145380
1619.000000	40.097058
1618.000000	40.021662
1617.000000	39.898429
1616.000000	39.742707
1615.000000	39.611124
1614.000000	39.526890
1613.000000	39.467306
1612.000000	39.411895
1611.000000	39.365376
1610.000000	39.340364
1609.000000	39.330005
1608.000000	39.318655
1607.000000	39.304548
1606.000000	39.289869
1605.000000	39.263678
1604.000000	39.217208
1603.000000	39.161280
1602.000000	39.112037
1601.000000	39.073456
1600.000000	39.047157
1599.000000	39.043648
1598.000000	39.067575
1597.000000	39.105127
1596.000000	39.138760
1595.000000	39.163562
1594.000000	39.179202
1593.000000	39.178664
1592.000000	39.158274
1591.000000	39.128745
1590.000000	39.103894
1589.000000	39.087140
1588.000000	39.080047
1587.000000	39.091374
1586.000000	39.125600
1585.000000	39.169980
1584.000000	39.206993
1583.000000	39.231531
1582.000000	39.241922
1581.000000	39.229278
1580.000000	39.193544
1579.000000	39.151745
1578.000000	39.113089
1577.000000	39.059834
1576.000000	38.980666
1575.000000	38.916697
1574.000000	38.899756
1573.000000	38.903181
1572.000000	38.889815
1571.000000	38.851400
1570.000000	38.802825
1569.000000	38.756669
1568.000000	38.721025
1567.000000	38.695878
1566.000000	38.675524
1565.000000	38.656587
1564.000000	38.644333
1563.000000	38.637287
1562.000000	38.622466
1561.000000	38.564460
1560.000000	38.526170
1559.000000	38.537381
1558.000000	38.605574
1557.000000	38.765014
1556.000000	38.932635
1555.000000	39.065860
1554.000000	39.187465
1553.000000	39.306352
1552.000000	39.429060
1551.000000	39.571663
1550.000000	39.748177
1549.000000	39.941303
1548.000000	40.118938
1547.000000	40.265500
1546.000000	40.392250
1545.000000	40.507474
1544.000000	40.598722
1543.000000	40.670435
1542.000000	40.765004
1541.000000	40.924752
1540.000000	41.132951
1539.000000	41.386350
1538.000000	41.673787
1537.000000	41.925913
1536.000000	42.124503
1535.000000	42.312049
1534.000000	42.530002
1533.000000	42.775801
1532.000000	43.023671
1531.000000	43.259130
1530.000000	43.474332
1529.000000	43.679605
1528.000000	43.901251
1527.000000	44.165309
1526.000000	44.476175
1525.000000	44.806760
1524.000000	45.129838
1523.000000	45.457730
1522.000000	45.812214
1521.000000	46.167799
1520.000000	46.486906
1519.000000	46.777206
1518.000000	47.084570
1517.000000	47.436581
1516.000000	47.820673
1515.000000	48.223927
1514.000000	48.639754
1513.000000	49.057143
1512.000000	49.462681
1511.000000	49.833307
1510.000000	50.158429
1509.000000	50.448037
1508.000000	50.749798
1507.000000	51.068712
1506.000000	51.449425
1505.000000	51.932025
1504.000000	52.404716
1503.000000	52.817441
1502.000000	53.207302
1501.000000	53.581946
1500.000000	53.940761
1499.000000	54.303081
1498.000000	54.688522
1497.000000	55.076741
1496.000000	55.433845
1495.000000	55.748148
1494.000000	56.012955
1493.000000	56.224897
1492.000000	56.417985
1491.000000	56.667763
1490.000000	57.007744
1489.000000	57.388591
1488.000000	57.762007
1487.000000	58.117853
1486.000000	58.444040
1485.000000	58.708290
1484.000000	58.891827
1483.000000	59.019241
1482.000000	59.126265
1481.000000	59.221947
1480.000000	59.302071
1479.000000	59.372605
1478.000000	59.441548
1477.000000	59.504940
1476.000000	59.552031
1475.000000	59.570769
1474.000000	59.539317
1473.000000	59.426414
1472.000000	59.258790
1471.000000	59.117201
1470.000000	58.998616
1469.000000	58.822913
1468.000000	58.550040
1467.000000	58.196609
1466.000000	57.780675
1465.000000	57.301946
1464.000000	56.797136
1463.000000	56.319234
1462.000000	55.839632
1461.000000	55.290561
1460.000000	54.656849
1459.000000	53.958206
1458.000000	53.159102
1457.000000	52.237633
1456.000000	51.377980
1455.000000	50.717535
1454.000000	50.121768
1453.000000	49.418957
1452.000000	48.562683
1451.000000	47.596767
1450.000000	46.527433
1449.000000	45.298968
1448.000000	43.926648
1447.000000	42.525244
1446.000000	41.156818
1445.000000	39.774205
1444.000000	38.338312
1443.000000	36.858717
1442.000000	35.330209
1441.000000	33.746816
1440.000000	32.144664
1439.000000	30.509694
1438.000000	28.682727
1437.000000	26.549564
1436.000000	24.368780
1435.000000	22.532699
1434.000000	21.056966
1433.000000	19.734391
1432.000000	18.507115
1431.000000	17.457466
1430.000000	16.626605
1429.000000	16.007721
1428.000000	15.656946
1427.000000	15.623915
1426.000000	15.857249
1425.000000	16.294858
1424.000000	16.940708
1423.000000	17.763650
1422.000000	18.656945
1421.000000	19.587963
1420.000000	20.670762
1419.000000	21.958076
1418.000000	23.272498
1417.000000	24.453515
1416.000000	25.549423
1415.000000	26.644654
1414.000000	27.726351
1413.000000	28.758891
1412.000000	29.767073
1411.000000	30.784275
1410.000000	31.787927
1409.000000	32.753098
1408.000000	33.710792
1407.000000	34.705722
1406.000000	35.746119
1405.000000	36.819047
1404.000000	37.904975
1403.000000	38.956540
1402.000000	39.925786
1401.000000	40.833565
1400.000000	41.754637
1399.000000	42.710039
1398.000000	43.644547
1397.000000	44.541937
1396.000000	45.474222
1395.000000	46.506833
1394.000000	47.615604
1393.000000	48.728125
1392.000000	49.796548
1391.000000	50.802144
1390.000000	51.743972
1389.000000	52.649669
1388.000000	53.556361
1387.000000	54.455941
1386.000000	55.301691
1385.000000	56.074822
1384.000000	56.792489
1383.000000	57.462686
1382.000000	58.066297
1381.000000	58.572761
1380.000000	58.945512
1379.000000	59.132152
1378.000000	59.079476
1377.000000	58.753056
1376.000000	58.119252
1375.000000	57.142539
1374.000000	55.848635
1373.000000	54.368903
1372.000000	52.864546
1371.000000	51.449112
1370.000000	50.230545
1369.000000	49.360945
1368.000000	48.989045
1367.000000	49.166754
1366.000000	49.837312
1365.000000	50.909878
1364.000000	52.303130
1363.000000	53.912152
1362.000000	55.585144
1361.000000	57.180952
1360.000000	58.616522
1359.000000	59.846909
1358.000000	60.837957
1357.000000	61.558139
1356.000000	61.970820
1355.000000	62.037563
1354.000000	61.738479
1353.000000	61.079595
1352.000000	60.082563
1351.000000	58.771203
1350.000000	57.178115
1349.000000	55.353824
1348.000000	53.350574
1347.000000	51.208866
1346.000000	48.957020
1345.000000	46.621151
1344.000000	44.237627
1343.000000	41.843911
1342.000000	39.459044
1341.000000	37.095354
1340.000000	34.809264
1339.000000	32.728262
1338.000000	30.994735
1337.000000	29.680039
1336.000000	28.770137
1335.000000	28.192760
1334.000000	27.820372
1333.000000	27.483080
1332.000000	27.011989
1331.000000	26.280725
1330.000000	25.223033
1329.000000	23.835976
1328.000000	22.179063
1327.000000	20.358804
1326.000000	18.493214
1325.000000	16.687265
1324.000000	15.041111
1323.000000	13.650053
1322.000000	12.569553
1321.000000	11.795310
1320.000000	11.287417
1319.000000	10.986512
1318.000000	10.811900
1317.000000	10.680713
1316.000000	10.545518
1315.000000	10.402499
1314.000000	10.256862
1313.000000	10.108346
1312.000000	9.969340
1311.000000	9.864671
1310.000000	9.809504
1309.000000	9.807582
1308.000000	9.875223
1307.000000	10.040880
1306.000000	10.315500
1305.000000	10.689023
1304.000000	11.153237
1303.000000	11.704379
1302.000000	12.324168
1301.000000	12.981441
1300.000000	13.658475
1299.000000	14.352784
1298.000000	15.055325
1297.000000	15.748928
1296.000000	16.425704
1295.000000	17.086965
1294.000000	17.726055
1293.000000	18.329759
1292.000000	18.895379
1291.000000	19.430526
1290.000000	19.934389
1289.000000	20.395191
1288.000000	20.801986
1287.000000	21.140325
1286.000000	21.382618
1285.000000	21.500913
1284.000000	21.498260
1283.000000	21.420497
1282.000000	21.336093
1281.000000	21.312463
1280.000000	21.402199
1279.000000	21.627788
1278.000000	21.971399
1277.000000	22.392910
1276.000000	22.859726
1275.000000	23.353539
1274.000000	23.857212
1273.000000	24.351837
1272.000000	24.826967
1271.000000	25.278670
1270.000000	25.698684
1269.000000	26.078040
1268.000000	26.420217
1267.000000	26.738823
1266.000000	27.044404
1265.000000	27.343268
1264.000000	27.645588
1263.000000	27.962437
1262.000000	28.293514
1261.000000	28.628550
1260.000000	28.959172
1259.000000	29.279749
1258.000000	29.580854
1257.000000	29.853796
1256.000000	30.101483
1255.000000	30.335895
1254.000000	30.566760
1253.000000	30.800505
1252.000000	31.046112
1251.000000	31.311481
1250.000000	31.594261
1249.000000	31.883627
1248.000000	32.169932
1247.000000	32.445981
1246.000000	32.702517
1245.000000	32.932123
1244.000000	33.137344
1243.000000	33.328903
1242.000000	33.516940
1241.000000	33.709553
1240.000000	33.916216
1239.000000	34.143626
1238.000000	34.388601
1237.000000	34.640769
1236.000000	34.890732
1235.000000	35.130734
1234.000000	35.351129
1233.000000	35.544694
1232.000000	35.714152
1231.000000	35.870507
1230.000000	36.025427
1229.000000	36.188962
1228.000000	36.371246
1227.000000	36.578657
1226.000000	36.807825
1225.000000	37.047788
1224.000000	37.287117
1223.000000	37.515804
1222.000000	37.724122
1221.000000	37.906532
1220.000000	38.066913
1219.000000	38.216124
1218.000000	38.365489
1217.000000	38.525133
1216.000000	38.704819
1215.000000	38.910064
1214.000000	39.137161
1213.000000	39.375276
1212.000000	39.612364
1211.000000	39.836991
1210.000000	40.038723
1209.000000	40.212532
1208.000000	40.362984
1207.000000	40.501702
1206.000000	40.641408
1205.000000	40.793706
1204.000000	40.968684
1203.000000	41.171198
1202.000000	41.396998
1201.000000	41.634601
1200.000000	41.870413
1199.000000	42.091109
1198.000000	42.284755
1197.000000	42.444683
1196.000000	42.571889
1195.000000	42.673104
1194.000000	42.756022
1193.000000	42.825601
1192.000000	42.882602
1191.000000	42.921147
1190.000000	42.931178
1189.000000	42.906311
1188.000000	42.850875
1187.000000	42.780722
1186.000000	42.717476
1185.000000	42.681974
1184.000000	42.689720
1183.000000	42.748420
1182.000000	42.857465
1181.000000	43.012734
1180.000000	43.209987
1179.000000	43.442700
1178.000000	43.699792
1177.000000	43.966060
1176.000000	44.225773
1175.000000	44.465043
1174.000000	44.674116
1173.000000	44.850358
1172.000000	44.999226
1171.000000	45.132031
1170.000000	45.262845
1169.000000	45.405788
1168.000000	45.571225
1167.000000	45.762188
1166.000000	45.973433
1165.000000	46.193777
1164.000000	46.409496
1163.000000	46.607738
1162.000000	46.780577
1161.000000	46.927416
1160.000000	47.054031
1159.000000	47.170678
1158.000000	47.290486
1157.000000	47.426568
1156.000000	47.587079
1155.000000	47.771944
1154.000000	47.974166
1153.000000	48.182736
1152.000000	48.384315
1151.000000	48.565602
1150.000000	48.718110
1149.000000	48.841682
1148.000000	48.943155
1147.000000	49.034049
1146.000000	49.129291
1145.000000	49.243423
1144.000000	49.384342
1143.000000	49.550189
1142.000000	49.732279
1141.000000	49.918995
1140.000000	50.096933
1139.000000	50.253195
1138.000000	50.380479
1137.000000	50.479864
1136.000000	50.558703
1135.000000	50.628258
1134.000000	50.703319
1133.000000	50.798714
1132.000000	50.922412
1131.000000	51.072357
1130.000000	51.239817
1129.000000	51.413392
1128.000000	51.579963
1127.000000	51.726911
1126.000000	51.847543
1125.000000	51.943441
1124.000000	52.021680
1123.000000	52.092670
1122.000000	52.170184
1121.000000	52.267920
1120.000000	52.392535
1119.000000	52.541294
1118.000000	52.706119
1117.000000	52.876608
1116.000000	53.039460
1115.000000	53.181094
1114.000000	53.294746
1113.000000	53.383421
1112.000000	53.455968
1111.000000	53.524406
1110.000000	53.603615
1109.000000	53.706753
1108.000000	53.837715
1107.000000	53.990016
1106.000000	54.153256
1105.000000	54.316610
1104.000000	54.467037
1103.000000	54.591583
1102.000000	54.685352
1101.000000	54.753765
1100.000000	54.807512
1099.000000	54.858577
1098.000000	54.921866
1097.000000	55.012098
1096.000000	55.134899
1095.000000	55.284222
1094.000000	55.448489
1093.000000	55.615205
1092.000000	55.770407
1091.000000	55.901477
1090.000000	56.004488
1089.000000	56.085625
1088.000000	56.155401
1087.000000	56.226379
1086.000000	56.314545
1085.000000	56.433972
1084.000000	56.586693
1083.000000	56.761838
1082.000000	56.944759
1081.000000	57.121953
1080.000000	57.278831
1079.000000	57.402548
1078.000000	57.491259
1077.000000	57.554900
1076.000000	57.606660
1075.000000	57.659288
1074.000000	57.727398
1073.000000	57.823415
1072.000000	57.946321
1071.000000	58.079330
1070.000000	58.198860
1069.000000	58.279166
1068.000000	58.292621
1067.000000	58.215309
1066.000000	58.040933
1065.000000	57.787182
1064.000000	57.489063
1063.000000	57.193557
1062.000000	56.954685
1061.000000	56.819713
1060.000000	56.810832
1059.000000	56.921183
1058.000000	57.122948
1057.000000	57.378040
1056.000000	57.645225
1055.000000	57.889031
1054.000000	58.093127
1053.000000	58.260571
1052.000000	58.403605
1051.000000	58.538023
1050.000000	58.684250
1049.000000	58.861387
1048.000000	59.074361
1047.000000	59.311428
1046.000000	59.554306
1045.000000	59.784979
1044.000000	59.984163
1043.000000	60.135922
1042.000000	60.238361
1041.000000	60.304180
1040.000000	60.351132
1039.000000	60.397974
1038.000000	60.466948
1037.000000	60.577652
1036.000000	60.733975
1035.000000	60.922833
1034.000000	61.125643
1033.000000	61.324642
1032.000000	61.500260
1031.000000	61.634739
1030.000000	61.723520
1029.000000	61.776957
1028.000000	61.811133
1027.000000	61.844247
1026.000000	61.899148
1025.000000	61.996591
1024.000000	62.141598
1023.000000	62.321943
1022.000000	62.519793
1021.000000	62.717528
1020.000000	62.894373
1019.000000	63.030895
1018.000000	63.121723
1017.000000	63.177236
1016.000000	63.212778
1015.000000	63.245187
1014.000000	63.296599
1013.000000	63.387931
1012.000000	63.524337
1011.000000	63.694200
1010.000000	63.881355
1009.000000	64.070154
1008.000000	64.240910
1007.000000	64.374458
1006.000000	64.465696
1005.000000	64.525043
1004.000000	64.566687
1003.000000	64.604833
1002.000000	64.659663
1001.000000	64.751889
1000.000000	64.886214
999.000000	65.047864
998.000000	65.218102
997.000000	65.384539
996.000000	65.535908
995.000000	65.658946
994.000000	65.746850
993.000000	65.804763
992.000000	65.845014
991.000000	65.883475
990.000000	65.939691
989.000000	66.029997
988.000000	66.156540
987.000000	66.308038
986.000000	66.470408
985.000000	66.630383
984.000000	66.771583
983.000000	66.879227
982.000000	66.951676
981.000000	67.000436
980.000000	67.039427
979.000000	67.082132
978.000000	67.145509
977.000000	67.243518
976.000000	67.374336
975.000000	67.522046
974.000000	67.671161
973.000000	67.810848
972.000000	67.928211
971.000000	68.011127
970.000000	68.060589
969.000000	68.090918
968.000000	68.117381
967.000000	68.152704
966.000000	68.212379
965.000000	68.309353
964.000000	68.440665
963.000000	68.588523
962.000000	68.734910
961.000000	68.867131
960.000000	68.971804
959.000000	69.038338
958.000000	69.071105
957.000000	69.088256
956.000000	69.107150
955.000000	69.139598
954.000000	69.198326
953.000000	69.293427
952.000000	69.420188
951.000000	69.560634
950.000000	69.698237
949.000000	69.821654
948.000000	69.917114
947.000000	69.972113
946.000000	69.990074
945.000000	69.990149
944.000000	69.992307
943.000000	70.011457
942.000000	70.062102
941.000000	70.153316
940.000000	70.276714
939.000000	70.410218
938.000000	70.534710
937.000000	70.638336
936.000000	70.708312
935.000000	70.734816
934.000000	70.725408
933.000000	70.703286
932.000000	70.689300
931.000000	70.695773
930.000000	70.733529
929.000000	70.808863
928.000000	70.911528
927.000000	71.018086
926.000000	71.109222
925.000000	71.173539
924.000000	71.198482
923.000000	71.174103
922.000000	71.108061
921.000000	71.024359
920.000000	70.945261
919.000000	70.884442
918.000000	70.853572
917.000000	70.858495
916.000000	70.887388
915.000000	70.914466
914.000000	70.917582
913.000000	70.883390
912.000000	70.798207
911.000000	70.652386
910.000000	70.455120
909.000000	70.232167
908.000000	70.007152
907.000000	69.793716
906.000000	69.602460
905.000000	69.437647
904.000000	69.285217
903.000000	69.117675
902.000000	68.911421
901.000000	68.652195
900.000000	68.327624
899.000000	67.929995
898.000000	67.469938
897.000000	66.971906
896.000000	66.457496
895.000000	65.939927
894.000000	65.428583
893.000000	64.925922
892.000000	64.416776
891.000000	63.873672
890.000000	63.273510
889.000000	62.601762
888.000000	61.848532
887.000000	61.011177
886.000000	60.102352
885.000000	59.144742
884.000000	58.155930
883.000000	57.147045
882.000000	56.126664
881.000000	55.097151
880.000000	54.049256
879.000000	52.967083
878.000000	51.839371
877.000000	50.660642
876.000000	49.429389
875.000000	48.153662
874.000000	46.854962
873.000000	45.561318
872.000000	44.297866
871.000000	43.085037
870.000000	41.937353
869.000000	40.860564
868.000000	39.850086
867.000000	38.895956
866.000000	37.988266
865.000000	37.117462
864.000000	36.277999
863.000000	35.469942
862.000000	34.697770
861.000000	33.968342
860.000000	33.288548
859.000000	32.665446
858.000000	32.101260
857.000000	31.590727
856.000000	31.126132
855.000000	30.700358
854.000000	30.307646
853.000000	29.942749
852.000000	29.604156
851.000000	29.298122
850.000000	29.034270
849.000000	28.822977
848.000000	28.675412
847.000000	28.602140
846.000000	28.610486
845.000000	28.700518
844.000000	28.869495
843.000000	29.114774
842.000000	29.430147
841.000000	29.805958
840.000000	30.232555
839.000000	30.708350
838.000000	31.239469
837.000000	31.832105
836.000000	32.490842
835.000000	33.219922
834.000000	34.018017
833.000000	34.856251
832.000000	35.653432
831.000000	36.234715
830.000000	36.300230
829.000000	35.454142
828.000000	33.404494
827.000000	30.293333
826.000000	26.847290
825.000000	24.089654
824.000000	22.758552
823.000000	22.920225
822.000000	24.095620
821.000000	25.702474
820.000000	27.354202
819.000000	28.874447
818.000000	30.206905
817.000000	31.354376
816.000000	32.357307
815.000000	33.254561
814.000000	34.066493
813.000000	34.809635
812.000000	35.508046
811.000000	36.177962
810.000000	36.821051
809.000000	37.438023
808.000000	38.033010
807.000000	38.604555
806.000000	39.145205
805.000000	39.654665
804.000000	40.139362
803.000000	40.598184
802.000000	41.025477
801.000000	41.427353
800.000000	41.821486
799.000000	42.219888
798.000000	42.624259
797.000000	43.037320
796.000000	43.463492
795.000000	43.898433
794.000000	44.330704
793.000000	44.753771
792.000000	45.166032
791.000000	45.562364
790.000000	45.938430
789.000000	46.301271
788.000000	46.664129
787.000000	47.032989
786.000000	47.407497
785.000000	47.790204
784.000000	48.183356
783.000000	48.579617
782.000000	48.966751
781.000000	49.339007
780.000000	49.695430
779.000000	50.032637
778.000000	50.349639
777.000000	50.655564
776.000000	50.962567
775.000000	51.274410
774.000000	51.589565
773.000000	51.909014
772.000000	52.232058
771.000000	52.550254
770.000000	52.854595
769.000000	53.143850
768.000000	53.418221
767.000000	53.672704
766.000000	53.905931
765.000000	54.128222
764.000000	54.352106
763.000000	54.580953
762.000000	54.814287
761.000000	55.055306
760.000000	55.303765
759.000000	55.549483
758.000000	55.782274
757.000000	56.001551
756.000000	56.209059
755.000000	56.401843
754.000000	56.581777
753.000000	56.762574
752.000000	56.957428
751.000000	57.167106
750.000000	57.387136
749.000000	57.616936
748.000000	57.853253
747.000000	58.084868
746.000000	58.303333
745.000000	58.510492
744.000000	58.708184
743.000000	58.891980
742.000000	59.063113
741.000000	59.234364
740.000000	59.414350
739.000000	59.597107
738.000000	59.775558
737.000000	59.952263
736.000000	60.127491
735.000000	60.289464
734.000000	60.427622
733.000000	60.543805
732.000000	60.641090
731.000000	60.715133
730.000000	60.767002
729.000000	60.810470
728.000000	60.855860
727.000000	60.898976
726.000000	60.934857
725.000000	60.970454
724.000000	61.013770
723.000000	61.063042
722.000000	61.117436
721.000000	61.186235
720.000000	61.276453
719.000000	61.384647
718.000000	61.511505
717.000000	61.669713
716.000000	61.864951
715.000000	62.083029
714.000000	62.307552
713.000000	62.535827
712.000000	62.766495
711.000000	62.987513
710.000000	63.190926
709.000000	63.384582
708.000000	63.577319
707.000000	63.768121
706.000000	63.959789
705.000000	64.166233
704.000000	64.393041
703.000000	64.624709
702.000000	64.844936
701.000000	65.054003
700.000000	65.252211
699.000000	65.427359
698.000000	65.572716
697.000000	65.700969
696.000000	65.826580
695.000000	65.950147
694.000000	66.076175
693.000000	66.225253
692.000000	66.407826
691.000000	66.606690
690.000000	66.800828
689.000000	66.987946
688.000000	67.167344
687.000000	67.321469
686.000000	67.439728
685.000000	67.538576
684.000000	67.636754
683.000000	67.735017
682.000000	67.839570
681.000000	67.977189
680.000000	68.162099
679.000000	68.372814
678.000000	68.585607
677.000000	68.797510
676.000000	68.998387
675.000000	69.167567
674.000000	69.299012
673.000000	69.405348
672.000000	69.497519
671.000000	69.585908
670.000000	69.706122
669.000000	69.926265
668.000000	70.245125
667.000000	70.511160
666.000000	70.655411
665.000000	70.752499
664.000000	70.868767
663.000000	71.010304
662.000000	71.147782
661.000000	71.258119
660.000000	71.340453
659.000000	71.407416
658.000000	71.481891
657.000000	71.588760
656.000000	71.736798
655.000000	71.923556
654.000000	72.141155
653.000000	72.374235
652.000000	72.603593
651.000000	72.809991
650.000000	72.977924
649.000000	73.098929
648.000000	73.174729
647.000000	73.220328
646.000000	73.261565
645.000000	73.326189
644.000000	73.431944
643.000000	73.583054
642.000000	73.777361
641.000000	74.008087
640.000000	74.257364
639.000000	74.497242
638.000000	74.702256
637.000000	74.858712
636.000000	74.963430
635.000000	75.023363
634.000000	75.062245
633.000000	75.114561
632.000000	75.204292
631.000000	75.337573
630.000000	75.515864
629.000000	75.740611
628.000000	76.000573
627.000000	76.267309
626.000000	76.510054
625.000000	76.710484
624.000000	76.858304
623.000000	76.949208
622.000000	76.997567
621.000000	77.036920
620.000000	77.097867
619.000000	77.197295
618.000000	77.349788
617.000000	77.568465
616.000000	77.843748
615.000000	78.138644
614.000000	78.413424
613.000000	78.642813
612.000000	78.805489
611.000000	78.880976
610.000000	78.867924
609.000000	78.783443
608.000000	78.636150
607.000000	78.408571
606.000000	78.067578
605.000000	77.553547
604.000000	76.735441
603.000000	75.400441
602.000000	73.281402
601.000000	70.143727
600.000000	65.932835
599.000000	60.954046
598.000000	55.905298
597.000000	51.640180
596.000000	48.835411
595.000000	47.769916
594.000000	48.278203
593.000000	49.887904
592.000000	52.086270
591.000000	54.474573
590.000000	56.792872
589.000000	58.924697
588.000000	60.849592
587.000000	62.577001
586.000000	64.106154
585.000000	65.437593
584.000000	66.586833
583.000000	67.587189
582.000000	68.486341
581.000000	69.335670
580.000000	70.164142
579.000000	70.961155
578.000000	71.706449
577.000000	72.395553
576.000000	73.021339
575.000000	73.556717
574.000000	73.979887
573.000000	74.304634
572.000000	74.562575
571.000000	74.779091
570.000000	74.984398
569.000000	75.219939
568.000000	75.512087
567.000000	75.852628
566.000000	76.218065
565.000000	76.590439
564.000000	76.941542
563.000000	77.225565
562.000000	77.414003
561.000000	77.521088
560.000000	77.578875
559.000000	77.612551
558.000000	77.656926
557.000000	77.761750
556.000000	77.954879
555.000000	78.219157
554.000000	78.520830
553.000000	78.835413
552.000000	79.130824
551.000000	79.357720
550.000000	79.487655
549.000000	79.538097
548.000000	79.541263
547.000000	79.520275
546.000000	79.511306
545.000000	79.569230
544.000000	79.724221
543.000000	79.959939
542.000000	80.245592
541.000000	80.558669
540.000000	80.860213
539.000000	81.089208
538.000000	81.209951
537.000000	81.239664
536.000000	81.211096
535.000000	81.148384
534.000000	81.094554
533.000000	81.115262
532.000000	81.246951
531.000000	81.467562
530.000000	81.734258
529.000000	82.015691
528.000000	82.273114
527.000000	82.452739
526.000000	82.527712
525.000000	82.517186
524.000000	82.437856
523.000000	82.275268
522.000000	82.033697
521.000000	81.756386
520.000000	81.465074
519.000000	81.125267
518.000000	80.705439
517.000000	80.240703
516.000000	79.804404
515.000000	79.455183
514.000000	79.234745
513.000000	79.169875
512.000000	79.235827
511.000000	79.350429
510.000000	79.433652
509.000000	79.445572
508.000000	79.336648
507.000000	79.010023
506.000000	78.369868
505.000000	77.370593
504.000000	76.011181
503.000000	74.372720
502.000000	72.711030
501.000000	71.396608
500.000000	70.687204
499.000000	70.613244
498.000000	71.067912
497.000000	71.887271
496.000000	72.861159
495.000000	73.772650
494.000000	74.480018
493.000000	74.968337
492.000000	75.304458
491.000000	75.581503
490.000000	75.898376
489.000000	76.332503
488.000000	76.892288
487.000000	77.522792
486.000000	78.174920
485.000000	78.842243
484.000000	79.515799
483.000000	80.151156
482.000000	80.715148
481.000000	81.216950
480.000000	81.657853
479.000000	82.004726
478.000000	82.245894
477.000000	82.427207
476.000000	82.593417
475.000000	82.741316
474.000000	82.876312
473.000000	83.050478
472.000000	83.291770
471.000000	83.553803
470.000000	83.772899
469.000000	83.937848
468.000000	84.061806
467.000000	84.133683
466.000000	84.151444
465.000000	84.156436
464.000000	84.190162
463.000000	84.251566
462.000000	84.323583
461.000000	84.401285
460.000000	84.468323
459.000000	84.497809
458.000000	84.503462
457.000000	84.538434
456.000000	84.600305
455.000000	84.598090
454.000000	84.485283
453.000000	84.336944
452.000000	84.239331
451.000000	84.179353
450.000000	84.097105
449.000000	83.972932
448.000000	83.779840
447.000000	83.420713
446.000000	82.809747
445.000000	81.935944
444.000000	80.781565
443.000000	79.269195
442.000000	77.364174
441.000000	75.164304
440.000000	72.807190
439.000000	70.395271
438.000000	68.062974
437.000000	66.053182
436.000000	64.642720
435.000000	63.979227
434.000000	64.008991
433.000000	64.584045
432.000000	65.596662
431.000000	66.935539
430.000000	68.461376
429.000000	70.092549
428.000000	71.796775
427.000000	73.490860
426.000000	75.066402
425.000000	76.513752
424.000000	77.848539
423.000000	78.957280
422.000000	79.702103
421.000000	80.147873
420.000000	80.515725
419.000000	80.939820
418.000000	81.435392
417.000000	82.067820
416.000000	82.827105
415.000000	83.559278
414.000000	84.142881
413.000000	84.615946
412.000000	85.032470
411.000000	85.292740
410.000000	85.303621
409.000000	85.188524
408.000000	85.116110
407.000000	85.094003
406.000000	85.102500
405.000000	85.305497
404.000000	85.733806
403.000000	86.128786
402.000000	86.236640
401.000000	86.143263
400.000000	86.036925
