PE IR       SUBTECH     SPECTRUM    ASCII       PEDS        4.00        
   -1
23ms123_nitro.asc
24/09/12
16:20:20.00
24/09/12
16:20:20.00
Administrator
Sample 1177 By Administrator Date Thursday, September 12 2024
400.000000
#HDR
-1
-1
#GR
cm-1
%T
1.0
0.0
4000.000000
-1.000000
3601
8
88.901375
14.371638
#DATA
4000.000000	76.891560
3999.000000	76.920927
3998.000000	76.950532
3997.000000	76.981952
3996.000000	77.015607
3995.000000	77.051209
3994.000000	77.088924
3993.000000	77.128875
3992.000000	77.169616
3991.000000	77.208084
3990.000000	77.241943
3989.000000	77.271660
3988.000000	77.299462
3987.000000	77.326741
3986.000000	77.353504
3985.000000	77.379848
3984.000000	77.407058
3983.000000	77.436749
3982.000000	77.469474
3981.000000	77.504581
3980.000000	77.540825
3979.000000	77.577125
3978.000000	77.612549
3977.000000	77.645969
3976.000000	77.676519
3975.000000	77.703944
3974.000000	77.728739
3973.000000	77.752446
3972.000000	77.776971
3971.000000	77.803618
3970.000000	77.832088
3969.000000	77.861096
3968.000000	77.890031
3967.000000	77.919125
3966.000000	77.948983
3965.000000	77.979868
3964.000000	78.011111
3963.000000	78.040773
3962.000000	78.067009
3961.000000	78.090082
3960.000000	78.112381
3959.000000	78.136350
3958.000000	78.161964
3957.000000	78.188129
3956.000000	78.215443
3955.000000	78.245138
3954.000000	78.277828
3953.000000	78.312630
3952.000000	78.348005
3951.000000	78.382642
3950.000000	78.414814
3949.000000	78.442360
3948.000000	78.464584
3947.000000	78.485976
3946.000000	78.514857
3945.000000	78.554842
3944.000000	78.598550
3943.000000	78.633461
3942.000000	78.656759
3941.000000	78.678782
3940.000000	78.707969
3939.000000	78.740617
3938.000000	78.766123
3937.000000	78.781320
3936.000000	78.796158
3935.000000	78.820615
3934.000000	78.855009
3933.000000	78.891733
3932.000000	78.925775
3931.000000	78.958318
3930.000000	78.989321
3929.000000	79.019187
3928.000000	79.050916
3927.000000	79.087767
3926.000000	79.125559
3925.000000	79.153006
3924.000000	79.168909
3923.000000	79.186156
3922.000000	79.212761
3921.000000	79.242966
3920.000000	79.270297
3919.000000	79.299252
3918.000000	79.335588
3917.000000	79.373940
3916.000000	79.406226
3915.000000	79.433354
3914.000000	79.460389
3913.000000	79.485932
3912.000000	79.503394
3911.000000	79.513290
3910.000000	79.523594
3909.000000	79.542639
3908.000000	79.577873
3907.000000	79.628491
3906.000000	79.684497
3905.000000	79.728837
3904.000000	79.756112
3903.000000	79.786950
3902.000000	79.844277
3901.000000	79.921862
3900.000000	79.985330
3899.000000	80.008203
3898.000000	79.998819
3897.000000	79.984157
3896.000000	79.978746
3895.000000	79.986525
3894.000000	80.009522
3893.000000	80.046479
3892.000000	80.080574
3891.000000	80.092435
3890.000000	80.095362
3889.000000	80.123712
3888.000000	80.189321
3887.000000	80.258939
3886.000000	80.285370
3885.000000	80.271848
3884.000000	80.275247
3883.000000	80.332113
3882.000000	80.412577
3881.000000	80.457928
3880.000000	80.446238
3879.000000	80.414244
3878.000000	80.412506
3877.000000	80.451623
3876.000000	80.499829
3875.000000	80.519530
3874.000000	80.510609
3873.000000	80.517853
3872.000000	80.577962
3871.000000	80.662898
3870.000000	80.707802
3869.000000	80.706965
3868.000000	80.720962
3867.000000	80.779307
3866.000000	80.840254
3865.000000	80.855161
3864.000000	80.837743
3863.000000	80.838307
3862.000000	80.866602
3861.000000	80.894315
3860.000000	80.906820
3859.000000	80.916860
3858.000000	80.950183
3857.000000	81.021511
3856.000000	81.126570
3855.000000	81.225800
3854.000000	81.267889
3853.000000	81.269749
3852.000000	81.296604
3851.000000	81.354566
3850.000000	81.390722
3849.000000	81.371940
3848.000000	81.313567
3847.000000	81.259003
3846.000000	81.234937
3845.000000	81.238125
3844.000000	81.253227
3843.000000	81.271851
3842.000000	81.300170
3841.000000	81.351727
3840.000000	81.421192
3839.000000	81.484851
3838.000000	81.533689
3837.000000	81.576215
3836.000000	81.621798
3835.000000	81.666358
3834.000000	81.699295
3833.000000	81.713008
3832.000000	81.705009
3831.000000	81.686487
3830.000000	81.680647
3829.000000	81.699973
3828.000000	81.730686
3827.000000	81.746584
3826.000000	81.740102
3825.000000	81.742497
3824.000000	81.790153
3823.000000	81.875050
3822.000000	81.943381
3821.000000	81.956395
3820.000000	81.953904
3819.000000	82.000807
3818.000000	82.095032
3817.000000	82.167763
3816.000000	82.167520
3815.000000	82.132991
3814.000000	82.139372
3813.000000	82.189053
3812.000000	82.222447
3811.000000	82.213001
3810.000000	82.196553
3809.000000	82.214874
3808.000000	82.256609
3807.000000	82.277933
3806.000000	82.278852
3805.000000	82.311339
3804.000000	82.395302
3803.000000	82.488480
3802.000000	82.525873
3801.000000	82.504610
3800.000000	82.502770
3799.000000	82.565276
3798.000000	82.646662
3797.000000	82.680715
3796.000000	82.659412
3795.000000	82.633207
3794.000000	82.643738
3793.000000	82.680824
3792.000000	82.709811
3791.000000	82.719588
3790.000000	82.724230
3789.000000	82.737000
3788.000000	82.760222
3787.000000	82.791527
3786.000000	82.826131
3785.000000	82.856621
3784.000000	82.880693
3783.000000	82.909685
3782.000000	82.953955
3781.000000	83.004306
3780.000000	83.039450
3779.000000	83.054679
3778.000000	83.070414
3777.000000	83.103891
3776.000000	83.144330
3775.000000	83.168150
3774.000000	83.174127
3773.000000	83.186547
3772.000000	83.221743
3771.000000	83.264674
3770.000000	83.292904
3769.000000	83.315176
3768.000000	83.357802
3767.000000	83.418896
3766.000000	83.465837
3765.000000	83.475003
3764.000000	83.465510
3763.000000	83.476580
3762.000000	83.515238
3761.000000	83.554199
3760.000000	83.574623
3759.000000	83.591406
3758.000000	83.621704
3757.000000	83.656944
3756.000000	83.689309
3755.000000	83.722804
3754.000000	83.758510
3753.000000	83.789962
3752.000000	83.822653
3751.000000	83.878962
3750.000000	83.955991
3749.000000	84.027274
3748.000000	84.098706
3747.000000	84.197751
3746.000000	84.310050
3745.000000	84.356845
3744.000000	84.304968
3743.000000	84.251739
3742.000000	84.270029
3741.000000	84.309393
3740.000000	84.302116
3739.000000	84.256296
3738.000000	84.234445
3737.000000	84.266195
3736.000000	84.334400
3735.000000	84.418387
3734.000000	84.509987
3733.000000	84.586526
3732.000000	84.612658
3731.000000	84.592311
3730.000000	84.567533
3729.000000	84.566832
3728.000000	84.581411
3727.000000	84.586163
3726.000000	84.582488
3725.000000	84.598746
3724.000000	84.645015
3723.000000	84.697140
3722.000000	84.729455
3721.000000	84.747062
3720.000000	84.766220
3719.000000	84.789900
3718.000000	84.807699
3717.000000	84.814114
3716.000000	84.824954
3715.000000	84.854859
3714.000000	84.896336
3713.000000	84.932741
3712.000000	84.966809
3711.000000	85.019528
3710.000000	85.094432
3709.000000	85.166892
3708.000000	85.210027
3707.000000	85.217454
3706.000000	85.206740
3705.000000	85.201999
3704.000000	85.215484
3703.000000	85.241935
3702.000000	85.269325
3701.000000	85.294115
3700.000000	85.322746
3699.000000	85.358866
3698.000000	85.391650
3697.000000	85.403060
3696.000000	85.393631
3695.000000	85.387386
3694.000000	85.401534
3693.000000	85.433199
3692.000000	85.475656
3691.000000	85.531664
3690.000000	85.598978
3689.000000	85.658675
3688.000000	85.696621
3687.000000	85.721523
3686.000000	85.745269
3685.000000	85.756472
3684.000000	85.735904
3683.000000	85.689990
3682.000000	85.651483
3681.000000	85.637262
3680.000000	85.637911
3679.000000	85.649817
3678.000000	85.691513
3677.000000	85.765782
3676.000000	85.826724
3675.000000	85.849865
3674.000000	85.877626
3673.000000	85.945300
3672.000000	86.019522
3671.000000	86.040501
3670.000000	85.997837
3669.000000	85.951230
3668.000000	85.950357
3667.000000	85.972947
3666.000000	85.970853
3665.000000	85.933444
3664.000000	85.886128
3663.000000	85.855942
3662.000000	85.846532
3661.000000	85.842074
3660.000000	85.836992
3659.000000	85.837498
3658.000000	85.842522
3657.000000	85.833529
3656.000000	85.799080
3655.000000	85.766628
3654.000000	85.769249
3653.000000	85.799452
3652.000000	85.814008
3651.000000	85.781933
3650.000000	85.729746
3649.000000	85.717697
3648.000000	85.757533
3647.000000	85.797983
3646.000000	85.794480
3645.000000	85.747235
3644.000000	85.676788
3643.000000	85.598154
3642.000000	85.519368
3641.000000	85.450229
3640.000000	85.400302
3639.000000	85.365196
3638.000000	85.332961
3637.000000	85.300295
3636.000000	85.270988
3635.000000	85.240354
3634.000000	85.198623
3633.000000	85.157359
3632.000000	85.141299
3631.000000	85.150233
3630.000000	85.143376
3629.000000	85.089022
3628.000000	85.020416
3627.000000	84.988602
3626.000000	84.979716
3625.000000	84.943996
3624.000000	84.867737
3623.000000	84.783618
3622.000000	84.726915
3621.000000	84.694253
3620.000000	84.653456
3619.000000	84.588366
3618.000000	84.515595
3617.000000	84.455577
3616.000000	84.409273
3615.000000	84.361759
3614.000000	84.299008
3613.000000	84.226215
3612.000000	84.165741
3611.000000	84.130397
3610.000000	84.106697
3609.000000	84.072757
3608.000000	84.022601
3607.000000	83.967591
3606.000000	83.914479
3605.000000	83.854034
3604.000000	83.777662
3603.000000	83.689136
3602.000000	83.600595
3601.000000	83.521097
3600.000000	83.454538
3599.000000	83.402094
3598.000000	83.361464
3597.000000	83.325884
3596.000000	83.289899
3595.000000	83.249966
3594.000000	83.202534
3593.000000	83.150447
3592.000000	83.100486
3591.000000	83.058438
3590.000000	83.024850
3589.000000	82.995944
3588.000000	82.967582
3587.000000	82.938410
3586.000000	82.907270
3585.000000	82.869648
3584.000000	82.819202
3583.000000	82.753463
3582.000000	82.677517
3581.000000	82.600258
3580.000000	82.528914
3579.000000	82.466104
3578.000000	82.409502
3577.000000	82.355856
3576.000000	82.303297
3575.000000	82.252538
3574.000000	82.203831
3573.000000	82.157186
3572.000000	82.113424
3571.000000	82.072641
3570.000000	82.032309
3569.000000	81.988383
3568.000000	81.940515
3567.000000	81.895162
3566.000000	81.857971
3565.000000	81.825491
3564.000000	81.787264
3563.000000	81.735594
3562.000000	81.670576
3561.000000	81.599570
3560.000000	81.531224
3559.000000	81.469974
3558.000000	81.414527
3557.000000	81.361133
3556.000000	81.308172
3555.000000	81.256314
3554.000000	81.204497
3553.000000	81.148059
3552.000000	81.084897
3551.000000	81.020244
3550.000000	80.962030
3549.000000	80.913597
3548.000000	80.871720
3547.000000	80.831307
3546.000000	80.788020
3545.000000	80.738966
3544.000000	80.683033
3543.000000	80.620460
3542.000000	80.551762
3541.000000	80.479595
3540.000000	80.410426
3539.000000	80.349372
3538.000000	80.294124
3537.000000	80.236106
3536.000000	80.171208
3535.000000	80.104208
3534.000000	80.042180
3533.000000	79.987057
3532.000000	79.935777
3531.000000	79.885873
3530.000000	79.836198
3529.000000	79.786546
3528.000000	79.738726
3527.000000	79.696838
3526.000000	79.662215
3525.000000	79.628919
3524.000000	79.587697
3523.000000	79.535473
3522.000000	79.478853
3521.000000	79.427198
3520.000000	79.384075
3519.000000	79.345205
3518.000000	79.305197
3517.000000	79.263531
3516.000000	79.222502
3515.000000	79.180662
3514.000000	79.132977
3513.000000	79.078353
3512.000000	79.022097
3511.000000	78.969413
3510.000000	78.919627
3509.000000	78.869568
3508.000000	78.819766
3507.000000	78.774203
3506.000000	78.733976
3505.000000	78.694928
3504.000000	78.651615
3503.000000	78.601767
3502.000000	78.546686
3501.000000	78.489468
3500.000000	78.432948
3499.000000	78.376915
3498.000000	78.318257
3497.000000	78.255267
3496.000000	78.190867
3495.000000	78.129035
3494.000000	78.069584
3493.000000	78.009545
3492.000000	77.948276
3491.000000	77.887947
3490.000000	77.829557
3489.000000	77.771180
3488.000000	77.709806
3487.000000	77.643562
3486.000000	77.572821
3485.000000	77.500499
3484.000000	77.431110
3483.000000	77.367169
3482.000000	77.306040
3481.000000	77.242074
3480.000000	77.171310
3479.000000	77.093838
3478.000000	77.012352
3477.000000	76.930276
3476.000000	76.850440
3475.000000	76.773837
3474.000000	76.700209
3473.000000	76.629872
3472.000000	76.563420
3471.000000	76.498369
3470.000000	76.428377
3469.000000	76.348177
3468.000000	76.257883
3467.000000	76.161569
3466.000000	76.064025
3465.000000	75.969593
3464.000000	75.881610
3463.000000	75.799955
3462.000000	75.720186
3461.000000	75.637080
3460.000000	75.548402
3459.000000	75.454694
3458.000000	75.357189
3457.000000	75.257302
3456.000000	75.157198
3455.000000	75.058293
3454.000000	74.960233
3453.000000	74.862051
3452.000000	74.764100
3451.000000	74.668348
3450.000000	74.575528
3449.000000	74.483141
3448.000000	74.387032
3447.000000	74.285219
3446.000000	74.179618
3445.000000	74.073347
3444.000000	73.966668
3443.000000	73.857165
3442.000000	73.744370
3441.000000	73.632492
3440.000000	73.526592
3439.000000	73.426275
3438.000000	73.325294
3437.000000	73.217044
3436.000000	73.099249
3435.000000	72.973431
3434.000000	72.842641
3433.000000	72.710188
3432.000000	72.577849
3431.000000	72.444309
3430.000000	72.305666
3429.000000	72.159689
3428.000000	72.008731
3427.000000	71.857164
3426.000000	71.707465
3425.000000	71.560016
3424.000000	71.414821
3423.000000	71.270560
3422.000000	71.123128
3421.000000	70.968092
3420.000000	70.804498
3419.000000	70.634423
3418.000000	70.459987
3417.000000	70.282697
3416.000000	70.104203
3415.000000	69.925039
3414.000000	69.743106
3413.000000	69.556181
3412.000000	69.364955
3411.000000	69.171270
3410.000000	68.974092
3409.000000	68.769944
3408.000000	68.557330
3407.000000	68.338098
3406.000000	68.115057
3405.000000	67.890388
3404.000000	67.665129
3403.000000	67.437104
3402.000000	67.200071
3401.000000	66.948260
3400.000000	66.682005
3399.000000	66.406988
3398.000000	66.128918
3397.000000	65.850792
3396.000000	65.573034
3395.000000	65.292819
3394.000000	65.003173
3393.000000	64.696358
3392.000000	64.369295
3391.000000	64.024916
3390.000000	63.669719
3389.000000	63.310344
3388.000000	62.951000
3387.000000	62.591422
3386.000000	62.227632
3385.000000	61.856436
3384.000000	61.477534
3383.000000	61.090799
3382.000000	60.693736
3381.000000	60.283508
3380.000000	59.859947
3379.000000	59.424502
3378.000000	58.978040
3377.000000	58.521626
3376.000000	58.057460
3375.000000	57.587939
3374.000000	57.114536
3373.000000	56.638007
3372.000000	56.157554
3371.000000	55.668350
3370.000000	55.163440
3369.000000	54.639010
3368.000000	54.096443
3367.000000	53.539336
3366.000000	52.971018
3365.000000	52.395727
3364.000000	51.817683
3363.000000	51.237211
3362.000000	50.650675
3361.000000	50.055256
3360.000000	49.451730
3359.000000	48.841521
3358.000000	48.223879
3357.000000	47.597939
3356.000000	46.964219
3355.000000	46.323301
3354.000000	45.674877
3353.000000	45.018896
3352.000000	44.355822
3351.000000	43.685425
3350.000000	43.008364
3349.000000	42.328833
3348.000000	41.651936
3347.000000	40.978173
3346.000000	40.303349
3345.000000	39.624133
3344.000000	38.940680
3343.000000	38.254049
3342.000000	37.565043
3341.000000	36.875623
3340.000000	36.187726
3339.000000	35.500702
3338.000000	34.813449
3337.000000	34.128804
3336.000000	33.451693
3335.000000	32.783166
3334.000000	32.120376
3333.000000	31.462092
3332.000000	30.809573
3331.000000	30.162724
3330.000000	29.519941
3329.000000	28.881749
3328.000000	28.250692
3327.000000	27.627464
3326.000000	27.011957
3325.000000	26.407489
3324.000000	25.818823
3323.000000	25.246515
3322.000000	24.687169
3321.000000	24.139231
3320.000000	23.604235
3319.000000	23.082166
3318.000000	22.571720
3317.000000	22.074059
3316.000000	21.592132
3315.000000	21.126587
3314.000000	20.675960
3313.000000	20.240930
3312.000000	19.823255
3311.000000	19.421414
3310.000000	19.032851
3309.000000	18.658840
3308.000000	18.303618
3307.000000	17.968905
3306.000000	17.653863
3305.000000	17.360031
3304.000000	17.089425
3303.000000	16.839710
3302.000000	16.605522
3301.000000	16.384117
3300.000000	16.175979
3299.000000	15.980146
3298.000000	15.794696
3297.000000	15.620922
3296.000000	15.461672
3295.000000	15.316894
3294.000000	15.184350
3293.000000	15.064413
3292.000000	14.959573
3291.000000	14.869118
3290.000000	14.789782
3289.000000	14.719689
3288.000000	14.658311
3287.000000	14.603773
3286.000000	14.554036
3285.000000	14.510455
3284.000000	14.475222
3283.000000	14.447019
3282.000000	14.423027
3281.000000	14.403423
3280.000000	14.390030
3279.000000	14.381653
3278.000000	14.375450
3277.000000	14.371638
3276.000000	14.372296
3275.000000	14.377010
3274.000000	14.383694
3273.000000	14.392730
3272.000000	14.406503
3271.000000	14.425838
3270.000000	14.450549
3269.000000	14.481482
3268.000000	14.518143
3267.000000	14.556479
3266.000000	14.592809
3265.000000	14.628434
3264.000000	14.666643
3263.000000	14.707098
3262.000000	14.747445
3261.000000	14.788006
3260.000000	14.830518
3259.000000	14.874052
3258.000000	14.916653
3257.000000	14.959573
3256.000000	15.005528
3255.000000	15.054439
3254.000000	15.104591
3253.000000	15.156183
3252.000000	15.209750
3251.000000	15.262938
3250.000000	15.312995
3249.000000	15.361024
3248.000000	15.410088
3247.000000	15.460977
3246.000000	15.513219
3245.000000	15.567906
3244.000000	15.625497
3243.000000	15.682912
3242.000000	15.736931
3241.000000	15.788553
3240.000000	15.840416
3239.000000	15.891960
3238.000000	15.941082
3237.000000	15.988182
3236.000000	16.034742
3235.000000	16.080173
3234.000000	16.124042
3233.000000	16.169122
3232.000000	16.217948
3231.000000	16.268286
3230.000000	16.315997
3229.000000	16.360397
3228.000000	16.402994
3227.000000	16.443342
3226.000000	16.480273
3225.000000	16.515240
3224.000000	16.550185
3223.000000	16.583942
3222.000000	16.614397
3221.000000	16.642319
3220.000000	16.669359
3219.000000	16.694334
3218.000000	16.715427
3217.000000	16.733819
3216.000000	16.751294
3215.000000	16.766577
3214.000000	16.777752
3213.000000	16.786243
3212.000000	16.794340
3211.000000	16.800987
3210.000000	16.803944
3209.000000	16.803749
3208.000000	16.801905
3207.000000	16.797258
3206.000000	16.787983
3205.000000	16.775310
3204.000000	16.761368
3203.000000	16.745581
3202.000000	16.726694
3201.000000	16.706066
3200.000000	16.685394
3199.000000	16.663269
3198.000000	16.637755
3197.000000	16.610042
3196.000000	16.581963
3195.000000	16.552410
3194.000000	16.519769
3193.000000	16.485446
3192.000000	16.451373
3191.000000	16.416363
3190.000000	16.378824
3189.000000	16.340508
3188.000000	16.303864
3187.000000	16.268050
3186.000000	16.231251
3185.000000	16.194577
3184.000000	16.159893
3183.000000	16.126238
3182.000000	16.092083
3181.000000	16.058778
3180.000000	16.028140
3179.000000	15.999125
3178.000000	15.970311
3177.000000	15.943130
3176.000000	15.919255
3175.000000	15.897361
3174.000000	15.875994
3173.000000	15.856892
3172.000000	15.841936
3171.000000	15.829696
3170.000000	15.818413
3169.000000	15.809663
3168.000000	15.805499
3167.000000	15.804627
3166.000000	15.805224
3165.000000	15.808617
3164.000000	15.816543
3163.000000	15.827622
3162.000000	15.840002
3161.000000	15.854985
3160.000000	15.874362
3159.000000	15.896957
3158.000000	15.921343
3157.000000	15.948866
3156.000000	15.980727
3155.000000	16.014963
3154.000000	16.050055
3153.000000	16.088915
3152.000000	16.135255
3151.000000	16.188721
3150.000000	16.246740
3149.000000	16.308423
3148.000000	16.373497
3147.000000	16.440112
3146.000000	16.507555
3145.000000	16.578497
3144.000000	16.655094
3143.000000	16.735578
3142.000000	16.817525
3141.000000	16.901994
3140.000000	16.991276
3139.000000	17.085175
3138.000000	17.182862
3137.000000	17.285292
3136.000000	17.392777
3135.000000	17.503015
3134.000000	17.614451
3133.000000	17.728975
3132.000000	17.848163
3131.000000	17.970220
3130.000000	18.093768
3129.000000	18.221082
3128.000000	18.354384
3127.000000	18.491867
3126.000000	18.630792
3125.000000	18.771473
3124.000000	18.914758
3123.000000	19.058920
3122.000000	19.202507
3121.000000	19.347631
3120.000000	19.497263
3119.000000	19.651550
3118.000000	19.809901
3117.000000	19.973747
3116.000000	20.143989
3115.000000	20.318519
3114.000000	20.495044
3113.000000	20.673850
3112.000000	20.855046
3111.000000	21.036222
3110.000000	21.215985
3109.000000	21.396839
3108.000000	21.581755
3107.000000	21.770524
3106.000000	21.961990
3105.000000	22.157019
3104.000000	22.356236
3103.000000	22.557673
3102.000000	22.759375
3101.000000	22.961924
3100.000000	23.166308
3099.000000	23.371687
3098.000000	23.577673
3097.000000	23.785994
3096.000000	23.997440
3095.000000	24.210012
3094.000000	24.422232
3093.000000	24.635520
3092.000000	24.851138
3091.000000	25.067828
3090.000000	25.284869
3089.000000	25.504232
3088.000000	25.726972
3087.000000	25.950343
3086.000000	26.171236
3085.000000	26.390095
3084.000000	26.608944
3083.000000	26.828103
3082.000000	27.047373
3081.000000	27.267916
3080.000000	27.490504
3079.000000	27.714006
3078.000000	27.937846
3077.000000	28.163539
3076.000000	28.391658
3075.000000	28.619738
3074.000000	28.845317
3073.000000	29.068718
3072.000000	29.290969
3071.000000	29.511538
3070.000000	29.730090
3069.000000	29.948144
3068.000000	30.167043
3067.000000	30.386476
3066.000000	30.606529
3065.000000	30.828591
3064.000000	31.052474
3063.000000	31.275297
3062.000000	31.495028
3061.000000	31.712666
3060.000000	31.929319
3059.000000	32.143907
3058.000000	32.355715
3057.000000	32.566503
3056.000000	32.778025
3055.000000	32.989731
3054.000000	33.200795
3053.000000	33.411975
3052.000000	33.623541
3051.000000	33.833945
3050.000000	34.042403
3049.000000	34.250327
3048.000000	34.458308
3047.000000	34.664105
3046.000000	34.865863
3045.000000	35.064908
3044.000000	35.263261
3043.000000	35.460826
3042.000000	35.657244
3041.000000	35.854271
3040.000000	36.053728
3039.000000	36.254805
3038.000000	36.455483
3037.000000	36.654692
3036.000000	36.851433
3035.000000	37.044016
3034.000000	37.232432
3033.000000	37.419614
3032.000000	37.608021
3031.000000	37.796765
3030.000000	37.984125
3029.000000	38.170781
3028.000000	38.358307
3027.000000	38.546274
3026.000000	38.733214
3025.000000	38.918927
3024.000000	39.103754
3023.000000	39.286984
3022.000000	39.467831
3021.000000	39.646787
3020.000000	39.824597
3019.000000	40.001220
3018.000000	40.177096
3017.000000	40.353741
3016.000000	40.531629
3015.000000	40.709106
3014.000000	40.884715
3013.000000	41.059021
3012.000000	41.232734
3011.000000	41.404926
3010.000000	41.574727
3009.000000	41.742996
3008.000000	41.910705
3007.000000	42.077322
3006.000000	42.242373
3005.000000	42.406951
3004.000000	42.572118
3003.000000	42.737363
3002.000000	42.902157
3001.000000	43.067223
3000.000000	43.232587
2999.000000	43.396004
2998.000000	43.555395
2997.000000	43.711693
2996.000000	43.867304
2995.000000	44.022846
2994.000000	44.177267
2993.000000	44.330312
2992.000000	44.483120
2991.000000	44.636896
2990.000000	44.792307
2989.000000	44.949466
2988.000000	45.107281
2987.000000	45.263620
2986.000000	45.417115
2985.000000	45.568075
2984.000000	45.716861
2983.000000	45.862709
2982.000000	46.005300
2981.000000	46.146144
2980.000000	46.287249
2979.000000	46.429526
2978.000000	46.573369
2977.000000	46.719307
2976.000000	46.866602
2975.000000	47.012583
2974.000000	47.154914
2973.000000	47.293620
2972.000000	47.429856
2971.000000	47.563875
2970.000000	47.695679
2969.000000	47.826547
2968.000000	47.958285
2967.000000	48.091794
2966.000000	48.227426
2965.000000	48.365740
2964.000000	48.506441
2963.000000	48.647512
2962.000000	48.786795
2961.000000	48.923563
2960.000000	49.057524
2959.000000	49.187689
2958.000000	49.313693
2957.000000	49.437201
2956.000000	49.560293
2955.000000	49.683280
2954.000000	49.805468
2953.000000	49.927254
2952.000000	50.050154
2951.000000	50.175212
2950.000000	50.302275
2949.000000	50.430008
2948.000000	50.555792
2947.000000	50.676703
2946.000000	50.791726
2945.000000	50.902391
2944.000000	51.010887
2943.000000	51.118695
2942.000000	51.227522
2941.000000	51.339627
2940.000000	51.455796
2939.000000	51.574286
2938.000000	51.692874
2937.000000	51.810732
2936.000000	51.927259
2935.000000	52.040825
2934.000000	52.150343
2933.000000	52.256675
2932.000000	52.360794
2931.000000	52.462006
2930.000000	52.560100
2929.000000	52.658220
2928.000000	52.761371
2927.000000	52.872423
2926.000000	52.990974
2925.000000	53.114994
2924.000000	53.241541
2923.000000	53.366571
2922.000000	53.486174
2921.000000	53.598146
2920.000000	53.701237
2919.000000	53.793889
2918.000000	53.875499
2917.000000	53.948308
2916.000000	54.016240
2915.000000	54.081884
2914.000000	54.146052
2913.000000	54.209733
2912.000000	54.274914
2911.000000	54.343204
2910.000000	54.414895
2909.000000	54.489491
2908.000000	54.566074
2907.000000	54.643034
2906.000000	54.718586
2905.000000	54.792018
2904.000000	54.864337
2903.000000	54.937264
2902.000000	55.013383
2901.000000	55.094910
2900.000000	55.182898
2899.000000	55.276664
2898.000000	55.373387
2897.000000	55.468845
2896.000000	55.558546
2895.000000	55.639632
2894.000000	55.712300
2893.000000	55.779145
2892.000000	55.842735
2891.000000	55.904427
2890.000000	55.965453
2889.000000	56.027837
2888.000000	56.093295
2887.000000	56.161946
2886.000000	56.232727
2885.000000	56.304245
2884.000000	56.374532
2883.000000	56.440943
2882.000000	56.501579
2881.000000	56.556571
2880.000000	56.607536
2879.000000	56.656757
2878.000000	56.707786
2877.000000	56.765730
2876.000000	56.834835
2875.000000	56.915346
2874.000000	57.003816
2873.000000	57.096564
2872.000000	57.192178
2871.000000	57.290789
2870.000000	57.391950
2869.000000	57.493701
2868.000000	57.593228
2867.000000	57.688330
2866.000000	57.778789
2865.000000	57.866865
2864.000000	57.956397
2863.000000	58.050876
2862.000000	58.151729
2861.000000	58.257659
2860.000000	58.365485
2859.000000	58.472109
2858.000000	58.576081
2857.000000	58.677356
2856.000000	58.775953
2855.000000	58.871614
2854.000000	58.964804
2853.000000	59.057127
2852.000000	59.150104
2851.000000	59.243557
2850.000000	59.335171
2849.000000	59.421364
2848.000000	59.499082
2847.000000	59.568025
2846.000000	59.631410
2845.000000	59.693906
2844.000000	59.758654
2843.000000	59.826462
2842.000000	59.896942
2841.000000	59.968547
2840.000000	60.037626
2839.000000	60.100171
2838.000000	60.156394
2837.000000	60.212377
2836.000000	60.275658
2835.000000	60.349562
2834.000000	60.432290
2833.000000	60.520031
2832.000000	60.609110
2831.000000	60.695824
2830.000000	60.776665
2829.000000	60.849774
2828.000000	60.915598
2827.000000	60.976107
2826.000000	61.034066
2825.000000	61.092895
2824.000000	61.156040
2823.000000	61.225901
2822.000000	61.303397
2821.000000	61.388065
2820.000000	61.477682
2819.000000	61.568058
2818.000000	61.654298
2817.000000	61.732822
2816.000000	61.802237
2815.000000	61.863095
2814.000000	61.917876
2813.000000	61.970739
2812.000000	62.025863
2811.000000	62.085533
2810.000000	62.150360
2809.000000	62.220936
2808.000000	62.297844
2807.000000	62.379716
2806.000000	62.462453
2805.000000	62.541117
2804.000000	62.612274
2803.000000	62.674584
2802.000000	62.728440
2801.000000	62.775879
2800.000000	62.820229
2799.000000	62.865089
2798.000000	62.913721
2797.000000	62.969052
2796.000000	63.033061
2795.000000	63.105394
2794.000000	63.182957
2793.000000	63.261221
2792.000000	63.335622
2791.000000	63.401979
2790.000000	63.457178
2789.000000	63.500983
2788.000000	63.537048
2787.000000	63.571253
2786.000000	63.608887
2785.000000	63.653265
2784.000000	63.705956
2783.000000	63.767049
2782.000000	63.834992
2781.000000	63.906728
2780.000000	63.978329
2779.000000	64.045662
2778.000000	64.105001
2777.000000	64.153877
2776.000000	64.191979
2775.000000	64.221440
2774.000000	64.246465
2773.000000	64.272308
2772.000000	64.303475
2771.000000	64.342138
2770.000000	64.387951
2769.000000	64.438928
2768.000000	64.491907
2767.000000	64.542378
2766.000000	64.585259
2765.000000	64.616899
2764.000000	64.636519
2763.000000	64.645888
2762.000000	64.648145
2761.000000	64.647284
2760.000000	64.647812
2759.000000	64.653680
2758.000000	64.667252
2757.000000	64.688983
2756.000000	64.717453
2755.000000	64.749501
2754.000000	64.780879
2753.000000	64.807440
2752.000000	64.825948
2751.000000	64.834405
2750.000000	64.832704
2749.000000	64.823417
2748.000000	64.811407
2747.000000	64.802071
2746.000000	64.799799
2745.000000	64.807302
2744.000000	64.824919
2743.000000	64.850052
2742.000000	64.878261
2741.000000	64.905579
2740.000000	64.929541
2739.000000	64.948494
2738.000000	64.961478
2737.000000	64.969767
2736.000000	64.977682
2735.000000	64.990855
2734.000000	65.013951
2733.000000	65.049917
2732.000000	65.100321
2731.000000	65.165097
2730.000000	65.241792
2729.000000	65.325718
2728.000000	65.410704
2727.000000	65.490204
2726.000000	65.559368
2725.000000	65.617185
2724.000000	65.666562
2723.000000	65.711965
2722.000000	65.757363
2721.000000	65.806324
2720.000000	65.862360
2719.000000	65.927491
2718.000000	66.000569
2717.000000	66.077723
2716.000000	66.154118
2715.000000	66.225017
2714.000000	66.286160
2713.000000	66.334784
2712.000000	66.370662
2711.000000	66.395739
2710.000000	66.413426
2709.000000	66.428435
2708.000000	66.446195
2707.000000	66.470948
2706.000000	66.503816
2705.000000	66.542989
2704.000000	66.585049
2703.000000	66.625619
2702.000000	66.659867
2701.000000	66.683747
2700.000000	66.695300
2699.000000	66.694583
2698.000000	66.683293
2697.000000	66.665322
2696.000000	66.646507
2695.000000	66.632509
2694.000000	66.626588
2693.000000	66.629288
2692.000000	66.639211
2691.000000	66.653084
2690.000000	66.665978
2689.000000	66.672896
2688.000000	66.670380
2687.000000	66.656682
2686.000000	66.631623
2685.000000	66.597598
2684.000000	66.559954
2683.000000	66.524778
2682.000000	66.496309
2681.000000	66.476624
2680.000000	66.466521
2679.000000	66.465123
2678.000000	66.469000
2677.000000	66.473136
2676.000000	66.473109
2675.000000	66.466051
2674.000000	66.450476
2673.000000	66.426894
2672.000000	66.398664
2671.000000	66.371277
2670.000000	66.350417
2669.000000	66.340657
2668.000000	66.344961
2667.000000	66.363688
2666.000000	66.394079
2665.000000	66.431452
2664.000000	66.470844
2663.000000	66.507719
2662.000000	66.538033
2661.000000	66.559360
2660.000000	66.572417
2659.000000	66.580746
2658.000000	66.589145
2657.000000	66.602578
2656.000000	66.625692
2655.000000	66.661808
2654.000000	66.711653
2653.000000	66.773470
2652.000000	66.843691
2651.000000	66.917164
2650.000000	66.987940
2649.000000	67.051359
2648.000000	67.106142
2647.000000	67.154097
2646.000000	67.198341
2645.000000	67.242700
2644.000000	67.291812
2643.000000	67.350001
2642.000000	67.419250
2641.000000	67.498509
2640.000000	67.584583
2639.000000	67.672792
2638.000000	67.757352
2637.000000	67.832696
2636.000000	67.895176
2635.000000	67.943436
2634.000000	67.978167
2633.000000	68.002466
2632.000000	68.021946
2631.000000	68.043039
2630.000000	68.070319
2629.000000	68.105794
2628.000000	68.149548
2627.000000	68.199540
2626.000000	68.251183
2625.000000	68.298543
2624.000000	68.336759
2623.000000	68.362983
2622.000000	68.376001
2621.000000	68.376773
2620.000000	68.369159
2619.000000	68.358894
2618.000000	68.351274
2617.000000	68.350001
2616.000000	68.357469
2615.000000	68.374217
2614.000000	68.397782
2613.000000	68.423104
2612.000000	68.444444
2611.000000	68.456909
2610.000000	68.456904
2609.000000	68.442935
2608.000000	68.416463
2607.000000	68.381246
2606.000000	68.342119
2605.000000	68.304376
2604.000000	68.273176
2603.000000	68.251871
2602.000000	68.240421
2601.000000	68.236058
2600.000000	68.235041
2599.000000	68.233214
2598.000000	68.226059
2597.000000	68.210227
2596.000000	68.185442
2595.000000	68.154325
2594.000000	68.120797
2593.000000	68.089432
2592.000000	68.065618
2591.000000	68.054258
2590.000000	68.057810
2589.000000	68.075917
2588.000000	68.106200
2587.000000	68.144885
2586.000000	68.186921
2585.000000	68.227259
2584.000000	68.262758
2583.000000	68.292367
2582.000000	68.316566
2581.000000	68.337585
2580.000000	68.359789
2579.000000	68.388432
2578.000000	68.427314
2577.000000	68.478175
2576.000000	68.541213
2575.000000	68.614893
2574.000000	68.695569
2573.000000	68.778342
2572.000000	68.859110
2571.000000	68.935330
2570.000000	69.005716
2569.000000	69.070815
2568.000000	69.133497
2567.000000	69.197737
2566.000000	69.266638
2565.000000	69.342130
2564.000000	69.425691
2563.000000	69.517485
2562.000000	69.614816
2561.000000	69.712735
2560.000000	69.806323
2559.000000	69.891698
2558.000000	69.965774
2557.000000	70.026966
2556.000000	70.076641
2555.000000	70.118871
2554.000000	70.158460
2553.000000	70.200128
2552.000000	70.248420
2551.000000	70.306215
2550.000000	70.373055
2549.000000	70.445866
2548.000000	70.521165
2547.000000	70.595491
2546.000000	70.664644
2545.000000	70.724888
2544.000000	70.775292
2543.000000	70.817721
2542.000000	70.854566
2541.000000	70.887865
2540.000000	70.920406
2539.000000	70.955305
2538.000000	70.994068
2537.000000	71.036039
2536.000000	71.079350
2535.000000	71.121189
2534.000000	71.157090
2533.000000	71.182229
2532.000000	71.194147
2531.000000	71.193176
2530.000000	71.181098
2529.000000	71.160650
2528.000000	71.136321
2527.000000	71.113802
2526.000000	71.097976
2525.000000	71.092311
2524.000000	71.099381
2523.000000	71.120028
2522.000000	71.151918
2521.000000	71.190829
2520.000000	71.233245
2519.000000	71.277151
2518.000000	71.320954
2517.000000	71.363353
2516.000000	71.404837
2515.000000	71.447355
2514.000000	71.492520
2513.000000	71.541193
2512.000000	71.594193
2511.000000	71.651758
2510.000000	71.712067
2509.000000	71.771810
2508.000000	71.828332
2507.000000	71.880095
2506.000000	71.925559
2505.000000	71.963643
2504.000000	71.995343
2503.000000	72.023329
2502.000000	72.050109
2501.000000	72.077593
2500.000000	72.107917
2499.000000	72.142584
2498.000000	72.180701
2497.000000	72.219731
2496.000000	72.257731
2495.000000	72.293534
2494.000000	72.325302
2493.000000	72.350993
2492.000000	72.370523
2491.000000	72.385753
2490.000000	72.398593
2489.000000	72.410684
2488.000000	72.424381
2487.000000	72.442020
2486.000000	72.463929
2485.000000	72.488609
2484.000000	72.514663
2483.000000	72.540903
2482.000000	72.565167
2481.000000	72.585073
2480.000000	72.600036
2479.000000	72.611076
2478.000000	72.619058
2477.000000	72.625023
2476.000000	72.631619
2475.000000	72.641890
2474.000000	72.656575
2473.000000	72.674221
2472.000000	72.693561
2471.000000	72.713902
2470.000000	72.733564
2469.000000	72.750283
2468.000000	72.763275
2467.000000	72.773222
2466.000000	72.780453
2465.000000	72.785130
2464.000000	72.789027
2463.000000	72.794935
2462.000000	72.804201
2461.000000	72.816463
2460.000000	72.831459
2459.000000	72.849060
2458.000000	72.867662
2457.000000	72.884633
2456.000000	72.898490
2455.000000	72.909062
2454.000000	72.915983
2453.000000	72.919139
2452.000000	72.920525
2451.000000	72.923555
2450.000000	72.930317
2449.000000	72.940941
2448.000000	72.955164
2447.000000	72.972509
2446.000000	72.991131
2445.000000	73.008509
2444.000000	73.023336
2443.000000	73.035308
2442.000000	73.043642
2441.000000	73.047820
2440.000000	73.049513
2439.000000	73.051775
2438.000000	73.056544
2437.000000	73.064480
2436.000000	73.076493
2435.000000	73.093137
2434.000000	73.112702
2433.000000	73.132026
2432.000000	73.149183
2431.000000	73.163687
2430.000000	73.174690
2429.000000	73.181248
2428.000000	73.184192
2427.000000	73.185821
2426.000000	73.187998
2425.000000	73.192189
2424.000000	73.200621
2423.000000	73.215045
2422.000000	73.234488
2421.000000	73.255988
2420.000000	73.277151
2419.000000	73.296339
2418.000000	73.311344
2417.000000	73.320340
2416.000000	73.323995
2415.000000	73.324755
2414.000000	73.324552
2413.000000	73.325014
2412.000000	73.328950
2411.000000	73.339136
2410.000000	73.355879
2409.000000	73.377457
2408.000000	73.402055
2407.000000	73.427317
2406.000000	73.449164
2405.000000	73.463851
2404.000000	73.471069
2403.000000	73.473199
2402.000000	73.472453
2401.000000	73.470909
2400.000000	73.472065
2399.000000	73.479458
2398.000000	73.493995
2397.000000	73.514572
2396.000000	73.540275
2395.000000	73.569661
2394.000000	73.598963
2393.000000	73.623940
2392.000000	73.643028
2391.000000	73.656845
2390.000000	73.666052
2389.000000	73.671913
2388.000000	73.678839
2387.000000	73.692320
2386.000000	73.715549
2385.000000	73.750041
2384.000000	73.796406
2383.000000	73.853840
2382.000000	73.917176
2381.000000	73.979222
2380.000000	74.035583
2379.000000	74.083291
2378.000000	74.119355
2377.000000	74.142131
2376.000000	74.154186
2375.000000	74.161230
2374.000000	74.169435
2373.000000	74.185556
2372.000000	74.216121
2371.000000	74.262734
2370.000000	74.318729
2369.000000	74.376954
2368.000000	74.433624
2367.000000	74.485257
2366.000000	74.527109
2365.000000	74.557408
2364.000000	74.582252
2363.000000	74.604432
2362.000000	74.623606
2361.000000	74.644809
2360.000000	74.672903
2359.000000	74.713954
2358.000000	74.763576
2357.000000	74.815123
2356.000000	74.865017
2355.000000	74.906872
2354.000000	74.940834
2353.000000	74.969249
2352.000000	75.003908
2351.000000	75.048677
2350.000000	75.090114
2349.000000	75.119282
2348.000000	75.140121
2347.000000	75.174941
2346.000000	75.225942
2345.000000	75.277025
2344.000000	75.318949
2343.000000	75.353522
2342.000000	75.392649
2341.000000	75.432461
2340.000000	75.466677
2339.000000	75.490657
2338.000000	75.508456
2337.000000	75.523995
2336.000000	75.543961
2335.000000	75.573076
2334.000000	75.617612
2333.000000	75.672584
2332.000000	75.731660
2331.000000	75.790089
2330.000000	75.845103
2329.000000	75.898831
2328.000000	75.944498
2327.000000	75.984011
2326.000000	76.014570
2325.000000	76.035476
2324.000000	76.048785
2323.000000	76.057683
2322.000000	76.070560
2321.000000	76.087748
2320.000000	76.114950
2319.000000	76.155015
2318.000000	76.210393
2317.000000	76.273952
2316.000000	76.336676
2315.000000	76.391536
2314.000000	76.433492
2313.000000	76.459977
2312.000000	76.472144
2311.000000	76.478385
2310.000000	76.486593
2309.000000	76.502253
2308.000000	76.528060
2307.000000	76.567100
2306.000000	76.618865
2305.000000	76.677541
2304.000000	76.736459
2303.000000	76.790509
2302.000000	76.835530
2301.000000	76.867392
2300.000000	76.885632
2299.000000	76.895534
2298.000000	76.902585
2297.000000	76.911522
2296.000000	76.926253
2295.000000	76.952230
2294.000000	76.990558
2293.000000	77.038121
2292.000000	77.089822
2291.000000	77.141997
2290.000000	77.189342
2289.000000	77.225520
2288.000000	77.247552
2287.000000	77.258058
2286.000000	77.261676
2285.000000	77.262322
2284.000000	77.265709
2283.000000	77.278846
2282.000000	77.305765
2281.000000	77.344754
2280.000000	77.392156
2279.000000	77.444369
2278.000000	77.496244
2277.000000	77.540622
2276.000000	77.572678
2275.000000	77.592007
2274.000000	77.599913
2273.000000	77.598538
2272.000000	77.593170
2271.000000	77.591934
2270.000000	77.600609
2269.000000	77.620319
2268.000000	77.650424
2267.000000	77.689747
2266.000000	77.733674
2265.000000	77.774430
2264.000000	77.805746
2263.000000	77.825637
2262.000000	77.833477
2261.000000	77.829151
2260.000000	77.816225
2259.000000	77.801830
2258.000000	77.792147
2257.000000	77.789674
2256.000000	77.796224
2255.000000	77.813231
2254.000000	77.838316
2253.000000	77.864565
2252.000000	77.885173
2251.000000	77.896031
2250.000000	77.893860
2249.000000	77.875849
2248.000000	77.843617
2247.000000	77.803824
2246.000000	77.762607
2245.000000	77.723442
2244.000000	77.689656
2243.000000	77.665014
2242.000000	77.649782
2241.000000	77.639822
2240.000000	77.630621
2239.000000	77.619146
2238.000000	77.601328
2237.000000	77.572359
2236.000000	77.531557
2235.000000	77.483630
2234.000000	77.434052
2233.000000	77.386431
2232.000000	77.344910
2231.000000	77.314470
2230.000000	77.296718
2229.000000	77.288406
2228.000000	77.285249
2227.000000	77.283922
2226.000000	77.279599
2225.000000	77.265959
2224.000000	77.239836
2223.000000	77.203115
2222.000000	77.159140
2221.000000	77.110810
2220.000000	77.063019
2219.000000	77.022730
2218.000000	76.994402
2217.000000	76.977852
2216.000000	76.971232
2215.000000	76.972492
2214.000000	76.976971
2213.000000	76.977674
2212.000000	76.969989
2211.000000	76.953576
2210.000000	76.929238
2209.000000	76.897816
2208.000000	76.863195
2207.000000	76.832351
2206.000000	76.810493
2205.000000	76.798814
2204.000000	76.797357
2203.000000	76.805970
2202.000000	76.821131
2201.000000	76.835720
2200.000000	76.843922
2199.000000	76.843685
2198.000000	76.834023
2197.000000	76.814198
2196.000000	76.787061
2195.000000	76.759347
2194.000000	76.736767
2193.000000	76.721516
2192.000000	76.715019
2191.000000	76.718872
2190.000000	76.731437
2189.000000	76.746989
2188.000000	76.759950
2187.000000	76.767246
2186.000000	76.766021
2185.000000	76.753421
2184.000000	76.730406
2183.000000	76.702495
2182.000000	76.675285
2181.000000	76.652159
2180.000000	76.636592
2179.000000	76.632279
2178.000000	76.639123
2177.000000	76.652311
2176.000000	76.666687
2175.000000	76.679056
2174.000000	76.685797
2173.000000	76.682640
2172.000000	76.668813
2171.000000	76.648071
2170.000000	76.624568
2169.000000	76.601048
2168.000000	76.581550
2167.000000	76.571451
2166.000000	76.572861
2165.000000	76.582933
2164.000000	76.597634
2163.000000	76.613821
2162.000000	76.627043
2161.000000	76.631819
2160.000000	76.626166
2159.000000	76.612767
2158.000000	76.594802
2157.000000	76.574298
2156.000000	76.555204
2155.000000	76.543496
2154.000000	76.542252
2153.000000	76.549885
2152.000000	76.563968
2151.000000	76.582824
2150.000000	76.602479
2149.000000	76.616488
2148.000000	76.620883
2147.000000	76.616308
2146.000000	76.604466
2145.000000	76.586472
2144.000000	76.566230
2143.000000	76.550767
2142.000000	76.544842
2141.000000	76.548526
2140.000000	76.560724
2139.000000	76.580638
2138.000000	76.604428
2137.000000	76.625104
2136.000000	76.638045
2135.000000	76.643389
2134.000000	76.642033
2133.000000	76.633833
2132.000000	76.621299
2131.000000	76.610607
2130.000000	76.606683
2129.000000	76.610577
2128.000000	76.622492
2127.000000	76.643092
2126.000000	76.670058
2125.000000	76.697403
2124.000000	76.720379
2123.000000	76.737769
2122.000000	76.748439
2121.000000	76.750324
2120.000000	76.744854
2119.000000	76.738091
2118.000000	76.735381
2117.000000	76.738374
2116.000000	76.748254
2115.000000	76.767249
2114.000000	76.794833
2113.000000	76.826277
2112.000000	76.856994
2111.000000	76.884851
2110.000000	76.907303
2109.000000	76.921080
2108.000000	76.926672
2107.000000	76.929151
2106.000000	76.933039
2105.000000	76.940396
2104.000000	76.954368
2103.000000	76.979541
2102.000000	77.016601
2101.000000	77.060584
2100.000000	77.106572
2099.000000	77.152386
2098.000000	77.195275
2097.000000	77.230752
2096.000000	77.256991
2095.000000	77.277447
2094.000000	77.296645
2093.000000	77.316851
2092.000000	77.340266
2091.000000	77.370128
2090.000000	77.407519
2089.000000	77.450391
2088.000000	77.496856
2087.000000	77.545650
2086.000000	77.592351
2085.000000	77.629927
2084.000000	77.655078
2083.000000	77.670268
2082.000000	77.678603
2081.000000	77.681278
2080.000000	77.681445
2079.000000	77.684838
2078.000000	77.694862
2077.000000	77.710491
2076.000000	77.729721
2075.000000	77.752013
2074.000000	77.774169
2073.000000	77.790175
2072.000000	77.796786
2071.000000	77.794533
2070.000000	77.784527
2069.000000	77.768302
2068.000000	77.750944
2067.000000	77.738354
2066.000000	77.731129
2065.000000	77.726818
2064.000000	77.727771
2063.000000	77.739687
2062.000000	77.761777
2061.000000	77.785305
2060.000000	77.803341
2059.000000	77.815860
2058.000000	77.823838
2057.000000	77.825680
2056.000000	77.822550
2055.000000	77.821214
2054.000000	77.827310
2053.000000	77.841678
2052.000000	77.865319
2051.000000	77.900749
2050.000000	77.946749
2049.000000	77.997860
2048.000000	78.049660
2047.000000	78.100026
2046.000000	78.146461
2045.000000	78.186799
2044.000000	78.222875
2043.000000	78.258592
2042.000000	78.294886
2041.000000	78.331906
2040.000000	78.375040
2039.000000	78.432188
2038.000000	78.504399
2037.000000	78.584946
2036.000000	78.668021
2035.000000	78.752123
2034.000000	78.834583
2033.000000	78.909654
2032.000000	78.974905
2031.000000	79.034313
2030.000000	79.091953
2029.000000	79.149867
2028.000000	79.211638
2027.000000	79.283157
2026.000000	79.366184
2025.000000	79.456861
2024.000000	79.552221
2023.000000	79.650453
2022.000000	79.748092
2021.000000	79.841107
2020.000000	79.928556
2019.000000	80.009458
2018.000000	80.078408
2017.000000	80.132227
2016.000000	80.179772
2015.000000	80.236158
2014.000000	80.307469
2013.000000	80.388810
2012.000000	80.475265
2011.000000	80.566430
2010.000000	80.659624
2009.000000	80.747550
2008.000000	80.824789
2007.000000	80.892104
2006.000000	80.950321
2005.000000	80.997911
2004.000000	81.038338
2003.000000	81.079260
2002.000000	81.127030
2001.000000	81.181097
2000.000000	81.240897
1999.000000	81.309151
1998.000000	81.381008
1997.000000	81.446926
1996.000000	81.506167
1995.000000	81.565302
1994.000000	81.621109
1993.000000	81.660124
1992.000000	81.680321
1991.000000	81.698917
1990.000000	81.728752
1989.000000	81.764662
1988.000000	81.799966
1987.000000	81.839336
1986.000000	81.888819
1985.000000	81.944581
1984.000000	81.999464
1983.000000	82.050098
1982.000000	82.094136
1981.000000	82.125409
1980.000000	82.143392
1979.000000	82.156998
1978.000000	82.170433
1977.000000	82.181160
1976.000000	82.192152
1975.000000	82.213930
1974.000000	82.248438
1973.000000	82.285953
1972.000000	82.321762
1971.000000	82.362080
1970.000000	82.408211
1969.000000	82.448620
1968.000000	82.471660
1967.000000	82.477780
1966.000000	82.475504
1965.000000	82.472636
1964.000000	82.476043
1963.000000	82.491162
1962.000000	82.515373
1961.000000	82.540910
1960.000000	82.567744
1959.000000	82.601802
1958.000000	82.640535
1957.000000	82.672451
1956.000000	82.691740
1955.000000	82.703238
1954.000000	82.709179
1953.000000	82.707785
1952.000000	82.701728
1951.000000	82.698697
1950.000000	82.705534
1949.000000	82.720213
1948.000000	82.737679
1947.000000	82.757348
1946.000000	82.779724
1945.000000	82.802575
1944.000000	82.821556
1943.000000	82.831816
1942.000000	82.832549
1941.000000	82.829412
1940.000000	82.829282
1939.000000	82.834236
1938.000000	82.839472
1937.000000	82.840861
1936.000000	82.845116
1935.000000	82.862037
1934.000000	82.887320
1933.000000	82.910240
1932.000000	82.926651
1931.000000	82.939209
1930.000000	82.951070
1929.000000	82.952523
1928.000000	82.939360
1927.000000	82.921251
1926.000000	82.913676
1925.000000	82.922610
1924.000000	82.929434
1923.000000	82.915068
1922.000000	82.885050
1921.000000	82.859833
1920.000000	82.852297
1919.000000	82.860077
1918.000000	82.874022
1917.000000	82.891102
1916.000000	82.908429
1915.000000	82.918870
1914.000000	82.915332
1913.000000	82.900522
1912.000000	82.886161
1911.000000	82.881535
1910.000000	82.884866
1909.000000	82.884237
1908.000000	82.880415
1907.000000	82.881031
1906.000000	82.886765
1905.000000	82.892092
1904.000000	82.886142
1903.000000	82.870148
1902.000000	82.852708
1901.000000	82.832722
1900.000000	82.809268
1899.000000	82.790235
1898.000000	82.785013
1897.000000	82.794475
1896.000000	82.804761
1895.000000	82.804687
1894.000000	82.797087
1893.000000	82.789552
1892.000000	82.785304
1891.000000	82.782482
1890.000000	82.773844
1889.000000	82.759192
1888.000000	82.750059
1887.000000	82.753359
1886.000000	82.762707
1885.000000	82.767067
1884.000000	82.763827
1883.000000	82.763977
1882.000000	82.776491
1881.000000	82.791097
1880.000000	82.796027
1879.000000	82.792250
1878.000000	82.781939
1877.000000	82.765134
1876.000000	82.741832
1875.000000	82.711004
1874.000000	82.670768
1873.000000	82.620202
1872.000000	82.567641
1871.000000	82.533412
1870.000000	82.530755
1869.000000	82.548660
1868.000000	82.570721
1867.000000	82.593644
1866.000000	82.612878
1865.000000	82.616602
1864.000000	82.599815
1863.000000	82.570654
1862.000000	82.540028
1861.000000	82.510855
1860.000000	82.482380
1859.000000	82.458675
1858.000000	82.444197
1857.000000	82.436085
1856.000000	82.429537
1855.000000	82.422964
1854.000000	82.416175
1853.000000	82.396223
1852.000000	82.360389
1851.000000	82.324962
1850.000000	82.286236
1849.000000	82.221478
1848.000000	82.123535
1847.000000	82.023809
1846.000000	81.958521
1845.000000	81.935602
1844.000000	81.946489
1843.000000	81.983798
1842.000000	82.025891
1841.000000	82.042923
1840.000000	82.028786
1839.000000	81.991844
1838.000000	81.941842
1837.000000	81.883521
1836.000000	81.814805
1835.000000	81.738276
1834.000000	81.656357
1833.000000	81.569888
1832.000000	81.500778
1831.000000	81.467689
1830.000000	81.447503
1829.000000	81.422194
1828.000000	81.400273
1827.000000	81.382861
1826.000000	81.351725
1825.000000	81.296581
1824.000000	81.239148
1823.000000	81.199349
1822.000000	81.163792
1821.000000	81.115486
1820.000000	81.065332
1819.000000	81.027303
1818.000000	80.998049
1817.000000	80.968913
1816.000000	80.934487
1815.000000	80.896665
1814.000000	80.847504
1813.000000	80.779247
1812.000000	80.696959
1811.000000	80.606200
1810.000000	80.521838
1809.000000	80.456389
1808.000000	80.404269
1807.000000	80.355349
1806.000000	80.307951
1805.000000	80.264355
1804.000000	80.217621
1803.000000	80.162186
1802.000000	80.091969
1801.000000	80.012670
1800.000000	79.948522
1799.000000	79.906273
1798.000000	79.865001
1797.000000	79.790875
1796.000000	79.674003
1795.000000	79.545984
1794.000000	79.447848
1793.000000	79.399829
1792.000000	79.396688
1791.000000	79.418251
1790.000000	79.440519
1789.000000	79.436099
1788.000000	79.393510
1787.000000	79.319267
1786.000000	79.226834
1785.000000	79.127587
1784.000000	79.031546
1783.000000	78.962612
1782.000000	78.919080
1781.000000	78.872824
1780.000000	78.823333
1779.000000	78.784585
1778.000000	78.749620
1777.000000	78.681404
1776.000000	78.575899
1775.000000	78.470610
1774.000000	78.375608
1773.000000	78.255302
1772.000000	78.111053
1771.000000	78.001327
1770.000000	77.948973
1769.000000	77.924808
1768.000000	77.899474
1767.000000	77.868650
1766.000000	77.829307
1765.000000	77.772498
1764.000000	77.703328
1763.000000	77.632982
1762.000000	77.552777
1761.000000	77.459309
1760.000000	77.363468
1759.000000	77.270007
1758.000000	77.174949
1757.000000	77.056488
1756.000000	76.940356
1755.000000	76.868181
1754.000000	76.825386
1753.000000	76.765507
1752.000000	76.677823
1751.000000	76.593155
1750.000000	76.526500
1749.000000	76.451047
1748.000000	76.351979
1747.000000	76.259884
1746.000000	76.170588
1745.000000	76.048174
1744.000000	75.885052
1743.000000	75.707369
1742.000000	75.549777
1741.000000	75.432355
1740.000000	75.345235
1739.000000	75.259280
1738.000000	75.154756
1737.000000	75.033436
1736.000000	74.910915
1735.000000	74.791108
1734.000000	74.667488
1733.000000	74.540434
1732.000000	74.395983
1731.000000	74.234345
1730.000000	74.077982
1729.000000	73.920528
1728.000000	73.772388
1727.000000	73.650981
1726.000000	73.534009
1725.000000	73.387732
1724.000000	73.199657
1723.000000	72.966133
1722.000000	72.697428
1721.000000	72.419541
1720.000000	72.180743
1719.000000	71.998597
1718.000000	71.821363
1717.000000	71.612929
1716.000000	71.389242
1715.000000	71.173258
1714.000000	70.990353
1713.000000	70.834327
1712.000000	70.663576
1711.000000	70.452664
1710.000000	70.198742
1709.000000	69.901684
1708.000000	69.586220
1707.000000	69.283701
1706.000000	68.981724
1705.000000	68.658403
1704.000000	68.325652
1703.000000	68.004934
1702.000000	67.683424
1701.000000	67.368660
1700.000000	67.138034
1699.000000	67.029307
1698.000000	66.969989
1697.000000	66.843152
1696.000000	66.565071
1695.000000	66.204599
1694.000000	65.871206
1693.000000	65.571204
1692.000000	65.290816
1691.000000	65.003967
1690.000000	64.694740
1689.000000	64.367840
1688.000000	64.067386
1687.000000	63.811882
1686.000000	63.549657
1685.000000	63.190547
1684.000000	62.724031
1683.000000	62.343255
1682.000000	62.108422
1681.000000	61.870052
1680.000000	61.552696
1679.000000	61.180559
1678.000000	60.810070
1677.000000	60.442794
1676.000000	60.070791
1675.000000	59.734495
1674.000000	59.453459
1673.000000	59.176711
1672.000000	58.872567
1671.000000	58.553526
1670.000000	58.235977
1669.000000	57.924716
1668.000000	57.636405
1667.000000	57.372065
1666.000000	57.101361
1665.000000	56.800015
1664.000000	56.471044
1663.000000	56.152076
1662.000000	55.876417
1661.000000	55.623275
1660.000000	55.363349
1659.000000	55.086420
1658.000000	54.780508
1657.000000	54.447553
1656.000000	54.127472
1655.000000	53.862674
1654.000000	53.607758
1653.000000	53.323993
1652.000000	53.088422
1651.000000	52.848541
1650.000000	52.562549
1649.000000	52.305672
1648.000000	52.062541
1647.000000	51.816246
1646.000000	51.603288
1645.000000	51.437611
1644.000000	51.251644
1643.000000	51.039188
1642.000000	50.816777
1641.000000	50.564981
1640.000000	50.284496
1639.000000	50.011218
1638.000000	49.771983
1637.000000	49.539928
1636.000000	49.292315
1635.000000	49.101413
1634.000000	48.998704
1633.000000	48.902796
1632.000000	48.761449
1631.000000	48.586955
1630.000000	48.402003
1629.000000	48.211526
1628.000000	48.012709
1627.000000	47.825442
1626.000000	47.662776
1625.000000	47.511913
1624.000000	47.365908
1623.000000	47.241593
1622.000000	47.149222
1621.000000	47.060341
1620.000000	46.966401
1619.000000	46.895918
1618.000000	46.858042
1617.000000	46.814338
1616.000000	46.738728
1615.000000	46.658123
1614.000000	46.592921
1613.000000	46.534840
1612.000000	46.470998
1611.000000	46.415975
1610.000000	46.388899
1609.000000	46.375375
1608.000000	46.356451
1607.000000	46.347252
1606.000000	46.362433
1605.000000	46.382483
1604.000000	46.395317
1603.000000	46.411967
1602.000000	46.437694
1601.000000	46.457442
1600.000000	46.464583
1599.000000	46.475573
1598.000000	46.499777
1597.000000	46.525763
1596.000000	46.545645
1595.000000	46.571907
1594.000000	46.615322
1593.000000	46.664790
1592.000000	46.708480
1591.000000	46.752947
1590.000000	46.803433
1589.000000	46.846273
1588.000000	46.871921
1587.000000	46.891874
1586.000000	46.919655
1585.000000	46.942496
1584.000000	46.952009
1583.000000	46.969513
1582.000000	47.001169
1581.000000	47.023915
1580.000000	47.035015
1579.000000	47.073173
1578.000000	47.159762
1577.000000	47.257864
1576.000000	47.312865
1575.000000	47.322877
1574.000000	47.299938
1573.000000	47.249257
1572.000000	47.194431
1571.000000	47.167255
1570.000000	47.193417
1569.000000	47.254724
1568.000000	47.326536
1567.000000	47.402645
1566.000000	47.481850
1565.000000	47.547172
1564.000000	47.582606
1563.000000	47.596302
1562.000000	47.584150
1561.000000	47.533103
1560.000000	47.519031
1559.000000	47.585081
1558.000000	47.753698
1557.000000	47.989916
1556.000000	48.171102
1555.000000	48.335042
1554.000000	48.497564
1553.000000	48.654906
1552.000000	48.807482
1551.000000	48.970385
1550.000000	49.140826
1549.000000	49.301696
1548.000000	49.442811
1547.000000	49.578740
1546.000000	49.728706
1545.000000	49.884002
1544.000000	50.025471
1543.000000	50.175501
1542.000000	50.413062
1541.000000	50.799492
1540.000000	51.279936
1539.000000	51.762898
1538.000000	52.144955
1537.000000	52.377442
1536.000000	52.550851
1535.000000	52.778801
1534.000000	53.113972
1533.000000	53.518235
1532.000000	53.924303
1531.000000	54.287258
1530.000000	54.614599
1529.000000	54.944840
1528.000000	55.302066
1527.000000	55.688129
1526.000000	56.081183
1525.000000	56.453094
1524.000000	56.817117
1523.000000	57.229334
1522.000000	57.706878
1521.000000	58.176063
1520.000000	58.564620
1519.000000	58.899092
1518.000000	59.264240
1517.000000	59.682839
1516.000000	60.107457
1515.000000	60.516702
1514.000000	60.914590
1513.000000	61.305943
1512.000000	61.676159
1511.000000	62.002177
1510.000000	62.292967
1509.000000	62.596293
1508.000000	62.952250
1507.000000	63.332519
1506.000000	63.801528
1505.000000	64.321470
1504.000000	64.702903
1503.000000	64.974359
1502.000000	65.220016
1501.000000	65.462854
1500.000000	65.718070
1499.000000	66.029570
1498.000000	66.415641
1497.000000	66.839778
1496.000000	67.229899
1495.000000	67.528661
1494.000000	67.731405
1493.000000	67.875533
1492.000000	68.021020
1491.000000	68.220577
1490.000000	68.473735
1489.000000	68.746025
1488.000000	69.022591
1487.000000	69.301347
1486.000000	69.583916
1485.000000	69.833282
1484.000000	70.026477
1483.000000	70.189459
1482.000000	70.330047
1481.000000	70.425662
1480.000000	70.464288
1479.000000	70.471224
1478.000000	70.460045
1477.000000	70.422524
1476.000000	70.355269
1475.000000	70.281391
1474.000000	70.190888
1473.000000	70.002660
1472.000000	69.693700
1471.000000	69.305798
1470.000000	68.797731
1469.000000	68.076642
1468.000000	67.096337
1467.000000	65.827025
1466.000000	64.180129
1465.000000	62.082135
1464.000000	59.700395
1463.000000	57.298915
1462.000000	54.935981
1461.000000	52.555207
1460.000000	50.161942
1459.000000	47.777035
1458.000000	45.342162
1457.000000	43.058077
1456.000000	41.528901
1455.000000	40.995883
1454.000000	41.197380
1453.000000	41.948529
1452.000000	43.189376
1451.000000	44.822801
1450.000000	46.706708
1449.000000	48.743138
1448.000000	50.816456
1447.000000	52.719917
1446.000000	54.269083
1445.000000	55.410623
1444.000000	56.190691
1443.000000	56.636373
1442.000000	56.733682
1441.000000	56.481896
1440.000000	55.922501
1439.000000	55.054343
1438.000000	53.747793
1437.000000	51.868370
1436.000000	49.590500
1435.000000	47.286585
1434.000000	45.037137
1433.000000	42.686394
1432.000000	40.180168
1431.000000	37.634684
1430.000000	35.202494
1429.000000	33.027994
1428.000000	31.287606
1427.000000	30.078361
1426.000000	29.323356
1425.000000	28.928990
1424.000000	28.932183
1423.000000	29.344110
1422.000000	30.049527
1421.000000	31.013344
1420.000000	32.408443
1419.000000	34.292760
1418.000000	36.341635
1417.000000	38.271453
1416.000000	40.146167
1415.000000	42.085829
1414.000000	44.063461
1413.000000	46.024319
1412.000000	47.983099
1411.000000	49.932455
1410.000000	51.788581
1409.000000	53.505252
1408.000000	55.120678
1407.000000	56.678171
1406.000000	58.182277
1405.000000	59.621878
1404.000000	60.976773
1403.000000	62.189811
1402.000000	63.233406
1401.000000	64.179720
1400.000000	65.126494
1399.000000	66.068879
1398.000000	66.930887
1397.000000	67.709149
1396.000000	68.469910
1395.000000	69.246383
1394.000000	70.003240
1393.000000	70.695611
1392.000000	71.308224
1391.000000	71.837872
1390.000000	72.298265
1389.000000	72.725855
1388.000000	73.140539
1387.000000	73.511571
1386.000000	73.803629
1385.000000	74.016882
1384.000000	74.159238
1383.000000	74.218312
1382.000000	74.194769
1381.000000	74.124060
1380.000000	74.031712
1379.000000	73.913197
1378.000000	73.766250
1377.000000	73.606294
1376.000000	73.430140
1375.000000	73.201643
1374.000000	72.896001
1373.000000	72.540246
1372.000000	72.162672
1371.000000	71.752782
1370.000000	71.301617
1369.000000	70.825893
1368.000000	70.367363
1367.000000	69.965366
1366.000000	69.643869
1365.000000	69.413485
1364.000000	69.265760
1363.000000	69.176701
1362.000000	69.141783
1361.000000	69.182296
1360.000000	69.301872
1359.000000	69.482185
1358.000000	69.714466
1357.000000	69.999722
1356.000000	70.326151
1355.000000	70.661884
1354.000000	70.970716
1353.000000	71.223954
1352.000000	71.384632
1351.000000	71.405388
1350.000000	71.246537
1349.000000	70.875763
1348.000000	70.263209
1347.000000	69.376229
1346.000000	68.188243
1345.000000	66.689702
1344.000000	64.907109
1343.000000	62.900847
1342.000000	60.748562
1341.000000	58.538522
1340.000000	56.396089
1339.000000	54.492942
1338.000000	52.962955
1337.000000	51.803981
1336.000000	50.887890
1335.000000	50.036478
1334.000000	49.073858
1333.000000	47.847576
1332.000000	46.249479
1331.000000	44.234956
1330.000000	41.818233
1329.000000	39.054459
1328.000000	36.031203
1327.000000	32.869897
1326.000000	29.706028
1325.000000	26.662662
1324.000000	23.859409
1323.000000	21.413536
1322.000000	19.395989
1321.000000	17.804506
1320.000000	16.602753
1319.000000	15.747621
1318.000000	15.177747
1317.000000	14.813712
1316.000000	14.591967
1315.000000	14.486425
1314.000000	14.477032
1313.000000	14.538827
1312.000000	14.669457
1311.000000	14.890513
1310.000000	15.219868
1309.000000	15.661473
1308.000000	16.228310
1307.000000	16.943544
1306.000000	17.809169
1305.000000	18.804039
1304.000000	19.909073
1303.000000	21.110028
1302.000000	22.379070
1301.000000	23.677083
1300.000000	24.981313
1299.000000	26.287283
1298.000000	27.586704
1297.000000	28.863692
1296.000000	30.108774
1295.000000	31.319898
1294.000000	32.491681
1293.000000	33.618928
1292.000000	34.707010
1291.000000	35.766801
1290.000000	36.798949
1289.000000	37.794316
1288.000000	38.745649
1287.000000	39.648712
1286.000000	40.500115
1285.000000	41.304325
1284.000000	42.082994
1283.000000	42.871002
1282.000000	43.703663
1281.000000	44.607362
1280.000000	45.593475
1279.000000	46.652724
1278.000000	47.758644
1277.000000	48.884058
1276.000000	50.011309
1275.000000	51.129092
1274.000000	52.227956
1273.000000	53.300810
1272.000000	54.339983
1271.000000	55.334434
1270.000000	56.274869
1269.000000	57.160132
1268.000000	57.994860
1267.000000	58.780970
1266.000000	59.520211
1265.000000	60.219961
1264.000000	60.888212
1263.000000	61.528543
1262.000000	62.142756
1261.000000	62.735067
1260.000000	63.307163
1259.000000	63.854832
1258.000000	64.376217
1257.000000	64.875500
1256.000000	65.354610
1255.000000	65.809791
1254.000000	66.240249
1253.000000	66.653252
1252.000000	67.053986
1251.000000	67.440372
1250.000000	67.811857
1249.000000	68.173273
1248.000000	68.526442
1247.000000	68.865738
1246.000000	69.186854
1245.000000	69.492250
1244.000000	69.782480
1243.000000	70.052873
1242.000000	70.302683
1241.000000	70.538387
1240.000000	70.763991
1239.000000	70.977020
1238.000000	71.178961
1237.000000	71.378327
1236.000000	71.579093
1235.000000	71.776711
1234.000000	71.968792
1233.000000	72.159637
1232.000000	72.350065
1231.000000	72.534053
1230.000000	72.710419
1229.000000	72.887175
1228.000000	73.069582
1227.000000	73.254850
1226.000000	73.443022
1225.000000	73.641413
1224.000000	73.853350
1223.000000	74.073279
1222.000000	74.297543
1221.000000	74.528361
1220.000000	74.762662
1219.000000	74.988760
1218.000000	75.199373
1217.000000	75.397461
1216.000000	75.584979
1215.000000	75.758414
1214.000000	75.919433
1213.000000	76.078169
1212.000000	76.241145
1211.000000	76.406403
1210.000000	76.574777
1209.000000	76.752456
1208.000000	76.937872
1207.000000	77.118716
1206.000000	77.286676
1205.000000	77.443481
1204.000000	77.588583
1203.000000	77.715652
1202.000000	77.826324
1201.000000	77.933161
1200.000000	78.044495
1199.000000	78.158749
1198.000000	78.276715
1197.000000	78.405380
1196.000000	78.543445
1195.000000	78.677016
1194.000000	78.794392
1193.000000	78.891957
1192.000000	78.963173
1191.000000	78.996065
1190.000000	78.988755
1189.000000	78.954069
1188.000000	78.904746
1187.000000	78.848592
1186.000000	78.800857
1185.000000	78.785451
1184.000000	78.815366
1183.000000	78.882455
1182.000000	78.970570
1181.000000	79.068726
1180.000000	79.168426
1179.000000	79.262838
1178.000000	79.354783
1177.000000	79.452264
1176.000000	79.553134
1175.000000	79.646515
1174.000000	79.731929
1173.000000	79.823131
1172.000000	79.929838
1171.000000	80.049136
1170.000000	80.177055
1169.000000	80.313019
1168.000000	80.448399
1167.000000	80.566085
1166.000000	80.656969
1165.000000	80.724826
1164.000000	80.772819
1163.000000	80.800055
1162.000000	80.815737
1161.000000	80.840356
1160.000000	80.887436
1159.000000	80.957198
1158.000000	81.049714
1157.000000	81.168107
1156.000000	81.304457
1155.000000	81.438038
1154.000000	81.553054
1153.000000	81.644835
1152.000000	81.707044
1151.000000	81.730410
1150.000000	81.719779
1149.000000	81.697192
1148.000000	81.682101
1147.000000	81.682548
1146.000000	81.706976
1145.000000	81.766018
1144.000000	81.856383
1143.000000	81.957897
1142.000000	82.051779
1141.000000	82.129034
1140.000000	82.179008
1139.000000	82.188163
1138.000000	82.155762
1137.000000	82.097137
1136.000000	82.027799
1135.000000	81.957909
1134.000000	81.903757
1133.000000	81.885875
1132.000000	81.909762
1131.000000	81.961838
1130.000000	82.027508
1129.000000	82.098179
1128.000000	82.158893
1127.000000	82.187751
1126.000000	82.175318
1125.000000	82.130485
1124.000000	82.064209
1123.000000	81.983095
1122.000000	81.901708
1121.000000	81.842995
1120.000000	81.819191
1119.000000	81.825448
1118.000000	81.854650
1117.000000	81.902577
1116.000000	81.954705
1115.000000	81.985757
1114.000000	81.979604
1113.000000	81.936646
1112.000000	81.858938
1111.000000	81.746568
1110.000000	81.611460
1109.000000	81.478221
1108.000000	81.365255
1107.000000	81.275591
1106.000000	81.209386
1105.000000	81.166759
1104.000000	81.134001
1103.000000	81.083737
1102.000000	80.993175
1101.000000	80.852624
1100.000000	80.653587
1099.000000	80.385421
1098.000000	80.054228
1097.000000	79.681179
1096.000000	79.283699
1095.000000	78.866621
1094.000000	78.432544
1093.000000	77.984010
1092.000000	77.506270
1091.000000	76.968010
1090.000000	76.339161
1089.000000	75.597275
1088.000000	74.721627
1087.000000	73.689732
1086.000000	72.493786
1085.000000	71.142206
1084.000000	69.641466
1083.000000	67.994171
1082.000000	66.200332
1081.000000	64.262515
1080.000000	62.183939
1079.000000	59.967745
1078.000000	57.628046
1077.000000	55.188944
1076.000000	52.685903
1075.000000	50.167310
1074.000000	47.689740
1073.000000	45.309102
1072.000000	43.077633
1071.000000	41.038044
1070.000000	39.211924
1069.000000	37.605702
1068.000000	36.216529
1067.000000	35.038639
1066.000000	34.057267
1065.000000	33.249562
1064.000000	32.607272
1063.000000	32.129032
1062.000000	31.811068
1061.000000	31.651525
1060.000000	31.657065
1059.000000	31.844177
1058.000000	32.217316
1057.000000	32.772386
1056.000000	33.511091
1055.000000	34.430459
1054.000000	35.515981
1053.000000	36.742139
1052.000000	38.084308
1051.000000	39.516812
1050.000000	41.001962
1049.000000	42.502862
1048.000000	43.993547
1047.000000	45.454554
1046.000000	46.867648
1045.000000	48.222019
1044.000000	49.516923
1043.000000	50.754587
1042.000000	51.937030
1041.000000	53.070491
1040.000000	54.167451
1039.000000	55.239092
1038.000000	56.293608
1037.000000	57.339816
1036.000000	58.382997
1035.000000	59.419450
1034.000000	60.438473
1033.000000	61.429733
1032.000000	62.383345
1031.000000	63.286028
1030.000000	64.129092
1029.000000	64.914133
1028.000000	65.647634
1027.000000	66.335873
1026.000000	66.987653
1025.000000	67.617942
1024.000000	68.237852
1023.000000	68.847257
1022.000000	69.442262
1021.000000	70.018933
1020.000000	70.568212
1019.000000	71.074502
1018.000000	71.527499
1017.000000	71.930000
1016.000000	72.287902
1015.000000	72.606267
1014.000000	72.897830
1013.000000	73.184146
1012.000000	73.482196
1011.000000	73.796346
1010.000000	74.126978
1009.000000	74.474264
1008.000000	74.828194
1007.000000	75.167271
1006.000000	75.473033
1005.000000	75.738908
1004.000000	75.962526
1003.000000	76.141890
1002.000000	76.286134
1001.000000	76.417206
1000.000000	76.555733
999.000000	76.712727
998.000000	76.896404
997.000000	77.114045
996.000000	77.360923
995.000000	77.617700
994.000000	77.864175
993.000000	78.086892
992.000000	78.272740
991.000000	78.409142
990.000000	78.497385
989.000000	78.555520
988.000000	78.602905
987.000000	78.653418
986.000000	78.723618
985.000000	78.832546
984.000000	78.986318
983.000000	79.173133
982.000000	79.376598
981.000000	79.583089
980.000000	79.774119
979.000000	79.927012
978.000000	80.030458
977.000000	80.090220
976.000000	80.116988
975.000000	80.121217
974.000000	80.122980
973.000000	80.150023
972.000000	80.219311
971.000000	80.329318
970.000000	80.472351
969.000000	80.640396
968.000000	80.815311
967.000000	80.968736
966.000000	81.080131
965.000000	81.145557
964.000000	81.167186
963.000000	81.148538
962.000000	81.105018
961.000000	81.064376
960.000000	81.048989
959.000000	81.067817
958.000000	81.125746
957.000000	81.225437
956.000000	81.354951
955.000000	81.487746
954.000000	81.601018
953.000000	81.683631
952.000000	81.725462
951.000000	81.716094
950.000000	81.660129
949.000000	81.580587
948.000000	81.501196
947.000000	81.436754
946.000000	81.401960
945.000000	81.411846
944.000000	81.466456
943.000000	81.547521
942.000000	81.635363
941.000000	81.717145
940.000000	81.776189
939.000000	81.790924
938.000000	81.752458
937.000000	81.671674
936.000000	81.565145
935.000000	81.446768
934.000000	81.336035
933.000000	81.257056
932.000000	81.221595
931.000000	81.223980
930.000000	81.255094
929.000000	81.306953
928.000000	81.360784
927.000000	81.387245
926.000000	81.366815
925.000000	81.298290
924.000000	81.186024
923.000000	81.034411
922.000000	80.858889
921.000000	80.686605
920.000000	80.537870
919.000000	80.418093
918.000000	80.329417
917.000000	80.274121
916.000000	80.241233
915.000000	80.204412
914.000000	80.139803
913.000000	80.035551
912.000000	79.881098
911.000000	79.665968
910.000000	79.395182
909.000000	79.092472
908.000000	78.782081
907.000000	78.477697
906.000000	78.191699
905.000000	77.936810
904.000000	77.711447
903.000000	77.496273
902.000000	77.269968
901.000000	77.017797
900.000000	76.722673
899.000000	76.363942
898.000000	75.934597
897.000000	75.445910
896.000000	74.913474
895.000000	74.349394
894.000000	73.769744
893.000000	73.195358
892.000000	72.635183
891.000000	72.079830
890.000000	71.513972
889.000000	70.923645
888.000000	70.290450
887.000000	69.590235
886.000000	68.806657
885.000000	67.938862
884.000000	66.991583
883.000000	65.971684
882.000000	64.893604
881.000000	63.778700
880.000000	62.643378
879.000000	61.491955
878.000000	60.324829
877.000000	59.141781
876.000000	57.936377
875.000000	56.696192
874.000000	55.412316
873.000000	54.086101
872.000000	52.724655
871.000000	51.337088
870.000000	49.937767
869.000000	48.547285
868.000000	47.186181
867.000000	45.868726
866.000000	44.603902
865.000000	43.397431
864.000000	42.250873
863.000000	41.157374
862.000000	40.103918
861.000000	39.080622
860.000000	38.084147
859.000000	37.117565
858.000000	36.189481
857.000000	35.317533
856.000000	34.530057
855.000000	33.854447
854.000000	33.309911
853.000000	32.904642
852.000000	32.633779
851.000000	32.478777
850.000000	32.409187
849.000000	32.398655
848.000000	32.432916
847.000000	32.504294
846.000000	32.609088
845.000000	32.748715
844.000000	32.931419
843.000000	33.165913
842.000000	33.457977
841.000000	33.816918
840.000000	34.254064
839.000000	34.776222
838.000000	35.383095
837.000000	36.069918
836.000000	36.826709
835.000000	37.630875
834.000000	38.448777
833.000000	39.241375
832.000000	39.961767
831.000000	40.539458
830.000000	40.875792
829.000000	40.865591
828.000000	40.469994
827.000000	39.823673
826.000000	39.279057
825.000000	39.275880
824.000000	40.083039
823.000000	41.628952
822.000000	43.584112
821.000000	45.602093
820.000000	47.471006
819.000000	49.109502
818.000000	50.510498
817.000000	51.705692
816.000000	52.743374
815.000000	53.666229
814.000000	54.511042
813.000000	55.316858
812.000000	56.118475
811.000000	56.928016
810.000000	57.739372
809.000000	58.543884
808.000000	59.327319
807.000000	60.063448
806.000000	60.727207
805.000000	61.313020
804.000000	61.829900
803.000000	62.289035
802.000000	62.712090
801.000000	63.137972
800.000000	63.604325
799.000000	64.126849
798.000000	64.704857
797.000000	65.332537
796.000000	65.989555
795.000000	66.634047
794.000000	67.223339
793.000000	67.734443
792.000000	68.157889
791.000000	68.489664
790.000000	68.745141
789.000000	68.966835
788.000000	69.201750
787.000000	69.480195
786.000000	69.821302
785.000000	70.238702
784.000000	70.724246
783.000000	71.238890
782.000000	71.734196
781.000000	72.174631
780.000000	72.533191
779.000000	72.787798
778.000000	72.939624
777.000000	73.023579
776.000000	73.087431
775.000000	73.170983
774.000000	73.310067
773.000000	73.537485
772.000000	73.862233
771.000000	74.258013
770.000000	74.682896
769.000000	75.097833
768.000000	75.460667
767.000000	75.726298
766.000000	75.873513
765.000000	75.920146
764.000000	75.903698
763.000000	75.861883
762.000000	75.838924
761.000000	75.885223
760.000000	76.031199
759.000000	76.271163
758.000000	76.579979
757.000000	76.927471
756.000000	77.268038
755.000000	77.541210
754.000000	77.703829
753.000000	77.751572
752.000000	77.702881
751.000000	77.583651
750.000000	77.437459
749.000000	77.326302
748.000000	77.299485
747.000000	77.372210
746.000000	77.539812
745.000000	77.789905
744.000000	78.086162
743.000000	78.364155
742.000000	78.564316
741.000000	78.658767
740.000000	78.641164
739.000000	78.517449
738.000000	78.322146
737.000000	78.119881
736.000000	77.971300
735.000000	77.909081
734.000000	77.952100
733.000000	78.112978
732.000000	78.374305
731.000000	78.679484
730.000000	78.967015
729.000000	79.196734
728.000000	79.339318
727.000000	79.371701
726.000000	79.302826
725.000000	79.184949
724.000000	79.080212
723.000000	79.030590
722.000000	79.067770
721.000000	79.222421
720.000000	79.498499
719.000000	79.857007
718.000000	80.243706
717.000000	80.614107
716.000000	80.920965
715.000000	81.111896
714.000000	81.165953
713.000000	81.113616
712.000000	81.006185
711.000000	80.887416
710.000000	80.806189
709.000000	80.820884
708.000000	80.964161
707.000000	81.221012
706.000000	81.552137
705.000000	81.917332
704.000000	82.262749
703.000000	82.517941
702.000000	82.638717
701.000000	82.634591
700.000000	82.537141
699.000000	82.376130
698.000000	82.198914
697.000000	82.079381
696.000000	82.075178
695.000000	82.191236
694.000000	82.408789
693.000000	82.712837
692.000000	83.062367
691.000000	83.377365
690.000000	83.587726
689.000000	83.675516
688.000000	83.649018
687.000000	83.512321
686.000000	83.300255
685.000000	83.097458
684.000000	82.978563
683.000000	82.961226
682.000000	83.044426
681.000000	83.242847
680.000000	83.539240
679.000000	83.852995
678.000000	84.106426
677.000000	84.267880
676.000000	84.314248
675.000000	84.233015
674.000000	84.053468
673.000000	83.856776
672.000000	83.734010
671.000000	83.734859
670.000000	83.866996
669.000000	84.092504
668.000000	84.285571
667.000000	84.394917
666.000000	84.511976
665.000000	84.633862
664.000000	84.717161
663.000000	84.726798
662.000000	84.644248
661.000000	84.485430
660.000000	84.286771
659.000000	84.094380
658.000000	83.963636
657.000000	83.933958
656.000000	84.011433
655.000000	84.195554
654.000000	84.461453
653.000000	84.744418
652.000000	84.977824
651.000000	85.123239
650.000000	85.161524
649.000000	85.082086
648.000000	84.901245
647.000000	84.672994
646.000000	84.461389
645.000000	84.313399
644.000000	84.257017
643.000000	84.305806
642.000000	84.451980
641.000000	84.658797
640.000000	84.875094
639.000000	85.054166
638.000000	85.157355
637.000000	85.156128
636.000000	85.044123
635.000000	84.843435
634.000000	84.598988
633.000000	84.363870
632.000000	84.185487
631.000000	84.098579
630.000000	84.118344
629.000000	84.233576
628.000000	84.410088
627.000000	84.600971
626.000000	84.754339
625.000000	84.828411
624.000000	84.801593
623.000000	84.676210
622.000000	84.477263
621.000000	84.244848
620.000000	84.022733
619.000000	83.850194
618.000000	83.759088
617.000000	83.767888
616.000000	83.871231
615.000000	84.038024
614.000000	84.222251
613.000000	84.377058
612.000000	84.461293
611.000000	84.444113
610.000000	84.318117
609.000000	84.102832
608.000000	83.832764
607.000000	83.544646
606.000000	83.269821
605.000000	83.027366
604.000000	82.806730
603.000000	82.557889
602.000000	82.191395
601.000000	81.588679
600.000000	80.626971
599.000000	79.245064
598.000000	77.519330
597.000000	75.683052
596.000000	74.069533
595.000000	73.005950
594.000000	72.690230
593.000000	73.113494
592.000000	74.097703
591.000000	75.387768
590.000000	76.744940
589.000000	78.018815
588.000000	79.144051
587.000000	80.097182
586.000000	80.867498
585.000000	81.457687
584.000000	81.879316
583.000000	82.153596
582.000000	82.317864
581.000000	82.425182
580.000000	82.524944
579.000000	82.647950
578.000000	82.813754
577.000000	83.036808
576.000000	83.313070
575.000000	83.608344
574.000000	83.875395
573.000000	84.077560
572.000000	84.189892
571.000000	84.196781
570.000000	84.108358
569.000000	83.963328
568.000000	83.808158
567.000000	83.681740
566.000000	83.619586
565.000000	83.650540
564.000000	83.776279
563.000000	83.967233
562.000000	84.182893
561.000000	84.391760
560.000000	84.564163
559.000000	84.666194
558.000000	84.681011
557.000000	84.625649
556.000000	84.531627
555.000000	84.427131
554.000000	84.346878
553.000000	84.332663
552.000000	84.406422
551.000000	84.555643
550.000000	84.754223
549.000000	84.980870
548.000000	85.205718
547.000000	85.380404
546.000000	85.465445
545.000000	85.458153
544.000000	85.378831
543.000000	85.249599
542.000000	85.101342
541.000000	84.976987
540.000000	84.907661
539.000000	84.899892
538.000000	84.952966
537.000000	85.068788
536.000000	85.230155
535.000000	85.393175
534.000000	85.517009
533.000000	85.591515
532.000000	85.615042
531.000000	85.578013
530.000000	85.488191
529.000000	85.383244
528.000000	85.299113
527.000000	85.254581
526.000000	85.268505
525.000000	85.359543
524.000000	85.516896
523.000000	85.690103
522.000000	85.829761
521.000000	85.914145
520.000000	85.925433
519.000000	85.836256
518.000000	85.642142
517.000000	85.384716
516.000000	85.115966
515.000000	84.861676
514.000000	84.636464
513.000000	84.462014
512.000000	84.341013
511.000000	84.239489
510.000000	84.117699
509.000000	83.958024
508.000000	83.736816
507.000000	83.418293
506.000000	82.994169
505.000000	82.492694
504.000000	81.937210
503.000000	81.335322
502.000000	80.727804
501.000000	80.195354
500.000000	79.789115
499.000000	79.505778
498.000000	79.344596
497.000000	79.326036
496.000000	79.440243
495.000000	79.623029
494.000000	79.801854
493.000000	79.935995
492.000000	79.999477
491.000000	79.981974
490.000000	79.920963
489.000000	79.900118
488.000000	79.986414
487.000000	80.197175
486.000000	80.532668
485.000000	80.996356
484.000000	81.558380
483.000000	82.143291
482.000000	82.681896
481.000000	83.145104
480.000000	83.516364
479.000000	83.772461
478.000000	83.909432
477.000000	83.963154
476.000000	83.976020
475.000000	83.968718
474.000000	83.967040
473.000000	84.019031
472.000000	84.151255
471.000000	84.347972
470.000000	84.569070
469.000000	84.778254
468.000000	84.937051
467.000000	84.997806
466.000000	84.944955
465.000000	84.821166
464.000000	84.675909
463.000000	84.530185
462.000000	84.405848
461.000000	84.337130
460.000000	84.342960
459.000000	84.419400
458.000000	84.567533
457.000000	84.795060
456.000000	85.062144
455.000000	85.262912
454.000000	85.318642
453.000000	85.241326
452.000000	85.086953
451.000000	84.900685
450.000000	84.719170
449.000000	84.599275
448.000000	84.580283
447.000000	84.639479
446.000000	84.734347
445.000000	84.861042
444.000000	85.004722
443.000000	85.080084
442.000000	85.005422
441.000000	84.802908
440.000000	84.544747
439.000000	84.256428
438.000000	83.959590
437.000000	83.741102
436.000000	83.696872
435.000000	83.839728
434.000000	84.135469
433.000000	84.580659
432.000000	85.158099
431.000000	85.755565
430.000000	86.245400
429.000000	86.595306
428.000000	86.813248
427.000000	86.869151
426.000000	86.772458
425.000000	86.638852
424.000000	86.578342
423.000000	86.591851
422.000000	86.649909
421.000000	86.804379
420.000000	87.130026
419.000000	87.555063
418.000000	87.897555
417.000000	88.129630
416.000000	88.265210
415.000000	88.237740
414.000000	88.041200
413.000000	87.814957
412.000000	87.682750
411.000000	87.615726
410.000000	87.601900
409.000000	87.742709
408.000000	88.058103
407.000000	88.415068
406.000000	88.643865
405.000000	88.793310
404.000000	88.901375
403.000000	88.803075
402.000000	88.341518
401.000000	87.609562
400.000000	86.792373
