PE IR       SUBTECH     SPECTRUM    ASCII       PEDS        4.00        
   -1
23ms153_nitrito.asc
24/08/30
17:28:53.00
24/08/30
17:28:53.00
Administrator
Sample 1074 By Administrator Date Friday, August 30 2024
400.000000
#HDR
-1
-1
#GR
cm-1
%T
1.0
0.0
4000.000000
-1.000000
3601
8
84.887427
9.432818
#DATA
4000.000000	69.486216
3999.000000	69.533214
3998.000000	69.577152
3997.000000	69.619516
3996.000000	69.662214
3995.000000	69.706923
3994.000000	69.754363
3993.000000	69.804342
3992.000000	69.856388
3991.000000	69.909745
3990.000000	69.962522
3989.000000	70.011880
3988.000000	70.056366
3987.000000	70.097676
3986.000000	70.139456
3985.000000	70.184394
3984.000000	70.232968
3983.000000	70.284104
3982.000000	70.335889
3981.000000	70.386023
3980.000000	70.432579
3979.000000	70.475277
3978.000000	70.516265
3977.000000	70.558710
3976.000000	70.604288
3975.000000	70.651984
3974.000000	70.699694
3973.000000	70.746387
3972.000000	70.792023
3971.000000	70.836951
3970.000000	70.881258
3969.000000	70.924316
3968.000000	70.965156
3967.000000	71.003668
3966.000000	71.041197
3965.000000	71.080272
3964.000000	71.123327
3963.000000	71.170663
3962.000000	71.219840
3961.000000	71.266822
3960.000000	71.308101
3959.000000	71.344274
3958.000000	71.379963
3957.000000	71.419372
3956.000000	71.462797
3955.000000	71.507783
3954.000000	71.552296
3953.000000	71.595569
3952.000000	71.637534
3951.000000	71.678914
3950.000000	71.720423
3949.000000	71.760869
3948.000000	71.798601
3947.000000	71.833857
3946.000000	71.869378
3945.000000	71.910864
3944.000000	71.965288
3943.000000	72.033085
3942.000000	72.102880
3941.000000	72.159929
3940.000000	72.199201
3939.000000	72.229591
3938.000000	72.263094
3937.000000	72.302172
3936.000000	72.340608
3935.000000	72.375516
3934.000000	72.415711
3933.000000	72.471913
3932.000000	72.541731
3931.000000	72.609714
3930.000000	72.661821
3929.000000	72.698815
3928.000000	72.731505
3927.000000	72.769381
3926.000000	72.817349
3925.000000	72.875148
3924.000000	72.933596
3923.000000	72.978988
3922.000000	73.007121
3921.000000	73.029779
3920.000000	73.062477
3919.000000	73.108949
3918.000000	73.162576
3917.000000	73.218944
3916.000000	73.277260
3915.000000	73.333607
3914.000000	73.383051
3913.000000	73.429329
3912.000000	73.478591
3911.000000	73.530929
3910.000000	73.579768
3909.000000	73.621549
3908.000000	73.660051
3907.000000	73.699255
3906.000000	73.737966
3905.000000	73.773478
3904.000000	73.804969
3903.000000	73.833167
3902.000000	73.860735
3901.000000	73.894003
3900.000000	73.942193
3899.000000	74.005476
3898.000000	74.068686
3897.000000	74.120107
3896.000000	74.163881
3895.000000	74.215323
3894.000000	74.281801
3893.000000	74.355836
3892.000000	74.421007
3891.000000	74.470301
3890.000000	74.505311
3889.000000	74.523397
3888.000000	74.525555
3887.000000	74.535847
3886.000000	74.584642
3885.000000	74.667817
3884.000000	74.744061
3883.000000	74.787169
3882.000000	74.816222
3881.000000	74.864984
3880.000000	74.935274
3879.000000	74.998135
3878.000000	75.031698
3877.000000	75.043482
3876.000000	75.062645
3875.000000	75.117271
3874.000000	75.205809
3873.000000	75.289083
3872.000000	75.327660
3871.000000	75.331936
3870.000000	75.351441
3869.000000	75.408020
3868.000000	75.466570
3867.000000	75.491582
3866.000000	75.504709
3865.000000	75.555339
3864.000000	75.643920
3863.000000	75.724465
3862.000000	75.768589
3861.000000	75.792834
3860.000000	75.826508
3859.000000	75.888678
3858.000000	75.982161
3857.000000	76.090482
3856.000000	76.180443
3855.000000	76.228298
3854.000000	76.246440
3853.000000	76.260255
3852.000000	76.275132
3851.000000	76.287126
3850.000000	76.302408
3849.000000	76.337284
3848.000000	76.395311
3847.000000	76.462777
3846.000000	76.526733
3845.000000	76.584550
3844.000000	76.637367
3843.000000	76.691028
3842.000000	76.746373
3841.000000	76.798244
3840.000000	76.843851
3839.000000	76.886547
3838.000000	76.929889
3837.000000	76.977161
3836.000000	77.030592
3835.000000	77.088008
3834.000000	77.142682
3833.000000	77.192325
3832.000000	77.242178
3831.000000	77.294918
3830.000000	77.345990
3829.000000	77.392116
3828.000000	77.436029
3827.000000	77.490223
3826.000000	77.561876
3825.000000	77.636227
3824.000000	77.685683
3823.000000	77.708378
3822.000000	77.739763
3821.000000	77.808992
3820.000000	77.895304
3819.000000	77.951494
3818.000000	77.963907
3817.000000	77.970311
3816.000000	78.020548
3815.000000	78.113797
3814.000000	78.201091
3813.000000	78.253112
3812.000000	78.291297
3811.000000	78.347113
3810.000000	78.419422
3809.000000	78.479468
3808.000000	78.514241
3807.000000	78.548271
3806.000000	78.604871
3805.000000	78.669849
3804.000000	78.712520
3803.000000	78.736604
3802.000000	78.777231
3801.000000	78.848404
3800.000000	78.919512
3799.000000	78.961482
3798.000000	78.988246
3797.000000	79.034427
3796.000000	79.111702
3795.000000	79.195603
3794.000000	79.259221
3793.000000	79.304090
3792.000000	79.350996
3791.000000	79.410430
3790.000000	79.475139
3789.000000	79.535020
3788.000000	79.590031
3787.000000	79.645170
3786.000000	79.701573
3785.000000	79.757019
3784.000000	79.808858
3783.000000	79.853353
3782.000000	79.889662
3781.000000	79.928428
3780.000000	79.984104
3779.000000	80.057538
3778.000000	80.131706
3777.000000	80.189846
3776.000000	80.231959
3775.000000	80.273930
3774.000000	80.326531
3773.000000	80.380320
3772.000000	80.420264
3771.000000	80.453614
3770.000000	80.499973
3769.000000	80.560002
3768.000000	80.616979
3767.000000	80.664989
3766.000000	80.718142
3765.000000	80.788079
3764.000000	80.861407
3763.000000	80.912014
3762.000000	80.934693
3761.000000	80.959890
3760.000000	81.014618
3759.000000	81.086835
3758.000000	81.152153
3757.000000	81.210647
3756.000000	81.271072
3755.000000	81.325896
3754.000000	81.365571
3753.000000	81.401684
3752.000000	81.449030
3751.000000	81.493131
3750.000000	81.518631
3749.000000	81.552607
3748.000000	81.617142
3747.000000	81.683590
3746.000000	81.725936
3745.000000	81.769825
3744.000000	81.846739
3743.000000	81.935847
3742.000000	81.992350
3741.000000	82.014903
3740.000000	82.037254
3739.000000	82.072785
3738.000000	82.110557
3737.000000	82.158949
3736.000000	82.252361
3735.000000	82.386711
3734.000000	82.502136
3733.000000	82.562308
3732.000000	82.593805
3731.000000	82.634945
3730.000000	82.688764
3729.000000	82.735211
3728.000000	82.774315
3727.000000	82.830448
3726.000000	82.913246
3725.000000	82.997111
3724.000000	83.058950
3723.000000	83.109662
3722.000000	83.167788
3721.000000	83.236115
3720.000000	83.305279
3719.000000	83.367081
3718.000000	83.424024
3717.000000	83.483859
3716.000000	83.543073
3715.000000	83.588426
3714.000000	83.617156
3713.000000	83.646957
3712.000000	83.696016
3711.000000	83.759939
3710.000000	83.824203
3709.000000	83.883908
3708.000000	83.942665
3707.000000	84.004947
3706.000000	84.068461
3705.000000	84.126137
3704.000000	84.175520
3703.000000	84.223712
3702.000000	84.276512
3701.000000	84.329962
3700.000000	84.377069
3699.000000	84.414636
3698.000000	84.448432
3697.000000	84.491839
3696.000000	84.546410
3695.000000	84.593502
3694.000000	84.618788
3693.000000	84.635643
3692.000000	84.667802
3691.000000	84.716520
3690.000000	84.757843
3689.000000	84.774198
3688.000000	84.778870
3687.000000	84.793965
3686.000000	84.817162
3685.000000	84.835661
3684.000000	84.849870
3683.000000	84.863791
3682.000000	84.873200
3681.000000	84.873864
3680.000000	84.877634
3679.000000	84.887427
3678.000000	84.874889
3677.000000	84.825092
3676.000000	84.778791
3675.000000	84.775830
3674.000000	84.788157
3673.000000	84.759630
3672.000000	84.680485
3671.000000	84.608495
3670.000000	84.596327
3669.000000	84.614964
3668.000000	84.605232
3667.000000	84.557608
3666.000000	84.495968
3665.000000	84.440005
3664.000000	84.390331
3663.000000	84.335558
3662.000000	84.270388
3661.000000	84.197435
3660.000000	84.117847
3659.000000	84.020933
3658.000000	83.895631
3657.000000	83.749815
3656.000000	83.607651
3655.000000	83.481215
3654.000000	83.353615
3653.000000	83.200684
3652.000000	83.024441
3651.000000	82.850391
3650.000000	82.687619
3649.000000	82.512831
3648.000000	82.321227
3647.000000	82.142235
3646.000000	81.986799
3645.000000	81.836108
3644.000000	81.675528
3643.000000	81.509660
3642.000000	81.346390
3641.000000	81.179201
3640.000000	80.994904
3639.000000	80.793272
3638.000000	80.584317
3637.000000	80.368504
3636.000000	80.136532
3635.000000	79.893149
3634.000000	79.660821
3633.000000	79.446975
3632.000000	79.222236
3631.000000	78.951939
3630.000000	78.647739
3629.000000	78.360482
3628.000000	78.110594
3627.000000	77.878051
3626.000000	77.646109
3625.000000	77.418134
3624.000000	77.204608
3623.000000	77.001520
3622.000000	76.785930
3621.000000	76.541928
3620.000000	76.278052
3619.000000	76.010833
3618.000000	75.746917
3617.000000	75.486336
3616.000000	75.227437
3615.000000	74.972838
3614.000000	74.729307
3613.000000	74.496249
3612.000000	74.261012
3611.000000	74.010955
3610.000000	73.750156
3609.000000	73.501931
3608.000000	73.283434
3607.000000	73.084827
3606.000000	72.884451
3605.000000	72.672684
3604.000000	72.455863
3603.000000	72.241659
3602.000000	72.028590
3601.000000	71.812920
3600.000000	71.595331
3599.000000	71.374333
3598.000000	71.148478
3597.000000	70.921155
3596.000000	70.699107
3595.000000	70.486829
3594.000000	70.282854
3593.000000	70.082070
3592.000000	69.880540
3591.000000	69.673161
3590.000000	69.457478
3589.000000	69.243706
3588.000000	69.047544
3587.000000	68.867553
3586.000000	68.687661
3585.000000	68.501333
3584.000000	68.316804
3583.000000	68.142657
3582.000000	67.978059
3581.000000	67.815690
3580.000000	67.649562
3579.000000	67.476727
3578.000000	67.296132
3577.000000	67.109624
3576.000000	66.921612
3575.000000	66.735451
3574.000000	66.551543
3573.000000	66.368711
3572.000000	66.185849
3571.000000	65.998580
3570.000000	65.799908
3569.000000	65.593420
3568.000000	65.397223
3567.000000	65.222617
3566.000000	65.058880
3565.000000	64.892370
3564.000000	64.723044
3563.000000	64.558689
3562.000000	64.402625
3561.000000	64.250650
3560.000000	64.095992
3559.000000	63.933769
3558.000000	63.762488
3557.000000	63.584801
3556.000000	63.406019
3555.000000	63.229286
3554.000000	63.054051
3553.000000	62.879334
3552.000000	62.705066
3551.000000	62.529129
3550.000000	62.346776
3549.000000	62.158040
3548.000000	61.971610
3547.000000	61.796611
3546.000000	61.632349
3545.000000	61.471971
3544.000000	61.312330
3543.000000	61.154608
3542.000000	60.998732
3541.000000	60.842816
3540.000000	60.686255
3539.000000	60.529001
3538.000000	60.370902
3537.000000	60.213460
3536.000000	60.059763
3535.000000	59.910793
3534.000000	59.763976
3533.000000	59.617949
3532.000000	59.474397
3531.000000	59.333453
3530.000000	59.190605
3529.000000	59.042339
3528.000000	58.891766
3527.000000	58.744779
3526.000000	58.604416
3525.000000	58.472472
3524.000000	58.351412
3523.000000	58.239535
3522.000000	58.128780
3521.000000	58.011828
3520.000000	57.888835
3519.000000	57.763686
3518.000000	57.637769
3517.000000	57.510690
3516.000000	57.384271
3515.000000	57.262017
3514.000000	57.144969
3513.000000	57.030916
3512.000000	56.917257
3511.000000	56.802020
3510.000000	56.682844
3509.000000	56.558404
3508.000000	56.429892
3507.000000	56.299362
3506.000000	56.168804
3505.000000	56.042387
3504.000000	55.925328
3503.000000	55.817644
3502.000000	55.712483
3501.000000	55.603120
3500.000000	55.488593
3499.000000	55.370643
3498.000000	55.250167
3497.000000	55.128573
3496.000000	55.009039
3495.000000	54.893708
3494.000000	54.781869
3493.000000	54.672184
3492.000000	54.564100
3491.000000	54.455630
3490.000000	54.342904
3489.000000	54.224600
3488.000000	54.104183
3487.000000	53.985344
3486.000000	53.868395
3485.000000	53.753062
3484.000000	53.641016
3483.000000	53.533268
3482.000000	53.427473
3481.000000	53.320758
3480.000000	53.212638
3479.000000	53.103262
3478.000000	52.991881
3477.000000	52.879371
3476.000000	52.769228
3475.000000	52.663249
3474.000000	52.559205
3473.000000	52.454436
3472.000000	52.348705
3471.000000	52.242100
3470.000000	52.133407
3469.000000	52.022809
3468.000000	51.913560
3467.000000	51.808335
3466.000000	51.706495
3465.000000	51.606553
3464.000000	51.508541
3463.000000	51.411998
3462.000000	51.314466
3461.000000	51.214329
3460.000000	51.112716
3459.000000	51.011013
3458.000000	50.909320
3457.000000	50.808498
3456.000000	50.711092
3455.000000	50.618078
3454.000000	50.527002
3453.000000	50.435286
3452.000000	50.342354
3451.000000	50.247213
3450.000000	50.147634
3449.000000	50.044064
3448.000000	49.941418
3447.000000	49.844046
3446.000000	49.751594
3445.000000	49.662115
3444.000000	49.575423
3443.000000	49.490707
3442.000000	49.404052
3441.000000	49.311360
3440.000000	49.212228
3439.000000	49.109226
3438.000000	49.005427
3437.000000	48.904078
3436.000000	48.808370
3435.000000	48.718801
3434.000000	48.631900
3433.000000	48.543602
3432.000000	48.451839
3431.000000	48.355432
3430.000000	48.253404
3429.000000	48.147052
3428.000000	48.040255
3427.000000	47.935894
3426.000000	47.834116
3425.000000	47.734584
3424.000000	47.637457
3423.000000	47.541079
3422.000000	47.441646
3421.000000	47.336684
3420.000000	47.226659
3419.000000	47.112490
3418.000000	46.994518
3417.000000	46.874767
3416.000000	46.756833
3415.000000	46.641890
3414.000000	46.527215
3413.000000	46.409838
3412.000000	46.288770
3411.000000	46.163141
3410.000000	46.031504
3409.000000	45.894427
3408.000000	45.754895
3407.000000	45.614563
3406.000000	45.472434
3405.000000	45.327758
3404.000000	45.180991
3403.000000	45.031264
3402.000000	44.875993
3401.000000	44.714267
3400.000000	44.547702
3399.000000	44.377152
3398.000000	44.201639
3397.000000	44.020993
3396.000000	43.836297
3395.000000	43.647183
3394.000000	43.451604
3393.000000	43.249070
3392.000000	43.040949
3391.000000	42.826880
3390.000000	42.604951
3389.000000	42.375522
3388.000000	42.141430
3387.000000	41.903519
3386.000000	41.659286
3385.000000	41.407039
3384.000000	41.147087
3383.000000	40.878803
3382.000000	40.600212
3381.000000	40.311471
3380.000000	40.015363
3379.000000	39.713152
3378.000000	39.403558
3377.000000	39.086368
3376.000000	38.762913
3375.000000	38.432479
3374.000000	38.091708
3373.000000	37.738591
3372.000000	37.374170
3371.000000	36.999207
3370.000000	36.613924
3369.000000	36.220844
3368.000000	35.824044
3367.000000	35.424512
3366.000000	35.019278
3365.000000	34.606116
3364.000000	34.185073
3363.000000	33.755363
3362.000000	33.315377
3361.000000	32.866270
3360.000000	32.411892
3359.000000	31.954330
3358.000000	31.492962
3357.000000	31.028491
3356.000000	30.562738
3355.000000	30.094510
3354.000000	29.620004
3353.000000	29.138321
3352.000000	28.652917
3351.000000	28.167049
3350.000000	27.681762
3349.000000	27.198414
3348.000000	26.718677
3347.000000	26.241469
3346.000000	25.764041
3345.000000	25.286603
3344.000000	24.811807
3343.000000	24.339803
3342.000000	23.868248
3341.000000	23.397496
3340.000000	22.931433
3339.000000	22.472900
3338.000000	22.022430
3337.000000	21.581024
3336.000000	21.149724
3335.000000	20.726336
3334.000000	20.307066
3333.000000	19.891853
3332.000000	19.483558
3331.000000	19.082782
3330.000000	18.687815
3329.000000	18.299170
3328.000000	17.920068
3327.000000	17.551965
3326.000000	17.194347
3325.000000	16.848069
3324.000000	16.514020
3323.000000	16.189710
3322.000000	15.871471
3321.000000	15.559702
3320.000000	15.257894
3319.000000	14.966621
3318.000000	14.684217
3317.000000	14.411282
3316.000000	14.149813
3315.000000	13.898627
3314.000000	13.654192
3313.000000	13.415826
3312.000000	13.185142
3311.000000	12.961379
3310.000000	12.742865
3309.000000	12.531595
3308.000000	12.332076
3307.000000	12.146000
3306.000000	11.972324
3305.000000	11.811621
3304.000000	11.664133
3303.000000	11.525735
3302.000000	11.390692
3301.000000	11.257756
3300.000000	11.129317
3299.000000	11.005720
3298.000000	10.885867
3297.000000	10.771819
3296.000000	10.666771
3295.000000	10.569843
3294.000000	10.477784
3293.000000	10.391078
3292.000000	10.313186
3291.000000	10.244098
3290.000000	10.180605
3289.000000	10.121409
3288.000000	10.067300
3287.000000	10.017209
3286.000000	9.968840
3285.000000	9.922973
3284.000000	9.881827
3283.000000	9.844450
3282.000000	9.808281
3281.000000	9.773921
3280.000000	9.743888
3279.000000	9.717620
3278.000000	9.692692
3277.000000	9.669679
3276.000000	9.650711
3275.000000	9.634530
3274.000000	9.617897
3273.000000	9.601284
3272.000000	9.588517
3271.000000	9.581476
3270.000000	9.579486
3269.000000	9.582455
3268.000000	9.589977
3267.000000	9.598745
3266.000000	9.605325
3265.000000	9.610621
3264.000000	9.617552
3263.000000	9.625686
3262.000000	9.632757
3261.000000	9.639445
3260.000000	9.648098
3259.000000	9.658242
3258.000000	9.667951
3257.000000	9.678474
3256.000000	9.692639
3255.000000	9.709997
3254.000000	9.727753
3253.000000	9.745231
3252.000000	9.763144
3251.000000	9.780140
3250.000000	9.794673
3249.000000	9.808970
3248.000000	9.826710
3247.000000	9.847944
3246.000000	9.870215
3245.000000	9.893014
3244.000000	9.917085
3243.000000	9.940975
3242.000000	9.962864
3241.000000	9.984141
3240.000000	10.007162
3239.000000	10.030808
3238.000000	10.052335
3237.000000	10.071852
3236.000000	10.091232
3235.000000	10.110536
3234.000000	10.129572
3233.000000	10.150829
3232.000000	10.176349
3231.000000	10.203505
3230.000000	10.228159
3229.000000	10.250252
3228.000000	10.272155
3227.000000	10.293646
3226.000000	10.312883
3225.000000	10.330616
3224.000000	10.348777
3223.000000	10.366570
3222.000000	10.382072
3221.000000	10.396196
3220.000000	10.410989
3219.000000	10.425646
3218.000000	10.438184
3217.000000	10.449233
3216.000000	10.460263
3215.000000	10.470020
3214.000000	10.476600
3213.000000	10.481280
3212.000000	10.486249
3211.000000	10.490538
3210.000000	10.492146
3209.000000	10.492060
3208.000000	10.492237
3207.000000	10.491552
3206.000000	10.487645
3205.000000	10.480978
3204.000000	10.473120
3203.000000	10.463331
3202.000000	10.450672
3201.000000	10.437185
3200.000000	10.425028
3199.000000	10.412396
3198.000000	10.396394
3197.000000	10.377686
3196.000000	10.358383
3195.000000	10.337723
3194.000000	10.314016
3193.000000	10.288691
3192.000000	10.264247
3191.000000	10.240076
3190.000000	10.214422
3189.000000	10.188230
3188.000000	10.163091
3187.000000	10.137492
3186.000000	10.109189
3185.000000	10.079344
3184.000000	10.050359
3183.000000	10.021729
3182.000000	9.991869
3181.000000	9.961894
3180.000000	9.933637
3179.000000	9.906018
3178.000000	9.877164
3177.000000	9.848084
3176.000000	9.820508
3175.000000	9.793357
3174.000000	9.765142
3173.000000	9.737541
3172.000000	9.712794
3171.000000	9.689863
3170.000000	9.666815
3169.000000	9.644580
3168.000000	9.624686
3167.000000	9.605657
3166.000000	9.585588
3165.000000	9.565858
3164.000000	9.548644
3163.000000	9.533209
3162.000000	9.518176
3161.000000	9.504935
3160.000000	9.494985
3159.000000	9.486441
3158.000000	9.476849
3157.000000	9.466816
3156.000000	9.457568
3155.000000	9.448038
3154.000000	9.438294
3153.000000	9.432818
3152.000000	9.435743
3151.000000	9.445374
3150.000000	9.457116
3149.000000	9.469277
3148.000000	9.482199
3147.000000	9.494663
3146.000000	9.505695
3145.000000	9.517493
3144.000000	9.532239
3143.000000	9.548327
3142.000000	9.563600
3141.000000	9.580149
3140.000000	9.601859
3139.000000	9.629182
3138.000000	9.660035
3137.000000	9.693403
3136.000000	9.728497
3135.000000	9.762931
3134.000000	9.795421
3133.000000	9.828538
3132.000000	9.865279
3131.000000	9.905329
3130.000000	9.947554
3129.000000	9.993099
3128.000000	10.042659
3127.000000	10.093480
3126.000000	10.142678
3125.000000	10.190953
3124.000000	10.239759
3123.000000	10.288042
3122.000000	10.335403
3121.000000	10.385312
3120.000000	10.441241
3119.000000	10.502081
3118.000000	10.565262
3117.000000	10.631487
3116.000000	10.702562
3115.000000	10.777241
3114.000000	10.852819
3113.000000	10.928652
3112.000000	11.004739
3111.000000	11.079818
3110.000000	11.154301
3109.000000	11.232105
3108.000000	11.315861
3107.000000	11.402869
3106.000000	11.489116
3105.000000	11.574528
3104.000000	11.660844
3103.000000	11.747614
3102.000000	11.834379
3101.000000	11.923840
3100.000000	12.018776
3099.000000	12.117725
3098.000000	12.217504
3097.000000	12.317599
3096.000000	12.418605
3095.000000	12.519006
3094.000000	12.617334
3093.000000	12.715533
3092.000000	12.816796
3091.000000	12.921811
3090.000000	13.029839
3089.000000	13.140840
3088.000000	13.253673
3087.000000	13.365063
3086.000000	13.473658
3085.000000	13.582752
3084.000000	13.695828
3083.000000	13.811912
3082.000000	13.928501
3081.000000	14.046141
3080.000000	14.166877
3079.000000	14.290605
3078.000000	14.416347
3077.000000	14.544687
3076.000000	14.675608
3075.000000	14.806407
3074.000000	14.934916
3073.000000	15.062555
3072.000000	15.191246
3071.000000	15.319729
3070.000000	15.446228
3069.000000	15.572372
3068.000000	15.701123
3067.000000	15.832805
3066.000000	15.966033
3065.000000	16.100648
3064.000000	16.236843
3063.000000	16.373420
3062.000000	16.509577
3061.000000	16.646315
3060.000000	16.783789
3059.000000	16.919699
3058.000000	17.052744
3057.000000	17.185244
3056.000000	17.319706
3055.000000	17.455292
3054.000000	17.590304
3053.000000	17.725719
3052.000000	17.863479
3051.000000	18.003342
3050.000000	18.143883
3049.000000	18.284356
3048.000000	18.423447
3047.000000	18.558767
3046.000000	18.690156
3045.000000	18.821182
3044.000000	18.955225
3043.000000	19.092385
3042.000000	19.232027
3041.000000	19.375004
3040.000000	19.520698
3039.000000	19.664859
3038.000000	19.803628
3037.000000	19.937638
3036.000000	20.069965
3035.000000	20.202483
3034.000000	20.336497
3033.000000	20.473953
3032.000000	20.614999
3031.000000	20.756650
3030.000000	20.896359
3029.000000	21.034619
3028.000000	21.172183
3027.000000	21.307728
3026.000000	21.440899
3025.000000	21.574553
3024.000000	21.711028
3023.000000	21.848697
3022.000000	21.984978
3021.000000	22.120134
3020.000000	22.255328
3019.000000	22.389336
3018.000000	22.520393
3017.000000	22.649248
3016.000000	22.777808
3015.000000	22.906793
3014.000000	23.037125
3013.000000	23.171306
3012.000000	23.310535
3011.000000	23.452402
3010.000000	23.593633
3009.000000	23.733259
3008.000000	23.871142
3007.000000	24.006090
3006.000000	24.137919
3005.000000	24.269126
3004.000000	24.401989
3003.000000	24.535701
3002.000000	24.668428
3001.000000	24.800039
3000.000000	24.930982
2999.000000	25.060757
2998.000000	25.189631
2997.000000	25.319404
2996.000000	25.450479
2995.000000	25.580691
2994.000000	25.709216
2993.000000	25.839013
2992.000000	25.972795
2991.000000	26.109004
2990.000000	26.244233
2989.000000	26.377377
2988.000000	26.508834
2987.000000	26.638052
2986.000000	26.764666
2985.000000	26.890285
2984.000000	27.016610
2983.000000	27.143433
2982.000000	27.270578
2981.000000	27.399630
2980.000000	27.531396
2979.000000	27.663550
2978.000000	27.793392
2977.000000	27.921325
2976.000000	28.049566
2975.000000	28.179209
2974.000000	28.310635
2973.000000	28.444735
2972.000000	28.581433
2971.000000	28.718676
2970.000000	28.855002
2969.000000	28.991396
2968.000000	29.128788
2967.000000	29.265911
2966.000000	29.401771
2965.000000	29.538113
2964.000000	29.677075
2963.000000	29.818167
2962.000000	29.959607
2961.000000	30.100572
2960.000000	30.239940
2959.000000	30.375152
2958.000000	30.504497
2957.000000	30.628756
2956.000000	30.748731
2955.000000	30.863639
2954.000000	30.973995
2953.000000	31.083200
2952.000000	31.193847
2951.000000	31.304579
2950.000000	31.413256
2949.000000	31.520900
2948.000000	31.630160
2947.000000	31.742117
2946.000000	31.857061
2945.000000	31.976466
2944.000000	32.101321
2943.000000	32.230018
2942.000000	32.360113
2941.000000	32.490838
2940.000000	32.622130
2939.000000	32.753157
2938.000000	32.884042
2937.000000	33.017203
2936.000000	33.154788
2935.000000	33.296383
2934.000000	33.441097
2933.000000	33.589870
2932.000000	33.743613
2931.000000	33.901092
2930.000000	34.061133
2929.000000	34.225148
2928.000000	34.395417
2927.000000	34.572859
2926.000000	34.758437
2925.000000	34.954603
2924.000000	35.162604
2923.000000	35.380308
2922.000000	35.604510
2921.000000	35.832888
2920.000000	36.060357
2919.000000	36.274385
2918.000000	36.456905
2917.000000	36.590273
2916.000000	36.663122
2915.000000	36.674806
2914.000000	36.638424
2913.000000	36.577733
2912.000000	36.517123
2911.000000	36.472623
2910.000000	36.451000
2909.000000	36.453759
2908.000000	36.478815
2907.000000	36.521329
2906.000000	36.576036
2905.000000	36.639462
2904.000000	36.708978
2903.000000	36.781594
2902.000000	36.855188
2901.000000	36.930031
2900.000000	37.006303
2899.000000	37.082935
2898.000000	37.158986
2897.000000	37.234760
2896.000000	37.310141
2895.000000	37.383674
2894.000000	37.454870
2893.000000	37.525514
2892.000000	37.596906
2891.000000	37.667650
2890.000000	37.735956
2889.000000	37.802391
2888.000000	37.868435
2887.000000	37.934061
2886.000000	37.998602
2885.000000	38.062426
2884.000000	38.125645
2883.000000	38.186614
2882.000000	38.243703
2881.000000	38.297410
2880.000000	38.349097
2879.000000	38.399199
2878.000000	38.448532
2877.000000	38.499805
2876.000000	38.555478
2875.000000	38.614872
2874.000000	38.675223
2873.000000	38.734681
2872.000000	38.792998
2871.000000	38.850899
2870.000000	38.910661
2869.000000	38.976231
2868.000000	39.050791
2867.000000	39.134967
2866.000000	39.228811
2865.000000	39.333803
2864.000000	39.451177
2863.000000	39.579476
2862.000000	39.715702
2861.000000	39.857905
2860.000000	40.005230
2859.000000	40.157150
2858.000000	40.314973
2857.000000	40.483367
2856.000000	40.668963
2855.000000	40.877967
2854.000000	41.115034
2853.000000	41.380063
2852.000000	41.661067
2851.000000	41.928794
2850.000000	42.143631
2849.000000	42.273011
2848.000000	42.308021
2847.000000	42.267950
2846.000000	42.190072
2845.000000	42.112079
2844.000000	42.058535
2843.000000	42.037642
2842.000000	42.047041
2841.000000	42.080759
2840.000000	42.131373
2839.000000	42.191030
2838.000000	42.254455
2837.000000	42.320566
2836.000000	42.390147
2835.000000	42.462978
2834.000000	42.538079
2833.000000	42.615228
2832.000000	42.694515
2831.000000	42.775048
2830.000000	42.855780
2829.000000	42.936762
2828.000000	43.018395
2827.000000	43.100252
2826.000000	43.181767
2825.000000	43.263208
2824.000000	43.344814
2823.000000	43.425872
2822.000000	43.505798
2821.000000	43.585205
2820.000000	43.664869
2819.000000	43.744660
2818.000000	43.824577
2817.000000	43.905640
2816.000000	43.988451
2815.000000	44.071889
2814.000000	44.154542
2813.000000	44.236406
2812.000000	44.317936
2811.000000	44.398503
2810.000000	44.477304
2809.000000	44.555002
2808.000000	44.633080
2807.000000	44.712272
2806.000000	44.792790
2805.000000	44.875110
2804.000000	44.959137
2803.000000	45.043351
2802.000000	45.126133
2801.000000	45.207261
2800.000000	45.287010
2799.000000	45.364770
2798.000000	45.440105
2797.000000	45.514457
2796.000000	45.590233
2795.000000	45.668549
2794.000000	45.748959
2793.000000	45.830655
2792.000000	45.912509
2791.000000	45.992524
2790.000000	46.068786
2789.000000	46.141016
2788.000000	46.210445
2787.000000	46.278650
2786.000000	46.347349
2785.000000	46.418423
2784.000000	46.492727
2783.000000	46.569052
2782.000000	46.645186
2781.000000	46.719664
2780.000000	46.791905
2779.000000	46.861567
2778.000000	46.928937
2777.000000	46.995295
2776.000000	47.061787
2775.000000	47.128411
2774.000000	47.194941
2773.000000	47.262039
2772.000000	47.330289
2771.000000	47.398834
2770.000000	47.466164
2769.000000	47.531726
2768.000000	47.595844
2767.000000	47.658839
2766.000000	47.721428
2765.000000	47.785324
2764.000000	47.852039
2763.000000	47.921322
2762.000000	47.991733
2761.000000	48.062188
2760.000000	48.131917
2759.000000	48.199672
2758.000000	48.264448
2757.000000	48.326739
2756.000000	48.388002
2755.000000	48.449175
2754.000000	48.510609
2753.000000	48.572836
2752.000000	48.636103
2751.000000	48.699485
2750.000000	48.761596
2749.000000	48.821940
2748.000000	48.880749
2747.000000	48.938043
2746.000000	48.993955
2745.000000	49.049519
2744.000000	49.105848
2743.000000	49.162794
2742.000000	49.219362
2741.000000	49.275097
2740.000000	49.330063
2739.000000	49.383918
2738.000000	49.436225
2737.000000	49.487480
2736.000000	49.538742
2735.000000	49.590441
2734.000000	49.642314
2733.000000	49.694116
2732.000000	49.745408
2731.000000	49.795085
2730.000000	49.842286
2729.000000	49.887459
2728.000000	49.931680
2727.000000	49.975415
2726.000000	50.018923
2725.000000	50.063250
2724.000000	50.109325
2723.000000	50.156324
2722.000000	50.202186
2721.000000	50.245625
2720.000000	50.286676
2719.000000	50.325637
2718.000000	50.362869
2717.000000	50.399598
2716.000000	50.437608
2715.000000	50.477904
2714.000000	50.520381
2713.000000	50.564457
2712.000000	50.608974
2711.000000	50.651728
2710.000000	50.690483
2709.000000	50.724689
2708.000000	50.755548
2707.000000	50.784722
2706.000000	50.813774
2705.000000	50.844421
2704.000000	50.877745
2703.000000	50.912915
2702.000000	50.947634
2701.000000	50.979839
2700.000000	51.008412
2699.000000	51.032751
2698.000000	51.053008
2697.000000	51.070800
2696.000000	51.088420
2695.000000	51.107172
2694.000000	51.127062
2693.000000	51.147714
2692.000000	51.168521
2691.000000	51.188011
2690.000000	51.204427
2689.000000	51.217136
2688.000000	51.226705
2687.000000	51.233899
2686.000000	51.239535
2685.000000	51.245076
2684.000000	51.252035
2683.000000	51.260514
2682.000000	51.269329
2681.000000	51.277411
2680.000000	51.284221
2679.000000	51.289109
2678.000000	51.291687
2677.000000	51.293064
2676.000000	51.295562
2675.000000	51.300902
2674.000000	51.309406
2673.000000	51.320947
2672.000000	51.335558
2671.000000	51.353125
2670.000000	51.373518
2669.000000	51.397235
2668.000000	51.425424
2667.000000	51.458928
2666.000000	51.498127
2665.000000	51.543515
2664.000000	51.595245
2663.000000	51.652372
2662.000000	51.713056
2661.000000	51.775792
2660.000000	51.839908
2659.000000	51.904941
2658.000000	51.970677
2657.000000	52.037592
2656.000000	52.106371
2655.000000	52.176847
2654.000000	52.247853
2653.000000	52.318056
2652.000000	52.386266
2651.000000	52.451199
2650.000000	52.511957
2649.000000	52.568953
2648.000000	52.623564
2647.000000	52.676942
2646.000000	52.729783
2645.000000	52.782784
2644.000000	52.836286
2643.000000	52.889221
2642.000000	52.939455
2641.000000	52.985413
2640.000000	53.026606
2639.000000	53.063041
2638.000000	53.095179
2637.000000	53.124697
2636.000000	53.154141
2635.000000	53.185054
2634.000000	53.217111
2633.000000	53.248976
2632.000000	53.279265
2631.000000	53.306766
2630.000000	53.330813
2629.000000	53.352089
2628.000000	53.372398
2627.000000	53.393325
2626.000000	53.415617
2625.000000	53.439695
2624.000000	53.465790
2623.000000	53.493252
2622.000000	53.520493
2621.000000	53.546038
2620.000000	53.569235
2619.000000	53.590088
2618.000000	53.609195
2617.000000	53.627927
2616.000000	53.647811
2615.000000	53.669300
2614.000000	53.691502
2613.000000	53.712947
2612.000000	53.731988
2611.000000	53.746973
2610.000000	53.757036
2609.000000	53.762978
2608.000000	53.766565
2607.000000	53.768679
2606.000000	53.769037
2605.000000	53.767198
2604.000000	53.762818
2603.000000	53.754929
2602.000000	53.741954
2601.000000	53.723245
2600.000000	53.699744
2599.000000	53.673237
2598.000000	53.645949
2597.000000	53.620763
2596.000000	53.600641
2595.000000	53.587192
2594.000000	53.580382
2593.000000	53.579611
2592.000000	53.584690
2591.000000	53.595613
2590.000000	53.612758
2589.000000	53.637731
2588.000000	53.672720
2587.000000	53.719287
2586.000000	53.777482
2585.000000	53.846148
2584.000000	53.923301
2583.000000	54.005676
2582.000000	54.089668
2581.000000	54.172937
2580.000000	54.255095
2579.000000	54.337175
2578.000000	54.420733
2577.000000	54.507673
2576.000000	54.599496
2575.000000	54.696110
2574.000000	54.795766
2573.000000	54.896146
2572.000000	54.995270
2571.000000	55.091630
2570.000000	55.184547
2569.000000	55.274914
2568.000000	55.364872
2567.000000	55.456458
2566.000000	55.550735
2565.000000	55.647940
2564.000000	55.747420
2563.000000	55.847266
2562.000000	55.944874
2561.000000	56.038383
2560.000000	56.127312
2559.000000	56.211946
2558.000000	56.293200
2557.000000	56.373049
2556.000000	56.453826
2555.000000	56.536412
2554.000000	56.619541
2553.000000	56.701285
2552.000000	56.780401
2551.000000	56.856125
2550.000000	56.927997
2549.000000	56.996401
2548.000000	57.062623
2547.000000	57.127693
2546.000000	57.191719
2545.000000	57.254744
2544.000000	57.316924
2543.000000	57.377552
2542.000000	57.434848
2541.000000	57.487420
2540.000000	57.535454
2539.000000	57.579665
2538.000000	57.620147
2537.000000	57.656679
2536.000000	57.688879
2535.000000	57.715669
2534.000000	57.734945
2533.000000	57.744864
2532.000000	57.744963
2531.000000	57.735195
2530.000000	57.715659
2529.000000	57.687411
2528.000000	57.652993
2527.000000	57.615421
2526.000000	57.576883
2525.000000	57.539318
2524.000000	57.504879
2523.000000	57.475406
2522.000000	57.452256
2521.000000	57.437518
2520.000000	57.434103
2519.000000	57.444301
2518.000000	57.469041
2517.000000	57.508272
2516.000000	57.561689
2515.000000	57.627332
2514.000000	57.701227
2513.000000	57.779495
2512.000000	57.859781
2511.000000	57.941189
2510.000000	58.023254
2509.000000	58.106203
2508.000000	58.191146
2507.000000	58.278638
2506.000000	58.367773
2505.000000	58.456995
2504.000000	58.544979
2503.000000	58.630037
2502.000000	58.709938
2501.000000	58.783460
2500.000000	58.851615
2499.000000	58.916594
2498.000000	58.979996
2497.000000	59.043022
2496.000000	59.106724
2495.000000	59.170994
2494.000000	59.233989
2493.000000	59.293531
2492.000000	59.348773
2491.000000	59.399699
2490.000000	59.446314
2489.000000	59.489507
2488.000000	59.531545
2487.000000	59.574483
2486.000000	59.618471
2485.000000	59.662503
2484.000000	59.705968
2483.000000	59.748188
2482.000000	59.787767
2481.000000	59.823794
2480.000000	59.857186
2479.000000	59.889667
2478.000000	59.921993
2477.000000	59.954320
2476.000000	59.987259
2475.000000	60.021155
2474.000000	60.055010
2473.000000	60.087382
2472.000000	60.117916
2471.000000	60.146972
2470.000000	60.174543
2469.000000	60.200864
2468.000000	60.227275
2467.000000	60.255138
2466.000000	60.284290
2465.000000	60.313548
2464.000000	60.342132
2463.000000	60.369499
2462.000000	60.394721
2461.000000	60.417396
2460.000000	60.438673
2459.000000	60.460269
2458.000000	60.482998
2457.000000	60.507077
2456.000000	60.532903
2455.000000	60.560227
2454.000000	60.587420
2453.000000	60.612812
2452.000000	60.636213
2451.000000	60.658152
2450.000000	60.678574
2449.000000	60.697606
2448.000000	60.716774
2447.000000	60.737962
2446.000000	60.761570
2445.000000	60.786633
2444.000000	60.812013
2443.000000	60.836483
2442.000000	60.858598
2441.000000	60.877848
2440.000000	60.895338
2439.000000	60.912390
2438.000000	60.929287
2437.000000	60.946175
2436.000000	60.963966
2435.000000	60.982899
2434.000000	61.001243
2433.000000	61.016664
2432.000000	61.028002
2431.000000	61.034910
2430.000000	61.037324
2429.000000	61.037361
2428.000000	61.040588
2427.000000	61.053399
2426.000000	61.078737
2425.000000	61.115078
2424.000000	61.158204
2423.000000	61.202950
2422.000000	61.244849
2421.000000	61.282013
2420.000000	61.315623
2419.000000	61.347401
2418.000000	61.377501
2417.000000	61.405612
2416.000000	61.432654
2415.000000	61.459729
2414.000000	61.486521
2413.000000	61.512331
2412.000000	61.537636
2411.000000	61.563253
2410.000000	61.588925
2409.000000	61.614312
2408.000000	61.640288
2407.000000	61.667632
2406.000000	61.695385
2405.000000	61.722042
2404.000000	61.747468
2403.000000	61.772213
2402.000000	61.796070
2401.000000	61.818959
2400.000000	61.842225
2399.000000	61.867441
2398.000000	61.894732
2397.000000	61.923632
2396.000000	61.954360
2395.000000	61.986709
2394.000000	62.018903
2393.000000	62.049370
2392.000000	62.078606
2391.000000	62.107913
2390.000000	62.137651
2389.000000	62.168023
2388.000000	62.200776
2387.000000	62.237563
2386.000000	62.278029
2385.000000	62.321528
2384.000000	62.368125
2383.000000	62.418126
2382.000000	62.469867
2381.000000	62.521254
2380.000000	62.572626
2379.000000	62.624833
2378.000000	62.678112
2377.000000	62.732989
2376.000000	62.791419
2375.000000	62.853908
2374.000000	62.918312
2373.000000	62.982384
2372.000000	63.046556
2371.000000	63.111207
2370.000000	63.172941
2369.000000	63.229403
2368.000000	63.282738
2367.000000	63.335441
2366.000000	63.386780
2365.000000	63.436881
2364.000000	63.492716
2363.000000	63.554277
2362.000000	63.615239
2361.000000	63.675694
2360.000000	63.735834
2359.000000	63.797613
2358.000000	63.856895
2357.000000	63.907090
2356.000000	63.952567
2355.000000	63.991115
2354.000000	64.028580
2353.000000	64.071758
2352.000000	64.135739
2351.000000	64.223774
2350.000000	64.310956
2349.000000	64.377415
2348.000000	64.421844
2347.000000	64.470316
2346.000000	64.541874
2345.000000	64.620609
2344.000000	64.689806
2343.000000	64.735999
2342.000000	64.775248
2341.000000	64.816092
2340.000000	64.860253
2339.000000	64.909165
2338.000000	64.962913
2337.000000	65.024840
2336.000000	65.090476
2335.000000	65.159507
2334.000000	65.225082
2333.000000	65.288598
2332.000000	65.344363
2331.000000	65.403723
2330.000000	65.459450
2329.000000	65.523595
2328.000000	65.586338
2327.000000	65.652918
2326.000000	65.717628
2325.000000	65.778974
2324.000000	65.838175
2323.000000	65.892436
2322.000000	65.942821
2321.000000	65.987954
2320.000000	66.030842
2319.000000	66.078706
2318.000000	66.130461
2317.000000	66.189656
2316.000000	66.249477
2315.000000	66.315167
2314.000000	66.377362
2313.000000	66.438190
2312.000000	66.489597
2311.000000	66.539826
2310.000000	66.586109
2309.000000	66.635030
2308.000000	66.684444
2307.000000	66.741117
2306.000000	66.802048
2305.000000	66.867303
2304.000000	66.931164
2303.000000	66.994566
2302.000000	67.052664
2301.000000	67.106344
2300.000000	67.154059
2299.000000	67.202728
2298.000000	67.252674
2297.000000	67.306665
2296.000000	67.362532
2295.000000	67.422181
2294.000000	67.482439
2293.000000	67.540745
2292.000000	67.594607
2291.000000	67.644975
2290.000000	67.692371
2289.000000	67.736873
2288.000000	67.780636
2287.000000	67.826605
2286.000000	67.876397
2285.000000	67.928257
2284.000000	67.981335
2283.000000	68.034788
2282.000000	68.087261
2281.000000	68.136300
2280.000000	68.182109
2279.000000	68.226662
2278.000000	68.270934
2277.000000	68.314651
2276.000000	68.358506
2275.000000	68.404298
2274.000000	68.451092
2273.000000	68.496301
2272.000000	68.538652
2271.000000	68.579275
2270.000000	68.618488
2269.000000	68.655663
2268.000000	68.691576
2267.000000	68.728268
2266.000000	68.765774
2265.000000	68.802457
2264.000000	68.837588
2263.000000	68.871607
2262.000000	68.903761
2261.000000	68.932529
2260.000000	68.959203
2259.000000	68.986324
2258.000000	69.014534
2257.000000	69.042062
2256.000000	69.068354
2255.000000	69.093941
2254.000000	69.117254
2253.000000	69.135809
2252.000000	69.149631
2251.000000	69.161784
2250.000000	69.173771
2249.000000	69.185312
2248.000000	69.196900
2247.000000	69.209843
2246.000000	69.222848
2245.000000	69.232310
2244.000000	69.236054
2243.000000	69.234269
2242.000000	69.227121
2241.000000	69.215049
2240.000000	69.201214
2239.000000	69.189942
2238.000000	69.182415
2237.000000	69.176362
2236.000000	69.169733
2235.000000	69.161171
2234.000000	69.147706
2233.000000	69.126015
2232.000000	69.096589
2231.000000	69.063641
2230.000000	69.030851
2229.000000	69.000172
2228.000000	68.973924
2227.000000	68.953977
2226.000000	68.938326
2225.000000	68.921748
2224.000000	68.900234
2223.000000	68.872443
2222.000000	68.837673
2221.000000	68.796444
2220.000000	68.753087
2219.000000	68.714197
2218.000000	68.683689
2217.000000	68.661466
2216.000000	68.646026
2215.000000	68.634889
2214.000000	68.622970
2213.000000	68.604667
2212.000000	68.578609
2211.000000	68.547958
2210.000000	68.516528
2209.000000	68.487610
2208.000000	68.465541
2207.000000	68.454166
2206.000000	68.452890
2205.000000	68.457039
2204.000000	68.462135
2203.000000	68.465254
2202.000000	68.463344
2201.000000	68.454485
2200.000000	68.441250
2199.000000	68.429561
2198.000000	68.423725
2197.000000	68.424991
2196.000000	68.433865
2195.000000	68.449883
2194.000000	68.469161
2193.000000	68.485832
2192.000000	68.496771
2191.000000	68.502400
2190.000000	68.503677
2189.000000	68.501769
2188.000000	68.500161
2187.000000	68.503099
2186.000000	68.511299
2185.000000	68.522106
2184.000000	68.533362
2183.000000	68.544084
2182.000000	68.552015
2181.000000	68.554633
2180.000000	68.552673
2179.000000	68.549309
2178.000000	68.545898
2177.000000	68.541779
2176.000000	68.537658
2175.000000	68.535414
2174.000000	68.534727
2173.000000	68.533370
2172.000000	68.530838
2171.000000	68.528308
2170.000000	68.525425
2169.000000	68.520929
2168.000000	68.515952
2167.000000	68.512851
2166.000000	68.510985
2165.000000	68.507392
2164.000000	68.501410
2163.000000	68.495005
2162.000000	68.488948
2161.000000	68.482754
2160.000000	68.478217
2159.000000	68.478742
2158.000000	68.484622
2157.000000	68.492472
2156.000000	68.499327
2155.000000	68.503867
2154.000000	68.503954
2153.000000	68.497308
2152.000000	68.485296
2151.000000	68.472509
2150.000000	68.462433
2149.000000	68.456598
2148.000000	68.456943
2147.000000	68.464519
2146.000000	68.475893
2145.000000	68.484284
2144.000000	68.485282
2143.000000	68.478671
2142.000000	68.465072
2141.000000	68.445401
2140.000000	68.424071
2139.000000	68.408315
2138.000000	68.402776
2137.000000	68.407180
2136.000000	68.418809
2135.000000	68.433783
2134.000000	68.446087
2133.000000	68.449871
2132.000000	68.444107
2131.000000	68.432527
2130.000000	68.419238
2129.000000	68.407702
2128.000000	68.402670
2127.000000	68.408364
2126.000000	68.423956
2125.000000	68.444041
2124.000000	68.463693
2123.000000	68.480228
2122.000000	68.491075
2121.000000	68.494229
2120.000000	68.491571
2119.000000	68.488168
2118.000000	68.488082
2117.000000	68.493736
2116.000000	68.508082
2115.000000	68.532795
2114.000000	68.564402
2113.000000	68.596406
2112.000000	68.625549
2111.000000	68.652465
2110.000000	68.677164
2109.000000	68.698850
2108.000000	68.720003
2107.000000	68.745797
2106.000000	68.778465
2105.000000	68.816626
2104.000000	68.859914
2103.000000	68.909353
2102.000000	68.963614
2101.000000	69.018567
2100.000000	69.072329
2099.000000	69.125787
2098.000000	69.178287
2097.000000	69.228364
2096.000000	69.276907
2095.000000	69.326142
2094.000000	69.375944
2093.000000	69.425631
2092.000000	69.478673
2091.000000	69.539962
2090.000000	69.608304
2089.000000	69.676699
2088.000000	69.740041
2087.000000	69.797433
2086.000000	69.847435
2085.000000	69.887362
2084.000000	69.918343
2083.000000	69.945451
2082.000000	69.972023
2081.000000	69.998047
2080.000000	70.024458
2079.000000	70.052831
2078.000000	70.080167
2077.000000	70.100988
2076.000000	70.112523
2075.000000	70.116260
2074.000000	70.112695
2073.000000	70.100439
2072.000000	70.083363
2071.000000	70.068389
2070.000000	70.056491
2069.000000	70.042502
2068.000000	70.026407
2067.000000	70.017026
2066.000000	70.020405
2065.000000	70.030747
2064.000000	70.037587
2063.000000	70.037239
2062.000000	70.033298
2061.000000	70.030919
2060.000000	70.034284
2059.000000	70.046669
2058.000000	70.068849
2057.000000	70.099057
2056.000000	70.135225
2055.000000	70.175971
2054.000000	70.218373
2053.000000	70.258042
2052.000000	70.294816
2051.000000	70.333269
2050.000000	70.375792
2049.000000	70.421693
2048.000000	70.473688
2047.000000	70.536053
2046.000000	70.607143
2045.000000	70.680739
2044.000000	70.756268
2043.000000	70.840155
2042.000000	70.935207
2041.000000	71.035721
2040.000000	71.135304
2039.000000	71.233581
2038.000000	71.333052
2037.000000	71.435261
2036.000000	71.542597
2035.000000	71.657897
2034.000000	71.780510
2033.000000	71.906557
2032.000000	72.032884
2031.000000	72.159249
2030.000000	72.283600
2029.000000	72.403044
2028.000000	72.518836
2027.000000	72.635098
2026.000000	72.753601
2025.000000	72.871811
2024.000000	72.991957
2023.000000	73.116623
2022.000000	73.238526
2021.000000	73.345515
2020.000000	73.439119
2019.000000	73.537995
2018.000000	73.657364
2017.000000	73.792286
2016.000000	73.926410
2015.000000	74.050084
2014.000000	74.163743
2013.000000	74.271396
2012.000000	74.376758
2011.000000	74.482427
2010.000000	74.588126
2009.000000	74.692265
2008.000000	74.793913
2007.000000	74.892362
2006.000000	74.986604
2005.000000	75.073460
2004.000000	75.155114
2003.000000	75.234403
2002.000000	75.312413
2001.000000	75.389731
2000.000000	75.466280
1999.000000	75.548546
1998.000000	75.635622
1997.000000	75.709770
1996.000000	75.752327
1995.000000	75.770868
1994.000000	75.798524
1993.000000	75.861682
1992.000000	75.951812
1991.000000	76.040223
1990.000000	76.113285
1989.000000	76.181357
1988.000000	76.258103
1987.000000	76.340608
1986.000000	76.416594
1985.000000	76.482367
1984.000000	76.546233
1983.000000	76.611634
1982.000000	76.672747
1981.000000	76.724836
1980.000000	76.767943
1979.000000	76.808658
1978.000000	76.849333
1977.000000	76.889702
1976.000000	76.932587
1975.000000	76.984189
1974.000000	77.044938
1973.000000	77.105155
1972.000000	77.149615
1971.000000	77.166103
1970.000000	77.155804
1969.000000	77.142749
1968.000000	77.161994
1967.000000	77.224068
1966.000000	77.302464
1965.000000	77.367590
1964.000000	77.419330
1963.000000	77.474341
1962.000000	77.535798
1961.000000	77.590179
1960.000000	77.628903
1959.000000	77.654255
1958.000000	77.668148
1957.000000	77.675238
1956.000000	77.689310
1955.000000	77.723264
1954.000000	77.771377
1953.000000	77.818753
1952.000000	77.864148
1951.000000	77.904074
1950.000000	77.926954
1949.000000	77.929901
1948.000000	77.922927
1947.000000	77.908066
1946.000000	77.873437
1945.000000	77.829513
1944.000000	77.828616
1943.000000	77.907332
1942.000000	78.027903
1941.000000	78.121298
1940.000000	78.167711
1939.000000	78.195117
1938.000000	78.221661
1937.000000	78.238162
1936.000000	78.242026
1935.000000	78.252983
1934.000000	78.280062
1933.000000	78.311218
1932.000000	78.341337
1931.000000	78.365906
1930.000000	78.384423
1929.000000	78.393519
1928.000000	78.384970
1927.000000	78.347762
1926.000000	78.270543
1925.000000	78.195855
1924.000000	78.193321
1923.000000	78.273108
1922.000000	78.364153
1921.000000	78.403328
1920.000000	78.409993
1919.000000	78.441780
1918.000000	78.489267
1917.000000	78.497903
1916.000000	78.462121
1915.000000	78.428578
1914.000000	78.415744
1913.000000	78.396233
1912.000000	78.357317
1911.000000	78.324774
1910.000000	78.327939
1909.000000	78.351685
1908.000000	78.365213
1907.000000	78.368049
1906.000000	78.365385
1905.000000	78.368510
1904.000000	78.382243
1903.000000	78.403802
1902.000000	78.430610
1901.000000	78.450967
1900.000000	78.446552
1899.000000	78.409688
1898.000000	78.341884
1897.000000	78.275663
1896.000000	78.256856
1895.000000	78.291019
1894.000000	78.326160
1893.000000	78.310935
1892.000000	78.261556
1891.000000	78.252003
1890.000000	78.316291
1889.000000	78.397808
1888.000000	78.431028
1887.000000	78.420468
1886.000000	78.410940
1885.000000	78.426032
1884.000000	78.455958
1883.000000	78.482887
1882.000000	78.505516
1881.000000	78.523665
1880.000000	78.531881
1879.000000	78.536224
1878.000000	78.538921
1877.000000	78.534812
1876.000000	78.531530
1875.000000	78.537112
1874.000000	78.533482
1873.000000	78.482448
1872.000000	78.362077
1871.000000	78.207954
1870.000000	78.106033
1869.000000	78.107957
1868.000000	78.181301
1867.000000	78.271840
1866.000000	78.353946
1865.000000	78.416260
1864.000000	78.451277
1863.000000	78.460764
1862.000000	78.452824
1861.000000	78.433594
1860.000000	78.408102
1859.000000	78.385286
1858.000000	78.371206
1857.000000	78.361704
1856.000000	78.354154
1855.000000	78.352260
1854.000000	78.361489
1853.000000	78.369237
1852.000000	78.337002
1851.000000	78.267646
1850.000000	78.189060
1849.000000	78.123665
1848.000000	78.077874
1847.000000	78.064198
1846.000000	78.115290
1845.000000	78.231571
1844.000000	78.316051
1843.000000	78.277743
1842.000000	78.154139
1841.000000	78.025805
1840.000000	77.930484
1839.000000	77.865301
1838.000000	77.811833
1837.000000	77.776681
1836.000000	77.766572
1835.000000	77.757567
1834.000000	77.702156
1833.000000	77.561767
1832.000000	77.380788
1831.000000	77.301192
1830.000000	77.351331
1829.000000	77.387914
1828.000000	77.319173
1827.000000	77.212309
1826.000000	77.172682
1825.000000	77.200988
1824.000000	77.223377
1823.000000	77.213448
1822.000000	77.195517
1821.000000	77.172959
1820.000000	77.131574
1819.000000	77.074077
1818.000000	77.008875
1817.000000	76.946169
1816.000000	76.873256
1815.000000	76.766909
1814.000000	76.624288
1813.000000	76.472103
1812.000000	76.377409
1811.000000	76.362221
1810.000000	76.375678
1809.000000	76.373437
1808.000000	76.353507
1807.000000	76.325697
1806.000000	76.278667
1805.000000	76.192998
1804.000000	76.060113
1803.000000	75.901884
1802.000000	75.775466
1801.000000	75.705501
1800.000000	75.681852
1799.000000	75.661901
1798.000000	75.622865
1797.000000	75.580696
1796.000000	75.551935
1795.000000	75.526590
1794.000000	75.503821
1793.000000	75.496210
1792.000000	75.493601
1791.000000	75.454945
1790.000000	75.383858
1789.000000	75.315309
1788.000000	75.269818
1787.000000	75.243894
1786.000000	75.217654
1785.000000	75.161494
1784.000000	75.038038
1783.000000	74.859538
1782.000000	74.720043
1781.000000	74.658410
1780.000000	74.637497
1779.000000	74.589230
1778.000000	74.513949
1777.000000	74.455263
1776.000000	74.417596
1775.000000	74.371888
1774.000000	74.334361
1773.000000	74.348314
1772.000000	74.363534
1771.000000	74.308163
1770.000000	74.198396
1769.000000	74.098971
1768.000000	74.034804
1767.000000	73.967617
1766.000000	73.868907
1765.000000	73.748732
1764.000000	73.654542
1763.000000	73.631807
1762.000000	73.637425
1761.000000	73.552991
1760.000000	73.374727
1759.000000	73.188148
1758.000000	73.098577
1757.000000	73.101628
1756.000000	73.105212
1755.000000	73.075950
1754.000000	73.015042
1753.000000	72.883511
1752.000000	72.636977
1751.000000	72.306133
1750.000000	71.987587
1749.000000	71.794658
1748.000000	71.726383
1747.000000	71.699461
1746.000000	71.650217
1745.000000	71.574658
1744.000000	71.527521
1743.000000	71.521152
1742.000000	71.507804
1741.000000	71.471183
1740.000000	71.448277
1739.000000	71.434198
1738.000000	71.427492
1737.000000	71.417281
1736.000000	71.400866
1735.000000	71.399035
1734.000000	71.245919
1733.000000	70.776226
1732.000000	70.212543
1731.000000	69.837146
1730.000000	69.703794
1729.000000	69.656848
1728.000000	69.548224
1727.000000	69.368964
1726.000000	69.156668
1725.000000	68.920294
1724.000000	68.695036
1723.000000	68.501110
1722.000000	68.324149
1721.000000	68.120572
1720.000000	67.875725
1719.000000	67.660642
1718.000000	67.474255
1717.000000	67.197463
1716.000000	66.839920
1715.000000	66.514224
1714.000000	66.237298
1713.000000	65.954868
1712.000000	65.648001
1711.000000	65.343914
1710.000000	65.045321
1709.000000	64.701102
1708.000000	64.296578
1707.000000	63.937883
1706.000000	63.717973
1705.000000	63.612498
1704.000000	63.576515
1703.000000	63.559276
1702.000000	63.486325
1701.000000	63.286371
1700.000000	62.837679
1699.000000	62.225073
1698.000000	61.740036
1697.000000	61.531198
1696.000000	61.408358
1695.000000	61.010309
1694.000000	60.362291
1693.000000	59.706023
1692.000000	59.155107
1691.000000	58.687458
1690.000000	58.289593
1689.000000	57.995493
1688.000000	57.804209
1687.000000	57.610578
1686.000000	57.280915
1685.000000	56.891359
1684.000000	56.428605
1683.000000	55.808213
1682.000000	55.195547
1681.000000	54.719532
1680.000000	54.381544
1679.000000	54.114660
1678.000000	53.856037
1677.000000	53.555194
1676.000000	53.185861
1675.000000	52.717845
1674.000000	52.166082
1673.000000	51.588914
1672.000000	51.067592
1671.000000	50.655871
1670.000000	50.338419
1669.000000	50.001606
1668.000000	49.592235
1667.000000	49.173952
1666.000000	48.776270
1665.000000	48.367573
1664.000000	47.953962
1663.000000	47.559515
1662.000000	47.173288
1661.000000	46.761658
1660.000000	46.335313
1659.000000	45.949607
1658.000000	45.653433
1657.000000	45.453975
1656.000000	45.273793
1655.000000	45.079449
1654.000000	44.973813
1653.000000	44.670003
1652.000000	43.900691
1651.000000	43.037293
1650.000000	42.339163
1649.000000	41.855042
1648.000000	41.578041
1647.000000	41.447849
1646.000000	41.258688
1645.000000	40.905386
1644.000000	40.472128
1643.000000	40.067166
1642.000000	39.724709
1641.000000	39.402988
1640.000000	39.082427
1639.000000	38.791667
1638.000000	38.549157
1637.000000	38.385691
1636.000000	38.266403
1635.000000	38.067522
1634.000000	37.754988
1633.000000	37.416714
1632.000000	37.115249
1631.000000	36.855819
1630.000000	36.625457
1629.000000	36.428899
1628.000000	36.272097
1627.000000	36.139526
1626.000000	36.004173
1625.000000	35.850509
1624.000000	35.712628
1623.000000	35.613346
1622.000000	35.535608
1621.000000	35.467570
1620.000000	35.427562
1619.000000	35.436420
1618.000000	35.497335
1617.000000	35.561826
1616.000000	35.532433
1615.000000	35.419753
1614.000000	35.314375
1613.000000	35.255756
1612.000000	35.228143
1611.000000	35.219422
1610.000000	35.246001
1609.000000	35.311965
1608.000000	35.401245
1607.000000	35.498324
1606.000000	35.599824
1605.000000	35.689707
1604.000000	35.766391
1603.000000	35.856907
1602.000000	35.975350
1601.000000	36.101875
1600.000000	36.215269
1599.000000	36.321574
1598.000000	36.430431
1597.000000	36.536255
1596.000000	36.641301
1595.000000	36.760468
1594.000000	36.894688
1593.000000	37.022257
1592.000000	37.133978
1591.000000	37.249127
1590.000000	37.384938
1589.000000	37.528654
1588.000000	37.662715
1587.000000	37.789545
1586.000000	37.915396
1585.000000	38.032485
1584.000000	38.125080
1583.000000	38.211387
1582.000000	38.312210
1581.000000	38.425672
1580.000000	38.546988
1579.000000	38.695185
1578.000000	38.890209
1577.000000	39.129664
1576.000000	39.315258
1575.000000	39.344700
1574.000000	39.282317
1573.000000	39.221197
1572.000000	39.192901
1571.000000	39.226962
1570.000000	39.359896
1569.000000	39.520055
1568.000000	39.603072
1567.000000	39.635990
1566.000000	39.700453
1565.000000	39.845183
1564.000000	40.061750
1563.000000	40.338896
1562.000000	40.578235
1561.000000	40.608565
1560.000000	40.604539
1559.000000	40.917475
1558.000000	41.197930
1557.000000	41.243308
1556.000000	41.230638
1555.000000	41.308035
1554.000000	41.433563
1553.000000	41.494360
1552.000000	41.507815
1551.000000	41.598921
1550.000000	41.825748
1549.000000	42.117784
1548.000000	42.367200
1547.000000	42.548533
1546.000000	42.707454
1545.000000	42.906071
1544.000000	43.156962
1543.000000	43.429082
1542.000000	43.717722
1541.000000	44.186850
1540.000000	44.864560
1539.000000	45.396664
1538.000000	45.602957
1537.000000	45.639471
1536.000000	45.684868
1535.000000	45.852281
1534.000000	46.221507
1533.000000	46.691926
1532.000000	47.095733
1531.000000	47.407465
1530.000000	47.688281
1529.000000	47.996110
1528.000000	48.360134
1527.000000	48.785489
1526.000000	49.236777
1525.000000	49.647124
1524.000000	50.002752
1523.000000	50.398486
1522.000000	50.928987
1521.000000	51.434771
1520.000000	51.684121
1519.000000	51.758908
1518.000000	51.924543
1517.000000	52.315768
1516.000000	52.799249
1515.000000	53.197306
1514.000000	53.475851
1513.000000	53.651090
1512.000000	53.753644
1511.000000	53.814891
1510.000000	53.855843
1509.000000	53.907978
1508.000000	54.260739
1507.000000	55.142719
1506.000000	56.009229
1505.000000	56.375458
1504.000000	56.426451
1503.000000	56.505121
1502.000000	56.747037
1501.000000	57.115671
1500.000000	57.557482
1499.000000	58.083145
1498.000000	58.702720
1497.000000	59.349261
1496.000000	59.898071
1495.000000	60.264522
1494.000000	60.473917
1493.000000	60.574165
1492.000000	60.615461
1491.000000	60.705012
1490.000000	60.937473
1489.000000	61.272217
1488.000000	61.645894
1487.000000	62.008887
1486.000000	62.299754
1485.000000	62.474437
1484.000000	62.527215
1483.000000	62.533659
1482.000000	62.538256
1481.000000	62.510111
1480.000000	62.398144
1479.000000	62.193139
1478.000000	61.895177
1477.000000	61.516321
1476.000000	61.092016
1475.000000	60.605453
1474.000000	59.997988
1473.000000	59.187275
1472.000000	58.134305
1471.000000	56.906543
1470.000000	55.585816
1469.000000	54.176184
1468.000000	52.647636
1467.000000	50.926400
1466.000000	48.900928
1465.000000	46.517336
1464.000000	43.921935
1463.000000	41.368086
1462.000000	38.944222
1461.000000	36.616755
1460.000000	34.357137
1459.000000	32.114173
1458.000000	29.759784
1457.000000	27.283238
1456.000000	25.099912
1455.000000	23.586112
1454.000000	22.635402
1453.000000	22.038895
1452.000000	21.738148
1451.000000	21.741903
1450.000000	22.030117
1449.000000	22.597121
1448.000000	23.466872
1447.000000	24.573412
1446.000000	25.779304
1445.000000	27.008291
1444.000000	28.280145
1443.000000	29.605585
1442.000000	30.935150
1441.000000	32.219702
1440.000000	33.454063
1439.000000	34.669453
1438.000000	35.916711
1437.000000	37.231622
1436.000000	38.489371
1435.000000	39.515381
1434.000000	40.325472
1433.000000	41.049090
1432.000000	41.747034
1431.000000	42.403274
1430.000000	42.983972
1429.000000	43.457674
1428.000000	43.787121
1427.000000	43.949072
1426.000000	43.992626
1425.000000	44.004211
1424.000000	44.053201
1423.000000	44.152923
1422.000000	44.262356
1421.000000	44.315282
1420.000000	44.293538
1419.000000	44.256265
1418.000000	44.235082
1417.000000	44.254854
1416.000000	44.347935
1415.000000	44.504790
1414.000000	44.686598
1413.000000	44.874782
1412.000000	45.082766
1411.000000	45.322008
1410.000000	45.572390
1409.000000	45.803541
1408.000000	46.004180
1407.000000	46.177132
1406.000000	46.359858
1405.000000	46.587704
1404.000000	46.844296
1403.000000	47.078332
1402.000000	47.258178
1401.000000	47.398767
1400.000000	47.536211
1399.000000	47.680542
1398.000000	47.807434
1397.000000	47.918124
1396.000000	48.043110
1395.000000	48.181133
1394.000000	48.276238
1393.000000	48.273089
1392.000000	48.175808
1391.000000	47.995509
1390.000000	47.680706
1389.000000	47.108795
1388.000000	46.167361
1387.000000	44.906492
1386.000000	43.653397
1385.000000	42.877449
1384.000000	42.916024
1383.000000	43.804379
1382.000000	45.244569
1381.000000	46.783854
1380.000000	48.079154
1379.000000	49.002527
1378.000000	49.580569
1377.000000	49.913226
1376.000000	50.128991
1375.000000	50.352252
1374.000000	50.637444
1373.000000	50.937430
1372.000000	51.188741
1371.000000	51.376861
1370.000000	51.536220
1369.000000	51.693611
1368.000000	51.833360
1367.000000	51.912072
1366.000000	51.895285
1365.000000	51.783281
1364.000000	51.621302
1363.000000	51.470358
1362.000000	51.348515
1361.000000	51.226856
1360.000000	51.077446
1359.000000	50.897269
1358.000000	50.704821
1357.000000	50.527308
1356.000000	50.394426
1355.000000	50.333511
1354.000000	50.355780
1353.000000	50.447794
1352.000000	50.584597
1351.000000	50.733481
1350.000000	50.867653
1349.000000	50.949914
1348.000000	50.933402
1347.000000	50.778250
1346.000000	50.462420
1345.000000	49.970842
1344.000000	49.288849
1343.000000	48.404331
1342.000000	47.319237
1341.000000	46.056387
1340.000000	44.654152
1339.000000	43.150925
1338.000000	41.559196
1337.000000	39.863440
1336.000000	38.047406
1335.000000	36.117571
1334.000000	34.101607
1333.000000	32.032679
1332.000000	29.953751
1331.000000	27.923479
1330.000000	25.997416
1329.000000	24.207507
1328.000000	22.573506
1327.000000	21.110901
1326.000000	19.815578
1325.000000	18.659875
1324.000000	17.617720
1323.000000	16.681517
1322.000000	15.843137
1321.000000	15.086322
1320.000000	14.417854
1319.000000	13.875643
1318.000000	13.498717
1317.000000	13.307718
1316.000000	13.316893
1315.000000	13.542301
1314.000000	13.975121
1313.000000	14.576166
1312.000000	15.303333
1311.000000	16.123100
1310.000000	17.003262
1309.000000	17.911010
1308.000000	18.827219
1307.000000	19.742946
1306.000000	20.641814
1305.000000	21.502155
1304.000000	22.316552
1303.000000	23.093073
1302.000000	23.839799
1301.000000	24.563088
1300.000000	25.277416
1299.000000	26.000237
1298.000000	26.734890
1297.000000	27.471411
1296.000000	28.203625
1295.000000	28.934864
1294.000000	29.669281
1293.000000	30.410508
1292.000000	31.167949
1291.000000	31.952892
1290.000000	32.768777
1289.000000	33.612212
1288.000000	34.479371
1287.000000	35.363071
1286.000000	36.246738
1285.000000	37.109900
1284.000000	37.938018
1283.000000	38.722262
1282.000000	39.452747
1281.000000	40.120775
1280.000000	40.722668
1279.000000	41.259946
1278.000000	41.738135
1277.000000	42.166622
1276.000000	42.561190
1275.000000	42.943518
1274.000000	43.338926
1273.000000	43.774101
1272.000000	44.272639
1271.000000	44.848085
1270.000000	45.501279
1269.000000	46.224441
1268.000000	47.004226
1267.000000	47.825591
1266.000000	48.673708
1265.000000	49.534119
1264.000000	50.390332
1263.000000	51.224212
1262.000000	52.022197
1261.000000	52.777856
1260.000000	53.483954
1259.000000	54.129963
1258.000000	54.713195
1257.000000	55.242664
1256.000000	55.729999
1255.000000	56.182153
1254.000000	56.601410
1253.000000	56.987420
1252.000000	57.331141
1251.000000	57.616937
1250.000000	57.834546
1249.000000	57.982408
1248.000000	58.063738
1247.000000	58.085223
1246.000000	58.060724
1245.000000	58.007530
1244.000000	57.932559
1243.000000	57.830247
1242.000000	57.689706
1241.000000	57.499400
1240.000000	57.248843
1239.000000	56.932799
1238.000000	56.560494
1237.000000	56.154274
1236.000000	55.740375
1235.000000	55.344253
1234.000000	54.988970
1233.000000	54.689930
1232.000000	54.449673
1231.000000	54.261292
1230.000000	54.114940
1229.000000	54.003584
1228.000000	53.923995
1227.000000	53.879560
1226.000000	53.883491
1225.000000	53.951302
1224.000000	54.092395
1223.000000	54.305241
1222.000000	54.579750
1221.000000	54.901532
1220.000000	55.251328
1219.000000	55.610579
1218.000000	55.968756
1217.000000	56.324436
1216.000000	56.680831
1215.000000	57.042607
1214.000000	57.417841
1213.000000	57.814130
1212.000000	58.229902
1211.000000	58.653041
1210.000000	59.069727
1209.000000	59.470766
1208.000000	59.850086
1207.000000	60.205380
1206.000000	60.542635
1205.000000	60.874415
1204.000000	61.210034
1203.000000	61.551417
1202.000000	61.897980
1201.000000	62.247898
1200.000000	62.594809
1199.000000	62.931454
1198.000000	63.259083
1197.000000	63.587230
1196.000000	63.923993
1195.000000	64.272311
1194.000000	64.634841
1193.000000	65.012272
1192.000000	65.395449
1191.000000	65.768146
1190.000000	66.120875
1189.000000	66.455755
1188.000000	66.779031
1187.000000	67.098941
1186.000000	67.430546
1185.000000	67.790119
1184.000000	68.178859
1183.000000	68.576521
1182.000000	68.953657
1181.000000	69.285235
1180.000000	69.557755
1179.000000	69.775931
1178.000000	69.963907
1177.000000	70.151815
1176.000000	70.358665
1175.000000	70.591623
1174.000000	70.854164
1173.000000	71.141236
1172.000000	71.430573
1171.000000	71.691576
1170.000000	71.905794
1169.000000	72.072113
1168.000000	72.197008
1167.000000	72.294504
1166.000000	72.391989
1165.000000	72.519189
1164.000000	72.687691
1163.000000	72.887383
1162.000000	73.100305
1161.000000	73.305973
1160.000000	73.478241
1159.000000	73.596432
1158.000000	73.663934
1157.000000	73.705794
1156.000000	73.748606
1155.000000	73.811856
1154.000000	73.911810
1153.000000	74.053991
1152.000000	74.221085
1151.000000	74.381677
1150.000000	74.513774
1149.000000	74.611510
1148.000000	74.674228
1147.000000	74.706414
1146.000000	74.727365
1145.000000	74.763384
1144.000000	74.827142
1143.000000	74.914075
1142.000000	75.016024
1141.000000	75.124477
1140.000000	75.223140
1139.000000	75.295224
1138.000000	75.340321
1137.000000	75.372406
1136.000000	75.402213
1135.000000	75.433156
1134.000000	75.470801
1133.000000	75.519415
1132.000000	75.569230
1131.000000	75.602057
1130.000000	75.610073
1129.000000	75.598416
1128.000000	75.571440
1127.000000	75.530667
1126.000000	75.484501
1125.000000	75.442335
1124.000000	75.399247
1123.000000	75.338185
1122.000000	75.246925
1121.000000	75.122645
1120.000000	74.961659
1119.000000	74.762209
1118.000000	74.535528
1117.000000	74.298809
1116.000000	74.057898
1115.000000	73.804178
1114.000000	73.526624
1113.000000	73.212956
1112.000000	72.841220
1111.000000	72.390599
1110.000000	71.859427
1109.000000	71.263686
1108.000000	70.621005
1107.000000	69.942459
1106.000000	69.237927
1105.000000	68.508146
1104.000000	67.733697
1103.000000	66.882816
1102.000000	65.926033
1101.000000	64.846362
1100.000000	63.635709
1099.000000	62.297488
1098.000000	60.851043
1097.000000	59.315878
1096.000000	57.700640
1095.000000	55.999903
1094.000000	54.197996
1093.000000	52.276535
1092.000000	50.216222
1091.000000	48.011194
1090.000000	45.674376
1089.000000	43.234660
1088.000000	40.736567
1087.000000	38.233634
1086.000000	35.776475
1085.000000	33.404352
1084.000000	31.151403
1083.000000	29.044134
1082.000000	27.096438
1081.000000	25.310287
1080.000000	23.689622
1079.000000	22.245690
1078.000000	20.972872
1077.000000	19.853647
1076.000000	18.873805
1075.000000	18.022071
1074.000000	17.280180
1073.000000	16.620379
1072.000000	16.028396
1071.000000	15.502719
1070.000000	15.035230
1069.000000	14.615904
1068.000000	14.246649
1067.000000	13.939175
1066.000000	13.694908
1065.000000	13.504554
1064.000000	13.369566
1063.000000	13.297345
1062.000000	13.284019
1061.000000	13.318373
1060.000000	13.399873
1059.000000	13.538291
1058.000000	13.732450
1057.000000	13.973233
1056.000000	14.262746
1055.000000	14.609143
1054.000000	15.009717
1053.000000	15.452258
1052.000000	15.934102
1051.000000	16.462004
1050.000000	17.032947
1049.000000	17.639651
1048.000000	18.285919
1047.000000	18.981772
1046.000000	19.727003
1045.000000	20.512650
1044.000000	21.337479
1043.000000	22.203598
1042.000000	23.102823
1041.000000	24.023191
1040.000000	24.962302
1039.000000	25.925945
1038.000000	26.915014
1037.000000	27.925962
1036.000000	28.959969
1035.000000	30.017390
1034.000000	31.089397
1033.000000	32.163302
1032.000000	33.233268
1031.000000	34.298227
1030.000000	35.354517
1029.000000	36.399194
1028.000000	37.435832
1027.000000	38.469931
1026.000000	39.500334
1025.000000	40.521632
1024.000000	41.529355
1023.000000	42.518921
1022.000000	43.484445
1021.000000	44.422122
1020.000000	45.334436
1019.000000	46.226830
1018.000000	47.102585
1017.000000	47.962898
1016.000000	48.805998
1015.000000	49.627122
1014.000000	50.420471
1013.000000	51.182833
1012.000000	51.915874
1011.000000	52.624563
1010.000000	53.317063
1009.000000	54.002512
1008.000000	54.684871
1007.000000	55.360535
1006.000000	56.020385
1005.000000	56.654039
1004.000000	57.252148
1003.000000	57.809944
1002.000000	58.333283
1001.000000	58.836946
1000.000000	59.336853
999.000000	59.845007
998.000000	60.368041
997.000000	60.904145
996.000000	61.437866
995.000000	61.945328
994.000000	62.408795
993.000000	62.823667
992.000000	63.195858
991.000000	63.539630
990.000000	63.878351
989.000000	64.237434
988.000000	64.629569
987.000000	65.050017
986.000000	65.482304
985.000000	65.903393
984.000000	66.286999
983.000000	66.613405
982.000000	66.882959
981.000000	67.115521
980.000000	67.337071
979.000000	67.571624
978.000000	67.839223
977.000000	68.148688
976.000000	68.487896
975.000000	68.828511
974.000000	69.143955
973.000000	69.417670
972.000000	69.640988
971.000000	69.816163
970.000000	69.963131
969.000000	70.112477
968.000000	70.286902
967.000000	70.493820
966.000000	70.730848
965.000000	70.987194
964.000000	71.241126
963.000000	71.467855
962.000000	71.655002
961.000000	71.805281
960.000000	71.926085
959.000000	72.027593
958.000000	72.127267
957.000000	72.243135
956.000000	72.379627
955.000000	72.527880
954.000000	72.679936
953.000000	72.832154
952.000000	72.977192
951.000000	73.105146
950.000000	73.214170
949.000000	73.310021
948.000000	73.394866
947.000000	73.466394
946.000000	73.528359
945.000000	73.590299
944.000000	73.657504
943.000000	73.730453
942.000000	73.813428
941.000000	73.912204
940.000000	74.022162
939.000000	74.128783
938.000000	74.219553
937.000000	74.286730
936.000000	74.321810
935.000000	74.320222
934.000000	74.293429
933.000000	74.265466
932.000000	74.255618
931.000000	74.272296
930.000000	74.318539
929.000000	74.389621
928.000000	74.464621
927.000000	74.512575
926.000000	74.512065
925.000000	74.458195
924.000000	74.356618
923.000000	74.222960
922.000000	74.085888
921.000000	73.976486
920.000000	73.909428
919.000000	73.879007
918.000000	73.869321
917.000000	73.857205
916.000000	73.810874
915.000000	73.701425
914.000000	73.521761
913.000000	73.288100
912.000000	73.024049
911.000000	72.753880
910.000000	72.503484
909.000000	72.290838
908.000000	72.111525
907.000000	71.940485
906.000000	71.749361
905.000000	71.514945
904.000000	71.217503
903.000000	70.847658
902.000000	70.416094
901.000000	69.948647
900.000000	69.469236
899.000000	68.991772
898.000000	68.523787
897.000000	68.063266
896.000000	67.593574
895.000000	67.090364
894.000000	66.535103
893.000000	65.918984
892.000000	65.236041
891.000000	64.485174
890.000000	63.677308
889.000000	62.829746
888.000000	61.955447
887.000000	61.058785
886.000000	60.140104
885.000000	59.196449
884.000000	58.217472
883.000000	57.190091
882.000000	56.104790
881.000000	54.956940
880.000000	53.745713
879.000000	52.474791
878.000000	51.155410
877.000000	49.802240
876.000000	48.428229
875.000000	47.043811
874.000000	45.655643
873.000000	44.265253
872.000000	42.868752
871.000000	41.459734
870.000000	40.033096
869.000000	38.588397
868.000000	37.132591
867.000000	35.678389
866.000000	34.239647
865.000000	32.828876
864.000000	31.458086
863.000000	30.134706
862.000000	28.856832
861.000000	27.618884
860.000000	26.419493
859.000000	25.263610
858.000000	24.158561
857.000000	23.118640
856.000000	22.174984
855.000000	21.363770
854.000000	20.711780
853.000000	20.229733
852.000000	19.912928
851.000000	19.739276
850.000000	19.663725
849.000000	19.637457
848.000000	19.627830
847.000000	19.619212
846.000000	19.605521
845.000000	19.589021
844.000000	19.584716
843.000000	19.610719
842.000000	19.676189
841.000000	19.786583
840.000000	19.951040
839.000000	20.175685
838.000000	20.452433
837.000000	20.763048
836.000000	21.089742
835.000000	21.411262
834.000000	21.697529
833.000000	21.924268
832.000000	22.097819
831.000000	22.264491
830.000000	22.495407
829.000000	22.863356
828.000000	23.421875
827.000000	24.186751
826.000000	25.134776
825.000000	26.214461
824.000000	27.361473
823.000000	28.514350
822.000000	29.630823
821.000000	30.700290
820.000000	31.730866
819.000000	32.727995
818.000000	33.688964
817.000000	34.614292
816.000000	35.509953
815.000000	36.379593
814.000000	37.222712
813.000000	38.039566
812.000000	38.831514
811.000000	39.595613
810.000000	40.327979
809.000000	41.031689
808.000000	41.715253
807.000000	42.387180
806.000000	43.056211
805.000000	43.733058
804.000000	44.423468
803.000000	45.121657
802.000000	45.817108
801.000000	46.502938
800.000000	47.173248
799.000000	47.819638
798.000000	48.438216
797.000000	49.035556
796.000000	49.620607
795.000000	50.196291
794.000000	50.764270
793.000000	51.329246
792.000000	51.892083
791.000000	52.444793
790.000000	52.978978
789.000000	53.493286
788.000000	53.987731
787.000000	54.459578
786.000000	54.909810
785.000000	55.345302
784.000000	55.769535
783.000000	56.178426
782.000000	56.570667
781.000000	56.953185
780.000000	57.331866
779.000000	57.705989
778.000000	58.075757
777.000000	58.445563
776.000000	58.814161
775.000000	59.170617
774.000000	59.505895
773.000000	59.819931
772.000000	60.114783
771.000000	60.391882
770.000000	60.660552
769.000000	60.937873
768.000000	61.232954
767.000000	61.539295
766.000000	61.845320
765.000000	62.140591
764.000000	62.409467
763.000000	62.633622
762.000000	62.810419
761.000000	62.958870
760.000000	63.101834
759.000000	63.252710
758.000000	63.422021
757.000000	63.621117
756.000000	63.849591
755.000000	64.088733
754.000000	64.315344
753.000000	64.514057
752.000000	64.674663
751.000000	64.792606
750.000000	64.879630
749.000000	64.962049
748.000000	65.059931
747.000000	65.175175
746.000000	65.301425
745.000000	65.430835
744.000000	65.546472
743.000000	65.624477
742.000000	65.654837
741.000000	65.650964
740.000000	65.634237
739.000000	65.620982
738.000000	65.627266
737.000000	65.668292
736.000000	65.742777
735.000000	65.830189
734.000000	65.912687
733.000000	65.988488
732.000000	66.060057
731.000000	66.125755
730.000000	66.192255
729.000000	66.278876
728.000000	66.400750
727.000000	66.557615
726.000000	66.741745
725.000000	66.944552
724.000000	67.150794
723.000000	67.342598
722.000000	67.517298
721.000000	67.688464
720.000000	67.864362
719.000000	68.041079
718.000000	68.221285
717.000000	68.419061
716.000000	68.636136
715.000000	68.850564
714.000000	69.039488
713.000000	69.198325
712.000000	69.332616
711.000000	69.450034
710.000000	69.569949
709.000000	69.720064
708.000000	69.910321
707.000000	70.123450
706.000000	70.335750
705.000000	70.533032
704.000000	70.702718
703.000000	70.830599
702.000000	70.920527
701.000000	71.000583
700.000000	71.096606
699.000000	71.216531
698.000000	71.361992
697.000000	71.533555
696.000000	71.714113
695.000000	71.868190
694.000000	71.977467
693.000000	72.057215
692.000000	72.126025
691.000000	72.188524
690.000000	72.256204
689.000000	72.356865
688.000000	72.500162
687.000000	72.654206
686.000000	72.783129
685.000000	72.880510
684.000000	72.948791
683.000000	72.983064
682.000000	72.998710
681.000000	73.040275
680.000000	73.134306
679.000000	73.260457
678.000000	73.391477
677.000000	73.515722
676.000000	73.611331
675.000000	73.655107
674.000000	73.656980
673.000000	73.663703
672.000000	73.723268
671.000000	73.861418
670.000000	74.091415
669.000000	74.402594
668.000000	74.678646
667.000000	74.766331
666.000000	74.690979
665.000000	74.549786
664.000000	74.406618
663.000000	74.299096
662.000000	74.251404
661.000000	74.275721
660.000000	74.369125
659.000000	74.514389
658.000000	74.678137
657.000000	74.811051
656.000000	74.870150
655.000000	74.854043
654.000000	74.790439
653.000000	74.709154
652.000000	74.647033
651.000000	74.646552
650.000000	74.723416
649.000000	74.846495
648.000000	74.967445
647.000000	75.052542
646.000000	75.079888
645.000000	75.036939
644.000000	74.936191
643.000000	74.819134
642.000000	74.733534
641.000000	74.703967
640.000000	74.728041
639.000000	74.787161
638.000000	74.845823
637.000000	74.858349
636.000000	74.797240
635.000000	74.669940
634.000000	74.504162
633.000000	74.325575
632.000000	74.155914
631.000000	74.021418
630.000000	73.941448
629.000000	73.909608
628.000000	73.899631
627.000000	73.888597
626.000000	73.864569
625.000000	73.824411
624.000000	73.774776
623.000000	73.734580
622.000000	73.726979
621.000000	73.759347
620.000000	73.813475
619.000000	73.854409
618.000000	73.848264
617.000000	73.778403
616.000000	73.653470
615.000000	73.504039
614.000000	73.368807
613.000000	73.279004
612.000000	73.249093
611.000000	73.272270
610.000000	73.319154
609.000000	73.345853
608.000000	73.312992
607.000000	73.204620
606.000000	73.032706
605.000000	72.831245
604.000000	72.643814
603.000000	72.507103
602.000000	72.435391
601.000000	72.413927
600.000000	72.403578
599.000000	72.354850
598.000000	72.228692
597.000000	72.015303
596.000000	71.742893
595.000000	71.471063
594.000000	71.269712
593.000000	71.191911
592.000000	71.256635
591.000000	71.438205
590.000000	71.668794
589.000000	71.868939
588.000000	71.987588
587.000000	72.022260
586.000000	72.007170
585.000000	71.985478
584.000000	71.988472
583.000000	72.032802
582.000000	72.121387
581.000000	72.238926
580.000000	72.349444
579.000000	72.408982
578.000000	72.395076
577.000000	72.326329
576.000000	72.255060
575.000000	72.231866
574.000000	72.269045
573.000000	72.340833
572.000000	72.409858
571.000000	72.445453
570.000000	72.426939
569.000000	72.346374
568.000000	72.218267
567.000000	72.080552
566.000000	71.975476
565.000000	71.928476
564.000000	71.943914
563.000000	72.007673
562.000000	72.081436
561.000000	72.107710
560.000000	72.040293
559.000000	71.872307
558.000000	71.634800
557.000000	71.376487
556.000000	71.151231
555.000000	71.007981
554.000000	70.964514
553.000000	70.989472
552.000000	71.021525
551.000000	71.004409
550.000000	70.904561
549.000000	70.716509
548.000000	70.473154
547.000000	70.246522
546.000000	70.113776
545.000000	70.108231
544.000000	70.210650
543.000000	70.375404
542.000000	70.547506
541.000000	70.669437
540.000000	70.700951
539.000000	70.644152
538.000000	70.544676
537.000000	70.466138
536.000000	70.466087
535.000000	70.579028
534.000000	70.797593
533.000000	71.071600
532.000000	71.333782
531.000000	71.531572
530.000000	71.642397
529.000000	71.673440
528.000000	71.659871
527.000000	71.665294
526.000000	71.758286
525.000000	71.955381
524.000000	72.202902
523.000000	72.421524
522.000000	72.550873
521.000000	72.563424
520.000000	72.471882
519.000000	72.333791
518.000000	72.232132
517.000000	72.225498
516.000000	72.309358
515.000000	72.425139
514.000000	72.497628
513.000000	72.465563
512.000000	72.295116
511.000000	71.986442
510.000000	71.577104
509.000000	71.134440
508.000000	70.733694
507.000000	70.434434
506.000000	70.245762
505.000000	70.109706
504.000000	69.939450
503.000000	69.682863
502.000000	69.352474
501.000000	68.993236
500.000000	68.645843
499.000000	68.357239
498.000000	68.195249
497.000000	68.214968
496.000000	68.415061
495.000000	68.734074
494.000000	69.086665
493.000000	69.406650
492.000000	69.661630
491.000000	69.856569
490.000000	70.031466
489.000000	70.239383
488.000000	70.514977
487.000000	70.864581
486.000000	71.278120
485.000000	71.728620
484.000000	72.160323
483.000000	72.496768
482.000000	72.685547
481.000000	72.731967
480.000000	72.688027
479.000000	72.629011
478.000000	72.624586
477.000000	72.700208
476.000000	72.819497
475.000000	72.917507
474.000000	72.965438
473.000000	73.010130
472.000000	73.121350
471.000000	73.301420
470.000000	73.510701
469.000000	73.737983
468.000000	73.999342
467.000000	74.290849
466.000000	74.559605
465.000000	74.747793
464.000000	74.837864
463.000000	74.858017
462.000000	74.869811
461.000000	74.933491
460.000000	75.068081
459.000000	75.253220
458.000000	75.474251
457.000000	75.700828
456.000000	75.839058
455.000000	75.825102
454.000000	75.691928
453.000000	75.537462
452.000000	75.484272
451.000000	75.604540
450.000000	75.875208
449.000000	76.219110
448.000000	76.558399
447.000000	76.818777
446.000000	76.921944
445.000000	76.824682
444.000000	76.568048
443.000000	76.296361
442.000000	76.193995
441.000000	76.358876
440.000000	76.753403
439.000000	77.253913
438.000000	77.712150
437.000000	78.004333
436.000000	78.060669
435.000000	77.887860
434.000000	77.583353
433.000000	77.303153
432.000000	77.185709
431.000000	77.293219
430.000000	77.594132
429.000000	77.971156
428.000000	78.261742
427.000000	78.332836
426.000000	78.149947
425.000000	77.764387
424.000000	77.271453
423.000000	76.810370
422.000000	76.500780
421.000000	76.309705
420.000000	76.078253
419.000000	75.843472
418.000000	75.739246
417.000000	75.614567
416.000000	75.362540
415.000000	75.050041
414.000000	74.766072
413.000000	74.603705
412.000000	74.621544
411.000000	74.800343
410.000000	75.076649
409.000000	75.378687
408.000000	75.628924
407.000000	75.781506
406.000000	75.880639
405.000000	76.016617
404.000000	76.230265
403.000000	76.506284
402.000000	76.834713
401.000000	77.238005
400.000000	77.600407
