PE IR       SUBTECH     SPECTRUM    ASCII       PEDS        4.00        
   -1
23ms248_246_nitro.asc
24/09/09
17:07:23.00
24/09/09
17:07:23.00
Administrator
Sample 1149 By Administrator Date Monday, September 09 2024
400.000000
#HDR
-1
-1
#GR
cm-1
%T
1.0
0.0
4000.000000
-1.000000
3601
8
90.173506
1.676502
#DATA
4000.000000	71.165656
3999.000000	71.213681
3998.000000	71.264455
3997.000000	71.316370
3996.000000	71.366784
3995.000000	71.413209
3994.000000	71.454905
3993.000000	71.493239
3992.000000	71.530575
3991.000000	71.569063
3990.000000	71.610075
3989.000000	71.654203
3988.000000	71.701026
3987.000000	71.748847
3986.000000	71.795419
3985.000000	71.838956
3984.000000	71.878721
3983.000000	71.914825
3982.000000	71.948001
3981.000000	71.979801
3980.000000	72.012549
3979.000000	72.048526
3978.000000	72.088666
3977.000000	72.131872
3976.000000	72.175639
3975.000000	72.217327
3974.000000	72.255235
3973.000000	72.289403
3972.000000	72.321376
3971.000000	72.353354
3970.000000	72.386990
3969.000000	72.422704
3968.000000	72.459960
3967.000000	72.497731
3966.000000	72.535067
3965.000000	72.571519
3964.000000	72.607036
3963.000000	72.641402
3962.000000	72.674418
3961.000000	72.706707
3960.000000	72.739653
3959.000000	72.774360
3958.000000	72.810384
3957.000000	72.846300
3956.000000	72.881302
3955.000000	72.915372
3954.000000	72.949121
3953.000000	72.983146
3952.000000	73.017769
3951.000000	73.053097
3950.000000	73.088524
3949.000000	73.122409
3948.000000	73.153398
3947.000000	73.183023
3946.000000	73.215661
3945.000000	73.254392
3944.000000	73.296856
3943.000000	73.336853
3942.000000	73.371617
3941.000000	73.405300
3940.000000	73.442848
3939.000000	73.483879
3938.000000	73.522921
3937.000000	73.555430
3936.000000	73.582628
3935.000000	73.608595
3934.000000	73.636595
3933.000000	73.667339
3932.000000	73.700663
3931.000000	73.736636
3930.000000	73.773788
3929.000000	73.811426
3928.000000	73.850881
3927.000000	73.893132
3926.000000	73.933877
3925.000000	73.964730
3924.000000	73.983804
3923.000000	73.999037
3922.000000	74.018454
3921.000000	74.043975
3920.000000	74.075422
3919.000000	74.114338
3918.000000	74.159775
3917.000000	74.205258
3916.000000	74.244961
3915.000000	74.279507
3914.000000	74.312524
3913.000000	74.345433
3912.000000	74.377174
3911.000000	74.407757
3910.000000	74.437836
3909.000000	74.467334
3908.000000	74.497460
3907.000000	74.528291
3906.000000	74.556193
3905.000000	74.573116
3904.000000	74.576615
3903.000000	74.579646
3902.000000	74.600133
3901.000000	74.642217
3900.000000	74.693148
3899.000000	74.739036
3898.000000	74.777161
3897.000000	74.811700
3896.000000	74.843773
3895.000000	74.874922
3894.000000	74.909934
3893.000000	74.951407
3892.000000	74.989776
3891.000000	75.011756
3890.000000	75.021558
3889.000000	75.037008
3888.000000	75.069418
3887.000000	75.111190
3886.000000	75.142443
3885.000000	75.157092
3884.000000	75.172378
3883.000000	75.204997
3882.000000	75.251060
3881.000000	75.293139
3880.000000	75.319653
3879.000000	75.337514
3878.000000	75.362160
3877.000000	75.398667
3876.000000	75.437170
3875.000000	75.461349
3874.000000	75.466408
3873.000000	75.470428
3872.000000	75.495638
3871.000000	75.538646
3870.000000	75.574305
3869.000000	75.596051
3868.000000	75.624220
3867.000000	75.668487
3866.000000	75.712361
3865.000000	75.739083
3864.000000	75.754454
3863.000000	75.775584
3862.000000	75.805106
3861.000000	75.834256
3860.000000	75.858890
3859.000000	75.880273
3858.000000	75.901310
3857.000000	75.925550
3856.000000	75.959168
3855.000000	75.998820
3854.000000	76.023730
3853.000000	76.032849
3852.000000	76.059464
3851.000000	76.115478
3850.000000	76.176105
3849.000000	76.220263
3848.000000	76.248611
3847.000000	76.273352
3846.000000	76.299758
3845.000000	76.323673
3844.000000	76.338897
3843.000000	76.344973
3842.000000	76.350243
3841.000000	76.366290
3840.000000	76.395320
3839.000000	76.429698
3838.000000	76.464721
3837.000000	76.501277
3836.000000	76.540377
3835.000000	76.578586
3834.000000	76.612062
3833.000000	76.640070
3832.000000	76.663904
3831.000000	76.688323
3830.000000	76.720661
3829.000000	76.764026
3828.000000	76.810435
3827.000000	76.844090
3826.000000	76.856362
3825.000000	76.859232
3824.000000	76.873499
3823.000000	76.905711
3822.000000	76.938165
3821.000000	76.949571
3820.000000	76.952336
3819.000000	76.976170
3818.000000	77.026169
3817.000000	77.078690
3816.000000	77.110677
3815.000000	77.130432
3814.000000	77.161637
3813.000000	77.202383
3812.000000	77.231330
3811.000000	77.243822
3810.000000	77.258727
3809.000000	77.293025
3808.000000	77.336293
3807.000000	77.362572
3806.000000	77.369082
3805.000000	77.380353
3804.000000	77.411086
3803.000000	77.451405
3802.000000	77.477168
3801.000000	77.483373
3800.000000	77.498545
3799.000000	77.540509
3798.000000	77.592765
3797.000000	77.631213
3796.000000	77.651976
3795.000000	77.671020
3794.000000	77.700922
3793.000000	77.737301
3792.000000	77.770006
3791.000000	77.797646
3790.000000	77.824502
3789.000000	77.852232
3788.000000	77.880073
3787.000000	77.908162
3786.000000	77.935421
3785.000000	77.957754
3784.000000	77.973632
3783.000000	77.990100
3782.000000	78.015873
3781.000000	78.051061
3780.000000	78.086734
3779.000000	78.116154
3778.000000	78.142566
3777.000000	78.171255
3776.000000	78.198789
3775.000000	78.217423
3774.000000	78.228317
3773.000000	78.242833
3772.000000	78.268419
3771.000000	78.298446
3770.000000	78.322589
3769.000000	78.344123
3768.000000	78.374824
3767.000000	78.415039
3766.000000	78.451019
3765.000000	78.471135
3764.000000	78.480896
3763.000000	78.495808
3762.000000	78.520970
3761.000000	78.549189
3760.000000	78.574867
3759.000000	78.600317
3758.000000	78.625696
3757.000000	78.644183
3756.000000	78.653585
3755.000000	78.658361
3754.000000	78.662387
3753.000000	78.667440
3752.000000	78.678874
3751.000000	78.702641
3750.000000	78.731909
3749.000000	78.754779
3748.000000	78.776617
3747.000000	78.814070
3746.000000	78.870084
3745.000000	78.916887
3744.000000	78.934837
3743.000000	78.955488
3742.000000	79.000540
3741.000000	79.042688
3740.000000	79.056040
3739.000000	79.051171
3738.000000	79.056949
3737.000000	79.082205
3736.000000	79.115859
3735.000000	79.152858
3734.000000	79.198223
3733.000000	79.247861
3732.000000	79.287919
3731.000000	79.316258
3730.000000	79.342613
3729.000000	79.371873
3728.000000	79.399556
3727.000000	79.419380
3726.000000	79.434758
3725.000000	79.456450
3724.000000	79.487816
3723.000000	79.522281
3722.000000	79.553443
3721.000000	79.582728
3720.000000	79.613085
3719.000000	79.642783
3718.000000	79.665568
3717.000000	79.677903
3716.000000	79.685808
3715.000000	79.697446
3714.000000	79.714602
3713.000000	79.734888
3712.000000	79.758932
3711.000000	79.791232
3710.000000	79.832311
3709.000000	79.874929
3708.000000	79.910565
3707.000000	79.935971
3706.000000	79.955135
3705.000000	79.974746
3704.000000	79.999056
3703.000000	80.026849
3702.000000	80.052801
3701.000000	80.073444
3700.000000	80.091556
3699.000000	80.111634
3698.000000	80.131517
3697.000000	80.144032
3696.000000	80.147944
3695.000000	80.150727
3694.000000	80.156995
3693.000000	80.165521
3692.000000	80.176899
3691.000000	80.196343
3690.000000	80.223984
3689.000000	80.250675
3688.000000	80.271721
3687.000000	80.293062
3686.000000	80.318697
3685.000000	80.341482
3684.000000	80.353833
3683.000000	80.359189
3682.000000	80.367162
3681.000000	80.375510
3680.000000	80.371879
3679.000000	80.355064
3678.000000	80.341388
3677.000000	80.342053
3676.000000	80.341992
3675.000000	80.331419
3674.000000	80.330441
3673.000000	80.355322
3672.000000	80.395257
3671.000000	80.431207
3670.000000	80.454365
3669.000000	80.473637
3668.000000	80.499208
3667.000000	80.524569
3666.000000	80.538563
3665.000000	80.542289
3664.000000	80.545744
3663.000000	80.556255
3662.000000	80.571650
3661.000000	80.582424
3660.000000	80.583585
3659.000000	80.576475
3658.000000	80.561807
3657.000000	80.534165
3656.000000	80.491720
3655.000000	80.449211
3654.000000	80.422402
3653.000000	80.410427
3652.000000	80.401037
3651.000000	80.384779
3650.000000	80.362526
3649.000000	80.343110
3648.000000	80.332331
3647.000000	80.327247
3646.000000	80.322444
3645.000000	80.316060
3644.000000	80.308636
3643.000000	80.300443
3642.000000	80.290798
3641.000000	80.278941
3640.000000	80.263946
3639.000000	80.241772
3638.000000	80.208575
3637.000000	80.166165
3636.000000	80.119477
3635.000000	80.068703
3634.000000	80.009848
3633.000000	79.946262
3632.000000	79.889034
3631.000000	79.844459
3630.000000	79.803168
3629.000000	79.750848
3628.000000	79.697391
3627.000000	79.665348
3626.000000	79.649400
3625.000000	79.626230
3624.000000	79.587030
3623.000000	79.541659
3622.000000	79.500508
3621.000000	79.459382
3620.000000	79.404851
3619.000000	79.331988
3618.000000	79.251093
3617.000000	79.175444
3616.000000	79.109807
3615.000000	79.050590
3614.000000	78.991041
3613.000000	78.928785
3612.000000	78.869067
3611.000000	78.816999
3610.000000	78.769473
3609.000000	78.719375
3608.000000	78.664459
3607.000000	78.609205
3606.000000	78.557437
3605.000000	78.507580
3604.000000	78.458405
3603.000000	78.411338
3602.000000	78.366402
3601.000000	78.319305
3600.000000	78.265379
3599.000000	78.202165
3598.000000	78.128397
3597.000000	78.045082
3596.000000	77.958551
3595.000000	77.877091
3594.000000	77.804450
3593.000000	77.740241
3592.000000	77.682185
3591.000000	77.628131
3590.000000	77.575920
3589.000000	77.522685
3588.000000	77.465495
3587.000000	77.404659
3586.000000	77.344451
3585.000000	77.288160
3584.000000	77.236163
3583.000000	77.188245
3582.000000	77.144136
3581.000000	77.101824
3580.000000	77.057857
3579.000000	77.009030
3578.000000	76.952517
3577.000000	76.887505
3576.000000	76.816235
3575.000000	76.743472
3574.000000	76.673077
3573.000000	76.606830
3572.000000	76.545113
3571.000000	76.487148
3570.000000	76.430521
3569.000000	76.372058
3568.000000	76.309894
3567.000000	76.246002
3566.000000	76.185568
3565.000000	76.132804
3564.000000	76.087836
3563.000000	76.048732
3562.000000	76.012857
3561.000000	75.977229
3560.000000	75.939027
3559.000000	75.896377
3558.000000	75.848094
3557.000000	75.793844
3556.000000	75.735395
3555.000000	75.676083
3554.000000	75.618141
3553.000000	75.561331
3552.000000	75.505174
3551.000000	75.450497
3550.000000	75.397789
3549.000000	75.346849
3548.000000	75.298048
3547.000000	75.252180
3546.000000	75.207639
3545.000000	75.161117
3544.000000	75.111479
3543.000000	75.060470
3542.000000	75.009285
3541.000000	74.957452
3540.000000	74.905467
3539.000000	74.854884
3538.000000	74.805444
3537.000000	74.753668
3536.000000	74.696732
3535.000000	74.635528
3534.000000	74.573352
3533.000000	74.513154
3532.000000	74.456239
3531.000000	74.402186
3530.000000	74.348124
3529.000000	74.290656
3528.000000	74.229532
3527.000000	74.168670
3526.000000	74.112334
3525.000000	74.061242
3524.000000	74.012507
3523.000000	73.962313
3522.000000	73.908598
3521.000000	73.851959
3520.000000	73.794234
3519.000000	73.735331
3518.000000	73.673102
3517.000000	73.606909
3516.000000	73.539596
3515.000000	73.474116
3514.000000	73.410176
3513.000000	73.346188
3512.000000	73.282302
3511.000000	73.219144
3510.000000	73.154874
3509.000000	73.086599
3508.000000	73.014148
3507.000000	72.940270
3506.000000	72.867492
3505.000000	72.797097
3504.000000	72.729947
3503.000000	72.665706
3502.000000	72.601733
3501.000000	72.535219
3500.000000	72.466047
3499.000000	72.394950
3498.000000	72.320050
3497.000000	72.237998
3496.000000	72.148497
3495.000000	72.055101
3494.000000	71.961705
3493.000000	71.870531
3492.000000	71.783015
3491.000000	71.699742
3490.000000	71.619154
3489.000000	71.538162
3488.000000	71.454053
3487.000000	71.364854
3486.000000	71.269120
3485.000000	71.167357
3484.000000	71.063365
3483.000000	70.962030
3482.000000	70.865421
3481.000000	70.772205
3480.000000	70.679495
3479.000000	70.583969
3478.000000	70.482423
3477.000000	70.373769
3476.000000	70.260150
3475.000000	70.144530
3474.000000	70.028386
3473.000000	69.913060
3472.000000	69.801382
3471.000000	69.695077
3470.000000	69.591471
3469.000000	69.485258
3468.000000	69.372779
3467.000000	69.253147
3466.000000	69.126964
3465.000000	68.996143
3464.000000	68.864034
3463.000000	68.733096
3462.000000	68.602672
3461.000000	68.470588
3460.000000	68.336118
3459.000000	68.200098
3458.000000	68.063569
3457.000000	67.927697
3456.000000	67.793945
3455.000000	67.662039
3454.000000	67.528862
3453.000000	67.390879
3452.000000	67.247156
3451.000000	67.099122
3450.000000	66.948075
3449.000000	66.794838
3448.000000	66.641168
3447.000000	66.489604
3446.000000	66.341847
3445.000000	66.197976
3444.000000	66.056351
3443.000000	65.913493
3442.000000	65.765411
3441.000000	65.610630
3440.000000	65.451199
3439.000000	65.289712
3438.000000	65.126714
3437.000000	64.961590
3436.000000	64.794465
3435.000000	64.625523
3434.000000	64.453966
3433.000000	64.279207
3432.000000	64.101334
3431.000000	63.919190
3430.000000	63.729216
3429.000000	63.528814
3428.000000	63.320218
3427.000000	63.108931
3426.000000	62.899398
3425.000000	62.693562
3424.000000	62.491765
3423.000000	62.292194
3422.000000	62.090012
3421.000000	61.879806
3420.000000	61.659182
3419.000000	61.428893
3418.000000	61.191048
3417.000000	60.948788
3416.000000	60.706079
3415.000000	60.464998
3414.000000	60.223371
3413.000000	59.977069
3412.000000	59.723476
3411.000000	59.461482
3410.000000	59.189677
3409.000000	58.906923
3408.000000	58.614466
3407.000000	58.315337
3406.000000	58.012547
3405.000000	57.708904
3404.000000	57.406450
3403.000000	57.103776
3402.000000	56.794664
3401.000000	56.471636
3400.000000	56.130762
3399.000000	55.772604
3398.000000	55.401031
3397.000000	55.022365
3396.000000	54.642781
3395.000000	54.264030
3394.000000	53.881946
3393.000000	53.490403
3392.000000	53.085302
3391.000000	52.664354
3390.000000	52.227111
3389.000000	51.776602
3388.000000	51.318755
3387.000000	50.857662
3386.000000	50.392621
3385.000000	49.921319
3384.000000	49.442523
3383.000000	48.954717
3382.000000	48.454977
3381.000000	47.941350
3380.000000	47.414735
3379.000000	46.876631
3378.000000	46.327652
3377.000000	45.769498
3376.000000	45.204992
3375.000000	44.634943
3374.000000	44.057084
3373.000000	43.469346
3372.000000	42.871619
3371.000000	42.262569
3370.000000	41.639090
3369.000000	41.000080
3368.000000	40.348230
3367.000000	39.687053
3366.000000	39.018470
3365.000000	38.344439
3364.000000	37.666709
3363.000000	36.983659
3362.000000	36.290988
3361.000000	35.586516
3360.000000	34.871920
3359.000000	34.149152
3358.000000	33.418767
3357.000000	32.683067
3356.000000	31.946036
3355.000000	31.209146
3354.000000	30.470392
3353.000000	29.728271
3352.000000	28.983372
3351.000000	28.235322
3350.000000	27.482478
3349.000000	26.725702
3348.000000	25.968650
3347.000000	25.213727
3346.000000	24.461427
3345.000000	23.713783
3344.000000	22.973943
3343.000000	22.241693
3342.000000	21.513600
3341.000000	20.788483
3340.000000	20.068794
3339.000000	19.356518
3338.000000	18.652230
3337.000000	17.958070
3336.000000	17.277341
3335.000000	16.610485
3334.000000	15.955510
3333.000000	15.312796
3332.000000	14.684537
3331.000000	14.070281
3330.000000	13.467457
3329.000000	12.876089
3328.000000	12.299579
3327.000000	11.740293
3326.000000	11.199329
3325.000000	10.679441
3324.000000	10.182713
3323.000000	9.706804
3322.000000	9.247325
3321.000000	8.803716
3320.000000	8.378674
3319.000000	7.971992
3318.000000	7.581788
3317.000000	7.209259
3316.000000	6.857393
3315.000000	6.525748
3314.000000	6.210711
3313.000000	5.911063
3312.000000	5.627681
3311.000000	5.358970
3310.000000	5.102705
3309.000000	4.860537
3308.000000	4.636900
3307.000000	4.433685
3306.000000	4.250315
3305.000000	4.087848
3304.000000	3.946032
3303.000000	3.819064
3302.000000	3.699212
3301.000000	3.583747
3300.000000	3.474314
3299.000000	3.370845
3298.000000	3.272224
3297.000000	3.180992
3296.000000	3.100915
3295.000000	3.031450
3294.000000	2.969473
3293.000000	2.915483
3292.000000	2.872423
3291.000000	2.838887
3290.000000	2.809876
3289.000000	2.782838
3288.000000	2.758359
3287.000000	2.736091
3286.000000	2.714911
3285.000000	2.696514
3284.000000	2.683275
3283.000000	2.673742
3282.000000	2.664805
3281.000000	2.656784
3280.000000	2.651763
3279.000000	2.648355
3278.000000	2.643475
3277.000000	2.637925
3276.000000	2.634911
3275.000000	2.634269
3274.000000	2.633250
3273.000000	2.632294
3272.000000	2.635073
3271.000000	2.643429
3270.000000	2.656565
3269.000000	2.673830
3268.000000	2.693955
3267.000000	2.713175
3266.000000	2.728556
3265.000000	2.742024
3264.000000	2.757167
3263.000000	2.773701
3262.000000	2.789396
3261.000000	2.804917
3260.000000	2.822025
3259.000000	2.839171
3258.000000	2.853973
3257.000000	2.868419
3256.000000	2.886489
3255.000000	2.908219
3254.000000	2.930654
3253.000000	2.953006
3252.000000	2.975966
3251.000000	2.997694
3250.000000	3.015735
3249.000000	3.031887
3248.000000	3.050547
3247.000000	3.073147
3246.000000	3.098186
3245.000000	3.125044
3244.000000	3.153551
3243.000000	3.181375
3242.000000	3.206322
3241.000000	3.229840
3240.000000	3.254344
3239.000000	3.278580
3238.000000	3.299614
3237.000000	3.317601
3236.000000	3.334983
3235.000000	3.353001
3234.000000	3.372682
3233.000000	3.396708
3232.000000	3.425898
3231.000000	3.455992
3230.000000	3.482253
3229.000000	3.505140
3228.000000	3.527539
3227.000000	3.549138
3226.000000	3.567991
3225.000000	3.585206
3224.000000	3.603096
3223.000000	3.620754
3222.000000	3.635977
3221.000000	3.649731
3220.000000	3.664317
3219.000000	3.679004
3218.000000	3.691806
3217.000000	3.703519
3216.000000	3.715740
3215.000000	3.727027
3214.000000	3.735243
3213.000000	3.741725
3212.000000	3.748808
3211.000000	3.755344
3210.000000	3.758897
3209.000000	3.760188
3208.000000	3.761268
3207.000000	3.761466
3206.000000	3.759296
3205.000000	3.756249
3204.000000	3.754343
3203.000000	3.752072
3202.000000	3.746919
3201.000000	3.739717
3200.000000	3.732567
3199.000000	3.724631
3198.000000	3.714168
3197.000000	3.702475
3196.000000	3.691651
3195.000000	3.680708
3194.000000	3.667854
3193.000000	3.654294
3192.000000	3.641810
3191.000000	3.629003
3190.000000	3.614085
3189.000000	3.598883
3188.000000	3.585915
3187.000000	3.573876
3186.000000	3.560190
3185.000000	3.545697
3184.000000	3.532639
3183.000000	3.520391
3182.000000	3.507339
3181.000000	3.494705
3180.000000	3.484348
3179.000000	3.475085
3178.000000	3.465123
3177.000000	3.455842
3176.000000	3.449266
3175.000000	3.444179
3174.000000	3.438705
3173.000000	3.434208
3172.000000	3.432680
3171.000000	3.432809
3170.000000	3.432505
3169.000000	3.432884
3168.000000	3.435943
3167.000000	3.440732
3166.000000	3.445763
3165.000000	3.452516
3164.000000	3.462725
3163.000000	3.474815
3162.000000	3.486747
3161.000000	3.499854
3160.000000	3.516022
3159.000000	3.533816
3158.000000	3.551148
3157.000000	3.568878
3156.000000	3.588308
3155.000000	3.608235
3154.000000	3.628519
3153.000000	3.653414
3152.000000	3.686700
3151.000000	3.726254
3150.000000	3.767420
3149.000000	3.809098
3148.000000	3.852608
3147.000000	3.897377
3146.000000	3.942246
3145.000000	3.988491
3144.000000	4.037256
3143.000000	4.086515
3142.000000	4.134509
3141.000000	4.184028
3140.000000	4.239339
3139.000000	4.300951
3138.000000	4.367058
3137.000000	4.437355
3136.000000	4.511686
3135.000000	4.587522
3134.000000	4.662539
3133.000000	4.737932
3132.000000	4.815809
3131.000000	4.895952
3130.000000	4.978258
3129.000000	5.065138
3128.000000	5.158097
3127.000000	5.254530
3126.000000	5.351379
3125.000000	5.449115
3124.000000	5.548808
3123.000000	5.648853
3122.000000	5.748367
3121.000000	5.850734
3120.000000	5.959842
3119.000000	6.075287
3118.000000	6.195188
3117.000000	6.320617
3116.000000	6.453214
3115.000000	6.591190
3114.000000	6.731327
3113.000000	6.872831
3112.000000	7.015842
3111.000000	7.159101
3110.000000	7.302846
3109.000000	7.450986
3108.000000	7.606754
3107.000000	7.768475
3106.000000	7.932792
3105.000000	8.099396
3104.000000	8.269096
3103.000000	8.440517
3102.000000	8.612614
3101.000000	8.787753
3100.000000	8.968772
3099.000000	9.154931
3098.000000	9.344262
3097.000000	9.537306
3096.000000	9.734864
3095.000000	9.934799
3094.000000	10.134575
3093.000000	10.335041
3092.000000	10.538592
3091.000000	10.745538
3090.000000	10.955322
3089.000000	11.168736
3088.000000	11.386010
3087.000000	11.605239
3086.000000	11.825499
3085.000000	12.049163
3084.000000	12.277891
3083.000000	12.508950
3082.000000	12.738879
3081.000000	12.968407
3080.000000	13.200867
3079.000000	13.437829
3078.000000	13.679264
3077.000000	13.925638
3076.000000	14.176407
3075.000000	14.428518
3074.000000	14.679303
3073.000000	14.929084
3072.000000	15.178675
3071.000000	15.426684
3070.000000	15.672295
3069.000000	15.918395
3068.000000	16.168826
3067.000000	16.424248
3066.000000	16.683030
3065.000000	16.944200
3064.000000	17.206772
3063.000000	17.468250
3062.000000	17.726724
3061.000000	17.983036
3060.000000	18.238824
3059.000000	18.494308
3058.000000	18.750009
3057.000000	19.008304
3056.000000	19.270602
3055.000000	19.534781
3054.000000	19.797912
3053.000000	20.059797
3052.000000	20.321618
3051.000000	20.582970
3050.000000	20.842610
3049.000000	21.100606
3048.000000	21.357647
3047.000000	21.613772
3046.000000	21.869640
3045.000000	22.127290
3044.000000	22.387710
3043.000000	22.649271
3042.000000	22.910151
3041.000000	23.170369
3040.000000	23.429816
3039.000000	23.686657
3038.000000	23.939967
3037.000000	24.192017
3036.000000	24.445827
3035.000000	24.701998
3034.000000	24.959552
3033.000000	25.217881
3032.000000	25.475836
3031.000000	25.730942
3030.000000	25.981876
3029.000000	26.230220
3028.000000	26.478121
3027.000000	26.725974
3026.000000	26.973911
3025.000000	27.223263
3024.000000	27.474243
3023.000000	27.724213
3022.000000	27.970546
3021.000000	28.213692
3020.000000	28.455519
3019.000000	28.696331
3018.000000	28.935727
3017.000000	29.174783
3016.000000	29.415026
3015.000000	29.656402
3014.000000	29.898130
3013.000000	30.140368
3012.000000	30.383105
3011.000000	30.624624
3010.000000	30.863002
3009.000000	31.098285
3008.000000	31.331745
3007.000000	31.564189
3006.000000	31.796332
3005.000000	32.029365
3004.000000	32.263408
3003.000000	32.496439
3002.000000	32.726321
3001.000000	32.952952
3000.000000	33.177374
2999.000000	33.400117
2998.000000	33.621725
2997.000000	33.843536
2996.000000	34.066343
2995.000000	34.289496
2994.000000	34.512555
2993.000000	34.736396
2992.000000	34.961172
2991.000000	35.184592
2990.000000	35.404057
2989.000000	35.619432
2988.000000	35.832261
2987.000000	36.043566
2986.000000	36.254002
2985.000000	36.464939
2984.000000	36.677377
2983.000000	36.890479
2982.000000	37.102807
2981.000000	37.314061
2980.000000	37.524168
2979.000000	37.731725
2978.000000	37.935268
2977.000000	38.135574
2976.000000	38.335116
2975.000000	38.535774
2974.000000	38.738309
2973.000000	38.943044
2972.000000	39.149372
2971.000000	39.355025
2970.000000	39.557487
2969.000000	39.756056
2968.000000	39.951464
2967.000000	40.144357
2966.000000	40.335456
2965.000000	40.526600
2964.000000	40.719884
2963.000000	40.915753
2962.000000	41.113032
2961.000000	41.310182
2960.000000	41.505475
2959.000000	41.696743
2958.000000	41.882475
2957.000000	42.063126
2956.000000	42.240489
2955.000000	42.416479
2954.000000	42.593225
2953.000000	42.772915
2952.000000	42.955909
2951.000000	43.139633
2950.000000	43.320767
2949.000000	43.497929
2948.000000	43.671192
2947.000000	43.840243
2946.000000	44.004932
2945.000000	44.167030
2944.000000	44.329540
2943.000000	44.494218
2942.000000	44.661110
2941.000000	44.829953
2940.000000	45.000211
2939.000000	45.169841
2938.000000	45.335811
2937.000000	45.496363
2936.000000	45.651906
2935.000000	45.803983
2934.000000	45.954831
2933.000000	46.107617
2932.000000	46.265070
2931.000000	46.427055
2930.000000	46.590398
2929.000000	46.751520
2928.000000	46.908337
2927.000000	47.060048
2926.000000	47.206701
2925.000000	47.349639
2924.000000	47.491334
2923.000000	47.634158
2922.000000	47.779827
2921.000000	47.929506
2920.000000	48.083018
2919.000000	48.237758
2918.000000	48.389738
2917.000000	48.536234
2916.000000	48.676668
2915.000000	48.811190
2914.000000	48.939956
2913.000000	49.064351
2912.000000	49.187535
2911.000000	49.312633
2910.000000	49.440740
2909.000000	49.570859
2908.000000	49.700993
2907.000000	49.828910
2906.000000	49.953002
2905.000000	50.073413
2904.000000	50.192216
2903.000000	50.311759
2902.000000	50.433779
2901.000000	50.558878
2900.000000	50.686602
2899.000000	50.815100
2898.000000	50.941050
2897.000000	51.061164
2896.000000	51.173822
2895.000000	51.279787
2894.000000	51.382135
2893.000000	51.485432
2892.000000	51.593576
2891.000000	51.707417
2890.000000	51.824375
2889.000000	51.940491
2888.000000	52.052498
2887.000000	52.158517
2886.000000	52.258518
2885.000000	52.354950
2884.000000	52.452237
2883.000000	52.554734
2882.000000	52.665015
2881.000000	52.783676
2880.000000	52.909391
2879.000000	53.038949
2878.000000	53.168695
2877.000000	53.296870
2876.000000	53.423723
2875.000000	53.548853
2874.000000	53.669995
2873.000000	53.785988
2872.000000	53.900075
2871.000000	54.018374
2870.000000	54.144816
2869.000000	54.278000
2868.000000	54.412212
2867.000000	54.540647
2866.000000	54.658684
2865.000000	54.766531
2864.000000	54.869790
2863.000000	54.976266
2862.000000	55.091052
2861.000000	55.213954
2860.000000	55.340845
2859.000000	55.466680
2858.000000	55.587610
2857.000000	55.701652
2856.000000	55.808465
2855.000000	55.908909
2854.000000	56.005319
2853.000000	56.102174
2852.000000	56.205228
2851.000000	56.318280
2850.000000	56.440115
2849.000000	56.564635
2848.000000	56.684046
2847.000000	56.792596
2846.000000	56.888717
2845.000000	56.975311
2844.000000	57.058657
2843.000000	57.146346
2842.000000	57.244680
2841.000000	57.355785
2840.000000	57.475541
2839.000000	57.594798
2838.000000	57.704827
2837.000000	57.802732
2836.000000	57.891305
2835.000000	57.974403
2834.000000	58.054399
2833.000000	58.134205
2832.000000	58.218912
2831.000000	58.313089
2830.000000	58.417293
2829.000000	58.528307
2828.000000	58.641625
2827.000000	58.752539
2826.000000	58.856518
2825.000000	58.951235
2824.000000	59.038515
2823.000000	59.123238
2822.000000	59.210471
2821.000000	59.303870
2820.000000	59.405047
2819.000000	59.512369
2818.000000	59.620752
2817.000000	59.724365
2816.000000	59.819929
2815.000000	59.907292
2814.000000	59.988340
2813.000000	60.066756
2812.000000	60.147421
2811.000000	60.233615
2810.000000	60.324610
2809.000000	60.417086
2808.000000	60.508105
2807.000000	60.595481
2806.000000	60.676698
2805.000000	60.749994
2804.000000	60.816663
2803.000000	60.880759
2802.000000	60.946522
2801.000000	61.016876
2800.000000	61.093032
2799.000000	61.173410
2798.000000	61.253333
2797.000000	61.327843
2796.000000	61.395228
2795.000000	61.457043
2794.000000	61.515752
2793.000000	61.574154
2792.000000	61.635999
2791.000000	61.704332
2790.000000	61.778659
2789.000000	61.855211
2788.000000	61.930011
2787.000000	62.000462
2786.000000	62.064889
2785.000000	62.122941
2784.000000	62.176814
2783.000000	62.230492
2782.000000	62.287255
2781.000000	62.348619
2780.000000	62.414674
2779.000000	62.483527
2778.000000	62.550632
2777.000000	62.610479
2776.000000	62.659642
2775.000000	62.697614
2774.000000	62.725835
2773.000000	62.747721
2772.000000	62.768575
2771.000000	62.792962
2770.000000	62.821372
2769.000000	62.850274
2768.000000	62.874979
2767.000000	62.891182
2766.000000	62.895259
2765.000000	62.885813
2764.000000	62.865364
2763.000000	62.839228
2762.000000	62.812504
2761.000000	62.788955
2760.000000	62.771243
2759.000000	62.759596
2758.000000	62.750443
2757.000000	62.738207
2756.000000	62.718868
2755.000000	62.691144
2754.000000	62.655438
2753.000000	62.613826
2752.000000	62.570413
2751.000000	62.529412
2750.000000	62.492376
2749.000000	62.458028
2748.000000	62.424053
2747.000000	62.387487
2746.000000	62.344522
2745.000000	62.292476
2744.000000	62.232074
2743.000000	62.166727
2742.000000	62.100358
2741.000000	62.037291
2740.000000	61.983094
2739.000000	61.943042
2738.000000	61.919526
2737.000000	61.912746
2736.000000	61.923207
2735.000000	61.951629
2734.000000	61.997595
2733.000000	62.059811
2732.000000	62.137844
2731.000000	62.231913
2730.000000	62.340616
2729.000000	62.461240
2728.000000	62.591478
2727.000000	62.729255
2726.000000	62.871620
2725.000000	63.015356
2724.000000	63.158841
2723.000000	63.301304
2722.000000	63.440407
2721.000000	63.572714
2720.000000	63.696437
2719.000000	63.811761
2718.000000	63.918919
2717.000000	64.017998
2716.000000	64.110207
2715.000000	64.197370
2714.000000	64.279668
2713.000000	64.355754
2712.000000	64.424926
2711.000000	64.486794
2710.000000	64.539633
2709.000000	64.581145
2708.000000	64.611174
2707.000000	64.632063
2706.000000	64.646051
2705.000000	64.654663
2704.000000	64.659895
2703.000000	64.663513
2702.000000	64.665138
2701.000000	64.662561
2700.000000	64.654343
2699.000000	64.640361
2698.000000	64.620390
2697.000000	64.594646
2696.000000	64.565348
2695.000000	64.535674
2694.000000	64.506937
2693.000000	64.478355
2692.000000	64.449247
2691.000000	64.419245
2690.000000	64.386833
2689.000000	64.350130
2688.000000	64.309388
2687.000000	64.267128
2686.000000	64.225880
2685.000000	64.187328
2684.000000	64.152964
2683.000000	64.123171
2682.000000	64.095572
2681.000000	64.066245
2680.000000	64.032821
2679.000000	63.995386
2678.000000	63.955415
2677.000000	63.915826
2676.000000	63.881473
2675.000000	63.856856
2674.000000	63.842894
2673.000000	63.837398
2672.000000	63.837829
2671.000000	63.841977
2670.000000	63.846943
2669.000000	63.850286
2668.000000	63.852879
2667.000000	63.858418
2666.000000	63.870186
2665.000000	63.889759
2664.000000	63.917730
2663.000000	63.953122
2662.000000	63.991689
2661.000000	64.027112
2660.000000	64.054823
2659.000000	64.073864
2658.000000	64.086234
2657.000000	64.096546
2656.000000	64.111877
2655.000000	64.139068
2654.000000	64.180871
2653.000000	64.235698
2652.000000	64.300100
2651.000000	64.369846
2650.000000	64.439951
2649.000000	64.506718
2648.000000	64.571233
2647.000000	64.639089
2646.000000	64.716509
2645.000000	64.807983
2644.000000	64.915635
2643.000000	65.037955
2642.000000	65.168498
2641.000000	65.297917
2640.000000	65.418484
2639.000000	65.526091
2638.000000	65.619712
2637.000000	65.701923
2636.000000	65.779496
2635.000000	65.859988
2634.000000	65.946557
2633.000000	66.036623
2632.000000	66.124666
2631.000000	66.204304
2630.000000	66.268507
2629.000000	66.312434
2628.000000	66.337390
2627.000000	66.350508
2626.000000	66.360696
2625.000000	66.375486
2624.000000	66.400236
2623.000000	66.435961
2622.000000	66.476924
2621.000000	66.512975
2620.000000	66.535080
2619.000000	66.538620
2618.000000	66.523349
2617.000000	66.493684
2616.000000	66.459131
2615.000000	66.430421
2614.000000	66.413518
2613.000000	66.407560
2612.000000	66.406898
2611.000000	66.403010
2610.000000	66.385650
2609.000000	66.347051
2608.000000	66.287404
2607.000000	66.215138
2606.000000	66.142245
2605.000000	66.080309
2604.000000	66.038615
2603.000000	66.021247
2602.000000	66.024354
2601.000000	66.037901
2600.000000	66.051343
2599.000000	66.057520
2598.000000	66.053487
2597.000000	66.042103
2596.000000	66.032591
2595.000000	66.036685
2594.000000	66.062333
2593.000000	66.110683
2592.000000	66.177654
2591.000000	66.255005
2590.000000	66.331201
2589.000000	66.395729
2588.000000	66.444760
2587.000000	66.482502
2586.000000	66.517509
2585.000000	66.559450
2584.000000	66.617485
2583.000000	66.696652
2582.000000	66.794317
2581.000000	66.901537
2580.000000	67.008560
2579.000000	67.108442
2578.000000	67.197320
2577.000000	67.275852
2576.000000	67.350820
2575.000000	67.432307
2574.000000	67.527722
2573.000000	67.638706
2572.000000	67.762170
2571.000000	67.890992
2570.000000	68.014431
2569.000000	68.122170
2568.000000	68.210268
2567.000000	68.282251
2566.000000	68.345297
2565.000000	68.407434
2564.000000	68.476314
2563.000000	68.555880
2562.000000	68.642018
2561.000000	68.723889
2560.000000	68.790671
2559.000000	68.835956
2558.000000	68.858397
2557.000000	68.862381
2556.000000	68.858899
2555.000000	68.862288
2554.000000	68.883951
2553.000000	68.929345
2552.000000	68.998720
2551.000000	69.087147
2550.000000	69.184214
2549.000000	69.278618
2548.000000	69.364778
2547.000000	69.444469
2546.000000	69.523305
2545.000000	69.607783
2544.000000	69.704680
2543.000000	69.817579
2542.000000	69.942086
2541.000000	70.066717
2540.000000	70.179206
2539.000000	70.270868
2538.000000	70.337239
2537.000000	70.379568
2536.000000	70.406368
2535.000000	70.430427
2534.000000	70.461909
2533.000000	70.505050
2532.000000	70.559295
2531.000000	70.619226
2530.000000	70.674541
2529.000000	70.714528
2528.000000	70.735165
2527.000000	70.740901
2526.000000	70.740507
2525.000000	70.744086
2524.000000	70.762188
2523.000000	70.802073
2522.000000	70.862493
2521.000000	70.934225
2520.000000	71.005929
2519.000000	71.068277
2518.000000	71.114747
2517.000000	71.143773
2516.000000	71.161520
2515.000000	71.179253
2514.000000	71.206580
2513.000000	71.247979
2512.000000	71.303520
2511.000000	71.368447
2510.000000	71.432457
2509.000000	71.483998
2508.000000	71.517332
2507.000000	71.534320
2506.000000	71.540696
2505.000000	71.544154
2504.000000	71.554361
2503.000000	71.579119
2502.000000	71.618738
2501.000000	71.666192
2500.000000	71.712734
2499.000000	71.751097
2498.000000	71.775243
2497.000000	71.782599
2496.000000	71.777635
2495.000000	71.769992
2494.000000	71.768197
2493.000000	71.776770
2492.000000	71.797535
2491.000000	71.828861
2490.000000	71.863625
2489.000000	71.892319
2488.000000	71.909404
2487.000000	71.914802
2486.000000	71.910667
2485.000000	71.900797
2484.000000	71.892283
2483.000000	71.892499
2482.000000	71.903197
2481.000000	71.920238
2480.000000	71.938800
2479.000000	71.955590
2478.000000	71.966931
2477.000000	71.969783
2476.000000	71.965690
2475.000000	71.960121
2474.000000	71.957259
2473.000000	71.958067
2472.000000	71.962734
2471.000000	71.971006
2470.000000	71.980054
2469.000000	71.985981
2468.000000	71.988020
2467.000000	71.988505
2466.000000	71.989161
2465.000000	71.990726
2464.000000	71.995319
2463.000000	72.004861
2462.000000	72.017028
2461.000000	72.026447
2460.000000	72.030096
2459.000000	72.028501
2458.000000	72.022584
2457.000000	72.013711
2456.000000	72.006512
2455.000000	72.007048
2454.000000	72.017207
2453.000000	72.033798
2452.000000	72.052675
2451.000000	72.070190
2450.000000	72.081407
2449.000000	72.081903
2448.000000	72.072456
2447.000000	72.058929
2446.000000	72.047441
2445.000000	72.042445
2444.000000	72.048055
2443.000000	72.066141
2442.000000	72.092460
2441.000000	72.118440
2440.000000	72.137423
2439.000000	72.146759
2438.000000	72.145435
2437.000000	72.134445
2436.000000	72.119576
2435.000000	72.109335
2434.000000	72.108987
2433.000000	72.119074
2432.000000	72.138419
2431.000000	72.164328
2430.000000	72.190421
2429.000000	72.209162
2428.000000	72.217724
2427.000000	72.218543
2426.000000	72.214747
2425.000000	72.208954
2424.000000	72.205603
2423.000000	72.209457
2422.000000	72.221064
2421.000000	72.237141
2420.000000	72.255201
2419.000000	72.274285
2418.000000	72.291904
2417.000000	72.304858
2416.000000	72.313267
2415.000000	72.319965
2414.000000	72.326002
2413.000000	72.330533
2412.000000	72.334688
2411.000000	72.341268
2410.000000	72.350791
2409.000000	72.361881
2408.000000	72.375340
2407.000000	72.393653
2406.000000	72.416378
2405.000000	72.439938
2404.000000	72.461726
2403.000000	72.480573
2402.000000	72.493966
2401.000000	72.499592
2400.000000	72.499950
2399.000000	72.501459
2398.000000	72.508852
2397.000000	72.523945
2396.000000	72.548589
2395.000000	72.583632
2394.000000	72.624725
2393.000000	72.663612
2392.000000	72.694365
2391.000000	72.715509
2390.000000	72.727496
2389.000000	72.732876
2388.000000	72.739155
2387.000000	72.756091
2386.000000	72.789199
2385.000000	72.838374
2384.000000	72.900709
2383.000000	72.971263
2382.000000	73.040946
2381.000000	73.100202
2380.000000	73.146321
2379.000000	73.183283
2378.000000	73.216362
2377.000000	73.250312
2376.000000	73.291234
2375.000000	73.344392
2374.000000	73.408591
2373.000000	73.476927
2372.000000	73.543183
2371.000000	73.603360
2370.000000	73.652211
2369.000000	73.687338
2368.000000	73.714758
2367.000000	73.744752
2366.000000	73.782460
2365.000000	73.828968
2364.000000	73.887563
2363.000000	73.956093
2362.000000	74.026174
2361.000000	74.089495
2360.000000	74.142263
2359.000000	74.189963
2358.000000	74.232273
2357.000000	74.269090
2356.000000	74.305218
2355.000000	74.342585
2354.000000	74.381497
2353.000000	74.422362
2352.000000	74.478805
2351.000000	74.554942
2350.000000	74.632898
2349.000000	74.695193
2348.000000	74.737631
2347.000000	74.780051
2346.000000	74.833592
2345.000000	74.895245
2344.000000	74.956220
2343.000000	75.009219
2342.000000	75.059154
2341.000000	75.102554
2340.000000	75.139461
2339.000000	75.172039
2338.000000	75.206404
2337.000000	75.245510
2336.000000	75.295145
2335.000000	75.356904
2334.000000	75.428052
2333.000000	75.495115
2332.000000	75.552226
2331.000000	75.598390
2330.000000	75.634106
2329.000000	75.665864
2328.000000	75.697061
2327.000000	75.739045
2326.000000	75.790070
2325.000000	75.845977
2324.000000	75.903677
2323.000000	75.959770
2322.000000	76.011517
2321.000000	76.049448
2320.000000	76.076808
2319.000000	76.100296
2318.000000	76.128451
2317.000000	76.161576
2316.000000	76.201192
2315.000000	76.248874
2314.000000	76.301618
2313.000000	76.351984
2312.000000	76.394359
2311.000000	76.429549
2310.000000	76.457780
2309.000000	76.480223
2308.000000	76.501504
2307.000000	76.530069
2306.000000	76.568929
2305.000000	76.614153
2304.000000	76.661378
2303.000000	76.707704
2302.000000	76.748592
2301.000000	76.778370
2300.000000	76.797017
2299.000000	76.811762
2298.000000	76.829052
2297.000000	76.852809
2296.000000	76.885484
2295.000000	76.929157
2294.000000	76.978388
2293.000000	77.023465
2292.000000	77.057337
2291.000000	77.079709
2290.000000	77.091463
2289.000000	77.094686
2288.000000	77.096641
2287.000000	77.107966
2286.000000	77.133831
2285.000000	77.171154
2284.000000	77.214739
2283.000000	77.259637
2282.000000	77.298610
2281.000000	77.323579
2280.000000	77.333344
2279.000000	77.334103
2278.000000	77.332973
2277.000000	77.334756
2276.000000	77.345166
2275.000000	77.369245
2274.000000	77.404837
2273.000000	77.443194
2272.000000	77.476759
2271.000000	77.502377
2270.000000	77.517338
2269.000000	77.519714
2268.000000	77.513570
2267.000000	77.507535
2266.000000	77.506737
2265.000000	77.511121
2264.000000	77.520637
2263.000000	77.536048
2262.000000	77.553320
2261.000000	77.564784
2260.000000	77.567059
2259.000000	77.562498
2258.000000	77.553089
2257.000000	77.538184
2256.000000	77.519500
2255.000000	77.500611
2254.000000	77.481193
2253.000000	77.457112
2252.000000	77.427169
2251.000000	77.394157
2250.000000	77.358540
2249.000000	77.317849
2248.000000	77.272243
2247.000000	77.224515
2246.000000	77.173571
2245.000000	77.113978
2244.000000	77.042969
2243.000000	76.962394
2242.000000	76.873722
2241.000000	76.777737
2240.000000	76.679654
2239.000000	76.588353
2238.000000	76.508980
2237.000000	76.441107
2236.000000	76.383719
2235.000000	76.335872
2234.000000	76.292459
2233.000000	76.246026
2232.000000	76.194482
2231.000000	76.141943
2230.000000	76.092338
2229.000000	76.047822
2228.000000	76.012809
2227.000000	75.992087
2226.000000	75.983353
2225.000000	75.977411
2224.000000	75.966557
2223.000000	75.947720
2222.000000	75.918222
2221.000000	75.876011
2220.000000	75.825490
2219.000000	75.776729
2218.000000	75.737104
2217.000000	75.708188
2216.000000	75.690133
2215.000000	75.682311
2214.000000	75.678998
2213.000000	75.671217
2212.000000	75.654747
2211.000000	75.631543
2210.000000	75.603629
2209.000000	75.571999
2208.000000	75.541512
2207.000000	75.519568
2206.000000	75.508031
2205.000000	75.501870
2204.000000	75.496362
2203.000000	75.489974
2202.000000	75.480176
2201.000000	75.463511
2200.000000	75.441315
2199.000000	75.419502
2198.000000	75.401455
2197.000000	75.386160
2196.000000	75.373164
2195.000000	75.363022
2194.000000	75.352452
2193.000000	75.335653
2192.000000	75.311738
2191.000000	75.285368
2190.000000	75.259881
2189.000000	75.235647
2188.000000	75.214956
2187.000000	75.201346
2186.000000	75.192927
2185.000000	75.182735
2184.000000	75.166818
2183.000000	75.146638
2182.000000	75.123625
2181.000000	75.098233
2180.000000	75.074910
2179.000000	75.061030
2178.000000	75.059177
2177.000000	75.065692
2176.000000	75.076964
2175.000000	75.091013
2174.000000	75.103051
2173.000000	75.106872
2172.000000	75.102387
2171.000000	75.096022
2170.000000	75.092978
2169.000000	75.094812
2168.000000	75.104069
2167.000000	75.123677
2166.000000	75.150398
2165.000000	75.175446
2164.000000	75.193220
2163.000000	75.204115
2162.000000	75.209092
2161.000000	75.208651
2160.000000	75.207857
2159.000000	75.214950
2158.000000	75.232877
2157.000000	75.257517
2156.000000	75.284369
2155.000000	75.310786
2154.000000	75.331841
2153.000000	75.341973
2152.000000	75.342655
2151.000000	75.342315
2150.000000	75.347572
2149.000000	75.360033
2148.000000	75.380958
2147.000000	75.411214
2146.000000	75.445524
2145.000000	75.473765
2144.000000	75.490222
2143.000000	75.496512
2142.000000	75.495895
2141.000000	75.491970
2140.000000	75.493059
2139.000000	75.509540
2138.000000	75.544217
2137.000000	75.590536
2136.000000	75.640187
2135.000000	75.686240
2134.000000	75.719929
2133.000000	75.733727
2132.000000	75.730276
2131.000000	75.721954
2130.000000	75.720211
2129.000000	75.730972
2128.000000	75.758605
2127.000000	75.804988
2126.000000	75.862677
2125.000000	75.916525
2124.000000	75.954948
2123.000000	75.974910
2122.000000	75.977342
2121.000000	75.966054
2120.000000	75.952040
2119.000000	75.950113
2118.000000	75.968174
2117.000000	76.004505
2116.000000	76.054499
2115.000000	76.112352
2114.000000	76.166505
2113.000000	76.203226
2112.000000	76.218054
2111.000000	76.217889
2110.000000	76.211769
2109.000000	76.206814
2108.000000	76.211907
2107.000000	76.235116
2106.000000	76.274617
2105.000000	76.319233
2104.000000	76.359377
2103.000000	76.391229
2102.000000	76.411347
2101.000000	76.416539
2100.000000	76.411303
2099.000000	76.406717
2098.000000	76.409783
2097.000000	76.420204
2096.000000	76.436788
2095.000000	76.458841
2094.000000	76.480744
2093.000000	76.494290
2092.000000	76.498779
2091.000000	76.501585
2090.000000	76.508093
2089.000000	76.518485
2088.000000	76.534143
2087.000000	76.557984
2086.000000	76.586895
2085.000000	76.612276
2084.000000	76.630137
2083.000000	76.643529
2082.000000	76.654874
2081.000000	76.664418
2080.000000	76.677043
2079.000000	76.701035
2078.000000	76.737493
2077.000000	76.778811
2076.000000	76.817840
2075.000000	76.851622
2074.000000	76.875539
2073.000000	76.884012
2072.000000	76.880340
2071.000000	76.876421
2070.000000	76.881063
2069.000000	76.896067
2068.000000	76.923923
2067.000000	76.968792
2066.000000	77.026802
2065.000000	77.084173
2064.000000	77.128683
2063.000000	77.156847
2062.000000	77.169963
2061.000000	77.172660
2060.000000	77.176933
2059.000000	77.198246
2058.000000	77.243354
2057.000000	77.307547
2056.000000	77.383378
2055.000000	77.464162
2054.000000	77.538854
2053.000000	77.594475
2052.000000	77.628087
2051.000000	77.649102
2050.000000	77.668508
2049.000000	77.694369
2048.000000	77.736689
2047.000000	77.803924
2046.000000	77.892169
2045.000000	77.986570
2044.000000	78.075499
2043.000000	78.155533
2042.000000	78.223657
2041.000000	78.276345
2040.000000	78.318571
2039.000000	78.363851
2038.000000	78.422467
2037.000000	78.496838
2036.000000	78.587954
2035.000000	78.695831
2034.000000	78.812057
2033.000000	78.921863
2032.000000	79.016286
2031.000000	79.096344
2030.000000	79.164644
2029.000000	79.223846
2028.000000	79.283051
2027.000000	79.354826
2026.000000	79.443158
2025.000000	79.541880
2024.000000	79.646122
2023.000000	79.753020
2022.000000	79.852813
2021.000000	79.932701
2020.000000	79.992656
2019.000000	80.046979
2018.000000	80.108415
2017.000000	80.180140
2016.000000	80.262734
2015.000000	80.357478
2014.000000	80.460529
2013.000000	80.563578
2012.000000	80.662157
2011.000000	80.756029
2010.000000	80.841401
2009.000000	80.912997
2008.000000	80.973800
2007.000000	81.033547
2006.000000	81.097191
2005.000000	81.163022
2004.000000	81.233775
2003.000000	81.314673
2002.000000	81.402889
2001.000000	81.487520
2000.000000	81.561548
1999.000000	81.627179
1998.000000	81.683141
1997.000000	81.720641
1996.000000	81.737491
1995.000000	81.746894
1994.000000	81.766817
1993.000000	81.807716
1992.000000	81.871306
1991.000000	81.950122
1990.000000	82.027654
1989.000000	82.090397
1988.000000	82.138795
1987.000000	82.178582
1986.000000	82.207819
1985.000000	82.222354
1984.000000	82.230330
1983.000000	82.246032
1982.000000	82.273659
1981.000000	82.307258
1980.000000	82.343987
1979.000000	82.386040
1978.000000	82.427093
1977.000000	82.454613
1976.000000	82.466488
1975.000000	82.472117
1974.000000	82.476169
1973.000000	82.475208
1972.000000	82.470492
1971.000000	82.469625
1970.000000	82.475121
1969.000000	82.484976
1968.000000	82.503282
1967.000000	82.535240
1966.000000	82.571216
1965.000000	82.593699
1964.000000	82.601186
1963.000000	82.606561
1962.000000	82.613826
1961.000000	82.615175
1960.000000	82.609910
1959.000000	82.606811
1958.000000	82.607257
1957.000000	82.605488
1956.000000	82.604624
1955.000000	82.615502
1954.000000	82.637038
1953.000000	82.656912
1952.000000	82.671231
1951.000000	82.682875
1950.000000	82.687447
1949.000000	82.675334
1948.000000	82.645202
1947.000000	82.603096
1946.000000	82.552848
1945.000000	82.504772
1944.000000	82.485490
1943.000000	82.517020
1942.000000	82.585616
1941.000000	82.648811
1940.000000	82.678663
1939.000000	82.677423
1938.000000	82.650375
1937.000000	82.595758
1936.000000	82.525330
1935.000000	82.468181
1934.000000	82.443680
1933.000000	82.451451
1932.000000	82.487669
1931.000000	82.544851
1930.000000	82.603772
1929.000000	82.634455
1928.000000	82.618043
1927.000000	82.555117
1926.000000	82.455801
1925.000000	82.345380
1924.000000	82.260320
1923.000000	82.226656
1922.000000	82.238259
1921.000000	82.270821
1920.000000	82.321472
1919.000000	82.396401
1918.000000	82.464168
1917.000000	82.471162
1916.000000	82.400763
1915.000000	82.288797
1914.000000	82.179380
1913.000000	82.095956
1912.000000	82.054329
1911.000000	82.067681
1910.000000	82.130349
1909.000000	82.207451
1908.000000	82.262115
1907.000000	82.276705
1906.000000	82.242220
1905.000000	82.160142
1904.000000	82.051307
1903.000000	81.951798
1902.000000	81.891534
1901.000000	81.876282
1900.000000	81.897537
1899.000000	81.942625
1898.000000	81.988094
1897.000000	82.007839
1896.000000	81.989689
1895.000000	81.935951
1894.000000	81.848894
1893.000000	81.735243
1892.000000	81.628332
1891.000000	81.575260
1890.000000	81.591096
1889.000000	81.644555
1888.000000	81.691172
1887.000000	81.709377
1886.000000	81.697261
1885.000000	81.654267
1884.000000	81.586012
1883.000000	81.511278
1882.000000	81.450063
1881.000000	81.408548
1880.000000	81.386455
1879.000000	81.384715
1878.000000	81.391021
1877.000000	81.382213
1876.000000	81.349006
1875.000000	81.296551
1874.000000	81.223771
1873.000000	81.127033
1872.000000	81.028893
1871.000000	80.978420
1870.000000	80.995536
1869.000000	81.040249
1868.000000	81.061465
1867.000000	81.039645
1866.000000	80.978865
1865.000000	80.891728
1864.000000	80.798326
1863.000000	80.723143
1862.000000	80.680525
1861.000000	80.666802
1860.000000	80.669989
1859.000000	80.677579
1858.000000	80.671048
1857.000000	80.627686
1856.000000	80.542498
1855.000000	80.433431
1854.000000	80.324987
1853.000000	80.229614
1852.000000	80.153699
1851.000000	80.112068
1850.000000	80.103543
1849.000000	80.099847
1848.000000	80.073777
1847.000000	80.026752
1846.000000	79.977389
1845.000000	79.921298
1844.000000	79.833555
1843.000000	79.716757
1842.000000	79.605202
1841.000000	79.530804
1840.000000	79.508802
1839.000000	79.526000
1838.000000	79.539318
1837.000000	79.507407
1836.000000	79.415184
1835.000000	79.269241
1834.000000	79.085116
1833.000000	78.892649
1832.000000	78.753262
1831.000000	78.715508
1830.000000	78.745658
1829.000000	78.758278
1828.000000	78.705662
1827.000000	78.617546
1826.000000	78.534952
1825.000000	78.446490
1824.000000	78.327041
1823.000000	78.184857
1822.000000	78.047976
1821.000000	77.935909
1820.000000	77.861300
1819.000000	77.830508
1818.000000	77.827103
1817.000000	77.815197
1816.000000	77.757386
1815.000000	77.638190
1814.000000	77.467837
1813.000000	77.274871
1812.000000	77.103809
1811.000000	76.987130
1810.000000	76.924669
1809.000000	76.897136
1808.000000	76.885092
1807.000000	76.866423
1806.000000	76.803329
1805.000000	76.665665
1804.000000	76.467015
1803.000000	76.266584
1802.000000	76.120843
1801.000000	76.043051
1800.000000	76.017520
1799.000000	76.015058
1798.000000	76.005673
1797.000000	75.971873
1796.000000	75.910601
1795.000000	75.829826
1794.000000	75.736108
1793.000000	75.619240
1792.000000	75.483120
1791.000000	75.360501
1790.000000	75.265120
1789.000000	75.179534
1788.000000	75.092159
1787.000000	75.011864
1786.000000	74.942787
1785.000000	74.868148
1784.000000	74.763713
1783.000000	74.632142
1782.000000	74.496956
1781.000000	74.369442
1780.000000	74.257510
1779.000000	74.162602
1778.000000	74.081378
1777.000000	74.014663
1776.000000	73.966582
1775.000000	73.938924
1774.000000	73.911356
1773.000000	73.817211
1772.000000	73.617061
1771.000000	73.365906
1770.000000	73.138942
1769.000000	72.981683
1768.000000	72.897657
1767.000000	72.839234
1766.000000	72.741658
1765.000000	72.582724
1764.000000	72.407205
1763.000000	72.273803
1762.000000	72.177166
1761.000000	72.066036
1760.000000	71.926098
1759.000000	71.793483
1758.000000	71.706370
1757.000000	71.646319
1756.000000	71.566276
1755.000000	71.444518
1754.000000	71.278676
1753.000000	71.078374
1752.000000	70.877630
1751.000000	70.714921
1750.000000	70.595903
1749.000000	70.502006
1748.000000	70.413776
1747.000000	70.315192
1746.000000	70.178936
1745.000000	69.988111
1744.000000	69.771470
1743.000000	69.575071
1742.000000	69.413320
1741.000000	69.274372
1740.000000	69.147596
1739.000000	69.029555
1738.000000	68.923257
1737.000000	68.825986
1736.000000	68.761473
1735.000000	68.708409
1734.000000	68.516417
1733.000000	68.108449
1732.000000	67.610654
1731.000000	67.195267
1730.000000	66.919788
1729.000000	66.727671
1728.000000	66.552691
1727.000000	66.374958
1726.000000	66.182054
1725.000000	65.947441
1724.000000	65.665171
1723.000000	65.354919
1722.000000	65.049841
1721.000000	64.787826
1720.000000	64.613325
1719.000000	64.509042
1718.000000	64.338419
1717.000000	64.004963
1716.000000	63.575080
1715.000000	63.169478
1714.000000	62.824312
1713.000000	62.491750
1712.000000	62.138617
1711.000000	61.783136
1710.000000	61.442861
1709.000000	61.107078
1708.000000	60.779178
1707.000000	60.480938
1706.000000	60.196008
1705.000000	59.890974
1704.000000	59.575055
1703.000000	59.269579
1702.000000	59.023233
1701.000000	58.833063
1700.000000	58.584817
1699.000000	58.268964
1698.000000	57.949898
1697.000000	57.614080
1696.000000	57.206414
1695.000000	56.702938
1694.000000	56.160172
1693.000000	55.657494
1692.000000	55.217389
1691.000000	54.815111
1690.000000	54.441855
1689.000000	54.127420
1688.000000	53.897736
1687.000000	53.713435
1686.000000	53.493765
1685.000000	53.118568
1684.000000	52.555115
1683.000000	51.966378
1682.000000	51.459690
1681.000000	51.019991
1680.000000	50.620749
1679.000000	50.255213
1678.000000	49.919190
1677.000000	49.596238
1676.000000	49.269529
1675.000000	48.921559
1674.000000	48.543393
1673.000000	48.144025
1672.000000	47.758760
1671.000000	47.407960
1670.000000	47.060564
1669.000000	46.679338
1668.000000	46.280784
1667.000000	45.911211
1666.000000	45.579176
1665.000000	45.259811
1664.000000	44.932963
1663.000000	44.588909
1662.000000	44.227279
1661.000000	43.847817
1660.000000	43.465324
1659.000000	43.110824
1658.000000	42.808945
1657.000000	42.576147
1656.000000	42.421946
1655.000000	42.364424
1654.000000	42.286829
1653.000000	41.966924
1652.000000	41.404198
1651.000000	40.803408
1650.000000	40.333652
1649.000000	40.015736
1648.000000	39.760842
1647.000000	39.491230
1646.000000	39.189173
1645.000000	38.847924
1644.000000	38.489649
1643.000000	38.163843
1642.000000	37.878966
1641.000000	37.603353
1640.000000	37.335679
1639.000000	37.110515
1638.000000	36.937590
1637.000000	36.762881
1636.000000	36.524590
1635.000000	36.239785
1634.000000	35.944145
1633.000000	35.652002
1632.000000	35.380056
1631.000000	35.141471
1630.000000	34.933072
1629.000000	34.732907
1628.000000	34.529128
1627.000000	34.339332
1626.000000	34.178139
1625.000000	34.036338
1624.000000	33.898714
1623.000000	33.761286
1622.000000	33.628829
1621.000000	33.510477
1620.000000	33.431714
1619.000000	33.411429
1618.000000	33.415849
1617.000000	33.363439
1616.000000	33.222271
1615.000000	33.057418
1614.000000	32.936888
1613.000000	32.868092
1612.000000	32.828223
1611.000000	32.805867
1610.000000	32.797538
1609.000000	32.788994
1608.000000	32.774286
1607.000000	32.771209
1606.000000	32.793744
1605.000000	32.830511
1604.000000	32.871418
1603.000000	32.924295
1602.000000	32.989602
1601.000000	33.048612
1600.000000	33.090842
1599.000000	33.129613
1598.000000	33.176591
1597.000000	33.225740
1596.000000	33.274173
1595.000000	33.334708
1594.000000	33.413275
1593.000000	33.494812
1592.000000	33.566943
1591.000000	33.635812
1590.000000	33.705485
1589.000000	33.763542
1588.000000	33.803615
1587.000000	33.840178
1586.000000	33.887155
1585.000000	33.939152
1584.000000	33.989634
1583.000000	34.048669
1582.000000	34.121185
1581.000000	34.198848
1580.000000	34.288933
1579.000000	34.416243
1578.000000	34.574502
1577.000000	34.695505
1576.000000	34.710232
1575.000000	34.635173
1574.000000	34.544802
1573.000000	34.491146
1572.000000	34.492722
1571.000000	34.552573
1570.000000	34.645476
1569.000000	34.719049
1568.000000	34.746800
1567.000000	34.762407
1566.000000	34.812798
1565.000000	34.909001
1564.000000	35.031208
1563.000000	35.172679
1562.000000	35.313610
1561.000000	35.496785
1560.000000	35.763666
1559.000000	36.035867
1558.000000	36.246800
1557.000000	36.349052
1556.000000	36.409864
1555.000000	36.539883
1554.000000	36.740312
1553.000000	36.945819
1552.000000	37.136238
1551.000000	37.366843
1550.000000	37.668643
1549.000000	37.994608
1548.000000	38.279099
1547.000000	38.534156
1546.000000	38.831523
1545.000000	39.207971
1544.000000	39.650012
1543.000000	40.155995
1542.000000	40.751626
1541.000000	41.405457
1540.000000	42.015122
1539.000000	42.471484
1538.000000	42.721813
1537.000000	42.860243
1536.000000	43.041584
1535.000000	43.380698
1534.000000	43.909011
1533.000000	44.527006
1532.000000	45.100256
1531.000000	45.587773
1530.000000	46.036485
1529.000000	46.497544
1528.000000	46.990935
1527.000000	47.528949
1526.000000	48.109283
1525.000000	48.694371
1524.000000	49.269411
1523.000000	49.884732
1522.000000	50.578253
1521.000000	51.260646
1520.000000	51.787217
1519.000000	52.180639
1518.000000	52.589319
1517.000000	53.078722
1516.000000	53.598480
1515.000000	54.088323
1514.000000	54.552291
1513.000000	55.023718
1512.000000	55.506672
1511.000000	55.993997
1510.000000	56.501840
1509.000000	57.092159
1508.000000	57.786339
1507.000000	58.545950
1506.000000	59.263036
1505.000000	59.707808
1504.000000	59.893095
1503.000000	60.059377
1502.000000	60.339306
1501.000000	60.733865
1500.000000	61.199007
1499.000000	61.708674
1498.000000	62.224041
1497.000000	62.675367
1496.000000	63.005164
1495.000000	63.212063
1494.000000	63.346114
1493.000000	63.468076
1492.000000	63.647207
1491.000000	63.939084
1490.000000	64.317635
1489.000000	64.694897
1488.000000	65.013209
1487.000000	65.270182
1486.000000	65.477201
1485.000000	65.629181
1484.000000	65.739245
1483.000000	65.864774
1482.000000	66.035018
1481.000000	66.206721
1480.000000	66.320042
1479.000000	66.367475
1478.000000	66.372060
1477.000000	66.342172
1476.000000	66.275716
1475.000000	66.170924
1474.000000	65.996328
1473.000000	65.680963
1472.000000	65.214355
1471.000000	64.635209
1470.000000	63.922648
1469.000000	63.022387
1468.000000	61.902507
1467.000000	60.515855
1466.000000	58.746970
1465.000000	56.534933
1464.000000	54.087036
1463.000000	51.736816
1462.000000	49.641718
1461.000000	47.825210
1460.000000	46.337606
1459.000000	45.260048
1458.000000	44.652273
1457.000000	44.577601
1456.000000	45.008520
1455.000000	45.759212
1454.000000	46.692343
1453.000000	47.753728
1452.000000	48.850098
1451.000000	49.828241
1450.000000	50.525870
1449.000000	50.836825
1448.000000	50.728224
1447.000000	50.221120
1446.000000	49.334674
1445.000000	48.061028
1444.000000	46.417533
1443.000000	44.439185
1442.000000	42.134889
1441.000000	39.545903
1440.000000	36.773786
1439.000000	33.810038
1438.000000	30.393315
1437.000000	26.337272
1436.000000	22.118146
1435.000000	18.492883
1434.000000	15.581941
1433.000000	13.078406
1432.000000	10.870520
1431.000000	9.051943
1430.000000	7.647712
1429.000000	6.601790
1428.000000	5.948573
1427.000000	5.720345
1426.000000	5.819113
1425.000000	6.159043
1424.000000	6.787007
1423.000000	7.718505
1422.000000	8.852946
1421.000000	10.199936
1420.000000	11.988684
1419.000000	14.308899
1418.000000	16.832926
1417.000000	19.270067
1416.000000	21.707248
1415.000000	24.287708
1414.000000	26.976198
1413.000000	29.696687
1412.000000	32.456205
1411.000000	35.243044
1410.000000	37.948191
1409.000000	40.483863
1408.000000	42.864786
1407.000000	45.132434
1406.000000	47.305148
1405.000000	49.391197
1404.000000	51.356621
1403.000000	53.110376
1402.000000	54.622441
1401.000000	56.008618
1400.000000	57.405867
1399.000000	58.795272
1398.000000	60.054763
1397.000000	61.168264
1396.000000	62.237591
1395.000000	63.319208
1394.000000	64.356686
1393.000000	65.269348
1392.000000	66.039940
1391.000000	66.694180
1390.000000	67.269402
1389.000000	67.811884
1388.000000	68.338264
1387.000000	68.797671
1386.000000	69.122924
1385.000000	69.297475
1384.000000	69.334606
1383.000000	69.237192
1382.000000	69.011849
1381.000000	68.688752
1380.000000	68.293544
1379.000000	67.826907
1378.000000	67.283445
1377.000000	66.655611
1376.000000	65.905880
1375.000000	64.977929
1374.000000	63.859692
1373.000000	62.594284
1372.000000	61.218475
1371.000000	59.756642
1370.000000	58.285812
1369.000000	56.951687
1368.000000	55.911889
1367.000000	55.260817
1366.000000	55.014291
1365.000000	55.151432
1364.000000	55.638639
1363.000000	56.417772
1362.000000	57.389945
1361.000000	58.431137
1360.000000	59.432401
1359.000000	60.330172
1358.000000	61.106003
1357.000000	61.760026
1356.000000	62.283912
1355.000000	62.659896
1354.000000	62.872074
1353.000000	62.902448
1352.000000	62.719549
1351.000000	62.277524
1350.000000	61.536238
1349.000000	60.466681
1348.000000	59.038290
1347.000000	57.225206
1346.000000	55.015717
1345.000000	52.415886
1344.000000	49.460574
1343.000000	46.214379
1342.000000	42.761740
1341.000000	39.217248
1340.000000	35.774170
1339.000000	32.712689
1338.000000	30.280818
1337.000000	28.559030
1336.000000	27.459957
1335.000000	26.798756
1334.000000	26.330934
1333.000000	25.789026
1332.000000	24.940981
1331.000000	23.637445
1330.000000	21.825247
1329.000000	19.540209
1328.000000	16.901547
1327.000000	14.097618
1326.000000	11.340156
1325.000000	8.814043
1324.000000	6.662070
1323.000000	4.975383
1322.000000	3.762034
1321.000000	2.949068
1320.000000	2.441121
1319.000000	2.153477
1318.000000	2.003903
1317.000000	1.915917
1316.000000	1.845706
1315.000000	1.788860
1314.000000	1.744892
1313.000000	1.705166
1312.000000	1.676502
1311.000000	1.682386
1310.000000	1.737482
1309.000000	1.843427
1308.000000	2.016234
1307.000000	2.289979
1306.000000	2.687530
1305.000000	3.217300
1304.000000	3.894410
1303.000000	4.738805
1302.000000	5.750077
1301.000000	6.903582
1300.000000	8.178099
1299.000000	9.559364
1298.000000	11.022283
1297.000000	12.535610
1296.000000	14.078227
1295.000000	15.637115
1294.000000	17.191533
1293.000000	18.715142
1292.000000	20.188356
1291.000000	21.594773
1290.000000	22.907605
1289.000000	24.092964
1288.000000	25.121796
1287.000000	25.970683
1286.000000	26.628375
1285.000000	27.115599
1284.000000	27.505723
1283.000000	27.923314
1282.000000	28.514550
1281.000000	29.403141
1280.000000	30.651732
1279.000000	32.238784
1278.000000	34.066950
1277.000000	36.010862
1276.000000	37.961593
1275.000000	39.845783
1274.000000	41.629221
1273.000000	43.309715
1272.000000	44.897611
1271.000000	46.397241
1270.000000	47.804718
1269.000000	49.114085
1268.000000	50.319972
1267.000000	51.416648
1266.000000	52.410147
1265.000000	53.323249
1264.000000	54.182080
1263.000000	55.009296
1262.000000	55.826051
1261.000000	56.648934
1260.000000	57.474045
1259.000000	58.273886
1258.000000	59.020860
1257.000000	59.702281
1256.000000	60.314622
1255.000000	60.861676
1254.000000	61.364203
1253.000000	61.857362
1252.000000	62.367871
1251.000000	62.902706
1250.000000	63.458509
1249.000000	64.024511
1248.000000	64.574863
1247.000000	65.075502
1246.000000	65.508983
1245.000000	65.883810
1244.000000	66.218651
1243.000000	66.533572
1242.000000	66.855761
1241.000000	67.212757
1240.000000	67.610953
1239.000000	68.030700
1238.000000	68.446539
1237.000000	68.838905
1236.000000	69.187861
1235.000000	69.477974
1234.000000	69.716840
1233.000000	69.934545
1232.000000	70.159788
1231.000000	70.408409
1230.000000	70.691687
1229.000000	71.014099
1228.000000	71.359170
1227.000000	71.694937
1226.000000	71.999443
1225.000000	72.269515
1224.000000	72.506400
1223.000000	72.713515
1222.000000	72.910240
1221.000000	73.126315
1220.000000	73.375793
1219.000000	73.649549
1218.000000	73.933782
1217.000000	74.217820
1216.000000	74.483513
1215.000000	74.710507
1214.000000	74.898684
1213.000000	75.068927
1212.000000	75.238957
1211.000000	75.414059
1210.000000	75.600833
1209.000000	75.807207
1208.000000	76.024484
1207.000000	76.228721
1206.000000	76.405125
1205.000000	76.557012
1204.000000	76.690285
1203.000000	76.809309
1202.000000	76.929595
1201.000000	77.071783
1200.000000	77.237511
1199.000000	77.406179
1198.000000	77.556451
1197.000000	77.674767
1196.000000	77.742994
1195.000000	77.743291
1194.000000	77.679998
1193.000000	77.578182
1192.000000	77.458237
1191.000000	77.325721
1190.000000	77.186707
1189.000000	77.051591
1188.000000	76.921499
1187.000000	76.791332
1186.000000	76.671082
1185.000000	76.586991
1184.000000	76.558734
1183.000000	76.591717
1182.000000	76.690350
1181.000000	76.864478
1180.000000	77.115258
1179.000000	77.427484
1178.000000	77.777583
1177.000000	78.131804
1176.000000	78.441671
1175.000000	78.664289
1174.000000	78.795673
1173.000000	78.871603
1172.000000	78.936875
1171.000000	79.028093
1170.000000	79.176744
1169.000000	79.398855
1168.000000	79.672729
1167.000000	79.946178
1166.000000	80.171308
1165.000000	80.322858
1164.000000	80.392153
1163.000000	80.390713
1162.000000	80.362785
1161.000000	80.369263
1160.000000	80.449770
1159.000000	80.609570
1158.000000	80.834192
1157.000000	81.094142
1156.000000	81.337510
1155.000000	81.507337
1154.000000	81.579582
1153.000000	81.572108
1152.000000	81.520069
1151.000000	81.462741
1150.000000	81.447938
1149.000000	81.516520
1148.000000	81.670016
1147.000000	81.868171
1146.000000	82.059996
1145.000000	82.203735
1144.000000	82.266380
1143.000000	82.235416
1142.000000	82.139778
1141.000000	82.038687
1140.000000	81.982482
1139.000000	81.994547
1138.000000	82.079989
1137.000000	82.224584
1136.000000	82.383185
1135.000000	82.494900
1134.000000	82.522445
1133.000000	82.467155
1132.000000	82.352561
1131.000000	82.216156
1130.000000	82.112299
1129.000000	82.091218
1128.000000	82.163158
1127.000000	82.294614
1126.000000	82.438638
1125.000000	82.553508
1124.000000	82.601231
1123.000000	82.560334
1122.000000	82.450181
1121.000000	82.323401
1120.000000	82.229485
1119.000000	82.196973
1118.000000	82.240260
1117.000000	82.354360
1116.000000	82.499182
1115.000000	82.613146
1114.000000	82.653529
1113.000000	82.614147
1112.000000	82.510793
1111.000000	82.374348
1110.000000	82.255546
1109.000000	82.205853
1108.000000	82.241898
1107.000000	82.338989
1106.000000	82.456903
1105.000000	82.554233
1104.000000	82.585829
1103.000000	82.519404
1102.000000	82.365133
1101.000000	82.172026
1100.000000	81.991444
1099.000000	81.856255
1098.000000	81.786260
1097.000000	81.780466
1096.000000	81.801260
1095.000000	81.787017
1094.000000	81.690696
1093.000000	81.497340
1092.000000	81.210955
1091.000000	80.852561
1090.000000	80.467363
1089.000000	80.104564
1088.000000	79.781207
1087.000000	79.472709
1086.000000	79.137865
1085.000000	78.732327
1084.000000	78.203404
1083.000000	77.506680
1082.000000	76.629984
1081.000000	75.594886
1080.000000	74.429442
1079.000000	73.146738
1078.000000	71.749751
1077.000000	70.217632
1076.000000	68.500126
1075.000000	66.540696
1074.000000	64.307792
1073.000000	61.816042
1072.000000	59.116589
1071.000000	56.292635
1070.000000	53.451731
1069.000000	50.702014
1068.000000	48.129874
1067.000000	45.795807
1066.000000	43.738619
1065.000000	41.978252
1064.000000	40.535707
1063.000000	39.430943
1062.000000	38.687063
1061.000000	38.331676
1060.000000	38.384135
1059.000000	38.859228
1058.000000	39.744662
1057.000000	41.002914
1056.000000	42.579081
1055.000000	44.392507
1054.000000	46.352495
1053.000000	48.369438
1052.000000	50.369262
1051.000000	52.302428
1050.000000	54.147906
1049.000000	55.910575
1048.000000	57.601340
1047.000000	59.219247
1046.000000	60.749328
1045.000000	62.171688
1044.000000	63.458616
1043.000000	64.586372
1042.000000	65.559233
1041.000000	66.415040
1040.000000	67.210033
1039.000000	67.998385
1038.000000	68.825068
1037.000000	69.713662
1036.000000	70.647497
1035.000000	71.576797
1034.000000	72.447052
1033.000000	73.220426
1032.000000	73.878036
1031.000000	74.424423
1030.000000	74.899606
1029.000000	75.364116
1028.000000	75.862261
1027.000000	76.404595
1026.000000	76.976314
1025.000000	77.546430
1024.000000	78.066146
1023.000000	78.486273
1022.000000	78.791987
1021.000000	79.009345
1020.000000	79.182125
1019.000000	79.354606
1018.000000	79.568871
1017.000000	79.850616
1016.000000	80.185300
1015.000000	80.524849
1014.000000	80.821022
1013.000000	81.044602
1012.000000	81.182208
1011.000000	81.241220
1010.000000	81.262771
1009.000000	81.306861
1008.000000	81.414438
1007.000000	81.592088
1006.000000	81.824098
1005.000000	82.078647
1004.000000	82.304814
1003.000000	82.451129
1002.000000	82.500829
1001.000000	82.479062
1000.000000	82.429006
999.000000	82.395097
998.000000	82.420758
997.000000	82.533336
996.000000	82.720363
995.000000	82.933533
994.000000	83.120590
993.000000	83.244786
992.000000	83.283650
991.000000	83.236803
990.000000	83.141001
989.000000	83.056922
988.000000	83.032108
987.000000	83.084332
986.000000	83.210067
985.000000	83.386606
984.000000	83.566240
983.000000	83.693176
982.000000	83.738022
981.000000	83.708590
980.000000	83.631696
979.000000	83.541980
978.000000	83.483132
977.000000	83.492216
976.000000	83.572233
975.000000	83.691164
974.000000	83.809977
973.000000	83.898642
972.000000	83.932771
971.000000	83.900699
970.000000	83.820459
969.000000	83.732143
968.000000	83.668908
967.000000	83.645254
966.000000	83.665595
965.000000	83.722411
964.000000	83.786274
963.000000	83.818962
962.000000	83.803723
961.000000	83.751326
960.000000	83.679152
959.000000	83.602941
958.000000	83.545225
957.000000	83.527136
956.000000	83.545494
955.000000	83.572876
954.000000	83.582715
953.000000	83.560580
952.000000	83.496845
951.000000	83.391069
950.000000	83.266687
949.000000	83.161585
948.000000	83.099429
947.000000	83.080364
946.000000	83.094570
945.000000	83.124207
944.000000	83.134709
943.000000	83.087673
942.000000	82.971046
941.000000	82.804567
940.000000	82.617857
939.000000	82.440635
938.000000	82.307843
937.000000	82.247243
936.000000	82.253593
935.000000	82.288663
934.000000	82.308312
933.000000	82.278947
932.000000	82.175355
931.000000	81.988735
930.000000	81.742909
929.000000	81.486539
928.000000	81.264354
927.000000	81.103482
926.000000	81.017627
925.000000	80.999292
924.000000	81.006738
923.000000	80.979469
922.000000	80.874573
921.000000	80.679987
920.000000	80.401465
919.000000	80.060532
918.000000	79.703655
917.000000	79.387039
916.000000	79.143665
915.000000	78.971689
914.000000	78.848214
913.000000	78.737265
912.000000	78.587554
911.000000	78.349320
910.000000	78.003477
909.000000	77.566613
908.000000	77.071380
907.000000	76.556142
906.000000	76.066597
905.000000	75.639287
904.000000	75.274998
903.000000	74.940574
902.000000	74.593808
901.000000	74.196602
900.000000	73.712318
899.000000	73.116555
898.000000	72.419396
897.000000	71.660341
896.000000	70.881874
895.000000	70.114543
894.000000	69.376965
893.000000	68.670254
892.000000	67.965927
891.000000	67.216025
890.000000	66.379881
889.000000	65.435453
888.000000	64.376146
887.000000	63.211630
886.000000	61.972679
885.000000	60.698315
884.000000	59.410911
883.000000	58.112047
882.000000	56.791019
881.000000	55.428258
880.000000	53.995844
879.000000	52.468685
878.000000	50.843767
877.000000	49.142328
876.000000	47.397798
875.000000	45.645109
874.000000	43.913772
873.000000	42.221961
872.000000	40.574699
871.000000	38.969950
870.000000	37.404596
869.000000	35.879188
868.000000	34.400232
867.000000	32.982414
866.000000	31.646341
865.000000	30.409273
864.000000	29.282373
863.000000	28.266013
862.000000	27.348204
861.000000	26.511865
860.000000	25.742552
859.000000	25.035267
858.000000	24.390614
857.000000	23.813353
856.000000	23.316139
855.000000	22.912230
854.000000	22.607720
853.000000	22.397753
852.000000	22.271074
851.000000	22.215682
850.000000	22.216529
849.000000	22.261676
848.000000	22.350645
847.000000	22.495177
846.000000	22.714136
845.000000	23.024653
844.000000	23.442121
843.000000	23.977725
842.000000	24.630448
841.000000	25.385984
840.000000	26.220172
839.000000	27.109746
838.000000	28.038300
837.000000	28.996152
836.000000	29.980860
835.000000	30.995287
834.000000	32.035778
833.000000	33.065834
832.000000	33.994223
831.000000	34.636727
830.000000	34.684898
829.000000	33.745254
828.000000	31.592318
827.000000	28.560382
826.000000	25.679962
825.000000	24.233448
824.000000	24.988508
823.000000	27.767234
822.000000	31.710235
821.000000	35.910671
820.000000	39.796355
819.000000	43.127907
818.000000	45.867933
817.000000	48.090986
816.000000	49.929183
815.000000	51.510717
814.000000	52.938539
813.000000	54.293480
812.000000	55.627799
811.000000	56.937589
810.000000	58.175668
809.000000	59.293460
808.000000	60.260060
807.000000	61.067916
806.000000	61.746374
805.000000	62.368795
804.000000	63.019515
803.000000	63.749510
802.000000	64.569526
801.000000	65.461727
800.000000	66.377212
799.000000	67.238417
798.000000	67.974872
797.000000	68.563633
796.000000	69.030162
795.000000	69.428451
794.000000	69.830548
793.000000	70.308717
792.000000	70.898450
791.000000	71.576755
790.000000	72.282477
789.000000	72.948451
788.000000	73.513261
787.000000	73.935767
786.000000	74.225091
785.000000	74.446008
784.000000	74.679183
783.000000	74.980413
782.000000	75.374098
781.000000	75.855471
780.000000	76.380862
779.000000	76.875649
778.000000	77.275499
777.000000	77.560565
776.000000	77.750446
775.000000	77.887474
774.000000	78.031456
773.000000	78.242151
772.000000	78.542565
771.000000	78.904315
770.000000	79.274024
769.000000	79.602692
768.000000	79.850322
767.000000	79.995262
766.000000	80.059728
765.000000	80.109084
764.000000	80.208997
763.000000	80.389340
762.000000	80.645749
761.000000	80.949018
760.000000	81.241044
759.000000	81.449297
758.000000	81.531287
757.000000	81.502736
756.000000	81.420129
755.000000	81.353534
754.000000	81.374455
753.000000	81.533612
752.000000	81.823232
751.000000	82.170442
750.000000	82.478429
749.000000	82.669558
748.000000	82.698668
747.000000	82.566005
746.000000	82.338269
745.000000	82.133859
744.000000	82.060949
743.000000	82.168058
742.000000	82.442739
741.000000	82.824426
740.000000	83.206590
739.000000	83.462645
738.000000	83.508200
737.000000	83.343779
736.000000	83.041644
735.000000	82.712753
734.000000	82.482805
733.000000	82.454816
732.000000	82.657165
731.000000	83.027309
730.000000	83.451070
729.000000	83.808446
728.000000	83.996142
727.000000	83.957833
726.000000	83.725902
725.000000	83.419942
724.000000	83.183714
723.000000	83.123617
722.000000	83.291027
721.000000	83.677357
720.000000	84.199471
719.000000	84.718153
718.000000	85.105725
717.000000	85.299318
716.000000	85.300111
715.000000	85.161291
714.000000	84.987419
713.000000	84.904862
712.000000	84.996918
711.000000	85.266542
710.000000	85.659227
709.000000	86.094790
708.000000	86.476089
707.000000	86.713794
706.000000	86.777257
705.000000	86.711189
704.000000	86.594082
703.000000	86.496104
702.000000	86.475692
701.000000	86.573744
700.000000	86.781895
699.000000	87.038106
698.000000	87.272311
697.000000	87.444716
696.000000	87.538023
695.000000	87.549333
694.000000	87.510042
693.000000	87.480242
692.000000	87.498335
691.000000	87.557985
690.000000	87.642486
689.000000	87.749772
688.000000	87.865556
687.000000	87.950266
686.000000	87.986465
685.000000	88.006039
684.000000	88.045795
683.000000	88.108451
682.000000	88.186596
681.000000	88.284197
680.000000	88.387608
679.000000	88.453630
678.000000	88.458873
677.000000	88.424260
676.000000	88.378394
675.000000	88.345044
674.000000	88.357307
673.000000	88.453892
672.000000	88.645190
671.000000	88.901607
670.000000	89.173352
669.000000	89.379853
668.000000	89.403727
667.000000	89.225243
666.000000	88.982967
665.000000	88.801781
664.000000	88.729522
663.000000	88.770344
662.000000	88.904066
661.000000	89.091880
660.000000	89.277342
659.000000	89.401825
658.000000	89.435779
657.000000	89.387859
656.000000	89.287114
655.000000	89.181284
654.000000	89.122121
653.000000	89.139926
652.000000	89.234320
651.000000	89.379875
650.000000	89.535654
649.000000	89.655934
648.000000	89.705275
647.000000	89.674542
646.000000	89.587954
645.000000	89.491454
644.000000	89.426411
643.000000	89.413620
642.000000	89.455789
641.000000	89.540832
640.000000	89.640151
639.000000	89.715278
638.000000	89.736317
637.000000	89.697980
636.000000	89.620208
635.000000	89.538591
634.000000	89.491416
633.000000	89.500812
632.000000	89.559326
631.000000	89.639458
630.000000	89.714444
629.000000	89.763642
628.000000	89.766692
627.000000	89.712177
626.000000	89.616073
625.000000	89.517109
624.000000	89.446822
623.000000	89.416071
622.000000	89.427495
621.000000	89.478837
620.000000	89.548690
619.000000	89.599396
618.000000	89.604427
617.000000	89.562133
616.000000	89.480373
615.000000	89.367888
614.000000	89.243697
613.000000	89.133416
612.000000	89.047035
611.000000	88.974705
610.000000	88.903634
609.000000	88.816990
608.000000	88.675126
607.000000	88.416929
606.000000	87.991038
605.000000	87.360524
604.000000	86.465869
603.000000	85.205788
602.000000	83.433025
601.000000	80.976179
600.000000	77.722353
599.000000	73.792037
598.000000	69.672248
597.000000	66.123290
596.000000	63.882248
595.000000	63.354337
594.000000	64.461432
593.000000	66.731917
592.000000	69.576346
591.000000	72.492596
590.000000	75.156798
589.000000	77.457564
588.000000	79.423734
587.000000	81.117070
586.000000	82.574977
585.000000	83.813614
584.000000	84.826457
583.000000	85.597537
582.000000	86.134710
581.000000	86.491137
580.000000	86.742860
579.000000	86.952760
578.000000	87.177935
577.000000	87.474102
576.000000	87.860362
575.000000	88.289704
574.000000	88.677666
573.000000	88.958504
572.000000	89.097928
571.000000	89.087767
570.000000	88.964228
569.000000	88.808650
568.000000	88.703490
567.000000	88.695441
566.000000	88.798526
565.000000	89.004467
564.000000	89.270597
563.000000	89.519946
562.000000	89.680328
561.000000	89.721158
560.000000	89.648538
559.000000	89.491847
558.000000	89.310736
557.000000	89.183811
556.000000	89.164853
555.000000	89.256944
554.000000	89.429834
553.000000	89.640026
552.000000	89.829991
551.000000	89.940707
550.000000	89.950537
549.000000	89.885358
548.000000	89.780999
547.000000	89.662964
546.000000	89.566531
545.000000	89.536616
544.000000	89.587362
543.000000	89.688925
542.000000	89.803944
541.000000	89.912926
540.000000	89.995553
539.000000	90.023862
538.000000	89.992529
537.000000	89.929647
536.000000	89.861442
535.000000	89.793898
534.000000	89.737213
533.000000	89.716358
532.000000	89.741070
531.000000	89.787857
530.000000	89.828019
529.000000	89.848880
528.000000	89.840999
527.000000	89.795921
526.000000	89.729779
525.000000	89.672216
524.000000	89.616421
523.000000	89.515660
522.000000	89.344575
521.000000	89.126256
520.000000	88.888886
519.000000	88.633915
518.000000	88.361723
517.000000	88.095482
516.000000	87.851781
515.000000	87.617484
514.000000	87.375187
513.000000	87.124074
512.000000	86.861477
511.000000	86.571897
510.000000	86.248252
509.000000	85.895579
508.000000	85.497491
507.000000	85.011001
506.000000	84.406543
505.000000	83.683841
504.000000	82.853783
503.000000	81.957046
502.000000	81.104728
501.000000	80.436148
500.000000	80.016462
499.000000	79.820468
498.000000	79.810328
497.000000	79.960406
496.000000	80.220179
495.000000	80.513656
494.000000	80.790777
493.000000	81.054762
492.000000	81.319856
491.000000	81.581395
490.000000	81.837007
489.000000	82.105557
488.000000	82.409635
487.000000	82.761948
486.000000	83.177901
485.000000	83.667904
484.000000	84.201673
483.000000	84.715683
482.000000	85.174187
481.000000	85.588620
480.000000	85.968631
479.000000	86.299549
478.000000	86.580091
477.000000	86.836824
476.000000	87.076251
475.000000	87.260571
474.000000	87.363842
473.000000	87.401845
472.000000	87.389058
471.000000	87.315005
470.000000	87.184845
469.000000	87.057570
468.000000	87.007055
467.000000	87.058984
466.000000	87.181285
465.000000	87.319272
464.000000	87.418544
463.000000	87.431741
462.000000	87.346706
461.000000	87.189911
460.000000	86.987857
459.000000	86.774177
458.000000	86.642938
457.000000	86.707551
456.000000	86.956084
455.000000	87.243932
454.000000	87.454625
453.000000	87.565893
452.000000	87.563766
451.000000	87.382802
450.000000	86.982409
449.000000	86.432004
448.000000	85.865651
447.000000	85.380161
446.000000	84.998592
445.000000	84.690668
444.000000	84.371497
443.000000	83.892094
442.000000	83.112532
441.000000	82.009966
440.000000	80.675251
439.000000	79.254902
438.000000	77.947584
437.000000	77.016169
436.000000	76.696276
435.000000	77.048810
434.000000	77.928134
433.000000	79.114285
432.000000	80.417754
431.000000	81.650159
430.000000	82.658639
429.000000	83.425013
428.000000	84.027986
427.000000	84.538655
426.000000	85.022238
425.000000	85.585510
424.000000	86.299802
423.000000	87.084994
422.000000	87.754345
421.000000	88.177193
420.000000	88.338535
419.000000	88.332880
418.000000	88.354073
417.000000	88.533083
416.000000	88.802630
415.000000	89.041854
414.000000	89.229268
413.000000	89.449128
412.000000	89.730044
411.000000	89.967124
410.000000	90.081871
409.000000	90.136045
408.000000	90.173506
407.000000	90.124754
406.000000	89.965832
405.000000	89.800883
404.000000	89.724386
403.000000	89.606184
402.000000	89.347647
401.000000	89.019653
400.000000	88.722600
