PE IR       SUBTECH     SPECTRUM    ASCII       PEDS        4.00        
   -1
23ms026_nitro.asc
24/09/10
15:47:45.00
24/09/10
15:47:45.00
Administrator
Sample 1152 By Administrator Date Tuesday, September 10 2024
400.000000
#HDR
-1
-1
#GR
cm-1
%T
1.0
0.0
4000.000000
-1.000000
3601
8
71.619932
0.203015
#DATA
4000.000000	28.441474
3999.000000	28.484394
3998.000000	28.527192
3997.000000	28.569837
3996.000000	28.611888
3995.000000	28.652777
3994.000000	28.692550
3993.000000	28.731997
3992.000000	28.771899
3991.000000	28.812401
3990.000000	28.853240
3989.000000	28.894306
3988.000000	28.935591
3987.000000	28.976717
3986.000000	29.016939
3985.000000	29.055659
3984.000000	29.092887
3983.000000	29.129111
3982.000000	29.164875
3981.000000	29.200547
3980.000000	29.236451
3979.000000	29.273018
3978.000000	29.310540
3977.000000	29.348828
3976.000000	29.387277
3975.000000	29.425159
3974.000000	29.461938
3973.000000	29.497545
3972.000000	29.532259
3971.000000	29.566395
3970.000000	29.600024
3969.000000	29.633169
3968.000000	29.666108
3967.000000	29.699450
3966.000000	29.733974
3965.000000	29.770087
3964.000000	29.807328
3963.000000	29.844372
3962.000000	29.879856
3961.000000	29.913492
3960.000000	29.946042
3959.000000	29.978310
3958.000000	30.010466
3957.000000	30.042695
3956.000000	30.075746
3955.000000	30.110438
3954.000000	30.147142
3953.000000	30.185544
3952.000000	30.224955
3951.000000	30.264440
3950.000000	30.302796
3949.000000	30.338764
3948.000000	30.371958
3947.000000	30.404097
3946.000000	30.438013
3945.000000	30.474582
3944.000000	30.511497
3943.000000	30.546137
3942.000000	30.579285
3941.000000	30.614241
3940.000000	30.652265
3939.000000	30.691343
3938.000000	30.729072
3937.000000	30.765853
3936.000000	30.804105
3935.000000	30.844283
3934.000000	30.883773
3933.000000	30.919518
3932.000000	30.951364
3931.000000	30.981623
3930.000000	31.012206
3929.000000	31.044509
3928.000000	31.080224
3927.000000	31.120172
3926.000000	31.161454
3925.000000	31.199336
3924.000000	31.233294
3923.000000	31.266888
3922.000000	31.301663
3921.000000	31.335871
3920.000000	31.368808
3919.000000	31.402603
3918.000000	31.437905
3917.000000	31.472298
3916.000000	31.504866
3915.000000	31.538589
3914.000000	31.575788
3913.000000	31.615114
3912.000000	31.653568
3911.000000	31.690491
3910.000000	31.726759
3909.000000	31.763346
3908.000000	31.801288
3907.000000	31.840711
3906.000000	31.879385
3905.000000	31.912206
3904.000000	31.937377
3903.000000	31.960552
3902.000000	31.988031
3901.000000	32.018635
3900.000000	32.046190
3899.000000	32.069715
3898.000000	32.095412
3897.000000	32.127994
3896.000000	32.165772
3895.000000	32.206689
3894.000000	32.251037
3893.000000	32.297769
3892.000000	32.339138
3891.000000	32.368879
3890.000000	32.393407
3889.000000	32.424879
3888.000000	32.466207
3887.000000	32.506650
3886.000000	32.534022
3885.000000	32.552640
3884.000000	32.578173
3883.000000	32.615844
3882.000000	32.655104
3881.000000	32.684254
3880.000000	32.704649
3879.000000	32.729046
3878.000000	32.766412
3877.000000	32.813352
3876.000000	32.858474
3875.000000	32.892209
3874.000000	32.917326
3873.000000	32.947676
3872.000000	32.989642
3871.000000	33.029297
3870.000000	33.050336
3869.000000	33.062160
3868.000000	33.087661
3867.000000	33.130650
3866.000000	33.173916
3865.000000	33.205936
3864.000000	33.235479
3863.000000	33.274893
3862.000000	33.320414
3861.000000	33.362012
3860.000000	33.397045
3859.000000	33.430494
3858.000000	33.468588
3857.000000	33.515357
3856.000000	33.570060
3855.000000	33.617800
3854.000000	33.637141
3853.000000	33.635846
3852.000000	33.645285
3851.000000	33.675319
3850.000000	33.712774
3849.000000	33.748915
3848.000000	33.787480
3847.000000	33.835676
3846.000000	33.892433
3845.000000	33.949646
3844.000000	33.998904
3843.000000	34.037703
3842.000000	34.070790
3841.000000	34.104352
3840.000000	34.136968
3839.000000	34.164041
3838.000000	34.186795
3837.000000	34.210827
3836.000000	34.239766
3835.000000	34.273004
3834.000000	34.309124
3833.000000	34.347010
3832.000000	34.385740
3831.000000	34.427371
3830.000000	34.475038
3829.000000	34.527866
3828.000000	34.578828
3827.000000	34.619756
3826.000000	34.650453
3825.000000	34.682021
3824.000000	34.723683
3823.000000	34.769758
3822.000000	34.802581
3821.000000	34.815759
3820.000000	34.829165
3819.000000	34.862079
3818.000000	34.909070
3817.000000	34.949367
3816.000000	34.974965
3815.000000	35.003827
3814.000000	35.052907
3813.000000	35.111688
3812.000000	35.159507
3811.000000	35.194105
3810.000000	35.230788
3809.000000	35.279142
3808.000000	35.327431
3807.000000	35.358856
3806.000000	35.378322
3805.000000	35.405306
3804.000000	35.445440
3803.000000	35.485917
3802.000000	35.510863
3801.000000	35.527021
3800.000000	35.558149
3799.000000	35.608338
3798.000000	35.659282
3797.000000	35.696828
3796.000000	35.727123
3795.000000	35.766011
3794.000000	35.818257
3793.000000	35.873487
3792.000000	35.921753
3791.000000	35.964279
3790.000000	36.007029
3789.000000	36.051481
3788.000000	36.095470
3787.000000	36.137762
3786.000000	36.177963
3785.000000	36.214700
3784.000000	36.248134
3783.000000	36.282660
3782.000000	36.321674
3781.000000	36.362772
3780.000000	36.400901
3779.000000	36.436762
3778.000000	36.476652
3777.000000	36.523230
3776.000000	36.570600
3775.000000	36.612182
3774.000000	36.649953
3773.000000	36.691602
3772.000000	36.738343
3771.000000	36.781399
3770.000000	36.814854
3769.000000	36.845818
3768.000000	36.883894
3767.000000	36.927799
3766.000000	36.968765
3765.000000	37.003617
3764.000000	37.040343
3763.000000	37.087210
3762.000000	37.139983
3761.000000	37.187524
3760.000000	37.226556
3759.000000	37.264276
3758.000000	37.303716
3757.000000	37.340355
3756.000000	37.373301
3755.000000	37.406342
3754.000000	37.440790
3753.000000	37.473797
3752.000000	37.505800
3751.000000	37.540890
3750.000000	37.575772
3749.000000	37.604794
3748.000000	37.634734
3747.000000	37.677901
3746.000000	37.731315
3745.000000	37.773915
3744.000000	37.805258
3743.000000	37.854312
3742.000000	37.925639
3741.000000	37.992501
3740.000000	38.039877
3739.000000	38.082465
3738.000000	38.139861
3737.000000	38.207042
3736.000000	38.265032
3735.000000	38.309369
3734.000000	38.350785
3733.000000	38.392715
3732.000000	38.431722
3731.000000	38.472968
3730.000000	38.526092
3729.000000	38.591635
3728.000000	38.659520
3727.000000	38.719756
3726.000000	38.774275
3725.000000	38.830537
3724.000000	38.887158
3723.000000	38.936576
3722.000000	38.978050
3721.000000	39.019293
3720.000000	39.065766
3719.000000	39.116602
3718.000000	39.166753
3717.000000	39.213478
3716.000000	39.259444
3715.000000	39.305892
3714.000000	39.349492
3713.000000	39.386972
3712.000000	39.422122
3711.000000	39.463222
3710.000000	39.512891
3709.000000	39.566518
3708.000000	39.618684
3707.000000	39.668591
3706.000000	39.719737
3705.000000	39.775546
3704.000000	39.835572
3703.000000	39.896330
3702.000000	39.954509
3701.000000	40.010040
3700.000000	40.064930
3699.000000	40.119946
3698.000000	40.171529
3697.000000	40.215156
3696.000000	40.253241
3695.000000	40.292706
3694.000000	40.335039
3693.000000	40.376332
3692.000000	40.416364
3691.000000	40.460112
3690.000000	40.508973
3689.000000	40.557829
3688.000000	40.604816
3687.000000	40.654699
3686.000000	40.708980
3685.000000	40.761194
3684.000000	40.806065
3683.000000	40.848924
3682.000000	40.898577
3681.000000	40.951987
3680.000000	40.998196
3679.000000	41.036140
3678.000000	41.076583
3677.000000	41.119904
3676.000000	41.150796
3675.000000	41.171657
3674.000000	41.204369
3673.000000	41.253609
3672.000000	41.302007
3671.000000	41.337018
3670.000000	41.370458
3669.000000	41.426168
3668.000000	41.506318
3667.000000	41.589237
3666.000000	41.657943
3665.000000	41.713917
3664.000000	41.767620
3663.000000	41.825060
3662.000000	41.882450
3661.000000	41.931465
3660.000000	41.970009
3659.000000	42.002282
3658.000000	42.032346
3657.000000	42.059127
3656.000000	42.083626
3655.000000	42.113887
3654.000000	42.152881
3653.000000	42.190860
3652.000000	42.214496
3651.000000	42.221661
3650.000000	42.227305
3649.000000	42.248973
3648.000000	42.287159
3647.000000	42.331406
3646.000000	42.376276
3645.000000	42.422308
3644.000000	42.469234
3643.000000	42.515498
3642.000000	42.560563
3641.000000	42.605492
3640.000000	42.649570
3639.000000	42.688184
3638.000000	42.718561
3637.000000	42.743491
3636.000000	42.766652
3635.000000	42.786107
3634.000000	42.798564
3633.000000	42.808197
3632.000000	42.822321
3631.000000	42.840094
3630.000000	42.851043
3629.000000	42.854859
3628.000000	42.872411
3627.000000	42.914689
3626.000000	42.962526
3625.000000	42.993508
3624.000000	43.006610
3623.000000	43.016613
3622.000000	43.034017
3621.000000	43.054401
3620.000000	43.069191
3619.000000	43.080677
3618.000000	43.097795
3617.000000	43.121991
3616.000000	43.146081
3615.000000	43.162180
3614.000000	43.168561
3613.000000	43.171478
3612.000000	43.179734
3611.000000	43.195850
3610.000000	43.215172
3609.000000	43.234464
3608.000000	43.257743
3607.000000	43.290740
3606.000000	43.330596
3605.000000	43.367093
3604.000000	43.393628
3603.000000	43.412170
3602.000000	43.428178
3601.000000	43.443802
3600.000000	43.459227
3599.000000	43.474555
3598.000000	43.489060
3597.000000	43.501783
3596.000000	43.515104
3595.000000	43.532237
3594.000000	43.554113
3593.000000	43.578341
3592.000000	43.600892
3591.000000	43.619092
3590.000000	43.632479
3589.000000	43.642636
3588.000000	43.654620
3587.000000	43.675694
3586.000000	43.707692
3585.000000	43.743457
3584.000000	43.774106
3583.000000	43.797498
3582.000000	43.817480
3581.000000	43.837683
3580.000000	43.858933
3579.000000	43.880437
3578.000000	43.901085
3577.000000	43.920018
3576.000000	43.937798
3575.000000	43.956482
3574.000000	43.977539
3573.000000	44.000523
3572.000000	44.023681
3571.000000	44.045289
3570.000000	44.063627
3569.000000	44.076731
3568.000000	44.085814
3567.000000	44.098191
3566.000000	44.121288
3565.000000	44.153970
3564.000000	44.188584
3563.000000	44.219652
3562.000000	44.247156
3561.000000	44.273665
3560.000000	44.300999
3559.000000	44.329552
3558.000000	44.358128
3557.000000	44.384511
3556.000000	44.407494
3555.000000	44.428060
3554.000000	44.447569
3553.000000	44.466415
3552.000000	44.485668
3551.000000	44.507709
3550.000000	44.533573
3549.000000	44.561645
3548.000000	44.590419
3547.000000	44.620900
3546.000000	44.653625
3545.000000	44.685698
3544.000000	44.713012
3543.000000	44.734155
3542.000000	44.750553
3541.000000	44.765110
3540.000000	44.781865
3539.000000	44.804441
3538.000000	44.832769
3537.000000	44.862286
3536.000000	44.888667
3535.000000	44.911202
3534.000000	44.931080
3533.000000	44.948124
3532.000000	44.961766
3531.000000	44.973355
3530.000000	44.985108
3529.000000	44.998320
3528.000000	45.014373
3527.000000	45.035756
3526.000000	45.062944
3525.000000	45.091493
3524.000000	45.115241
3523.000000	45.131984
3522.000000	45.143957
3521.000000	45.153642
3520.000000	45.161619
3519.000000	45.167968
3518.000000	45.173989
3517.000000	45.181611
3516.000000	45.191807
3515.000000	45.203280
3514.000000	45.213120
3513.000000	45.218918
3512.000000	45.220454
3511.000000	45.219304
3510.000000	45.216999
3509.000000	45.214068
3508.000000	45.210699
3507.000000	45.207076
3506.000000	45.202583
3505.000000	45.196280
3504.000000	45.188705
3503.000000	45.181662
3502.000000	45.175544
3501.000000	45.168527
3500.000000	45.158910
3499.000000	45.146160
3498.000000	45.129318
3497.000000	45.106750
3496.000000	45.078588
3495.000000	45.047369
3494.000000	45.015337
3493.000000	44.982742
3492.000000	44.949450
3491.000000	44.916361
3490.000000	44.884212
3489.000000	44.852312
3488.000000	44.819211
3487.000000	44.783275
3486.000000	44.742086
3485.000000	44.693354
3484.000000	44.638088
3483.000000	44.581119
3482.000000	44.526824
3481.000000	44.475071
3480.000000	44.422037
3479.000000	44.364101
3478.000000	44.299990
3477.000000	44.230725
3476.000000	44.158849
3475.000000	44.086782
3474.000000	44.015230
3473.000000	43.943738
3472.000000	43.872448
3471.000000	43.801499
3470.000000	43.728550
3469.000000	43.649042
3468.000000	43.559780
3467.000000	43.461315
3466.000000	43.356590
3465.000000	43.248684
3464.000000	43.140342
3463.000000	43.033490
3462.000000	42.927651
3461.000000	42.819791
3460.000000	42.706753
3459.000000	42.587494
3458.000000	42.462951
3457.000000	42.334880
3456.000000	42.205340
3455.000000	42.075657
3454.000000	41.945355
3453.000000	41.812642
3452.000000	41.676596
3451.000000	41.537683
3450.000000	41.395512
3449.000000	41.248126
3448.000000	41.094771
3447.000000	40.937906
3446.000000	40.780706
3445.000000	40.623268
3444.000000	40.462864
3443.000000	40.297506
3442.000000	40.128014
3441.000000	39.957047
3440.000000	39.786598
3439.000000	39.616016
3438.000000	39.442122
3437.000000	39.261112
3436.000000	39.070834
3435.000000	38.871229
3434.000000	38.663616
3433.000000	38.450347
3432.000000	38.234116
3431.000000	38.016011
3430.000000	37.794008
3429.000000	37.565001
3428.000000	37.328491
3427.000000	37.086721
3426.000000	36.841817
3425.000000	36.594386
3424.000000	36.344239
3423.000000	36.090567
3422.000000	35.831403
3421.000000	35.565197
3420.000000	35.292910
3419.000000	35.016651
3418.000000	34.736838
3417.000000	34.452247
3416.000000	34.162484
3415.000000	33.868169
3414.000000	33.568739
3413.000000	33.262630
3412.000000	32.949374
3411.000000	32.629726
3410.000000	32.303659
3409.000000	31.969996
3408.000000	31.628616
3407.000000	31.281133
3406.000000	30.929575
3405.000000	30.575786
3404.000000	30.221318
3403.000000	29.866006
3402.000000	29.506518
3401.000000	29.137983
3400.000000	28.757516
3399.000000	28.365561
3398.000000	27.965117
3397.000000	27.560645
3396.000000	27.156145
3395.000000	26.752559
3394.000000	26.347100
3393.000000	25.936309
3392.000000	25.519042
3391.000000	25.095846
3390.000000	24.667546
3389.000000	24.235457
3388.000000	23.801452
3387.000000	23.366086
3386.000000	22.927902
3385.000000	22.486222
3384.000000	22.042865
3383.000000	21.599852
3382.000000	21.157075
3381.000000	20.713646
3380.000000	20.269995
3379.000000	19.826931
3378.000000	19.384123
3377.000000	18.941080
3376.000000	18.498337
3375.000000	18.056535
3374.000000	17.615727
3373.000000	17.176604
3372.000000	16.740761
3371.000000	16.308726
3370.000000	15.879260
3369.000000	15.451634
3368.000000	15.026866
3367.000000	14.605978
3366.000000	14.189074
3365.000000	13.776690
3364.000000	13.370124
3363.000000	12.969559
3362.000000	12.573776
3361.000000	12.182682
3360.000000	11.797879
3359.000000	11.420148
3358.000000	11.048725
3357.000000	10.683564
3356.000000	10.326339
3355.000000	9.977932
3354.000000	9.637317
3353.000000	9.303747
3352.000000	8.977675
3351.000000	8.659202
3350.000000	8.347588
3349.000000	8.042996
3348.000000	7.746802
3347.000000	7.459093
3346.000000	7.178589
3345.000000	6.905221
3344.000000	6.640553
3343.000000	6.385312
3342.000000	6.138317
3341.000000	5.898718
3340.000000	5.666860
3339.000000	5.442487
3338.000000	5.224681
3337.000000	5.013590
3336.000000	4.810456
3335.000000	4.615441
3334.000000	4.427434
3333.000000	4.246393
3332.000000	4.073147
3331.000000	3.907181
3330.000000	3.746829
3329.000000	3.591557
3328.000000	3.442266
3327.000000	3.299012
3326.000000	3.161121
3325.000000	3.029248
3324.000000	2.904556
3323.000000	2.786302
3322.000000	2.672414
3321.000000	2.562517
3320.000000	2.458058
3319.000000	2.359275
3318.000000	2.265085
3317.000000	2.175299
3316.000000	2.090484
3315.000000	2.009869
3314.000000	1.931846
3313.000000	1.856669
3312.000000	1.785882
3311.000000	1.719228
3310.000000	1.654993
3309.000000	1.593051
3308.000000	1.535148
3307.000000	1.482155
3306.000000	1.433564
3305.000000	1.389685
3304.000000	1.351224
3303.000000	1.316934
3302.000000	1.284216
3301.000000	1.252092
3300.000000	1.221449
3299.000000	1.192478
3298.000000	1.164505
3297.000000	1.138100
3296.000000	1.114591
3295.000000	1.093727
3294.000000	1.074189
3293.000000	1.056333
3292.000000	1.041912
3291.000000	1.030991
3290.000000	1.021811
3289.000000	1.013391
3288.000000	1.006001
3287.000000	0.999322
3286.000000	0.992506
3285.000000	0.986043
3284.000000	0.981118
3283.000000	0.977395
3282.000000	0.973640
3281.000000	0.970087
3280.000000	0.967938
3279.000000	0.966819
3278.000000	0.965216
3277.000000	0.963034
3276.000000	0.961295
3275.000000	0.959761
3274.000000	0.957364
3273.000000	0.954800
3272.000000	0.954105
3271.000000	0.955767
3270.000000	0.958518
3269.000000	0.961739
3268.000000	0.965748
3267.000000	0.969984
3266.000000	0.973253
3265.000000	0.975697
3264.000000	0.978442
3263.000000	0.981500
3262.000000	0.984075
3261.000000	0.986457
3260.000000	0.989509
3259.000000	0.992754
3258.000000	0.995130
3257.000000	0.997219
3256.000000	1.000514
3255.000000	1.004962
3254.000000	1.009313
3253.000000	1.013408
3252.000000	1.017878
3251.000000	1.022167
3250.000000	1.025136
3249.000000	1.027257
3248.000000	1.030087
3247.000000	1.033961
3246.000000	1.038200
3245.000000	1.042967
3244.000000	1.048774
3243.000000	1.054716
3242.000000	1.059430
3241.000000	1.063263
3240.000000	1.067462
3239.000000	1.071771
3238.000000	1.075013
3237.000000	1.077407
3236.000000	1.080199
3235.000000	1.083538
3234.000000	1.086801
3233.000000	1.090430
3232.000000	1.095289
3231.000000	1.100744
3230.000000	1.105441
3229.000000	1.109436
3228.000000	1.113588
3227.000000	1.117634
3226.000000	1.120887
3225.000000	1.124049
3224.000000	1.128132
3223.000000	1.132306
3222.000000	1.134992
3221.000000	1.136423
3220.000000	1.137999
3219.000000	1.139811
3218.000000	1.140969
3217.000000	1.141679
3216.000000	1.142752
3215.000000	1.143745
3214.000000	1.143743
3213.000000	1.143405
3212.000000	1.144054
3211.000000	1.145323
3210.000000	1.145795
3209.000000	1.145382
3208.000000	1.145015
3207.000000	1.144607
3206.000000	1.143353
3205.000000	1.141506
3204.000000	1.139849
3203.000000	1.138030
3202.000000	1.135295
3201.000000	1.132222
3200.000000	1.129853
3199.000000	1.127794
3198.000000	1.125020
3197.000000	1.121747
3196.000000	1.118651
3195.000000	1.115144
3194.000000	1.110395
3193.000000	1.105188
3192.000000	1.100817
3191.000000	1.096923
3190.000000	1.092372
3189.000000	1.087345
3188.000000	1.082656
3187.000000	1.077941
3186.000000	1.072509
3185.000000	1.067083
3184.000000	1.062649
3183.000000	1.058515
3182.000000	1.053476
3181.000000	1.048012
3180.000000	1.043333
3179.000000	1.039214
3178.000000	1.034779
3177.000000	1.030452
3176.000000	1.027049
3175.000000	1.023882
3174.000000	1.019879
3173.000000	1.015648
3172.000000	1.012385
3171.000000	1.009629
3170.000000	1.006203
3169.000000	1.002489
3168.000000	0.999683
3167.000000	0.997592
3166.000000	0.995263
3165.000000	0.992973
3164.000000	0.991598
3163.000000	0.990809
3162.000000	0.989836
3161.000000	0.989178
3160.000000	0.989623
3159.000000	0.990417
3158.000000	0.990371
3157.000000	0.989858
3156.000000	0.989896
3155.000000	0.990203
3154.000000	0.990170
3153.000000	0.990770
3152.000000	0.993407
3151.000000	0.997693
3150.000000	1.002261
3149.000000	1.006942
3148.000000	1.012204
3147.000000	1.017393
3146.000000	1.021574
3145.000000	1.025326
3144.000000	1.029788
3143.000000	1.034702
3142.000000	1.039225
3141.000000	1.043845
3140.000000	1.049665
3139.000000	1.056568
3138.000000	1.063850
3137.000000	1.071741
3136.000000	1.080603
3135.000000	1.089613
3134.000000	1.097992
3133.000000	1.106534
3132.000000	1.116154
3131.000000	1.126037
3130.000000	1.135136
3129.000000	1.144332
3128.000000	1.155141
3127.000000	1.167194
3126.000000	1.179021
3125.000000	1.190422
3124.000000	1.202118
3123.000000	1.213946
3122.000000	1.225355
3121.000000	1.236960
3120.000000	1.249766
3119.000000	1.263506
3118.000000	1.277472
3117.000000	1.292171
3116.000000	1.308460
3115.000000	1.325870
3114.000000	1.343373
3113.000000	1.360972
3112.000000	1.378986
3111.000000	1.396801
3110.000000	1.413962
3109.000000	1.431533
3108.000000	1.450734
3107.000000	1.471165
3106.000000	1.491876
3105.000000	1.513090
3104.000000	1.535239
3103.000000	1.557453
3102.000000	1.578782
3101.000000	1.599946
3100.000000	1.622240
3099.000000	1.645561
3098.000000	1.669145
3097.000000	1.693222
3096.000000	1.718306
3095.000000	1.743855
3094.000000	1.769189
3093.000000	1.794837
3092.000000	1.821491
3091.000000	1.848635
3090.000000	1.875623
3089.000000	1.902991
3088.000000	1.931236
3087.000000	1.959483
3086.000000	1.986942
3085.000000	2.014581
3084.000000	2.043754
3083.000000	2.074237
3082.000000	2.105174
3081.000000	2.136789
3080.000000	2.169611
3079.000000	2.203090
3078.000000	2.236612
3077.000000	2.270840
3076.000000	2.306434
3075.000000	2.342491
3074.000000	2.377816
3073.000000	2.412729
3072.000000	2.448142
3071.000000	2.483886
3070.000000	2.519475
3069.000000	2.555496
3068.000000	2.592699
3067.000000	2.630691
3066.000000	2.668907
3065.000000	2.707834
3064.000000	2.747865
3063.000000	2.788040
3062.000000	2.827364
3061.000000	2.866333
3060.000000	2.905826
3059.000000	2.945613
3058.000000	2.985318
3057.000000	3.025663
3056.000000	3.067278
3055.000000	3.109354
3054.000000	3.150956
3053.000000	3.192615
3052.000000	3.235219
3051.000000	3.278383
3050.000000	3.321290
3049.000000	3.364120
3048.000000	3.407281
3047.000000	3.450347
3046.000000	3.493127
3045.000000	3.536687
3044.000000	3.581960
3043.000000	3.628354
3042.000000	3.674999
3041.000000	3.722178
3040.000000	3.770149
3039.000000	3.817801
3038.000000	3.863985
3037.000000	3.909188
3036.000000	3.954597
3035.000000	4.000528
3034.000000	4.047026
3033.000000	4.094822
3032.000000	4.144258
3031.000000	4.194305
3030.000000	4.243973
3029.000000	4.293632
3028.000000	4.343721
3027.000000	4.393401
3026.000000	4.441875
3025.000000	4.489865
3024.000000	4.538421
3023.000000	4.587371
3022.000000	4.636303
3021.000000	4.685911
3020.000000	4.736864
3019.000000	4.788378
3018.000000	4.839318
3017.000000	4.889748
3016.000000	4.940112
3015.000000	4.989939
3014.000000	5.038862
3013.000000	5.087959
3012.000000	5.138661
3011.000000	5.191148
3010.000000	5.244972
3009.000000	5.300244
3008.000000	5.356821
3007.000000	5.413320
3006.000000	5.468391
3005.000000	5.522314
3004.000000	5.576106
3003.000000	5.629738
3002.000000	5.682409
3001.000000	5.733924
3000.000000	5.784749
2999.000000	5.835318
2998.000000	5.886220
2997.000000	5.938427
2996.000000	5.992477
2995.000000	6.048040
2994.000000	6.104779
2993.000000	6.162673
2992.000000	6.220959
2991.000000	6.278019
2990.000000	6.333146
2989.000000	6.387325
2988.000000	6.441513
2987.000000	6.495390
2986.000000	6.548635
2985.000000	6.602150
2984.000000	6.656950
2983.000000	6.712956
2982.000000	6.769790
2981.000000	6.827601
2980.000000	6.886114
2979.000000	6.944007
2978.000000	7.000282
2977.000000	7.055329
2976.000000	7.109891
2975.000000	7.164195
2974.000000	7.218897
2973.000000	7.275467
2972.000000	7.334511
2971.000000	7.394827
2970.000000	7.455113
2969.000000	7.515388
2968.000000	7.575737
2967.000000	7.635009
2966.000000	7.692044
2965.000000	7.747185
2964.000000	7.801517
2963.000000	7.855719
2962.000000	7.910652
2961.000000	7.967666
2960.000000	8.027094
2959.000000	8.087514
2958.000000	8.147482
2957.000000	8.206820
2956.000000	8.265359
2955.000000	8.322031
2954.000000	8.376468
2953.000000	8.430138
2952.000000	8.484606
2951.000000	8.539819
2950.000000	8.595224
2949.000000	8.651265
2948.000000	8.708568
2947.000000	8.766810
2946.000000	8.825584
2945.000000	8.885258
2944.000000	8.945820
2943.000000	9.005918
2942.000000	9.064169
2941.000000	9.120542
2940.000000	9.175597
2939.000000	9.229574
2938.000000	9.283214
2937.000000	9.338150
2936.000000	9.395213
2935.000000	9.453271
2934.000000	9.510793
2933.000000	9.567489
2932.000000	9.623516
2931.000000	9.678422
2930.000000	9.732056
2929.000000	9.785367
2928.000000	9.839090
2927.000000	9.892760
2926.000000	9.946057
2925.000000	9.999907
2924.000000	10.055139
2923.000000	10.111268
2922.000000	10.167653
2921.000000	10.224482
2920.000000	10.281573
2919.000000	10.337553
2918.000000	10.391457
2917.000000	10.443974
2916.000000	10.496113
2915.000000	10.547910
2914.000000	10.599459
2913.000000	10.651894
2912.000000	10.706118
2911.000000	10.761571
2910.000000	10.817257
2909.000000	10.872964
2908.000000	10.928502
2907.000000	10.982853
2906.000000	11.035227
2905.000000	11.086129
2904.000000	11.136453
2903.000000	11.186406
2902.000000	11.236224
2901.000000	11.286851
2900.000000	11.339013
2899.000000	11.392383
2898.000000	11.446373
2897.000000	11.500819
2896.000000	11.555125
2895.000000	11.607861
2894.000000	11.658184
2893.000000	11.706839
2892.000000	11.754996
2891.000000	11.803076
2890.000000	11.851433
2889.000000	11.901035
2888.000000	11.952439
2887.000000	12.004954
2886.000000	12.057664
2885.000000	12.110384
2884.000000	12.162842
2883.000000	12.213999
2882.000000	12.263219
2881.000000	12.311225
2880.000000	12.359047
2879.000000	12.406912
2878.000000	12.455116
2877.000000	12.504956
2876.000000	12.557507
2875.000000	12.611926
2874.000000	12.665913
2873.000000	12.717477
2872.000000	12.765802
2871.000000	12.811314
2870.000000	12.855693
2869.000000	12.901036
2868.000000	12.948113
2867.000000	12.995960
2866.000000	13.043738
2865.000000	13.092051
2864.000000	13.141822
2863.000000	13.192829
2862.000000	13.244161
2861.000000	13.295147
2860.000000	13.345016
2859.000000	13.392687
2858.000000	13.437964
2857.000000	13.482216
2856.000000	13.526959
2855.000000	13.572497
2854.000000	13.618719
2853.000000	13.666309
2852.000000	13.716126
2851.000000	13.767998
2850.000000	13.820879
2849.000000	13.873599
2848.000000	13.924896
2847.000000	13.973623
2846.000000	14.019745
2845.000000	14.064587
2844.000000	14.109686
2843.000000	14.156038
2842.000000	14.204580
2841.000000	14.256005
2840.000000	14.309353
2839.000000	14.361986
2838.000000	14.412019
2837.000000	14.459972
2836.000000	14.507230
2835.000000	14.553948
2834.000000	14.599482
2833.000000	14.644003
2832.000000	14.688514
2831.000000	14.733823
2830.000000	14.780510
2829.000000	14.829351
2828.000000	14.880754
2827.000000	14.934092
2826.000000	14.988285
2825.000000	15.042603
2824.000000	15.096315
2823.000000	15.148295
2822.000000	15.197888
2821.000000	15.245743
2820.000000	15.293046
2819.000000	15.340411
2818.000000	15.388114
2817.000000	15.436763
2816.000000	15.486810
2815.000000	15.537794
2814.000000	15.588748
2813.000000	15.638920
2812.000000	15.687513
2811.000000	15.733376
2810.000000	15.775883
2809.000000	15.815789
2808.000000	15.854539
2807.000000	15.893045
2806.000000	15.931694
2805.000000	15.970929
2804.000000	16.011051
2803.000000	16.051812
2802.000000	16.092802
2801.000000	16.133835
2800.000000	16.174384
2799.000000	16.213261
2798.000000	16.249652
2797.000000	16.284092
2796.000000	16.317807
2795.000000	16.351579
2794.000000	16.385940
2793.000000	16.421857
2792.000000	16.460227
2791.000000	16.500859
2790.000000	16.542627
2789.000000	16.584411
2788.000000	16.625358
2787.000000	16.664721
2786.000000	16.702217
2785.000000	16.738321
2784.000000	16.773670
2783.000000	16.808447
2782.000000	16.842812
2781.000000	16.877433
2780.000000	16.912851
2779.000000	16.948623
2778.000000	16.983662
2777.000000	17.016965
2776.000000	17.047481
2775.000000	17.073722
2774.000000	17.094420
2773.000000	17.109513
2772.000000	17.119831
2771.000000	17.126234
2770.000000	17.129515
2769.000000	17.130569
2768.000000	17.129889
2767.000000	17.126963
2766.000000	17.120983
2765.000000	17.111903
2764.000000	17.100166
2763.000000	17.085861
2762.000000	17.068875
2761.000000	17.049737
2760.000000	17.029538
2759.000000	17.009071
2758.000000	16.988749
2757.000000	16.969082
2756.000000	16.950519
2755.000000	16.932893
2754.000000	16.915491
2753.000000	16.897518
2752.000000	16.877939
2751.000000	16.855162
2750.000000	16.827575
2749.000000	16.794339
2748.000000	16.755481
2747.000000	16.711356
2746.000000	16.662444
2745.000000	16.609379
2744.000000	16.552643
2743.000000	16.492792
2742.000000	16.431425
2741.000000	16.371283
2740.000000	16.314948
2739.000000	16.263930
2738.000000	16.219524
2737.000000	16.184147
2736.000000	16.160893
2735.000000	16.152083
2734.000000	16.159192
2733.000000	16.183099
2732.000000	16.223771
2731.000000	16.279999
2730.000000	16.349704
2729.000000	16.430869
2728.000000	16.521295
2727.000000	16.618134
2726.000000	16.718733
2725.000000	16.821364
2724.000000	16.925041
2723.000000	17.028733
2722.000000	17.131139
2721.000000	17.231124
2720.000000	17.327745
2719.000000	17.419975
2718.000000	17.506845
2717.000000	17.587633
2716.000000	17.661566
2715.000000	17.727902
2714.000000	17.786447
2713.000000	17.837808
2712.000000	17.882815
2711.000000	17.921679
2710.000000	17.954440
2709.000000	17.981578
2708.000000	18.003694
2707.000000	18.021041
2706.000000	18.033609
2705.000000	18.041781
2704.000000	18.046213
2703.000000	18.047292
2702.000000	18.045427
2701.000000	18.041462
2700.000000	18.036408
2699.000000	18.030798
2698.000000	18.024712
2697.000000	18.018348
2696.000000	18.011930
2695.000000	18.005264
2694.000000	17.997880
2693.000000	17.989469
2692.000000	17.979876
2691.000000	17.968858
2690.000000	17.956429
2689.000000	17.943268
2688.000000	17.930238
2687.000000	17.917683
2686.000000	17.905641
2685.000000	17.894527
2684.000000	17.884976
2683.000000	17.876998
2682.000000	17.869767
2681.000000	17.862352
2680.000000	17.854392
2679.000000	17.846207
2678.000000	17.838666
2677.000000	17.832820
2676.000000	17.829477
2675.000000	17.829111
2674.000000	17.832237
2673.000000	17.839648
2672.000000	17.851853
2671.000000	17.868659
2670.000000	17.889436
2669.000000	17.913342
2668.000000	17.939227
2667.000000	17.965589
2666.000000	17.991101
2665.000000	18.015009
2664.000000	18.036797
2663.000000	18.055948
2662.000000	18.072352
2661.000000	18.086514
2660.000000	18.098989
2659.000000	18.109904
2658.000000	18.119233
2657.000000	18.127230
2656.000000	18.134234
2655.000000	18.140416
2654.000000	18.146206
2653.000000	18.152666
2652.000000	18.161050
2651.000000	18.172330
2650.000000	18.187509
2649.000000	18.207886
2648.000000	18.234743
2647.000000	18.268808
2646.000000	18.310304
2645.000000	18.359313
2644.000000	18.415321
2643.000000	18.477075
2642.000000	18.543132
2641.000000	18.612279
2640.000000	18.683437
2639.000000	18.755230
2638.000000	18.826276
2637.000000	18.895662
2636.000000	18.962703
2635.000000	19.026451
2634.000000	19.085848
2633.000000	19.140142
2632.000000	19.188922
2631.000000	19.231989
2630.000000	19.269289
2629.000000	19.301212
2628.000000	19.328460
2627.000000	19.351624
2626.000000	19.371270
2625.000000	19.387928
2624.000000	19.402065
2623.000000	19.413984
2622.000000	19.423845
2621.000000	19.431776
2620.000000	19.437429
2619.000000	19.439859
2618.000000	19.438060
2617.000000	19.431459
2616.000000	19.419954
2615.000000	19.403498
2614.000000	19.382222
2613.000000	19.356760
2612.000000	19.327957
2611.000000	19.296575
2610.000000	19.263384
2609.000000	19.229524
2608.000000	19.196566
2607.000000	19.166335
2606.000000	19.140845
2605.000000	19.122224
2604.000000	19.112206
2603.000000	19.111686
2602.000000	19.121230
2601.000000	19.141153
2600.000000	19.171265
2599.000000	19.210704
2598.000000	19.258062
2597.000000	19.312105
2596.000000	19.371574
2595.000000	19.435040
2594.000000	19.501279
2593.000000	19.569302
2592.000000	19.638320
2591.000000	19.707564
2590.000000	19.776542
2589.000000	19.845314
2588.000000	19.914138
2587.000000	19.983177
2586.000000	20.052563
2585.000000	20.122560
2584.000000	20.193461
2583.000000	20.265454
2582.000000	20.338794
2581.000000	20.413793
2580.000000	20.490435
2579.000000	20.568217
2578.000000	20.646558
2577.000000	20.725170
2576.000000	20.803707
2575.000000	20.881222
2574.000000	20.956383
2573.000000	21.028287
2572.000000	21.096747
2571.000000	21.161899
2570.000000	21.223859
2569.000000	21.282600
2568.000000	21.338000
2567.000000	21.389458
2566.000000	21.435762
2565.000000	21.475632
2564.000000	21.507925
2563.000000	21.531804
2562.000000	21.546422
2561.000000	21.550822
2560.000000	21.544278
2559.000000	21.526304
2558.000000	21.497446
2557.000000	21.459858
2556.000000	21.417220
2555.000000	21.374240
2554.000000	21.336092
2553.000000	21.308177
2552.000000	21.295624
2551.000000	21.302300
2550.000000	21.329639
2549.000000	21.376809
2548.000000	21.441055
2547.000000	21.518466
2546.000000	21.605059
2545.000000	21.696883
2544.000000	21.790527
2543.000000	21.883282
2542.000000	21.973293
2541.000000	22.059666
2540.000000	22.141909
2539.000000	22.219492
2538.000000	22.292021
2537.000000	22.359750
2536.000000	22.423458
2535.000000	22.483908
2534.000000	22.541438
2533.000000	22.596292
2532.000000	22.648970
2531.000000	22.699753
2530.000000	22.748429
2529.000000	22.794533
2528.000000	22.837848
2527.000000	22.878549
2526.000000	22.916928
2525.000000	22.953502
2524.000000	22.989001
2523.000000	23.023991
2522.000000	23.058674
2521.000000	23.093112
2520.000000	23.127490
2519.000000	23.161750
2518.000000	23.195226
2517.000000	23.227050
2516.000000	23.256725
2515.000000	23.284203
2514.000000	23.309683
2513.000000	23.333756
2512.000000	23.357509
2511.000000	23.381936
2510.000000	23.407355
2509.000000	23.433576
2508.000000	23.460301
2507.000000	23.486988
2506.000000	23.512612
2505.000000	23.536208
2504.000000	23.557591
2503.000000	23.577163
2502.000000	23.595275
2501.000000	23.612202
2500.000000	23.628570
2499.000000	23.645221
2498.000000	23.662620
2497.000000	23.680834
2496.000000	23.699824
2495.000000	23.719275
2494.000000	23.738244
2493.000000	23.755555
2492.000000	23.770649
2491.000000	23.783684
2490.000000	23.795005
2489.000000	23.805060
2488.000000	23.814707
2487.000000	23.825073
2486.000000	23.836894
2485.000000	23.850252
2484.000000	23.864787
2483.000000	23.879728
2482.000000	23.893890
2481.000000	23.906166
2480.000000	23.916132
2479.000000	23.923945
2478.000000	23.929824
2477.000000	23.934194
2476.000000	23.938174
2475.000000	23.943329
2474.000000	23.950774
2473.000000	23.960699
2472.000000	23.972564
2471.000000	23.985324
2470.000000	23.997592
2469.000000	24.008149
2468.000000	24.016430
2467.000000	24.022379
2466.000000	24.026109
2465.000000	24.028195
2464.000000	24.030087
2463.000000	24.033564
2462.000000	24.039654
2461.000000	24.048355
2460.000000	24.059181
2459.000000	24.071418
2458.000000	24.083914
2457.000000	24.095216
2456.000000	24.104191
2455.000000	24.110387
2454.000000	24.114010
2453.000000	24.115979
2452.000000	24.117904
2451.000000	24.121469
2450.000000	24.127714
2449.000000	24.136946
2448.000000	24.148997
2447.000000	24.163063
2446.000000	24.177483
2445.000000	24.190322
2444.000000	24.200308
2443.000000	24.207142
2442.000000	24.211302
2441.000000	24.214025
2440.000000	24.217205
2439.000000	24.222535
2438.000000	24.230646
2437.000000	24.241344
2436.000000	24.254370
2435.000000	24.269338
2434.000000	24.285100
2433.000000	24.299924
2432.000000	24.312474
2431.000000	24.322282
2430.000000	24.329474
2429.000000	24.334713
2428.000000	24.339441
2427.000000	24.345522
2426.000000	24.354347
2425.000000	24.366369
2424.000000	24.381283
2423.000000	24.398169
2422.000000	24.415562
2421.000000	24.431906
2420.000000	24.446149
2419.000000	24.457789
2418.000000	24.466709
2417.000000	24.473528
2416.000000	24.479924
2415.000000	24.487993
2414.000000	24.499133
2413.000000	24.513732
2412.000000	24.531569
2411.000000	24.551855
2410.000000	24.573002
2409.000000	24.593056
2408.000000	24.610610
2407.000000	24.625178
2406.000000	24.636987
2405.000000	24.647013
2404.000000	24.657066
2403.000000	24.669160
2402.000000	24.684556
2401.000000	24.703505
2400.000000	24.725592
2399.000000	24.749891
2398.000000	24.774959
2397.000000	24.799327
2396.000000	24.822027
2395.000000	24.842499
2394.000000	24.860453
2393.000000	24.876403
2392.000000	24.892113
2391.000000	24.909869
2390.000000	24.931337
2389.000000	24.957276
2388.000000	24.987801
2387.000000	25.022101
2386.000000	25.058215
2385.000000	25.093980
2384.000000	25.128273
2383.000000	25.161223
2382.000000	25.193535
2381.000000	25.226499
2380.000000	25.262385
2379.000000	25.303695
2378.000000	25.351766
2377.000000	25.406630
2376.000000	25.467399
2375.000000	25.532007
2374.000000	25.597032
2373.000000	25.658646
2372.000000	25.714709
2371.000000	25.765096
2370.000000	25.809913
2369.000000	25.849719
2368.000000	25.887311
2367.000000	25.926665
2366.000000	25.969302
2365.000000	26.015161
2364.000000	26.066626
2363.000000	26.123007
2362.000000	26.180071
2361.000000	26.235928
2360.000000	26.288113
2359.000000	26.337774
2358.000000	26.384237
2357.000000	26.425363
2356.000000	26.464362
2355.000000	26.501563
2354.000000	26.537980
2353.000000	26.575711
2352.000000	26.624851
2351.000000	26.692644
2350.000000	26.764506
2349.000000	26.824551
2348.000000	26.866806
2347.000000	26.905295
2346.000000	26.955959
2345.000000	27.016671
2344.000000	27.077272
2343.000000	27.124579
2342.000000	27.164045
2341.000000	27.204602
2340.000000	27.249778
2339.000000	27.299931
2338.000000	27.352706
2337.000000	27.406289
2336.000000	27.459412
2335.000000	27.510413
2334.000000	27.558030
2333.000000	27.600693
2332.000000	27.640552
2331.000000	27.684382
2330.000000	27.731452
2329.000000	27.784913
2328.000000	27.841402
2327.000000	27.900418
2326.000000	27.959912
2325.000000	28.015746
2324.000000	28.070563
2323.000000	28.121312
2322.000000	28.168526
2321.000000	28.209519
2320.000000	28.247360
2319.000000	28.286578
2318.000000	28.329023
2317.000000	28.374917
2316.000000	28.422568
2315.000000	28.473120
2314.000000	28.525004
2313.000000	28.576727
2312.000000	28.625581
2311.000000	28.671371
2310.000000	28.713511
2309.000000	28.752128
2308.000000	28.788854
2307.000000	28.826475
2306.000000	28.867482
2305.000000	28.912069
2304.000000	28.960447
2303.000000	29.011976
2302.000000	29.064958
2301.000000	29.116970
2300.000000	29.166047
2299.000000	29.211625
2298.000000	29.252692
2297.000000	29.289360
2296.000000	29.323317
2295.000000	29.357722
2294.000000	29.394325
2293.000000	29.433183
2292.000000	29.474632
2291.000000	29.518785
2290.000000	29.564430
2289.000000	29.608681
2288.000000	29.650082
2287.000000	29.688534
2286.000000	29.724151
2285.000000	29.756575
2284.000000	29.787009
2283.000000	29.817817
2282.000000	29.850813
2281.000000	29.886531
2280.000000	29.925522
2279.000000	29.967908
2278.000000	30.011772
2277.000000	30.053921
2276.000000	30.092480
2275.000000	30.127844
2274.000000	30.160437
2273.000000	30.190494
2272.000000	30.219424
2271.000000	30.249595
2270.000000	30.282021
2269.000000	30.315887
2268.000000	30.350621
2267.000000	30.386234
2266.000000	30.421482
2265.000000	30.454053
2264.000000	30.482606
2263.000000	30.507435
2262.000000	30.528818
2261.000000	30.546755
2260.000000	30.562833
2259.000000	30.579337
2258.000000	30.596924
2257.000000	30.614059
2256.000000	30.629389
2255.000000	30.642269
2254.000000	30.651005
2253.000000	30.653185
2252.000000	30.647534
2251.000000	30.634632
2250.000000	30.614587
2249.000000	30.587615
2248.000000	30.555227
2247.000000	30.519224
2246.000000	30.479811
2245.000000	30.435361
2244.000000	30.385124
2243.000000	30.329135
2242.000000	30.266016
2241.000000	30.193471
2240.000000	30.111478
2239.000000	30.023183
2238.000000	29.932582
2237.000000	29.843594
2236.000000	29.761290
2235.000000	29.691216
2234.000000	29.636587
2233.000000	29.597385
2232.000000	29.572328
2231.000000	29.559465
2230.000000	29.554920
2229.000000	29.553512
2228.000000	29.551670
2227.000000	29.548549
2226.000000	29.544093
2225.000000	29.538298
2224.000000	29.532483
2223.000000	29.529099
2222.000000	29.529429
2221.000000	29.532870
2220.000000	29.538548
2219.000000	29.545613
2218.000000	29.551816
2217.000000	29.554019
2216.000000	29.550914
2215.000000	29.543695
2214.000000	29.534024
2213.000000	29.523303
2212.000000	29.514026
2211.000000	29.509383
2210.000000	29.510671
2209.000000	29.516726
2208.000000	29.526013
2207.000000	29.537324
2206.000000	29.548247
2205.000000	29.555384
2204.000000	29.557020
2203.000000	29.553977
2202.000000	29.547667
2201.000000	29.539325
2200.000000	29.531335
2199.000000	29.526879
2198.000000	29.527371
2197.000000	29.531800
2196.000000	29.538723
2195.000000	29.546812
2194.000000	29.553179
2193.000000	29.553703
2192.000000	29.546085
2191.000000	29.531019
2190.000000	29.510207
2189.000000	29.485355
2188.000000	29.459496
2187.000000	29.436797
2186.000000	29.419986
2185.000000	29.409412
2184.000000	29.404840
2183.000000	29.406078
2182.000000	29.411325
2181.000000	29.417198
2180.000000	29.421413
2179.000000	29.424108
2178.000000	29.426393
2177.000000	29.429701
2176.000000	29.436931
2175.000000	29.451753
2174.000000	29.475797
2173.000000	29.507955
2172.000000	29.546689
2171.000000	29.590918
2170.000000	29.638141
2169.000000	29.684218
2168.000000	29.726215
2167.000000	29.763905
2166.000000	29.798033
2165.000000	29.829346
2164.000000	29.860005
2163.000000	29.893537
2162.000000	29.932185
2161.000000	29.975726
2160.000000	30.023236
2159.000000	30.073940
2158.000000	30.125780
2157.000000	30.175429
2156.000000	30.220700
2155.000000	30.261413
2154.000000	30.297690
2153.000000	30.329612
2152.000000	30.359059
2151.000000	30.389476
2150.000000	30.422939
2149.000000	30.459355
2148.000000	30.498634
2147.000000	30.540978
2146.000000	30.584783
2145.000000	30.626811
2144.000000	30.665240
2143.000000	30.700691
2142.000000	30.734133
2141.000000	30.766330
2140.000000	30.799611
2139.000000	30.837315
2138.000000	30.880623
2137.000000	30.928132
2136.000000	30.978752
2135.000000	31.032461
2134.000000	31.087741
2133.000000	31.141093
2132.000000	31.190052
2131.000000	31.234456
2130.000000	31.274319
2129.000000	31.309377
2128.000000	31.341372
2127.000000	31.373907
2126.000000	31.409128
2125.000000	31.446767
2124.000000	31.486527
2123.000000	31.528500
2122.000000	31.571049
2121.000000	31.611397
2120.000000	31.649057
2119.000000	31.685897
2118.000000	31.722482
2117.000000	31.757523
2116.000000	31.791527
2115.000000	31.827620
2114.000000	31.867788
2113.000000	31.911133
2112.000000	31.956459
2111.000000	32.003370
2110.000000	32.049957
2109.000000	32.092664
2108.000000	32.129590
2107.000000	32.161478
2106.000000	32.188702
2105.000000	32.210565
2104.000000	32.228178
2103.000000	32.244566
2102.000000	32.261002
2101.000000	32.275714
2100.000000	32.287314
2099.000000	32.296014
2098.000000	32.300160
2097.000000	32.295634
2096.000000	32.280623
2095.000000	32.258263
2094.000000	32.233064
2093.000000	32.207474
2092.000000	32.183022
2091.000000	32.161834
2090.000000	32.145449
2089.000000	32.134344
2088.000000	32.129659
2087.000000	32.133104
2086.000000	32.144109
2085.000000	32.159617
2084.000000	32.177847
2083.000000	32.199673
2082.000000	32.225927
2081.000000	32.255889
2080.000000	32.289921
2079.000000	32.330675
2078.000000	32.379614
2077.000000	32.435628
2076.000000	32.497007
2075.000000	32.562743
2074.000000	32.630877
2073.000000	32.697084
2072.000000	32.757500
2071.000000	32.812283
2070.000000	32.866172
2069.000000	32.926170
2068.000000	32.997350
2067.000000	33.078937
2066.000000	33.165514
2065.000000	33.253178
2064.000000	33.343217
2063.000000	33.437951
2062.000000	33.534875
2061.000000	33.628716
2060.000000	33.717924
2059.000000	33.804812
2058.000000	33.890197
2057.000000	33.973127
2056.000000	34.054973
2055.000000	34.139122
2054.000000	34.226664
2053.000000	34.315613
2052.000000	34.404417
2051.000000	34.493047
2050.000000	34.579765
2049.000000	34.660112
2048.000000	34.731499
2047.000000	34.796473
2046.000000	34.860499
2045.000000	34.928569
2044.000000	35.003815
2043.000000	35.086278
2042.000000	35.172735
2041.000000	35.260151
2040.000000	35.349135
2039.000000	35.441560
2038.000000	35.535669
2037.000000	35.627483
2036.000000	35.716677
2035.000000	35.805949
2034.000000	35.895354
2033.000000	35.983090
2032.000000	36.070631
2031.000000	36.162735
2030.000000	36.260609
2029.000000	36.361159
2028.000000	36.462575
2027.000000	36.565385
2026.000000	36.667914
2025.000000	36.763369
2024.000000	36.845679
2023.000000	36.916145
2022.000000	36.984113
2021.000000	37.062356
2020.000000	37.158927
2019.000000	37.269816
2018.000000	37.382161
2017.000000	37.486984
2016.000000	37.586442
2015.000000	37.687015
2014.000000	37.789106
2013.000000	37.888856
2012.000000	37.986867
2011.000000	38.088044
2010.000000	38.192825
2009.000000	38.297992
2008.000000	38.403965
2007.000000	38.515149
2006.000000	38.630389
2005.000000	38.747604
2004.000000	38.861938
2003.000000	38.987719
2002.000000	39.114956
2001.000000	39.228527
2000.000000	39.339041
1999.000000	39.445205
1998.000000	39.551127
1997.000000	39.650762
1996.000000	39.749605
1995.000000	39.844482
1994.000000	39.951823
1993.000000	40.035891
1992.000000	40.119842
1991.000000	40.237523
1990.000000	40.351316
1989.000000	40.460618
1988.000000	40.551019
1987.000000	40.635691
1986.000000	40.719594
1985.000000	40.800146
1984.000000	40.876762
1983.000000	40.956142
1982.000000	41.038742
1981.000000	41.120182
1980.000000	41.198224
1979.000000	41.279143
1978.000000	41.357806
1977.000000	41.425988
1976.000000	41.487538
1975.000000	41.546813
1974.000000	41.606623
1973.000000	41.663953
1972.000000	41.720219
1971.000000	41.779238
1970.000000	41.840809
1969.000000	41.899465
1968.000000	41.959393
1967.000000	42.020564
1966.000000	42.080732
1965.000000	42.137971
1964.000000	42.189610
1963.000000	42.241327
1962.000000	42.290689
1961.000000	42.333530
1960.000000	42.373369
1959.000000	42.421942
1958.000000	42.485149
1957.000000	42.552240
1956.000000	42.619416
1955.000000	42.682040
1954.000000	42.737754
1953.000000	42.788342
1952.000000	42.830214
1951.000000	42.871143
1950.000000	42.912140
1949.000000	42.949997
1948.000000	42.985891
1947.000000	43.025695
1946.000000	43.067718
1945.000000	43.104303
1944.000000	43.136823
1943.000000	43.176263
1942.000000	43.225099
1941.000000	43.271979
1940.000000	43.308901
1939.000000	43.339971
1938.000000	43.370230
1937.000000	43.399228
1936.000000	43.428680
1935.000000	43.464692
1934.000000	43.508145
1933.000000	43.552788
1932.000000	43.595698
1931.000000	43.639486
1930.000000	43.682493
1929.000000	43.718064
1928.000000	43.745223
1927.000000	43.770043
1926.000000	43.790134
1925.000000	43.807901
1924.000000	43.819209
1923.000000	43.855631
1922.000000	43.878432
1921.000000	43.960381
1920.000000	44.050006
1919.000000	44.045979
1918.000000	44.042543
1917.000000	44.030785
1916.000000	44.030937
1915.000000	44.007658
1914.000000	44.001845
1913.000000	43.981100
1912.000000	44.087905
1911.000000	44.207807
1910.000000	44.216944
1909.000000	44.269856
1908.000000	44.301726
1907.000000	44.344982
1906.000000	44.380068
1905.000000	44.410075
1904.000000	44.431084
1903.000000	44.452470
1902.000000	44.476795
1901.000000	44.500722
1900.000000	44.520521
1899.000000	44.545313
1898.000000	44.565202
1897.000000	44.590583
1896.000000	44.579160
1895.000000	44.542830
1894.000000	44.526352
1893.000000	44.526202
1892.000000	44.567388
1891.000000	44.602779
1890.000000	44.607552
1889.000000	44.593084
1888.000000	44.589633
1887.000000	44.609208
1886.000000	44.637339
1885.000000	44.652929
1884.000000	44.656242
1883.000000	44.659353
1882.000000	44.664657
1881.000000	44.667565
1880.000000	44.667641
1879.000000	44.671228
1878.000000	44.681240
1877.000000	44.690551
1876.000000	44.692297
1875.000000	44.680389
1874.000000	44.637595
1873.000000	44.561216
1872.000000	44.501724
1871.000000	44.504305
1870.000000	44.544878
1869.000000	44.585947
1868.000000	44.621939
1867.000000	44.654768
1866.000000	44.676972
1865.000000	44.682895
1864.000000	44.680493
1863.000000	44.682245
1862.000000	44.691169
1861.000000	44.698070
1860.000000	44.701102
1859.000000	44.695266
1858.000000	44.688553
1857.000000	44.672037
1856.000000	44.638922
1855.000000	44.612091
1854.000000	44.591335
1853.000000	44.573952
1852.000000	44.555739
1851.000000	44.542124
1850.000000	44.526210
1849.000000	44.510090
1848.000000	44.465236
1847.000000	44.433225
1846.000000	44.340976
1845.000000	44.369706
1844.000000	44.368616
1843.000000	44.218871
1842.000000	44.183267
1841.000000	44.134179
1840.000000	44.115328
1839.000000	44.108174
1838.000000	44.115211
1837.000000	44.098273
1836.000000	44.039510
1835.000000	43.930546
1834.000000	43.792090
1833.000000	43.697977
1832.000000	43.667295
1831.000000	43.630756
1830.000000	43.561594
1829.000000	43.497382
1828.000000	43.473803
1827.000000	43.474578
1826.000000	43.452129
1825.000000	43.401524
1824.000000	43.353115
1823.000000	43.313647
1822.000000	43.263267
1821.000000	43.189222
1820.000000	43.099571
1819.000000	43.005996
1818.000000	42.895594
1817.000000	42.753797
1816.000000	42.596216
1815.000000	42.460848
1814.000000	42.380476
1813.000000	42.343839
1812.000000	42.314715
1811.000000	42.279888
1810.000000	42.239718
1809.000000	42.187091
1808.000000	42.115568
1807.000000	42.030308
1806.000000	41.932958
1805.000000	41.830677
1804.000000	41.749145
1803.000000	41.698773
1802.000000	41.656336
1801.000000	41.593987
1800.000000	41.526664
1799.000000	41.498042
1798.000000	41.515322
1797.000000	41.534091
1796.000000	41.521668
1795.000000	41.497940
1794.000000	41.461273
1793.000000	41.375863
1792.000000	41.272670
1791.000000	41.214295
1790.000000	41.202339
1789.000000	41.193648
1788.000000	41.151590
1787.000000	41.057661
1786.000000	40.899478
1785.000000	40.702761
1784.000000	40.540602
1783.000000	40.450740
1782.000000	40.386906
1781.000000	40.281457
1780.000000	40.145732
1779.000000	40.038938
1778.000000	39.971678
1777.000000	39.894209
1776.000000	39.791952
1775.000000	39.720588
1774.000000	39.663425
1773.000000	39.553702
1772.000000	39.422489
1771.000000	39.325822
1770.000000	39.233997
1769.000000	39.094779
1768.000000	38.934183
1767.000000	38.815003
1766.000000	38.743394
1765.000000	38.689673
1764.000000	38.611749
1763.000000	38.475575
1762.000000	38.313612
1761.000000	38.177913
1760.000000	38.097757
1759.000000	38.047432
1758.000000	37.964742
1757.000000	37.847126
1756.000000	37.735728
1755.000000	37.615522
1754.000000	37.424904
1753.000000	37.146871
1752.000000	36.853017
1751.000000	36.647702
1750.000000	36.532205
1749.000000	36.420485
1748.000000	36.285651
1747.000000	36.161562
1746.000000	36.096394
1745.000000	36.030640
1744.000000	35.986899
1743.000000	35.899915
1742.000000	35.721356
1741.000000	35.552485
1740.000000	35.360331
1739.000000	35.196008
1738.000000	35.041385
1737.000000	34.855065
1736.000000	34.605041
1735.000000	34.319657
1734.000000	34.057783
1733.000000	33.851887
1732.000000	33.670476
1731.000000	33.506045
1730.000000	33.305493
1729.000000	33.059593
1728.000000	32.816991
1727.000000	32.572216
1726.000000	32.350044
1725.000000	32.124742
1724.000000	31.896606
1723.000000	31.667380
1722.000000	31.404162
1721.000000	31.111461
1720.000000	30.833270
1719.000000	30.533975
1718.000000	30.192544
1717.000000	29.857984
1716.000000	29.544358
1715.000000	29.257833
1714.000000	28.969454
1713.000000	28.708898
1712.000000	28.388590
1711.000000	28.177942
1710.000000	28.007356
1709.000000	27.670147
1708.000000	27.367923
1707.000000	27.036187
1706.000000	26.723878
1705.000000	26.420899
1704.000000	26.146725
1703.000000	25.880720
1702.000000	25.578843
1701.000000	25.204415
1700.000000	24.820958
1699.000000	24.511390
1698.000000	24.271948
1697.000000	23.991513
1696.000000	23.717334
1695.000000	23.389383
1694.000000	23.019267
1693.000000	22.755318
1692.000000	22.498889
1691.000000	22.283706
1690.000000	22.092864
1689.000000	21.898767
1688.000000	21.644120
1687.000000	21.414807
1686.000000	21.193496
1685.000000	20.793825
1684.000000	20.316066
1683.000000	19.981165
1682.000000	19.803338
1681.000000	19.686204
1680.000000	19.564058
1679.000000	19.422517
1678.000000	19.242015
1677.000000	18.975265
1676.000000	18.615055
1675.000000	18.249825
1674.000000	17.961811
1673.000000	17.755349
1672.000000	17.596560
1671.000000	17.421782
1670.000000	17.191004
1669.000000	16.938203
1668.000000	16.711208
1667.000000	16.522912
1666.000000	16.354742
1665.000000	16.183982
1664.000000	15.965860
1663.000000	15.720951
1662.000000	15.503823
1661.000000	15.301562
1660.000000	15.111481
1659.000000	14.931206
1658.000000	14.760928
1657.000000	14.589594
1656.000000	14.407066
1655.000000	14.204973
1654.000000	13.966583
1653.000000	13.705810
1652.000000	13.489610
1651.000000	13.346325
1650.000000	13.220535
1649.000000	13.080279
1648.000000	12.886300
1647.000000	12.725752
1646.000000	12.571449
1645.000000	12.367770
1644.000000	12.221356
1643.000000	12.078947
1642.000000	11.945085
1641.000000	11.802547
1640.000000	11.662847
1639.000000	11.560834
1638.000000	11.500999
1637.000000	11.381923
1636.000000	11.163805
1635.000000	10.945150
1634.000000	10.790756
1633.000000	10.676210
1632.000000	10.567716
1631.000000	10.464568
1630.000000	10.369688
1629.000000	10.266245
1628.000000	10.147107
1627.000000	10.029603
1626.000000	9.933239
1625.000000	9.847371
1624.000000	9.751105
1623.000000	9.660879
1622.000000	9.602586
1621.000000	9.566479
1620.000000	9.536098
1619.000000	9.507462
1618.000000	9.454307
1617.000000	9.360091
1616.000000	9.258424
1615.000000	9.186223
1614.000000	9.141325
1613.000000	9.101365
1612.000000	9.061499
1611.000000	9.035217
1610.000000	9.026591
1609.000000	9.021078
1608.000000	9.009008
1607.000000	8.996058
1606.000000	8.987271
1605.000000	8.979094
1604.000000	8.969202
1603.000000	8.962550
1602.000000	8.959950
1601.000000	8.954346
1600.000000	8.944627
1599.000000	8.940804
1598.000000	8.950200
1597.000000	8.967410
1596.000000	8.984384
1595.000000	9.000767
1594.000000	9.017100
1593.000000	9.028713
1592.000000	9.034454
1591.000000	9.040280
1590.000000	9.049233
1589.000000	9.056899
1588.000000	9.061787
1587.000000	9.070453
1586.000000	9.085282
1585.000000	9.099261
1584.000000	9.106707
1583.000000	9.111679
1582.000000	9.120129
1581.000000	9.129469
1580.000000	9.135269
1579.000000	9.147247
1578.000000	9.157762
1577.000000	9.126962
1576.000000	9.074185
1575.000000	9.036094
1574.000000	9.041763
1573.000000	9.062355
1572.000000	9.051702
1571.000000	9.041314
1570.000000	9.029588
1569.000000	9.024408
1568.000000	9.016951
1567.000000	9.015924
1566.000000	9.016123
1565.000000	9.055415
1564.000000	9.150613
1563.000000	9.184703
1562.000000	9.176626
1561.000000	9.251997
1560.000000	9.315729
1559.000000	9.307386
1558.000000	9.333361
1557.000000	9.390549
1556.000000	9.449656
1555.000000	9.495400
1554.000000	9.546541
1553.000000	9.621550
1552.000000	9.724954
1551.000000	9.849883
1550.000000	9.984170
1549.000000	10.110438
1548.000000	10.215189
1547.000000	10.316671
1546.000000	10.440600
1545.000000	10.577379
1544.000000	10.692974
1543.000000	10.826833
1542.000000	11.031108
1541.000000	11.219834
1540.000000	11.350582
1539.000000	11.487052
1538.000000	11.641306
1537.000000	11.793032
1536.000000	11.956663
1535.000000	12.149250
1534.000000	12.354686
1533.000000	12.559574
1532.000000	12.753304
1531.000000	12.940149
1530.000000	13.141892
1529.000000	13.370819
1528.000000	13.622157
1527.000000	13.892379
1526.000000	14.181941
1525.000000	14.483239
1524.000000	14.807135
1523.000000	15.140850
1522.000000	15.445606
1521.000000	15.723734
1520.000000	15.999207
1519.000000	16.317626
1518.000000	16.695902
1517.000000	17.099218
1516.000000	17.496917
1515.000000	17.860529
1514.000000	18.191300
1513.000000	18.511537
1512.000000	18.835477
1511.000000	19.140833
1510.000000	19.507863
1509.000000	20.096468
1508.000000	20.692957
1507.000000	21.088642
1506.000000	21.428646
1505.000000	21.779487
1504.000000	22.136403
1503.000000	22.512848
1502.000000	22.918523
1501.000000	23.351236
1500.000000	23.802331
1499.000000	24.261520
1498.000000	24.697598
1497.000000	25.083282
1496.000000	25.429780
1495.000000	25.749195
1494.000000	26.019328
1493.000000	26.250210
1492.000000	26.528514
1491.000000	26.912035
1490.000000	27.375366
1489.000000	27.846283
1488.000000	28.257212
1487.000000	28.603159
1486.000000	28.899376
1485.000000	29.150456
1484.000000	29.374004
1483.000000	29.598586
1482.000000	29.829903
1481.000000	30.039260
1480.000000	30.204221
1479.000000	30.344214
1478.000000	30.491112
1477.000000	30.623929
1476.000000	30.720448
1475.000000	30.817176
1474.000000	30.873728
1473.000000	30.776379
1472.000000	30.556777
1471.000000	30.341821
1470.000000	30.165053
1469.000000	29.966331
1468.000000	29.701087
1467.000000	29.372306
1466.000000	28.935700
1465.000000	28.346087
1464.000000	27.679324
1463.000000	27.057520
1462.000000	26.504496
1461.000000	25.960190
1460.000000	25.423792
1459.000000	24.837328
1458.000000	23.942761
1457.000000	22.712426
1456.000000	21.495030
1455.000000	20.511337
1454.000000	19.658039
1453.000000	18.745215
1452.000000	17.723735
1451.000000	16.652694
1450.000000	15.552072
1449.000000	14.366769
1448.000000	13.102628
1447.000000	11.862247
1446.000000	10.702496
1445.000000	9.595731
1444.000000	8.527017
1443.000000	7.520113
1442.000000	6.579747
1441.000000	5.698309
1440.000000	4.896884
1439.000000	4.185502
1438.000000	3.500937
1437.000000	2.793320
1436.000000	2.160070
1435.000000	1.716868
1434.000000	1.422679
1433.000000	1.182992
1432.000000	0.982430
1431.000000	0.845477
1430.000000	0.753926
1429.000000	0.672547
1428.000000	0.618333
1427.000000	0.620074
1426.000000	0.658030
1425.000000	0.704407
1424.000000	0.778786
1423.000000	0.904591
1422.000000	1.056545
1421.000000	1.214206
1420.000000	1.418415
1419.000000	1.707189
1418.000000	2.034514
1417.000000	2.347328
1416.000000	2.671596
1415.000000	3.046513
1414.000000	3.460461
1413.000000	3.893077
1412.000000	4.363614
1411.000000	4.892548
1410.000000	5.455892
1409.000000	6.027200
1408.000000	6.627908
1407.000000	7.293805
1406.000000	8.023361
1405.000000	8.794879
1404.000000	9.595095
1403.000000	10.399174
1402.000000	11.182214
1401.000000	11.968469
1400.000000	12.811990
1399.000000	13.718461
1398.000000	14.640536
1397.000000	15.565060
1396.000000	16.534582
1395.000000	17.570700
1394.000000	18.638353
1393.000000	19.695388
1392.000000	20.731153
1391.000000	21.742339
1390.000000	22.727414
1389.000000	23.706346
1388.000000	24.691660
1387.000000	25.654178
1386.000000	26.544569
1385.000000	27.345649
1384.000000	28.070019
1383.000000	28.716118
1382.000000	29.258637
1381.000000	29.660926
1380.000000	29.876473
1379.000000	29.850184
1378.000000	29.551374
1377.000000	28.992315
1376.000000	28.162894
1375.000000	26.986243
1374.000000	25.442659
1373.000000	23.671855
1372.000000	21.876712
1371.000000	20.211879
1370.000000	18.789904
1369.000000	17.733451
1368.000000	17.159706
1367.000000	17.110952
1366.000000	17.552001
1365.000000	18.434109
1364.000000	19.703136
1363.000000	21.250319
1362.000000	22.905852
1361.000000	24.507460
1360.000000	25.958132
1359.000000	27.210826
1358.000000	28.230792
1357.000000	28.983698
1356.000000	29.427723
1355.000000	29.513476
1354.000000	29.211156
1353.000000	28.524954
1352.000000	27.485390
1351.000000	26.132047
1350.000000	24.508187
1349.000000	22.676185
1348.000000	20.708940
1347.000000	18.672957
1346.000000	16.619815
1345.000000	14.596051
1344.000000	12.656989
1343.000000	10.859954
1342.000000	9.239339
1341.000000	7.802130
1340.000000	6.558530
1339.000000	5.538854
1338.000000	4.765468
1337.000000	4.220472
1336.000000	3.856170
1335.000000	3.618194
1334.000000	3.446984
1333.000000	3.283228
1332.000000	3.082702
1331.000000	2.824283
1330.000000	2.507235
1329.000000	2.146406
1328.000000	1.771670
1327.000000	1.418520
1326.000000	1.110723
1325.000000	0.856175
1324.000000	0.657042
1323.000000	0.513745
1322.000000	0.417959
1321.000000	0.354376
1320.000000	0.312921
1319.000000	0.289596
1318.000000	0.277228
1317.000000	0.266159
1316.000000	0.253870
1315.000000	0.244354
1314.000000	0.237180
1313.000000	0.227545
1312.000000	0.216228
1311.000000	0.208839
1310.000000	0.205928
1309.000000	0.203512
1308.000000	0.203015
1307.000000	0.210740
1306.000000	0.227755
1305.000000	0.250178
1304.000000	0.279056
1303.000000	0.319816
1302.000000	0.372197
1301.000000	0.430778
1300.000000	0.495685
1299.000000	0.571681
1298.000000	0.657733
1297.000000	0.748259
1296.000000	0.843260
1295.000000	0.947203
1294.000000	1.058702
1293.000000	1.171791
1292.000000	1.285792
1291.000000	1.403596
1290.000000	1.521667
1289.000000	1.631563
1288.000000	1.729060
1287.000000	1.812213
1286.000000	1.873772
1285.000000	1.906517
1284.000000	1.915886
1283.000000	1.918931
1282.000000	1.932152
1281.000000	1.967735
1280.000000	2.037966
1279.000000	2.150796
1278.000000	2.301005
1277.000000	2.475665
1276.000000	2.666778
1275.000000	2.871682
1274.000000	3.084997
1273.000000	3.299547
1272.000000	3.513756
1271.000000	3.728813
1270.000000	3.940952
1269.000000	4.144965
1268.000000	4.342574
1267.000000	4.539107
1266.000000	4.734745
1265.000000	4.927124
1264.000000	5.119346
1263.000000	5.317169
1262.000000	5.520105
1261.000000	5.723165
1260.000000	5.925028
1259.000000	6.126719
1258.000000	6.325395
1257.000000	6.517259
1256.000000	6.704185
1255.000000	6.890807
1254.000000	7.078177
1253.000000	7.266085
1252.000000	7.458125
1251.000000	7.657912
1250.000000	7.862890
1249.000000	8.067577
1248.000000	8.270306
1247.000000	8.471359
1246.000000	8.667833
1245.000000	8.856283
1244.000000	9.038137
1243.000000	9.217605
1242.000000	9.396654
1241.000000	9.576489
1240.000000	9.760718
1239.000000	9.951984
1238.000000	10.147771
1237.000000	10.343562
1236.000000	10.537508
1235.000000	10.728493
1234.000000	10.912936
1233.000000	11.088146
1232.000000	11.256478
1231.000000	11.422675
1230.000000	11.589800
1229.000000	11.760548
1228.000000	11.939103
1227.000000	12.127769
1226.000000	12.323912
1225.000000	12.523026
1224.000000	12.722398
1223.000000	12.919549
1222.000000	13.110597
1221.000000	13.293485
1220.000000	13.470614
1219.000000	13.645976
1218.000000	13.822239
1217.000000	14.002352
1216.000000	14.190627
1215.000000	14.389323
1214.000000	14.595947
1213.000000	14.805564
1212.000000	15.013448
1211.000000	15.214832
1210.000000	15.405739
1209.000000	15.585971
1208.000000	15.759286
1207.000000	15.930168
1206.000000	16.102592
1205.000000	16.281401
1204.000000	16.470937
1203.000000	16.671197
1202.000000	16.877688
1201.000000	17.084847
1200.000000	17.287272
1199.000000	17.478022
1198.000000	17.649972
1197.000000	17.800130
1196.000000	17.929024
1195.000000	18.037160
1194.000000	18.123258
1193.000000	18.184369
1192.000000	18.215621
1191.000000	18.209140
1190.000000	18.159547
1189.000000	18.071671
1188.000000	17.962464
1187.000000	17.857029
1186.000000	17.782676
1185.000000	17.762730
1184.000000	17.810354
1183.000000	17.926407
1182.000000	18.102165
1181.000000	18.326410
1180.000000	18.587216
1179.000000	18.870112
1178.000000	19.161239
1177.000000	19.450482
1176.000000	19.730398
1175.000000	19.993299
1174.000000	20.233463
1173.000000	20.451293
1172.000000	20.652237
1171.000000	20.842944
1170.000000	21.030975
1169.000000	21.225336
1168.000000	21.432202
1167.000000	21.651168
1166.000000	21.877499
1165.000000	22.106085
1164.000000	22.330964
1163.000000	22.544409
1162.000000	22.741377
1161.000000	22.923193
1160.000000	23.094772
1159.000000	23.261337
1158.000000	23.429494
1157.000000	23.607354
1156.000000	23.799262
1155.000000	24.002395
1154.000000	24.210806
1153.000000	24.419251
1152.000000	24.621388
1151.000000	24.809209
1150.000000	24.978511
1149.000000	25.132316
1148.000000	25.276166
1147.000000	25.414593
1146.000000	25.554105
1145.000000	25.703526
1144.000000	25.867571
1143.000000	26.043151
1142.000000	26.224187
1141.000000	26.405613
1140.000000	26.580736
1139.000000	26.741236
1138.000000	26.883815
1137.000000	27.013009
1136.000000	27.135222
1135.000000	27.254878
1134.000000	27.378354
1133.000000	27.514752
1132.000000	27.668637
1131.000000	27.836076
1130.000000	28.009978
1129.000000	28.184609
1128.000000	28.353316
1127.000000	28.508678
1126.000000	28.648915
1125.000000	28.779229
1124.000000	28.905110
1123.000000	29.029922
1122.000000	29.159949
1121.000000	29.303910
1120.000000	29.464058
1119.000000	29.633863
1118.000000	29.806387
1117.000000	29.978209
1116.000000	30.143616
1115.000000	30.293795
1114.000000	30.426313
1113.000000	30.548537
1112.000000	30.668825
1111.000000	30.791642
1110.000000	30.922011
1109.000000	31.066664
1108.000000	31.226012
1107.000000	31.391621
1106.000000	31.555110
1105.000000	31.712187
1104.000000	31.856813
1103.000000	31.980581
1102.000000	32.082654
1101.000000	32.172213
1100.000000	32.258640
1099.000000	32.348011
1098.000000	32.447879
1097.000000	32.568062
1096.000000	32.710331
1095.000000	32.865859
1094.000000	33.025327
1093.000000	33.184070
1092.000000	33.335906
1091.000000	33.472538
1090.000000	33.593511
1089.000000	33.708445
1088.000000	33.826305
1087.000000	33.950889
1086.000000	34.087684
1085.000000	34.244095
1084.000000	34.418742
1083.000000	34.599413
1082.000000	34.774676
1081.000000	34.939378
1080.000000	35.087655
1079.000000	35.212151
1078.000000	35.314766
1077.000000	35.407793
1076.000000	35.501704
1075.000000	35.600274
1074.000000	35.707651
1073.000000	35.828482
1072.000000	35.956670
1071.000000	36.074602
1070.000000	36.166352
1069.000000	36.221775
1068.000000	36.229472
1067.000000	36.177916
1066.000000	36.069737
1065.000000	35.925699
1064.000000	35.772138
1063.000000	35.635096
1062.000000	35.544655
1061.000000	35.529589
1060.000000	35.600142
1059.000000	35.744785
1058.000000	35.942895
1057.000000	36.174231
1056.000000	36.416320
1055.000000	36.646603
1054.000000	36.857019
1053.000000	37.055704
1052.000000	37.252463
1051.000000	37.451217
1050.000000	37.657431
1049.000000	37.878528
1048.000000	38.111663
1047.000000	38.342415
1046.000000	38.559252
1045.000000	38.759129
1044.000000	38.937639
1043.000000	39.088515
1042.000000	39.216246
1041.000000	39.337039
1040.000000	39.464049
1039.000000	39.602000
1038.000000	39.756562
1037.000000	39.934742
1036.000000	40.131992
1035.000000	40.331559
1034.000000	40.520252
1033.000000	40.694511
1032.000000	40.849976
1031.000000	40.979687
1030.000000	41.087291
1029.000000	41.188688
1028.000000	41.296851
1027.000000	41.415943
1026.000000	41.551248
1025.000000	41.709952
1024.000000	41.888007
1023.000000	42.068731
1022.000000	42.238880
1021.000000	42.394910
1020.000000	42.532612
1019.000000	42.645649
1018.000000	42.738566
1017.000000	42.827929
1016.000000	42.926343
1015.000000	43.037136
1014.000000	43.164799
1013.000000	43.315726
1012.000000	43.484890
1011.000000	43.655543
1010.000000	43.815560
1009.000000	43.963031
1008.000000	44.094753
1007.000000	44.204328
1006.000000	44.295277
1005.000000	44.382784
1004.000000	44.478734
1003.000000	44.585861
1002.000000	44.707256
1001.000000	44.847236
1000.000000	45.000417
999.000000	45.152663
998.000000	45.296018
997.000000	45.430877
996.000000	45.553340
995.000000	45.655201
994.000000	45.739450
993.000000	45.821705
992.000000	45.913253
991.000000	46.014995
990.000000	46.128485
989.000000	46.258230
988.000000	46.399597
987.000000	46.538373
986.000000	46.665597
985.000000	46.781512
984.000000	46.883914
983.000000	46.967203
982.000000	47.035739
981.000000	47.103969
980.000000	47.180321
979.000000	47.263582
978.000000	47.355432
977.000000	47.461421
976.000000	47.577231
975.000000	47.688208
974.000000	47.786252
973.000000	47.873835
972.000000	47.950751
971.000000	48.011752
970.000000	48.060109
969.000000	48.108957
968.000000	48.166046
967.000000	48.230316
966.000000	48.303806
965.000000	48.391831
964.000000	48.489255
963.000000	48.581554
962.000000	48.662074
961.000000	48.735018
960.000000	48.799987
959.000000	48.850010
958.000000	48.886841
957.000000	48.922884
956.000000	48.964837
955.000000	49.009771
954.000000	49.058990
953.000000	49.119490
952.000000	49.189320
951.000000	49.256607
950.000000	49.316127
949.000000	49.372043
948.000000	49.422644
947.000000	49.458214
946.000000	49.477623
945.000000	49.491128
944.000000	49.504738
943.000000	49.516422
942.000000	49.529254
941.000000	49.552291
940.000000	49.585201
939.000000	49.617394
938.000000	49.644291
937.000000	49.669700
936.000000	49.690253
935.000000	49.693775
934.000000	49.676294
933.000000	49.645803
932.000000	49.607049
931.000000	49.558802
930.000000	49.506759
929.000000	49.462912
928.000000	49.429161
927.000000	49.395937
926.000000	49.358850
925.000000	49.319589
924.000000	49.269740
923.000000	49.191072
922.000000	49.075622
921.000000	48.931182
920.000000	48.764710
919.000000	48.577404
918.000000	48.377792
917.000000	48.181097
916.000000	47.992434
915.000000	47.803157
914.000000	47.605562
913.000000	47.396493
912.000000	47.163097
911.000000	46.884190
910.000000	46.549296
909.000000	46.164415
908.000000	45.738473
907.000000	45.277414
906.000000	44.794583
905.000000	44.308340
904.000000	43.824368
903.000000	43.332777
902.000000	42.821377
901.000000	42.280685
900.000000	41.694989
899.000000	41.044101
898.000000	40.320333
897.000000	39.532027
896.000000	38.691390
895.000000	37.809627
894.000000	36.901851
893.000000	35.984659
892.000000	35.061942
891.000000	34.123331
890.000000	33.156159
889.000000	32.150367
888.000000	31.095213
887.000000	29.981175
886.000000	28.810213
885.000000	27.597186
884.000000	26.359316
883.000000	25.110611
882.000000	23.863770
881.000000	22.630012
880.000000	21.414318
879.000000	20.215425
878.000000	19.030874
877.000000	17.861521
876.000000	16.711990
875.000000	15.588922
874.000000	14.502649
873.000000	13.465674
872.000000	12.490388
871.000000	11.585986
870.000000	10.755364
869.000000	9.999469
868.000000	9.317664
867.000000	8.705728
866.000000	8.155524
865.000000	7.657701
864.000000	7.207977
863.000000	6.803865
862.000000	6.440854
861.000000	6.115005
860.000000	5.824233
859.000000	5.566683
858.000000	5.337324
857.000000	5.131317
856.000000	4.948450
855.000000	4.788852
854.000000	4.649813
853.000000	4.528598
852.000000	4.425870
851.000000	4.342879
850.000000	4.277313
849.000000	4.227950
848.000000	4.198909
847.000000	4.195068
846.000000	4.217161
845.000000	4.263925
844.000000	4.337415
843.000000	4.440699
842.000000	4.572980
841.000000	4.733192
840.000000	4.923975
839.000000	5.149870
838.000000	5.412684
837.000000	5.712266
836.000000	6.050695
835.000000	6.429646
834.000000	6.845241
833.000000	7.282887
832.000000	7.707462
831.000000	8.034345
830.000000	8.111013
829.000000	7.751412
828.000000	6.852577
827.000000	5.529204
826.000000	4.124441
825.000000	3.043593
824.000000	2.529598
823.000000	2.571810
822.000000	3.001366
821.000000	3.645527
820.000000	4.391170
819.000000	5.165608
818.000000	5.921055
817.000000	6.636842
816.000000	7.316371
815.000000	7.965001
814.000000	8.584077
813.000000	9.179792
812.000000	9.761110
811.000000	10.327978
810.000000	10.873588
809.000000	11.396760
808.000000	11.900599
807.000000	12.384322
806.000000	12.847224
805.000000	13.297581
804.000000	13.745557
803.000000	14.190656
802.000000	14.627940
801.000000	15.060747
800.000000	15.496503
799.000000	15.935416
798.000000	16.374799
797.000000	16.818735
796.000000	17.271456
795.000000	17.726976
794.000000	18.176687
793.000000	18.621505
792.000000	19.066031
791.000000	19.507804
790.000000	19.943116
789.000000	20.376344
788.000000	20.813012
787.000000	21.250594
786.000000	21.685786
785.000000	22.122822
784.000000	22.564826
783.000000	23.005095
782.000000	23.436477
781.000000	23.861147
780.000000	24.281871
779.000000	24.693231
778.000000	25.091378
777.000000	25.483244
776.000000	25.875999
775.000000	26.266290
774.000000	26.649244
773.000000	27.027983
772.000000	27.404849
771.000000	27.773386
770.000000	28.128698
769.000000	28.476047
768.000000	28.819336
767.000000	29.151867
766.000000	29.468236
765.000000	29.774352
764.000000	30.076526
763.000000	30.371350
762.000000	30.656176
761.000000	30.938070
760.000000	31.222440
759.000000	31.504039
758.000000	31.778503
757.000000	32.051356
756.000000	32.326370
755.000000	32.597206
754.000000	32.860215
753.000000	33.122898
752.000000	33.390298
751.000000	33.655708
750.000000	33.914090
749.000000	34.171991
748.000000	34.434801
747.000000	34.697487
746.000000	34.956827
745.000000	35.218903
744.000000	35.484710
743.000000	35.742624
742.000000	35.984810
741.000000	36.216896
740.000000	36.441937
739.000000	36.650586
738.000000	36.837718
737.000000	37.013084
736.000000	37.184996
735.000000	37.347554
734.000000	37.494413
733.000000	37.629567
732.000000	37.753999
731.000000	37.857014
730.000000	37.931787
729.000000	37.985314
728.000000	38.023818
727.000000	38.044678
726.000000	38.053117
725.000000	38.070600
724.000000	38.115520
723.000000	38.190396
722.000000	38.297408
721.000000	38.448708
720.000000	38.648297
719.000000	38.881025
718.000000	39.132687
717.000000	39.404431
716.000000	39.696015
715.000000	39.994523
714.000000	40.292397
713.000000	40.598424
712.000000	40.918699
711.000000	41.244630
710.000000	41.571578
709.000000	41.908354
708.000000	42.256213
707.000000	42.598193
706.000000	42.922154
705.000000	43.234133
704.000000	43.536842
703.000000	43.817269
702.000000	44.069745
701.000000	44.310602
700.000000	44.555436
699.000000	44.802504
698.000000	45.050450
697.000000	45.309795
696.000000	45.581181
695.000000	45.844950
694.000000	46.087159
693.000000	46.314903
692.000000	46.533438
691.000000	46.733235
690.000000	46.914777
689.000000	47.101367
688.000000	47.310020
687.000000	47.532082
686.000000	47.759550
685.000000	48.002631
684.000000	48.263172
683.000000	48.519478
682.000000	48.756572
681.000000	48.984021
680.000000	49.207394
679.000000	49.412440
678.000000	49.596114
677.000000	49.780740
676.000000	49.985472
675.000000	50.205951
674.000000	50.439250
673.000000	50.697132
672.000000	50.981548
671.000000	51.279940
670.000000	51.593638
669.000000	51.932211
668.000000	52.242362
667.000000	52.421816
666.000000	52.482554
665.000000	52.538450
664.000000	52.656641
663.000000	52.839061
662.000000	53.064828
661.000000	53.319049
660.000000	53.588549
659.000000	53.850295
658.000000	54.087780
657.000000	54.302091
656.000000	54.497415
655.000000	54.669869
654.000000	54.826710
653.000000	54.993114
652.000000	55.187273
651.000000	55.406033
650.000000	55.641998
649.000000	55.894167
648.000000	56.150854
647.000000	56.386753
646.000000	56.590349
645.000000	56.773848
644.000000	56.943958
643.000000	57.092109
642.000000	57.226131
641.000000	57.379649
640.000000	57.574314
639.000000	57.799166
638.000000	58.039635
637.000000	58.297679
636.000000	58.568005
635.000000	58.823066
634.000000	59.042585
633.000000	59.232539
632.000000	59.401331
631.000000	59.545625
630.000000	59.676184
629.000000	59.826430
628.000000	60.019309
627.000000	60.250522
626.000000	60.512341
625.000000	60.802724
624.000000	61.097355
623.000000	61.351281
622.000000	61.544314
621.000000	61.693722
620.000000	61.813795
619.000000	61.903942
618.000000	61.988330
617.000000	62.121111
616.000000	62.327546
615.000000	62.576285
614.000000	62.824318
613.000000	63.049736
612.000000	63.224744
611.000000	63.301494
610.000000	63.248282
609.000000	63.061228
608.000000	62.723772
607.000000	62.176686
606.000000	61.342607
605.000000	60.117007
604.000000	58.304072
603.000000	55.619420
602.000000	51.766480
601.000000	46.583516
600.000000	40.223831
599.000000	33.311439
598.000000	26.840341
597.000000	21.773639
596.000000	18.683168
595.000000	17.649882
594.000000	18.361297
593.000000	20.295645
592.000000	22.951660
591.000000	25.936390
590.000000	28.963099
589.000000	31.880867
588.000000	34.644871
587.000000	37.246357
586.000000	39.661849
585.000000	41.861561
584.000000	43.824665
583.000000	45.555537
582.000000	47.099154
581.000000	48.523683
580.000000	49.861368
579.000000	51.087454
578.000000	52.190853
577.000000	53.208910
576.000000	54.163831
575.000000	55.016121
574.000000	55.723468
573.000000	56.303896
572.000000	56.796873
571.000000	57.220705
570.000000	57.607678
569.000000	58.020212
568.000000	58.490660
567.000000	58.986075
566.000000	59.466005
565.000000	59.932237
564.000000	60.382027
563.000000	60.773208
562.000000	61.077581
561.000000	61.322487
560.000000	61.541279
559.000000	61.732586
558.000000	61.907007
557.000000	62.117223
556.000000	62.398784
555.000000	62.723042
554.000000	63.047033
553.000000	63.362046
552.000000	63.658375
551.000000	63.894092
550.000000	64.046922
549.000000	64.151343
548.000000	64.249774
547.000000	64.357039
546.000000	64.497074
545.000000	64.713077
544.000000	65.005204
543.000000	65.316099
542.000000	65.604930
541.000000	65.881505
540.000000	66.138545
539.000000	66.323788
538.000000	66.418065
537.000000	66.478428
536.000000	66.560034
535.000000	66.661169
534.000000	66.781244
533.000000	66.960953
532.000000	67.216662
531.000000	67.494518
530.000000	67.737610
529.000000	67.939385
528.000000	68.091190
527.000000	68.152404
526.000000	68.112929
525.000000	68.017463
524.000000	67.892804
523.000000	67.701657
522.000000	67.405425
521.000000	67.005576
520.000000	66.486900
519.000000	65.790098
518.000000	64.894345
517.000000	63.882083
516.000000	62.884120
515.000000	62.018599
514.000000	61.399004
513.000000	61.117116
512.000000	61.155970
511.000000	61.365741
510.000000	61.564746
509.000000	61.627067
508.000000	61.429201
507.000000	60.798539
506.000000	59.593900
505.000000	57.785506
504.000000	55.429231
503.000000	52.697196
502.000000	49.995472
501.000000	47.867362
500.000000	46.682126
499.000000	46.487701
498.000000	47.137188
497.000000	48.390403
496.000000	49.925036
495.000000	51.396661
494.000000	52.565510
493.000000	53.384782
492.000000	53.937403
491.000000	54.356183
490.000000	54.804694
489.000000	55.434853
488.000000	56.295708
487.000000	57.327094
486.000000	58.464582
485.000000	59.699242
484.000000	60.998601
483.000000	62.244431
482.000000	63.325373
481.000000	64.223483
480.000000	64.950764
479.000000	65.495598
478.000000	65.881214
477.000000	66.197006
476.000000	66.511019
475.000000	66.823368
474.000000	67.176296
473.000000	67.695204
472.000000	68.370739
471.000000	68.979216
470.000000	69.347133
469.000000	69.500134
468.000000	69.521370
467.000000	69.425864
466.000000	69.245640
465.000000	69.100276
464.000000	69.084206
463.000000	69.190768
462.000000	69.394144
461.000000	69.693270
460.000000	70.009657
459.000000	70.179848
458.000000	70.131035
457.000000	69.912531
456.000000	69.581229
455.000000	69.157110
454.000000	68.689216
453.000000	68.309367
452.000000	68.103662
451.000000	67.984954
450.000000	67.806899
449.000000	67.505865
448.000000	67.033266
447.000000	66.239046
446.000000	64.970910
445.000000	63.183492
444.000000	60.870571
443.000000	58.025235
442.000000	54.728180
441.000000	51.181171
440.000000	47.579299
439.000000	44.048649
438.000000	40.744907
437.000000	37.964678
436.000000	36.049147
435.000000	35.173493
434.000000	35.264954
433.000000	36.142713
432.000000	37.676469
431.000000	39.710140
430.000000	42.039297
429.000000	44.546598
428.000000	47.202323
427.000000	49.923038
426.000000	52.578013
425.000000	55.128025
424.000000	57.542968
423.000000	59.639736
422.000000	61.231769
421.000000	62.337142
420.000000	63.149120
419.000000	63.914022
418.000000	64.624630
417.000000	65.313988
416.000000	66.175229
415.000000	67.137991
414.000000	67.995816
413.000000	68.743117
412.000000	69.411407
411.000000	69.806580
410.000000	69.784637
409.000000	69.590162
408.000000	69.509072
407.000000	69.524748
406.000000	69.609386
405.000000	69.874268
404.000000	70.482472
403.000000	71.117269
402.000000	71.436283
401.000000	71.537407
400.000000	71.619932
