PE IR       SUBTECH     SPECTRUM    ASCII       PEDS        4.00        
   -1
23ms233_nitro.asc
24/09/09
16:04:21.00
24/09/09
16:04:21.00
Administrator
Sample 1138 By Administrator Date Monday, September 09 2024
400.000000
#HDR
-1
-1
#GR
cm-1
%T
1.0
0.0
4000.000000
-1.000000
3601
8
84.721578
3.678405
#DATA
4000.000000	52.992343
3999.000000	53.029532
3998.000000	53.069091
3997.000000	53.110653
3996.000000	53.153112
3995.000000	53.195027
3994.000000	53.235103
3993.000000	53.272817
3992.000000	53.308817
3991.000000	53.344593
3990.000000	53.381364
3989.000000	53.419254
3988.000000	53.457543
3987.000000	53.495494
3986.000000	53.532671
3985.000000	53.568657
3984.000000	53.603166
3983.000000	53.636596
3982.000000	53.670029
3981.000000	53.704409
3980.000000	53.739859
3979.000000	53.775854
3978.000000	53.811771
3977.000000	53.847163
3976.000000	53.881479
3975.000000	53.913974
3974.000000	53.944302
3973.000000	53.973186
3972.000000	54.002326
3971.000000	54.033523
3970.000000	54.067835
3969.000000	54.104955
3968.000000	54.143034
3967.000000	54.179435
3966.000000	54.211992
3965.000000	54.240126
3964.000000	54.265174
3963.000000	54.289458
3962.000000	54.314956
3961.000000	54.342574
3960.000000	54.372492
3959.000000	54.404926
3958.000000	54.440312
3957.000000	54.478339
3956.000000	54.517027
3955.000000	54.553495
3954.000000	54.585663
3953.000000	54.613297
3952.000000	54.637987
3951.000000	54.662628
3950.000000	54.690269
3949.000000	54.721714
3948.000000	54.754570
3947.000000	54.785480
3946.000000	54.813489
3945.000000	54.841577
3944.000000	54.874696
3943.000000	54.915416
3942.000000	54.960693
3941.000000	55.004139
3940.000000	55.042036
3939.000000	55.075718
3938.000000	55.108010
3937.000000	55.139001
3936.000000	55.166080
3935.000000	55.188041
3934.000000	55.208518
3933.000000	55.234001
3932.000000	55.268124
3931.000000	55.308192
3930.000000	55.347941
3929.000000	55.383323
3928.000000	55.414764
3927.000000	55.445354
3926.000000	55.477474
3925.000000	55.511056
3924.000000	55.543141
3923.000000	55.569517
3922.000000	55.589309
3921.000000	55.607400
3920.000000	55.631223
3919.000000	55.664839
3918.000000	55.706453
3917.000000	55.751362
3916.000000	55.795263
3915.000000	55.835337
3914.000000	55.870828
3913.000000	55.903899
3912.000000	55.938078
3911.000000	55.974109
3910.000000	56.008793
3909.000000	56.038221
3908.000000	56.061403
3907.000000	56.079726
3906.000000	56.094457
3905.000000	56.105692
3904.000000	56.113676
3903.000000	56.119523
3902.000000	56.126743
3901.000000	56.141619
3900.000000	56.169803
3899.000000	56.211469
3898.000000	56.258775
3897.000000	56.302390
3896.000000	56.339579
3895.000000	56.375036
3894.000000	56.415125
3893.000000	56.462057
3892.000000	56.511382
3891.000000	56.555202
3890.000000	56.588111
3889.000000	56.609540
3888.000000	56.622283
3887.000000	56.631549
3886.000000	56.644273
3885.000000	56.662238
3884.000000	56.679144
3883.000000	56.691673
3882.000000	56.709145
3881.000000	56.745123
3880.000000	56.799746
3879.000000	56.856382
3878.000000	56.898461
3877.000000	56.923438
3876.000000	56.940221
3875.000000	56.959922
3874.000000	56.986912
3873.000000	57.014794
3872.000000	57.033536
3871.000000	57.043829
3870.000000	57.059434
3869.000000	57.089243
3868.000000	57.124739
3867.000000	57.152213
3866.000000	57.171015
3865.000000	57.195132
3864.000000	57.235314
3863.000000	57.284529
3862.000000	57.328176
3861.000000	57.361164
3860.000000	57.390292
3859.000000	57.426948
3858.000000	57.478343
3857.000000	57.539077
3856.000000	57.589538
3855.000000	57.608218
3854.000000	57.596642
3853.000000	57.579195
3852.000000	57.572640
3851.000000	57.581022
3850.000000	57.608299
3849.000000	57.655411
3848.000000	57.717305
3847.000000	57.783854
3846.000000	57.844075
3845.000000	57.891278
3844.000000	57.924405
3843.000000	57.947741
3842.000000	57.968237
3841.000000	57.989444
3840.000000	58.010519
3839.000000	58.030014
3838.000000	58.047691
3837.000000	58.064482
3836.000000	58.082795
3835.000000	58.105361
3834.000000	58.134573
3833.000000	58.172060
3832.000000	58.218603
3831.000000	58.272185
3830.000000	58.327152
3829.000000	58.378777
3828.000000	58.426134
3827.000000	58.470149
3826.000000	58.510526
3825.000000	58.543478
3824.000000	58.562642
3823.000000	58.567058
3822.000000	58.569093
3821.000000	58.585155
3820.000000	58.615703
3819.000000	58.645899
3818.000000	58.666206
3817.000000	58.682350
3816.000000	58.710286
3815.000000	58.758395
3814.000000	58.815347
3813.000000	58.864933
3812.000000	58.905409
3811.000000	58.946615
3810.000000	58.994172
3809.000000	59.041226
3808.000000	59.075943
3807.000000	59.096064
3806.000000	59.109825
3805.000000	59.122652
3804.000000	59.132249
3803.000000	59.137190
3802.000000	59.145061
3801.000000	59.165897
3800.000000	59.197564
3799.000000	59.230343
3798.000000	59.263320
3797.000000	59.303676
3796.000000	59.355564
3795.000000	59.413753
3794.000000	59.468221
3793.000000	59.515071
3792.000000	59.558840
3791.000000	59.604868
3790.000000	59.652070
3789.000000	59.695013
3788.000000	59.730427
3787.000000	59.759538
3786.000000	59.785014
3785.000000	59.808229
3784.000000	59.829610
3783.000000	59.849842
3782.000000	59.870744
3781.000000	59.896389
3780.000000	59.931296
3779.000000	59.974913
3778.000000	60.020186
3777.000000	60.059768
3776.000000	60.092304
3775.000000	60.121697
3774.000000	60.151891
3773.000000	60.182403
3772.000000	60.209548
3771.000000	60.232467
3770.000000	60.254797
3769.000000	60.278747
3768.000000	60.303140
3767.000000	60.329043
3766.000000	60.360773
3765.000000	60.400016
3764.000000	60.441626
3763.000000	60.476299
3762.000000	60.499267
3761.000000	60.516612
3760.000000	60.539741
3759.000000	60.570999
3758.000000	60.601872
3757.000000	60.626838
3756.000000	60.648464
3755.000000	60.668167
3754.000000	60.683119
3753.000000	60.693128
3752.000000	60.703865
3751.000000	60.717332
3750.000000	60.726932
3749.000000	60.732681
3748.000000	60.746043
3747.000000	60.770908
3746.000000	60.799443
3745.000000	60.831086
3744.000000	60.875115
3743.000000	60.928854
3742.000000	60.979283
3741.000000	61.021828
3740.000000	61.059666
3739.000000	61.093835
3738.000000	61.121183
3737.000000	61.143616
3736.000000	61.174469
3735.000000	61.223716
3734.000000	61.281671
3733.000000	61.331293
3732.000000	61.370423
3731.000000	61.409954
3730.000000	61.457128
3729.000000	61.508674
3728.000000	61.559166
3727.000000	61.610538
3726.000000	61.666997
3725.000000	61.724260
3724.000000	61.773554
3723.000000	61.814598
3722.000000	61.854705
3721.000000	61.897880
3720.000000	61.942346
3719.000000	61.984855
3718.000000	62.023956
3717.000000	62.061026
3716.000000	62.096792
3715.000000	62.127754
3714.000000	62.149562
3713.000000	62.164058
3712.000000	62.181311
3711.000000	62.209902
3710.000000	62.248284
3709.000000	62.289501
3708.000000	62.329519
3707.000000	62.370292
3706.000000	62.415140
3705.000000	62.464164
3704.000000	62.516060
3703.000000	62.571674
3702.000000	62.631680
3701.000000	62.690765
3700.000000	62.740837
3699.000000	62.778949
3698.000000	62.808622
3697.000000	62.835701
3696.000000	62.863828
3695.000000	62.891044
3694.000000	62.913694
3693.000000	62.934056
3692.000000	62.959869
3691.000000	62.994625
3690.000000	63.030985
3689.000000	63.057822
3688.000000	63.073867
3687.000000	63.091372
3686.000000	63.121960
3685.000000	63.165382
3684.000000	63.215029
3683.000000	63.265862
3682.000000	63.314712
3681.000000	63.357572
3680.000000	63.391892
3679.000000	63.416184
3678.000000	63.425171
3677.000000	63.416877
3676.000000	63.408928
3675.000000	63.423113
3674.000000	63.452297
3673.000000	63.474019
3672.000000	63.482614
3671.000000	63.498322
3670.000000	63.549040
3669.000000	63.633121
3668.000000	63.718299
3667.000000	63.784179
3666.000000	63.837469
3665.000000	63.893376
3664.000000	63.959854
3663.000000	64.033433
3662.000000	64.104275
3661.000000	64.162745
3660.000000	64.202624
3659.000000	64.221543
3658.000000	64.222538
3657.000000	64.215473
3656.000000	64.211455
3655.000000	64.214050
3654.000000	64.218939
3653.000000	64.220511
3652.000000	64.216465
3651.000000	64.211180
3650.000000	64.213642
3649.000000	64.228741
3648.000000	64.256293
3647.000000	64.296069
3646.000000	64.346075
3645.000000	64.400946
3644.000000	64.458584
3643.000000	64.521786
3642.000000	64.592026
3641.000000	64.663433
3640.000000	64.725150
3639.000000	64.770449
3638.000000	64.800231
3637.000000	64.818104
3636.000000	64.826679
3635.000000	64.830100
3634.000000	64.835002
3633.000000	64.843125
3632.000000	64.846363
3631.000000	64.835799
3630.000000	64.820162
3629.000000	64.823969
3628.000000	64.853333
3627.000000	64.888886
3626.000000	64.919073
3625.000000	64.948901
3624.000000	64.984884
3623.000000	65.026725
3622.000000	65.066016
3621.000000	65.093554
3620.000000	65.109174
3619.000000	65.118865
3618.000000	65.122896
3617.000000	65.117846
3616.000000	65.106912
3615.000000	65.102043
3614.000000	65.116497
3613.000000	65.152068
3612.000000	65.195020
3611.000000	65.228789
3610.000000	65.249854
3609.000000	65.269741
3608.000000	65.300953
3607.000000	65.342436
3606.000000	65.382362
3605.000000	65.412476
3604.000000	65.435453
3603.000000	65.461131
3602.000000	65.496341
3601.000000	65.538193
3600.000000	65.576828
3599.000000	65.602181
3598.000000	65.610748
3597.000000	65.608658
3596.000000	65.607734
3595.000000	65.617380
3594.000000	65.637961
3593.000000	65.660186
3592.000000	65.673391
3591.000000	65.674195
3590.000000	65.669150
3589.000000	65.673642
3588.000000	65.702490
3587.000000	65.753491
3586.000000	65.806386
3585.000000	65.844764
3584.000000	65.870331
3583.000000	65.895002
3582.000000	65.926749
3581.000000	65.964064
3580.000000	66.000694
3579.000000	66.031944
3578.000000	66.056609
3577.000000	66.075650
3576.000000	66.092135
3575.000000	66.110357
3574.000000	66.132725
3573.000000	66.156604
3572.000000	66.174738
3571.000000	66.179503
3570.000000	66.167266
3569.000000	66.144514
3568.000000	66.129724
3567.000000	66.140557
3566.000000	66.175589
3565.000000	66.219468
3564.000000	66.262569
3563.000000	66.307078
3562.000000	66.357975
3561.000000	66.414395
3560.000000	66.469573
3559.000000	66.515990
3558.000000	66.548849
3557.000000	66.566689
3556.000000	66.572637
3555.000000	66.574826
3554.000000	66.582851
3553.000000	66.602028
3552.000000	66.630044
3551.000000	66.659569
3550.000000	66.684599
3549.000000	66.705298
3548.000000	66.727648
3547.000000	66.757488
3546.000000	66.793505
3545.000000	66.828018
3544.000000	66.855591
3543.000000	66.877952
3542.000000	66.900043
3541.000000	66.924807
3540.000000	66.953126
3539.000000	66.985213
3538.000000	67.019290
3537.000000	67.050787
3536.000000	67.075163
3535.000000	67.091686
3534.000000	67.103005
3533.000000	67.112137
3532.000000	67.121262
3531.000000	67.131817
3530.000000	67.144065
3529.000000	67.157350
3528.000000	67.172092
3527.000000	67.190419
3526.000000	67.213607
3525.000000	67.240181
3524.000000	67.267716
3523.000000	67.294919
3522.000000	67.321148
3521.000000	67.345534
3520.000000	67.367716
3519.000000	67.388174
3518.000000	67.406833
3517.000000	67.422438
3516.000000	67.433915
3515.000000	67.441338
3514.000000	67.444962
3513.000000	67.444991
3512.000000	67.444020
3511.000000	67.447603
3510.000000	67.459138
3509.000000	67.475039
3508.000000	67.487625
3507.000000	67.492791
3506.000000	67.493008
3505.000000	67.493807
3504.000000	67.498880
3503.000000	67.507834
3502.000000	67.517612
3501.000000	67.526043
3500.000000	67.533849
3499.000000	67.542232
3498.000000	67.549486
3497.000000	67.551845
3496.000000	67.547379
3495.000000	67.537247
3494.000000	67.523007
3493.000000	67.505007
3492.000000	67.484393
3491.000000	67.464489
3490.000000	67.448330
3489.000000	67.435896
3488.000000	67.424631
3487.000000	67.411231
3486.000000	67.392713
3485.000000	67.368342
3484.000000	67.341857
3483.000000	67.319458
3482.000000	67.303089
3481.000000	67.286766
3480.000000	67.261499
3479.000000	67.223423
3478.000000	67.176106
3477.000000	67.126618
3476.000000	67.081039
3475.000000	67.042222
3474.000000	67.009928
3473.000000	66.982661
3472.000000	66.958768
3471.000000	66.934778
3470.000000	66.903617
3469.000000	66.857452
3468.000000	66.793902
3467.000000	66.718081
3466.000000	66.638186
3465.000000	66.560930
3464.000000	66.490945
3463.000000	66.430422
3462.000000	66.376504
3461.000000	66.321286
3460.000000	66.257422
3459.000000	66.183470
3458.000000	66.103043
3457.000000	66.020235
3456.000000	65.937179
3455.000000	65.854365
3454.000000	65.771106
3453.000000	65.685989
3452.000000	65.598042
3451.000000	65.507072
3450.000000	65.412948
3449.000000	65.315957
3448.000000	65.218113
3447.000000	65.121865
3446.000000	65.026681
3445.000000	64.929046
3444.000000	64.826645
3443.000000	64.720826
3442.000000	64.614330
3441.000000	64.508476
3440.000000	64.403291
3439.000000	64.298328
3438.000000	64.191739
3437.000000	64.079639
3436.000000	63.958284
3435.000000	63.826851
3434.000000	63.687568
3433.000000	63.543782
3432.000000	63.397320
3431.000000	63.246618
3430.000000	63.087666
3429.000000	62.918312
3428.000000	62.741933
3427.000000	62.565049
3426.000000	62.391732
3425.000000	62.221632
3424.000000	62.052308
3423.000000	61.881075
3422.000000	61.704339
3421.000000	61.518185
3420.000000	61.320997
3419.000000	61.114404
3418.000000	60.901821
3417.000000	60.687091
3416.000000	60.473775
3415.000000	60.262848
3414.000000	60.050513
3413.000000	59.830718
3412.000000	59.599917
3411.000000	59.357928
3410.000000	59.104696
3409.000000	58.839136
3408.000000	58.562387
3407.000000	58.279485
3406.000000	57.996726
3405.000000	57.718348
3404.000000	57.444653
3403.000000	57.170754
3402.000000	56.886412
3401.000000	56.580637
3400.000000	56.249491
3399.000000	55.899079
3398.000000	55.540716
3397.000000	55.183551
3396.000000	54.830985
3395.000000	54.481352
3394.000000	54.129252
3393.000000	53.767267
3392.000000	53.388761
3391.000000	52.990696
3390.000000	52.575429
3389.000000	52.149474
3388.000000	51.719816
3387.000000	51.289998
3386.000000	50.859328
3385.000000	50.425996
3384.000000	49.988842
3383.000000	49.545991
3382.000000	49.093680
3381.000000	48.628326
3380.000000	48.149538
3379.000000	47.659682
3378.000000	47.161652
3377.000000	46.658199
3376.000000	46.152070
3375.000000	45.645385
3374.000000	45.138602
3373.000000	44.630397
3372.000000	44.117692
3371.000000	43.595161
3370.000000	43.057386
3369.000000	42.502841
3368.000000	41.935305
3367.000000	41.361070
3366.000000	40.785552
3365.000000	40.212711
3364.000000	39.644409
3363.000000	39.078593
3362.000000	38.509900
3361.000000	37.933632
3360.000000	37.348774
3359.000000	36.757042
3358.000000	36.161005
3357.000000	35.564202
3356.000000	34.970588
3355.000000	34.382246
3354.000000	33.798273
3353.000000	33.216079
3352.000000	32.632473
3351.000000	32.043945
3350.000000	31.448841
3349.000000	30.850124
3348.000000	30.253816
3347.000000	29.663987
3346.000000	29.080841
3345.000000	28.503319
3344.000000	27.930821
3343.000000	27.362211
3342.000000	26.795868
3341.000000	26.231494
3340.000000	25.669794
3339.000000	25.110558
3338.000000	24.553830
3337.000000	24.002588
3336.000000	23.461298
3335.000000	22.931312
3334.000000	22.410217
3333.000000	21.895840
3332.000000	21.387660
3331.000000	20.884939
3330.000000	20.386752
3329.000000	19.894081
3328.000000	19.409413
3327.000000	18.933696
3326.000000	18.466782
3325.000000	18.010347
3324.000000	17.566757
3323.000000	17.135553
3322.000000	16.713728
3321.000000	16.299582
3320.000000	15.893672
3319.000000	15.495994
3318.000000	15.106558
3317.000000	14.727606
3316.000000	14.362133
3315.000000	14.010305
3314.000000	13.669854
3313.000000	13.339994
3312.000000	13.021304
3311.000000	12.712523
3310.000000	12.411741
3309.000000	12.119867
3308.000000	11.840385
3307.000000	11.575585
3306.000000	11.326080
3305.000000	11.093624
3304.000000	10.879477
3303.000000	10.681265
3302.000000	10.494408
3301.000000	10.316474
3300.000000	10.147712
3299.000000	9.987698
3298.000000	9.835649
3297.000000	9.693217
3296.000000	9.562996
3295.000000	9.445205
3294.000000	9.338233
3293.000000	9.242079
3292.000000	9.157925
3291.000000	9.084488
3290.000000	9.019006
3289.000000	8.960329
3288.000000	8.908567
3287.000000	8.862620
3286.000000	8.820952
3285.000000	8.784492
3284.000000	8.754889
3283.000000	8.731125
3282.000000	8.710794
3281.000000	8.693476
3280.000000	8.680031
3279.000000	8.669435
3278.000000	8.659823
3277.000000	8.651760
3276.000000	8.647085
3275.000000	8.645555
3274.000000	8.645539
3273.000000	8.647147
3272.000000	8.651723
3271.000000	8.659113
3270.000000	8.668426
3269.000000	8.680223
3268.000000	8.694961
3267.000000	8.710689
3266.000000	8.725215
3265.000000	8.739420
3264.000000	8.755552
3263.000000	8.773436
3262.000000	8.791462
3261.000000	8.809678
3260.000000	8.828795
3259.000000	8.847543
3258.000000	8.864329
3257.000000	8.880520
3256.000000	8.898912
3255.000000	8.920079
3254.000000	8.942893
3253.000000	8.967192
3252.000000	8.992852
3251.000000	9.017658
3250.000000	9.039393
3249.000000	9.059071
3248.000000	9.079336
3247.000000	9.100951
3246.000000	9.123529
3245.000000	9.148046
3244.000000	9.175451
3243.000000	9.204015
3242.000000	9.231219
3241.000000	9.257023
3240.000000	9.282639
3239.000000	9.307450
3238.000000	9.330067
3237.000000	9.351032
3236.000000	9.371711
3235.000000	9.391953
3234.000000	9.411593
3233.000000	9.432667
3232.000000	9.456998
3231.000000	9.482883
3230.000000	9.507134
3229.000000	9.529074
3228.000000	9.549827
3227.000000	9.569288
3226.000000	9.586749
3225.000000	9.603193
3224.000000	9.619931
3223.000000	9.636138
3222.000000	9.650330
3221.000000	9.662978
3220.000000	9.675179
3219.000000	9.686199
3218.000000	9.695021
3217.000000	9.702699
3216.000000	9.710564
3215.000000	9.717703
3214.000000	9.722711
3213.000000	9.726346
3212.000000	9.729709
3211.000000	9.731545
3210.000000	9.730179
3209.000000	9.726374
3208.000000	9.721714
3207.000000	9.715807
3206.000000	9.707757
3205.000000	9.698679
3204.000000	9.689784
3203.000000	9.679719
3202.000000	9.666657
3201.000000	9.651348
3200.000000	9.635473
3199.000000	9.618539
3198.000000	9.599302
3197.000000	9.578566
3196.000000	9.557677
3195.000000	9.535907
3194.000000	9.511999
3193.000000	9.486814
3192.000000	9.461775
3191.000000	9.436211
3190.000000	9.408955
3189.000000	9.380858
3188.000000	9.353140
3187.000000	9.324954
3186.000000	9.295174
3185.000000	9.264957
3184.000000	9.235870
3183.000000	9.207231
3182.000000	9.177773
3181.000000	9.148172
3180.000000	9.119420
3179.000000	9.090626
3178.000000	9.061050
3177.000000	9.032395
3176.000000	9.006418
3175.000000	8.982071
3174.000000	8.957603
3173.000000	8.933540
3172.000000	8.911039
3171.000000	8.889390
3170.000000	8.867827
3169.000000	8.847864
3168.000000	8.831123
3167.000000	8.816598
3166.000000	8.802760
3165.000000	8.790324
3164.000000	8.780342
3163.000000	8.771642
3162.000000	8.762831
3161.000000	8.755024
3160.000000	8.749853
3159.000000	8.746669
3158.000000	8.744335
3157.000000	8.743687
3156.000000	8.745663
3155.000000	8.749003
3154.000000	8.752554
3153.000000	8.758053
3152.000000	8.767775
3151.000000	8.781312
3150.000000	8.797083
3149.000000	8.815083
3148.000000	8.835703
3147.000000	8.857686
3146.000000	8.879959
3145.000000	8.903666
3144.000000	8.929946
3143.000000	8.957663
3142.000000	8.985526
3141.000000	9.014613
3140.000000	9.046530
3139.000000	9.081021
3138.000000	9.117738
3137.000000	9.157981
3136.000000	9.202360
3135.000000	9.248855
3134.000000	9.295447
3133.000000	9.342786
3132.000000	9.391986
3131.000000	9.442248
3130.000000	9.493063
3129.000000	9.546274
3128.000000	9.603507
3127.000000	9.663532
3126.000000	9.724551
3125.000000	9.786860
3124.000000	9.850798
3123.000000	9.914569
3122.000000	9.976807
3121.000000	10.039327
3120.000000	10.104892
3119.000000	10.174030
3118.000000	10.246407
3117.000000	10.323012
3116.000000	10.404416
3115.000000	10.488898
3114.000000	10.574468
3113.000000	10.660988
3112.000000	10.748287
3111.000000	10.834602
3110.000000	10.919373
3109.000000	11.005333
3108.000000	11.095473
3107.000000	11.189710
3106.000000	11.286510
3105.000000	11.385624
3104.000000	11.486856
3103.000000	11.588397
3102.000000	11.688851
3101.000000	11.789191
3100.000000	11.890864
3099.000000	11.993786
3098.000000	12.098069
3097.000000	12.205424
3096.000000	12.316600
3095.000000	12.429586
3094.000000	12.542255
3093.000000	12.654850
3092.000000	12.768115
3091.000000	12.881305
3090.000000	12.994148
3089.000000	13.108449
3088.000000	13.225590
3087.000000	13.344427
3086.000000	13.463558
3085.000000	13.583584
3084.000000	13.705156
3083.000000	13.826972
3082.000000	13.947853
3081.000000	14.068783
3080.000000	14.191080
3079.000000	14.314546
3078.000000	14.439233
3077.000000	14.566787
3076.000000	14.697945
3075.000000	14.830659
3074.000000	14.962550
3073.000000	15.093291
3072.000000	15.223023
3071.000000	15.350658
3070.000000	15.475823
3069.000000	15.600514
3068.000000	15.726943
3067.000000	15.855518
3066.000000	15.986252
3065.000000	16.119853
3064.000000	16.255617
3063.000000	16.390521
3062.000000	16.522360
3061.000000	16.651929
3060.000000	16.780685
3059.000000	16.908595
3058.000000	17.035946
3057.000000	17.164810
3056.000000	17.296598
3055.000000	17.429992
3054.000000	17.563092
3053.000000	17.695638
3052.000000	17.827599
3051.000000	17.957863
3050.000000	18.086208
3049.000000	18.214488
3048.000000	18.344001
3047.000000	18.473622
3046.000000	18.602259
3045.000000	18.730971
3044.000000	18.860832
3043.000000	18.990774
3042.000000	19.119547
3041.000000	19.247940
3040.000000	19.377131
3039.000000	19.506624
3038.000000	19.635613
3037.000000	19.764675
3036.000000	19.894331
3035.000000	20.023673
3034.000000	20.152050
3033.000000	20.280369
3032.000000	20.409061
3031.000000	20.536593
3030.000000	20.661822
3029.000000	20.786119
3028.000000	20.911442
3027.000000	21.037891
3026.000000	21.164776
3025.000000	21.292392
3024.000000	21.420924
3023.000000	21.548981
3022.000000	21.674878
3021.000000	21.798230
3020.000000	21.919253
3019.000000	22.038026
3018.000000	22.155704
3017.000000	22.274744
3016.000000	22.396508
3015.000000	22.520066
3014.000000	22.644292
3013.000000	22.769406
3012.000000	22.895296
3011.000000	23.020340
3010.000000	23.143275
3009.000000	23.264585
3008.000000	23.384891
3007.000000	23.503860
3006.000000	23.621890
3005.000000	23.740904
3004.000000	23.862007
3003.000000	23.983980
3002.000000	24.105371
3001.000000	24.226211
3000.000000	24.346438
2999.000000	24.464661
2998.000000	24.580217
2997.000000	24.694769
2996.000000	24.810157
2995.000000	24.926141
2994.000000	25.041739
2993.000000	25.157339
2992.000000	25.273914
2991.000000	25.391376
2990.000000	25.509121
2989.000000	25.626984
2988.000000	25.744504
2987.000000	25.860600
2986.000000	25.975130
2985.000000	26.089400
2984.000000	26.204043
2983.000000	26.317842
2982.000000	26.429788
2981.000000	26.540751
2980.000000	26.651946
2979.000000	26.763230
2978.000000	26.874200
2977.000000	26.985522
2976.000000	27.097844
2975.000000	27.210754
2974.000000	27.324019
2973.000000	27.438406
2972.000000	27.553968
2971.000000	27.668840
2970.000000	27.781110
2969.000000	27.890773
2968.000000	27.998756
2967.000000	28.105501
2966.000000	28.211727
2965.000000	28.319163
2964.000000	28.428974
2963.000000	28.540454
2962.000000	28.652441
2961.000000	28.764661
2960.000000	28.876489
2959.000000	28.985881
2958.000000	29.091133
2957.000000	29.192771
2956.000000	29.292593
2955.000000	29.392005
2954.000000	29.492323
2953.000000	29.595275
2952.000000	29.701727
2951.000000	29.810620
2950.000000	29.920029
2949.000000	30.028329
2948.000000	30.133920
2947.000000	30.235438
2946.000000	30.333272
2945.000000	30.429685
2944.000000	30.526683
2943.000000	30.624876
2942.000000	30.724826
2941.000000	30.827602
2940.000000	30.932930
2939.000000	31.038435
2938.000000	31.141887
2937.000000	31.242943
2936.000000	31.341928
2935.000000	31.438644
2934.000000	31.533600
2933.000000	31.628695
2932.000000	31.725128
2931.000000	31.821934
2930.000000	31.917710
2929.000000	32.012460
2928.000000	32.106474
2927.000000	32.199022
2926.000000	32.289672
2925.000000	32.379617
2924.000000	32.470338
2923.000000	32.562148
2922.000000	32.655205
2921.000000	32.750238
2920.000000	32.846773
2919.000000	32.942051
2918.000000	33.033376
2917.000000	33.120593
2916.000000	33.205147
2915.000000	33.288089
2914.000000	33.370462
2913.000000	33.454417
2912.000000	33.542045
2911.000000	33.633362
2910.000000	33.726405
2909.000000	33.818785
2908.000000	33.908361
2907.000000	33.993370
2906.000000	34.073302
2905.000000	34.149546
2904.000000	34.224602
2903.000000	34.301050
2902.000000	34.381205
2901.000000	34.466749
2900.000000	34.557409
2899.000000	34.650334
2898.000000	34.741721
2897.000000	34.828266
2896.000000	34.907874
2895.000000	34.980429
2894.000000	35.048780
2893.000000	35.117765
2892.000000	35.191134
2891.000000	35.269740
2890.000000	35.352517
2889.000000	35.437838
2888.000000	35.523342
2887.000000	35.606081
2886.000000	35.684271
2885.000000	35.758428
2884.000000	35.830300
2883.000000	35.901613
2882.000000	35.974169
2881.000000	36.049731
2880.000000	36.128577
2879.000000	36.209088
2878.000000	36.289793
2877.000000	36.370874
2876.000000	36.452509
2875.000000	36.532617
2874.000000	36.607931
2873.000000	36.677444
2872.000000	36.743926
2871.000000	36.811853
2870.000000	36.884178
2869.000000	36.960546
2868.000000	37.037680
2867.000000	37.111587
2866.000000	37.180141
2865.000000	37.244269
2864.000000	37.307314
2863.000000	37.373418
2862.000000	37.445656
2861.000000	37.524169
2860.000000	37.605675
2859.000000	37.685614
2858.000000	37.761129
2857.000000	37.831649
2856.000000	37.897320
2855.000000	37.958550
2854.000000	38.017449
2853.000000	38.078192
2852.000000	38.144858
2851.000000	38.219177
2850.000000	38.300064
2849.000000	38.383999
2848.000000	38.465773
2847.000000	38.540708
2846.000000	38.607366
2845.000000	38.667897
2844.000000	38.726056
2843.000000	38.785856
2842.000000	38.851410
2841.000000	38.925265
2840.000000	39.005536
2839.000000	39.086191
2838.000000	39.161729
2837.000000	39.230906
2836.000000	39.295413
2835.000000	39.356713
2834.000000	39.415768
2833.000000	39.474745
2832.000000	39.536883
2831.000000	39.604402
2830.000000	39.677365
2829.000000	39.754193
2828.000000	39.832328
2827.000000	39.908776
2826.000000	39.981297
2825.000000	40.049597
2824.000000	40.115246
2823.000000	40.180711
2822.000000	40.248593
2821.000000	40.320760
2820.000000	40.397091
2819.000000	40.475090
2818.000000	40.551275
2817.000000	40.622927
2816.000000	40.688727
2815.000000	40.748882
2814.000000	40.805658
2813.000000	40.863071
2812.000000	40.924718
2811.000000	40.991517
2810.000000	41.061769
2809.000000	41.132862
2808.000000	41.202182
2807.000000	41.266973
2806.000000	41.324782
2805.000000	41.374793
2804.000000	41.418701
2803.000000	41.460375
2802.000000	41.504569
2801.000000	41.555005
2800.000000	41.612332
2799.000000	41.673699
2798.000000	41.734759
2797.000000	41.792253
2796.000000	41.844843
2795.000000	41.892473
2794.000000	41.936163
2793.000000	41.978418
2792.000000	42.022667
2791.000000	42.071490
2790.000000	42.125334
2789.000000	42.182810
2788.000000	42.241753
2787.000000	42.300007
2786.000000	42.355869
2785.000000	42.408470
2784.000000	42.457988
2783.000000	42.505557
2782.000000	42.552885
2781.000000	42.601540
2780.000000	42.652095
2779.000000	42.703700
2778.000000	42.754336
2777.000000	42.801302
2776.000000	42.841886
2775.000000	42.874442
2774.000000	42.899508
2773.000000	42.919779
2772.000000	42.938311
2771.000000	42.956654
2770.000000	42.974413
2769.000000	42.989950
2768.000000	43.001125
2767.000000	43.005725
2766.000000	43.002272
2765.000000	42.990862
2764.000000	42.973231
2763.000000	42.952262
2762.000000	42.931323
2761.000000	42.913435
2760.000000	42.900185
2759.000000	42.891056
2758.000000	42.883962
2757.000000	42.876283
2756.000000	42.865596
2755.000000	42.850278
2754.000000	42.830169
2753.000000	42.806632
2752.000000	42.781428
2751.000000	42.755524
2750.000000	42.728803
2749.000000	42.700131
2748.000000	42.667370
2747.000000	42.627726
2746.000000	42.578983
2745.000000	42.520598
2744.000000	42.453410
2743.000000	42.379138
2742.000000	42.300635
2741.000000	42.221988
2740.000000	42.147581
2739.000000	42.081005
2738.000000	42.025035
2737.000000	41.982390
2736.000000	41.955636
2735.000000	41.946500
2734.000000	41.956183
2733.000000	41.985403
2732.000000	42.034061
2731.000000	42.101217
2730.000000	42.185233
2729.000000	42.284134
2728.000000	42.394955
2727.000000	42.513648
2726.000000	42.636814
2725.000000	42.762753
2724.000000	42.890787
2723.000000	43.019731
2722.000000	43.147569
2721.000000	43.272461
2720.000000	43.393084
2719.000000	43.507967
2718.000000	43.615330
2717.000000	43.713842
2716.000000	43.803075
2715.000000	43.883402
2714.000000	43.955464
2713.000000	44.019929
2712.000000	44.077406
2711.000000	44.127969
2710.000000	44.171396
2709.000000	44.207608
2708.000000	44.236803
2707.000000	44.259515
2706.000000	44.276458
2705.000000	44.288629
2704.000000	44.296902
2703.000000	44.301485
2702.000000	44.302310
2701.000000	44.299660
2700.000000	44.294340
2699.000000	44.287319
2698.000000	44.279637
2697.000000	44.272639
2696.000000	44.267485
2695.000000	44.264284
2694.000000	44.262012
2693.000000	44.259226
2692.000000	44.254534
2691.000000	44.246539
2690.000000	44.234240
2689.000000	44.217897
2688.000000	44.199212
2687.000000	44.180583
2686.000000	44.164376
2685.000000	44.152589
2684.000000	44.146197
2683.000000	44.144216
2682.000000	44.143684
2681.000000	44.141011
2680.000000	44.133584
2679.000000	44.120650
2678.000000	44.103655
2677.000000	44.086055
2676.000000	44.072293
2675.000000	44.066087
2674.000000	44.069176
2673.000000	44.081325
2672.000000	44.100799
2671.000000	44.124937
2670.000000	44.150856
2669.000000	44.176245
2668.000000	44.200129
2667.000000	44.222956
2666.000000	44.246118
2665.000000	44.271090
2664.000000	44.298269
2663.000000	44.326312
2662.000000	44.352583
2661.000000	44.374262
2660.000000	44.389312
2659.000000	44.397159
2658.000000	44.399150
2657.000000	44.398537
2656.000000	44.399432
2655.000000	44.405131
2654.000000	44.417054
2653.000000	44.434658
2652.000000	44.455833
2651.000000	44.477714
2650.000000	44.498220
2649.000000	44.517586
2648.000000	44.539032
2647.000000	44.567787
2646.000000	44.609253
2645.000000	44.667425
2644.000000	44.743215
2643.000000	44.833858
2642.000000	44.933601
2641.000000	45.035256
2640.000000	45.132212
2639.000000	45.219947
2638.000000	45.297313
2637.000000	45.367021
2636.000000	45.434348
2635.000000	45.504372
2634.000000	45.579450
2633.000000	45.658237
2632.000000	45.736215
2631.000000	45.807160
2630.000000	45.864868
2629.000000	45.905554
2628.000000	45.929530
2627.000000	45.941060
2626.000000	45.946982
2625.000000	45.954510
2624.000000	45.969192
2623.000000	45.992999
2622.000000	46.023338
2621.000000	46.054146
2620.000000	46.078194
2619.000000	46.089748
2618.000000	46.086478
2617.000000	46.070016
2616.000000	46.045188
2615.000000	46.017719
2614.000000	45.991922
2613.000000	45.969411
2612.000000	45.948745
2611.000000	45.926233
2610.000000	45.897612
2609.000000	45.860430
2608.000000	45.815966
2607.000000	45.769415
2606.000000	45.728334
2605.000000	45.700432
2604.000000	45.691211
2603.000000	45.702127
2602.000000	45.730550
2601.000000	45.770865
2600.000000	45.816741
2599.000000	45.863526
2598.000000	45.909681
2597.000000	45.957600
2596.000000	46.012229
2595.000000	46.078596
2594.000000	46.159460
2593.000000	46.253585
2592.000000	46.355652
2591.000000	46.457371
2590.000000	46.550062
2589.000000	46.628054
2588.000000	46.691073
2587.000000	46.744361
2586.000000	46.796639
2585.000000	46.857234
2584.000000	46.933187
2583.000000	47.026702
2582.000000	47.134126
2581.000000	47.247255
2580.000000	47.356510
2579.000000	47.454325
2578.000000	47.537364
2577.000000	47.607418
2576.000000	47.670778
2575.000000	47.735931
2574.000000	47.810222
2573.000000	47.897010
2572.000000	47.994328
2571.000000	48.095513
2570.000000	48.191683
2569.000000	48.274933
2568.000000	48.341076
2567.000000	48.390387
2566.000000	48.426826
2565.000000	48.456608
2564.000000	48.485543
2563.000000	48.516286
2562.000000	48.546446
2561.000000	48.569437
2560.000000	48.577497
2559.000000	48.564023
2558.000000	48.525986
2557.000000	48.465623
2556.000000	48.390768
2555.000000	48.313130
2554.000000	48.245065
2553.000000	48.196974
2552.000000	48.175422
2551.000000	48.181910
2550.000000	48.212862
2549.000000	48.262534
2548.000000	48.325925
2547.000000	48.400302
2546.000000	48.485408
2545.000000	48.582073
2544.000000	48.691258
2543.000000	48.811784
2542.000000	48.938369
2541.000000	49.062459
2540.000000	49.174994
2539.000000	49.269350
2538.000000	49.343059
2537.000000	49.398742
2536.000000	49.443717
2535.000000	49.487761
2534.000000	49.539368
2533.000000	49.602938
2532.000000	49.677846
2531.000000	49.758476
2530.000000	49.836017
2529.000000	49.901810
2528.000000	49.951007
2527.000000	49.984120
2526.000000	50.005992
2525.000000	50.024282
2524.000000	50.047456
2523.000000	50.081728
2522.000000	50.128285
2521.000000	50.183136
2520.000000	50.239639
2519.000000	50.291143
2518.000000	50.332647
2517.000000	50.362348
2516.000000	50.382643
2515.000000	50.399099
2514.000000	50.417587
2513.000000	50.441928
2512.000000	50.473170
2511.000000	50.509473
2510.000000	50.546625
2509.000000	50.579890
2508.000000	50.606463
2507.000000	50.626566
2506.000000	50.642826
2505.000000	50.659274
2504.000000	50.680078
2503.000000	50.707413
2502.000000	50.739820
2501.000000	50.772895
2500.000000	50.801757
2499.000000	50.822920
2498.000000	50.834988
2497.000000	50.839495
2496.000000	50.841276
2495.000000	50.846771
2494.000000	50.861003
2493.000000	50.885628
2492.000000	50.918742
2491.000000	50.955240
2490.000000	50.987929
2489.000000	51.010354
2488.000000	51.019851
2487.000000	51.018269
2486.000000	51.010491
2485.000000	51.003002
2484.000000	51.002586
2483.000000	51.013876
2482.000000	51.036923
2481.000000	51.067315
2480.000000	51.098714
2479.000000	51.125161
2478.000000	51.142219
2477.000000	51.148248
2476.000000	51.145493
2475.000000	51.139062
2474.000000	51.134309
2473.000000	51.135068
2472.000000	51.143291
2471.000000	51.158640
2470.000000	51.178205
2469.000000	51.197923
2468.000000	51.214880
2467.000000	51.228055
2466.000000	51.237485
2465.000000	51.243928
2464.000000	51.249163
2463.000000	51.255151
2462.000000	51.262455
2461.000000	51.270172
2460.000000	51.277402
2459.000000	51.284010
2458.000000	51.290180
2457.000000	51.296461
2456.000000	51.304355
2455.000000	51.315773
2454.000000	51.331400
2453.000000	51.349987
2452.000000	51.369040
2451.000000	51.385538
2450.000000	51.396567
2449.000000	51.400785
2448.000000	51.399698
2447.000000	51.396965
2446.000000	51.396474
2445.000000	51.401402
2444.000000	51.414023
2443.000000	51.434586
2442.000000	51.460167
2441.000000	51.485781
2440.000000	51.507013
2439.000000	51.521342
2438.000000	51.527959
2437.000000	51.528015
2436.000000	51.525112
2435.000000	51.524009
2434.000000	51.528172
2433.000000	51.538866
2432.000000	51.555846
2431.000000	51.577532
2430.000000	51.600743
2429.000000	51.621883
2428.000000	51.639036
2427.000000	51.652339
2426.000000	51.662585
2425.000000	51.670672
2424.000000	51.678142
2423.000000	51.686681
2422.000000	51.696758
2421.000000	51.707746
2420.000000	51.719428
2419.000000	51.732428
2418.000000	51.747232
2417.000000	51.763918
2416.000000	51.782749
2415.000000	51.803776
2414.000000	51.825633
2413.000000	51.845714
2412.000000	51.861837
2411.000000	51.873165
2410.000000	51.880031
2409.000000	51.884181
2408.000000	51.889125
2407.000000	51.898871
2406.000000	51.915765
2405.000000	51.939862
2404.000000	51.969685
2403.000000	52.002290
2402.000000	52.033107
2401.000000	52.057525
2400.000000	52.073506
2399.000000	52.082314
2398.000000	52.087225
2397.000000	52.092576
2396.000000	52.103182
2395.000000	52.122471
2394.000000	52.150433
2393.000000	52.184074
2392.000000	52.219671
2391.000000	52.253842
2390.000000	52.283514
2389.000000	52.306984
2388.000000	52.325563
2387.000000	52.342833
2386.000000	52.362128
2385.000000	52.385464
2384.000000	52.413943
2383.000000	52.447673
2382.000000	52.484910
2381.000000	52.523233
2380.000000	52.562047
2379.000000	52.602714
2378.000000	52.646590
2377.000000	52.694194
2376.000000	52.746202
2375.000000	52.802907
2374.000000	52.862370
2373.000000	52.920107
2372.000000	52.971684
2371.000000	53.015181
2370.000000	53.050971
2369.000000	53.081772
2368.000000	53.112985
2367.000000	53.150578
2366.000000	53.196794
2365.000000	53.249413
2364.000000	53.306576
2363.000000	53.364613
2362.000000	53.416249
2361.000000	53.458211
2360.000000	53.490962
2359.000000	53.519747
2358.000000	53.550674
2357.000000	53.585975
2356.000000	53.630127
2355.000000	53.682607
2354.000000	53.738330
2353.000000	53.791343
2352.000000	53.841461
2351.000000	53.894918
2350.000000	53.946395
2349.000000	53.988277
2348.000000	54.019702
2347.000000	54.051281
2346.000000	54.098501
2345.000000	54.161659
2344.000000	54.232639
2343.000000	54.297187
2342.000000	54.350311
2341.000000	54.395314
2340.000000	54.432750
2339.000000	54.465476
2338.000000	54.495238
2337.000000	54.526319
2336.000000	54.562669
2335.000000	54.606662
2334.000000	54.656144
2333.000000	54.706658
2332.000000	54.753905
2331.000000	54.799808
2330.000000	54.842362
2329.000000	54.882995
2328.000000	54.923931
2327.000000	54.967140
2326.000000	55.016059
2325.000000	55.066850
2324.000000	55.120840
2323.000000	55.173930
2322.000000	55.222634
2321.000000	55.262968
2320.000000	55.295173
2319.000000	55.325316
2318.000000	55.356861
2317.000000	55.393335
2316.000000	55.435672
2315.000000	55.485890
2314.000000	55.541175
2313.000000	55.596105
2312.000000	55.645240
2311.000000	55.686022
2310.000000	55.718357
2309.000000	55.743404
2308.000000	55.766502
2307.000000	55.793736
2306.000000	55.829872
2305.000000	55.874391
2304.000000	55.925332
2303.000000	55.979044
2302.000000	56.030591
2301.000000	56.074686
2300.000000	56.109393
2299.000000	56.136998
2298.000000	56.161422
2297.000000	56.186200
2296.000000	56.215075
2295.000000	56.250268
2294.000000	56.291054
2293.000000	56.332957
2292.000000	56.372478
2291.000000	56.407569
2290.000000	56.437800
2289.000000	56.463333
2288.000000	56.487168
2287.000000	56.513318
2286.000000	56.543834
2285.000000	56.577572
2284.000000	56.612731
2283.000000	56.647642
2282.000000	56.679743
2281.000000	56.706579
2280.000000	56.728630
2279.000000	56.749591
2278.000000	56.772999
2277.000000	56.800865
2276.000000	56.834220
2275.000000	56.872989
2274.000000	56.913891
2273.000000	56.951607
2272.000000	56.982555
2271.000000	57.006248
2270.000000	57.023675
2269.000000	57.036817
2268.000000	57.050059
2267.000000	57.068703
2266.000000	57.094930
2265.000000	57.126849
2264.000000	57.161143
2263.000000	57.194391
2262.000000	57.222377
2261.000000	57.241195
2260.000000	57.250785
2259.000000	57.254777
2258.000000	57.256994
2257.000000	57.259704
2256.000000	57.264770
2255.000000	57.273334
2254.000000	57.283208
2253.000000	57.289582
2252.000000	57.288565
2251.000000	57.278969
2250.000000	57.260546
2249.000000	57.233636
2248.000000	57.200744
2247.000000	57.165235
2246.000000	57.127967
2245.000000	57.086698
2244.000000	57.039146
2243.000000	56.984158
2242.000000	56.920339
2241.000000	56.846723
2240.000000	56.765495
2239.000000	56.681966
2238.000000	56.601233
2237.000000	56.526641
2236.000000	56.460960
2235.000000	56.406176
2234.000000	56.361623
2233.000000	56.324494
2232.000000	56.292977
2231.000000	56.267152
2230.000000	56.247255
2229.000000	56.233363
2228.000000	56.226645
2227.000000	56.228347
2226.000000	56.236744
2225.000000	56.247345
2224.000000	56.256210
2223.000000	56.261234
2222.000000	56.260668
2221.000000	56.253379
2220.000000	56.241313
2219.000000	56.229128
2218.000000	56.220610
2217.000000	56.216948
2216.000000	56.218170
2215.000000	56.223549
2214.000000	56.230294
2213.000000	56.234529
2212.000000	56.234542
2211.000000	56.231431
2210.000000	56.226684
2209.000000	56.221448
2208.000000	56.217979
2207.000000	56.218859
2206.000000	56.223903
2205.000000	56.229952
2204.000000	56.234194
2203.000000	56.235817
2202.000000	56.234670
2201.000000	56.231010
2200.000000	56.226991
2199.000000	56.225832
2198.000000	56.228731
2197.000000	56.234206
2196.000000	56.240226
2195.000000	56.244684
2194.000000	56.244050
2193.000000	56.234716
2192.000000	56.216638
2191.000000	56.193672
2190.000000	56.170202
2189.000000	56.149388
2188.000000	56.134087
2187.000000	56.126045
2186.000000	56.123300
2185.000000	56.120791
2184.000000	56.114473
2183.000000	56.103408
2182.000000	56.088384
2181.000000	56.071527
2180.000000	56.057514
2179.000000	56.052263
2178.000000	56.059090
2177.000000	56.077400
2176.000000	56.104731
2175.000000	56.137642
2174.000000	56.171063
2173.000000	56.200104
2172.000000	56.223747
2171.000000	56.244909
2170.000000	56.266838
2169.000000	56.291661
2168.000000	56.321830
2167.000000	56.359410
2166.000000	56.402894
2165.000000	56.447326
2164.000000	56.488498
2163.000000	56.525149
2162.000000	56.557353
2161.000000	56.585911
2160.000000	56.613969
2159.000000	56.646126
2158.000000	56.684546
2157.000000	56.727587
2156.000000	56.772194
2155.000000	56.815284
2154.000000	56.853031
2153.000000	56.882330
2152.000000	56.904239
2151.000000	56.923835
2150.000000	56.946087
2149.000000	56.973659
2148.000000	57.007985
2147.000000	57.048955
2146.000000	57.092829
2145.000000	57.133245
2144.000000	57.165647
2143.000000	57.189425
2142.000000	57.206467
2141.000000	57.220662
2140.000000	57.238634
2139.000000	57.267292
2138.000000	57.309213
2137.000000	57.361823
2136.000000	57.420364
2135.000000	57.479039
2134.000000	57.530418
2133.000000	57.568259
2132.000000	57.592444
2131.000000	57.608850
2130.000000	57.624205
2129.000000	57.643610
2128.000000	57.671543
2127.000000	57.710428
2126.000000	57.756994
2125.000000	57.803292
2124.000000	57.842539
2123.000000	57.872098
2122.000000	57.891843
2121.000000	57.903712
2120.000000	57.913333
2119.000000	57.928085
2118.000000	57.952024
2117.000000	57.984621
2116.000000	58.023735
2115.000000	58.066396
2114.000000	58.107100
2113.000000	58.140019
2112.000000	58.164321
2111.000000	58.184483
2110.000000	58.205198
2109.000000	58.229030
2108.000000	58.258006
2107.000000	58.292662
2106.000000	58.328582
2105.000000	58.357818
2104.000000	58.375065
2103.000000	58.380027
2102.000000	58.374462
2101.000000	58.361135
2100.000000	58.346066
2099.000000	58.336791
2098.000000	58.336476
2097.000000	58.342088
2096.000000	58.347892
2095.000000	58.347615
2094.000000	58.334139
2093.000000	58.302667
2092.000000	58.256284
2091.000000	58.205337
2090.000000	58.160792
2089.000000	58.130351
2088.000000	58.119333
2087.000000	58.129819
2086.000000	58.157189
2085.000000	58.191291
2084.000000	58.223024
2083.000000	58.247907
2082.000000	58.264389
2081.000000	58.273609
2080.000000	58.281785
2079.000000	58.298500
2078.000000	58.330194
2077.000000	58.377458
2076.000000	58.437734
2075.000000	58.506851
2074.000000	58.577710
2073.000000	58.642174
2072.000000	58.697011
2071.000000	58.744798
2070.000000	58.788956
2069.000000	58.831973
2068.000000	58.878513
2067.000000	58.935000
2066.000000	59.003802
2065.000000	59.080951
2064.000000	59.160701
2063.000000	59.239278
2062.000000	59.314110
2061.000000	59.384115
2060.000000	59.452286
2059.000000	59.524181
2058.000000	59.602135
2057.000000	59.683672
2056.000000	59.765433
2055.000000	59.844806
2054.000000	59.917505
2053.000000	59.978824
2052.000000	60.029411
2051.000000	60.075768
2050.000000	60.124063
2049.000000	60.177508
2048.000000	60.239176
2047.000000	60.310900
2046.000000	60.388153
2045.000000	60.461328
2044.000000	60.523811
2043.000000	60.575204
2042.000000	60.617216
2041.000000	60.652141
2040.000000	60.686212
2039.000000	60.728824
2038.000000	60.786123
2037.000000	60.858451
2036.000000	60.943876
2035.000000	61.039114
2034.000000	61.136616
2033.000000	61.226328
2032.000000	61.302306
2031.000000	61.365053
2030.000000	61.417294
2029.000000	61.462877
2028.000000	61.509371
2027.000000	61.565551
2026.000000	61.634555
2025.000000	61.712999
2024.000000	61.797169
2023.000000	61.883554
2022.000000	61.964298
2021.000000	62.030116
2020.000000	62.079801
2019.000000	62.121763
2018.000000	62.165155
2017.000000	62.214309
2016.000000	62.271306
2015.000000	62.337644
2014.000000	62.411623
2013.000000	62.489142
2012.000000	62.568483
2011.000000	62.650578
2010.000000	62.734304
2009.000000	62.816691
2008.000000	62.897700
2007.000000	62.979584
2006.000000	63.061498
2005.000000	63.139499
2004.000000	63.213296
2003.000000	63.285993
2002.000000	63.358610
2001.000000	63.429900
2000.000000	63.501467
1999.000000	63.578765
1998.000000	63.662261
1997.000000	63.744210
1996.000000	63.817806
1995.000000	63.884218
1994.000000	63.948151
1993.000000	64.011685
1992.000000	64.074489
1991.000000	64.134947
1990.000000	64.190748
1989.000000	64.242699
1988.000000	64.296869
1987.000000	64.358852
1986.000000	64.427766
1985.000000	64.499638
1984.000000	64.574515
1983.000000	64.653140
1982.000000	64.729748
1981.000000	64.794385
1980.000000	64.842074
1979.000000	64.875522
1978.000000	64.897732
1977.000000	64.911050
1976.000000	64.923737
1975.000000	64.948305
1974.000000	64.990883
1973.000000	65.047708
1972.000000	65.111842
1971.000000	65.175996
1970.000000	65.230055
1969.000000	65.265829
1968.000000	65.286041
1967.000000	65.300651
1966.000000	65.314004
1965.000000	65.325262
1964.000000	65.340260
1963.000000	65.370427
1962.000000	65.419457
1961.000000	65.480309
1960.000000	65.545077
1959.000000	65.608158
1958.000000	65.660417
1957.000000	65.692742
1956.000000	65.706754
1955.000000	65.713674
1954.000000	65.721372
1953.000000	65.732063
1952.000000	65.750679
1951.000000	65.781923
1950.000000	65.821921
1949.000000	65.860613
1948.000000	65.890844
1947.000000	65.909744
1946.000000	65.914773
1945.000000	65.908802
1944.000000	65.906532
1943.000000	65.924819
1942.000000	65.964045
1941.000000	66.008653
1940.000000	66.048316
1939.000000	66.083346
1938.000000	66.109897
1937.000000	66.120137
1936.000000	66.118033
1935.000000	66.120355
1934.000000	66.138655
1933.000000	66.173211
1932.000000	66.222716
1931.000000	66.283214
1930.000000	66.342860
1929.000000	66.383567
1928.000000	66.393469
1927.000000	66.371102
1926.000000	66.320758
1925.000000	66.259233
1924.000000	66.214598
1923.000000	66.208877
1922.000000	66.242645
1921.000000	66.304355
1920.000000	66.388192
1919.000000	66.482478
1918.000000	66.553851
1917.000000	66.569993
1916.000000	66.535122
1915.000000	66.484232
1914.000000	66.442885
1913.000000	66.415030
1912.000000	66.405820
1911.000000	66.429102
1910.000000	66.490171
1909.000000	66.572029
1908.000000	66.650509
1907.000000	66.709595
1906.000000	66.737557
1905.000000	66.731475
1904.000000	66.703505
1903.000000	66.675444
1902.000000	66.665095
1901.000000	66.676212
1900.000000	66.704367
1899.000000	66.741510
1898.000000	66.773429
1897.000000	66.788753
1896.000000	66.788828
1895.000000	66.780760
1894.000000	66.764667
1893.000000	66.739670
1892.000000	66.718662
1891.000000	66.720284
1890.000000	66.746492
1889.000000	66.777970
1888.000000	66.794180
1887.000000	66.791334
1886.000000	66.774935
1885.000000	66.749470
1884.000000	66.724547
1883.000000	66.716091
1882.000000	66.734454
1881.000000	66.775637
1880.000000	66.828765
1879.000000	66.882635
1878.000000	66.918748
1877.000000	66.918458
1876.000000	66.881307
1875.000000	66.820358
1874.000000	66.746237
1873.000000	66.671171
1872.000000	66.619801
1871.000000	66.615992
1870.000000	66.658092
1869.000000	66.721165
1868.000000	66.779987
1867.000000	66.819726
1866.000000	66.831813
1865.000000	66.810231
1864.000000	66.759314
1863.000000	66.699953
1862.000000	66.657941
1861.000000	66.649474
1860.000000	66.679099
1859.000000	66.740091
1858.000000	66.810179
1857.000000	66.858004
1856.000000	66.865082
1855.000000	66.833328
1854.000000	66.775049
1853.000000	66.701167
1852.000000	66.626186
1851.000000	66.572775
1850.000000	66.545982
1849.000000	66.527732
1848.000000	66.510969
1847.000000	66.516352
1846.000000	66.555432
1845.000000	66.594363
1844.000000	66.584170
1843.000000	66.517435
1842.000000	66.437381
1841.000000	66.391962
1840.000000	66.392236
1839.000000	66.412910
1838.000000	66.421805
1837.000000	66.405700
1836.000000	66.364446
1835.000000	66.296581
1834.000000	66.204535
1833.000000	66.104218
1832.000000	66.025784
1831.000000	65.994405
1830.000000	66.001285
1829.000000	66.008244
1828.000000	65.993260
1827.000000	65.969081
1826.000000	65.938801
1825.000000	65.881124
1824.000000	65.793724
1823.000000	65.707298
1822.000000	65.651133
1821.000000	65.627864
1820.000000	65.629269
1819.000000	65.648498
1818.000000	65.668590
1817.000000	65.664342
1816.000000	65.615613
1815.000000	65.518140
1814.000000	65.380386
1813.000000	65.222734
1812.000000	65.085388
1811.000000	65.005057
1810.000000	64.986534
1809.000000	65.010664
1808.000000	65.055486
1807.000000	65.098364
1806.000000	65.107255
1805.000000	65.056597
1804.000000	64.950189
1803.000000	64.822161
1802.000000	64.710729
1801.000000	64.637641
1800.000000	64.611225
1799.000000	64.619423
1798.000000	64.631198
1797.000000	64.622882
1796.000000	64.599288
1795.000000	64.581811
1794.000000	64.568292
1793.000000	64.530629
1792.000000	64.467687
1791.000000	64.410859
1790.000000	64.379411
1789.000000	64.370722
1788.000000	64.372417
1787.000000	64.367519
1786.000000	64.334339
1785.000000	64.257132
1784.000000	64.138440
1783.000000	64.007596
1782.000000	63.897932
1781.000000	63.818372
1780.000000	63.769218
1779.000000	63.743038
1778.000000	63.714728
1777.000000	63.654023
1776.000000	63.560165
1775.000000	63.468807
1774.000000	63.391357
1773.000000	63.285471
1772.000000	63.132905
1771.000000	62.983894
1770.000000	62.897245
1769.000000	62.892396
1768.000000	62.934796
1767.000000	62.958918
1766.000000	62.922256
1765.000000	62.835345
1764.000000	62.732464
1763.000000	62.630060
1762.000000	62.518967
1761.000000	62.389490
1760.000000	62.266009
1759.000000	62.194597
1758.000000	62.191895
1757.000000	62.210798
1756.000000	62.188485
1755.000000	62.115236
1754.000000	62.018994
1753.000000	61.903200
1752.000000	61.744871
1751.000000	61.548482
1750.000000	61.357814
1749.000000	61.216641
1748.000000	61.136530
1747.000000	61.099267
1746.000000	61.062785
1745.000000	60.988991
1744.000000	60.883350
1743.000000	60.780486
1742.000000	60.698655
1741.000000	60.623888
1740.000000	60.526388
1739.000000	60.388002
1738.000000	60.233388
1737.000000	60.123121
1736.000000	60.082394
1735.000000	60.038599
1734.000000	59.882415
1733.000000	59.590351
1732.000000	59.259052
1731.000000	59.012325
1730.000000	58.878900
1729.000000	58.794619
1728.000000	58.696916
1727.000000	58.575128
1726.000000	58.425295
1725.000000	58.227708
1724.000000	57.986416
1723.000000	57.725510
1722.000000	57.465738
1721.000000	57.225490
1720.000000	57.021718
1719.000000	56.840437
1718.000000	56.634744
1717.000000	56.382118
1716.000000	56.110561
1715.000000	55.861099
1714.000000	55.635905
1713.000000	55.402997
1712.000000	55.149173
1711.000000	54.890641
1710.000000	54.637028
1709.000000	54.377295
1708.000000	54.114124
1707.000000	53.864010
1706.000000	53.613592
1705.000000	53.336760
1704.000000	53.064143
1703.000000	52.872904
1702.000000	52.762094
1701.000000	52.582328
1700.000000	52.221307
1699.000000	51.786455
1698.000000	51.452941
1697.000000	51.271695
1696.000000	51.140176
1695.000000	50.915094
1694.000000	50.576933
1693.000000	50.220115
1692.000000	49.908502
1691.000000	49.620489
1690.000000	49.318058
1689.000000	49.007185
1688.000000	48.740957
1687.000000	48.559462
1686.000000	48.412460
1685.000000	48.176075
1684.000000	47.817109
1683.000000	47.431189
1682.000000	47.090111
1681.000000	46.810874
1680.000000	46.577178
1679.000000	46.371246
1678.000000	46.193491
1677.000000	46.027024
1676.000000	45.825393
1675.000000	45.556925
1674.000000	45.237111
1673.000000	44.908487
1672.000000	44.615920
1671.000000	44.367424
1670.000000	44.136762
1669.000000	43.897748
1668.000000	43.648430
1667.000000	43.414282
1666.000000	43.209503
1665.000000	43.015885
1664.000000	42.801013
1663.000000	42.553907
1662.000000	42.289669
1661.000000	42.016828
1660.000000	41.745016
1659.000000	41.487453
1658.000000	41.241743
1657.000000	41.010885
1656.000000	40.833951
1655.000000	40.732245
1654.000000	40.634759
1653.000000	40.437426
1652.000000	40.085524
1651.000000	39.645453
1650.000000	39.263015
1649.000000	38.983501
1648.000000	38.762862
1647.000000	38.574291
1646.000000	38.402609
1645.000000	38.207386
1644.000000	37.978170
1643.000000	37.753876
1642.000000	37.549714
1641.000000	37.334737
1640.000000	37.092199
1639.000000	36.854618
1638.000000	36.656737
1637.000000	36.482887
1636.000000	36.301446
1635.000000	36.108973
1634.000000	35.898925
1633.000000	35.678017
1632.000000	35.473383
1631.000000	35.294074
1630.000000	35.124162
1629.000000	34.941684
1628.000000	34.747481
1627.000000	34.567016
1626.000000	34.416748
1625.000000	34.285039
1624.000000	34.154508
1623.000000	34.023895
1622.000000	33.893736
1621.000000	33.760619
1620.000000	33.645718
1619.000000	33.578729
1618.000000	33.548629
1617.000000	33.502612
1616.000000	33.404837
1615.000000	33.280206
1614.000000	33.176799
1613.000000	33.109994
1612.000000	33.059331
1611.000000	33.007074
1610.000000	32.954847
1609.000000	32.905883
1608.000000	32.860541
1607.000000	32.827872
1606.000000	32.815792
1605.000000	32.813728
1604.000000	32.812066
1603.000000	32.818627
1602.000000	32.837998
1601.000000	32.856668
1600.000000	32.862059
1599.000000	32.859795
1598.000000	32.858495
1597.000000	32.856468
1596.000000	32.855280
1595.000000	32.868395
1594.000000	32.902385
1593.000000	32.944132
1592.000000	32.980082
1591.000000	33.012470
1590.000000	33.045395
1589.000000	33.070572
1588.000000	33.082195
1587.000000	33.089772
1586.000000	33.105414
1585.000000	33.125167
1584.000000	33.140728
1583.000000	33.159225
1582.000000	33.181376
1581.000000	33.186258
1580.000000	33.167548
1579.000000	33.158014
1578.000000	33.185616
1577.000000	33.229312
1576.000000	33.238954
1575.000000	33.190258
1574.000000	33.110508
1573.000000	33.047225
1572.000000	33.022562
1571.000000	33.022359
1570.000000	33.024318
1569.000000	33.010456
1568.000000	32.974886
1567.000000	32.943408
1566.000000	32.945035
1565.000000	32.970302
1564.000000	32.995627
1563.000000	33.034381
1562.000000	33.117281
1561.000000	33.236797
1560.000000	33.332912
1559.000000	33.434505
1558.000000	33.569170
1557.000000	33.649655
1556.000000	33.708630
1555.000000	33.834007
1554.000000	34.012771
1553.000000	34.179387
1552.000000	34.316963
1551.000000	34.473237
1550.000000	34.672653
1549.000000	34.882452
1548.000000	35.057508
1547.000000	35.199231
1546.000000	35.334331
1545.000000	35.476099
1544.000000	35.634726
1543.000000	35.831266
1542.000000	36.087724
1541.000000	36.422136
1540.000000	36.829596
1539.000000	37.204076
1538.000000	37.422318
1537.000000	37.526046
1536.000000	37.639754
1535.000000	37.838792
1534.000000	38.135068
1533.000000	38.481419
1532.000000	38.812829
1531.000000	39.109246
1530.000000	39.393193
1529.000000	39.681701
1528.000000	39.982019
1527.000000	40.307048
1526.000000	40.653062
1525.000000	40.989247
1524.000000	41.319411
1523.000000	41.705574
1522.000000	42.196031
1521.000000	42.721609
1520.000000	43.142486
1519.000000	43.453325
1518.000000	43.772500
1517.000000	44.168162
1516.000000	44.608083
1515.000000	45.039083
1514.000000	45.459999
1513.000000	45.879115
1512.000000	46.266137
1511.000000	46.591794
1510.000000	46.874919
1509.000000	47.176829
1508.000000	47.578359
1507.000000	48.181557
1506.000000	48.897667
1505.000000	49.428185
1504.000000	49.724011
1503.000000	49.977543
1502.000000	50.304926
1501.000000	50.694704
1500.000000	51.090509
1499.000000	51.482051
1498.000000	51.888723
1497.000000	52.301012
1496.000000	52.666884
1495.000000	52.944887
1494.000000	53.155471
1493.000000	53.347841
1492.000000	53.553668
1491.000000	53.790715
1490.000000	54.074299
1489.000000	54.394157
1488.000000	54.716664
1487.000000	55.015375
1486.000000	55.275277
1485.000000	55.478516
1484.000000	55.628728
1483.000000	55.768795
1482.000000	55.925214
1481.000000	56.076249
1480.000000	56.190905
1479.000000	56.267867
1478.000000	56.305494
1477.000000	56.286657
1476.000000	56.221369
1475.000000	56.158975
1474.000000	56.127611
1473.000000	56.100908
1472.000000	56.050172
1471.000000	55.959705
1470.000000	55.809780
1469.000000	55.589636
1468.000000	55.303274
1467.000000	54.954954
1466.000000	54.520773
1465.000000	53.966640
1464.000000	53.334014
1463.000000	52.716231
1462.000000	52.149408
1461.000000	51.614506
1460.000000	51.104079
1459.000000	50.616396
1458.000000	50.079922
1457.000000	49.396445
1456.000000	48.593136
1455.000000	47.785633
1454.000000	47.003433
1453.000000	46.171427
1452.000000	45.236599
1451.000000	44.210229
1450.000000	43.071948
1449.000000	41.746203
1448.000000	40.225644
1447.000000	38.612766
1446.000000	36.968372
1445.000000	35.249936
1444.000000	33.431830
1443.000000	31.530342
1442.000000	29.538923
1441.000000	27.473767
1440.000000	25.423022
1439.000000	23.403978
1438.000000	21.224217
1437.000000	18.727563
1436.000000	16.212540
1435.000000	14.143551
1434.000000	12.548826
1433.000000	11.198667
1432.000000	10.015120
1431.000000	9.055657
1430.000000	8.324511
1429.000000	7.784285
1428.000000	7.483217
1427.000000	7.475000
1426.000000	7.713552
1425.000000	8.150190
1424.000000	8.815559
1423.000000	9.698711
1422.000000	10.701069
1421.000000	11.808150
1420.000000	13.155585
1419.000000	14.778658
1418.000000	16.435484
1417.000000	17.930945
1416.000000	19.346667
1415.000000	20.804103
1414.000000	22.292964
1413.000000	23.772573
1412.000000	25.270930
1411.000000	26.810851
1410.000000	28.335104
1409.000000	29.786684
1408.000000	31.180343
1407.000000	32.551690
1406.000000	33.911801
1405.000000	35.263376
1404.000000	36.595102
1403.000000	37.857418
1402.000000	39.021406
1401.000000	40.142353
1400.000000	41.298133
1399.000000	42.472589
1398.000000	43.575485
1397.000000	44.595205
1396.000000	45.620527
1395.000000	46.704073
1394.000000	47.787631
1393.000000	48.787273
1392.000000	49.692288
1391.000000	50.537491
1390.000000	51.351829
1389.000000	52.160553
1388.000000	52.974864
1387.000000	53.757166
1386.000000	54.443861
1385.000000	55.014248
1384.000000	55.487876
1383.000000	55.864894
1382.000000	56.121701
1381.000000	56.244970
1380.000000	56.223778
1379.000000	56.027355
1378.000000	55.622760
1377.000000	54.992006
1376.000000	54.103833
1375.000000	52.918135
1374.000000	51.454478
1373.000000	49.815937
1372.000000	48.125559
1371.000000	46.491232
1370.000000	45.048407
1369.000000	43.984776
1368.000000	43.477217
1367.000000	43.588376
1366.000000	44.258459
1365.000000	45.387771
1364.000000	46.886045
1363.000000	48.647071
1362.000000	50.507542
1361.000000	52.282085
1360.000000	53.838232
1359.000000	55.111168
1358.000000	56.073696
1357.000000	56.716303
1356.000000	57.035369
1355.000000	57.033354
1354.000000	56.726331
1353.000000	56.135846
1352.000000	55.273444
1351.000000	54.135768
1350.000000	52.721692
1349.000000	51.042657
1348.000000	49.112682
1347.000000	46.947875
1346.000000	44.573259
1345.000000	42.026982
1344.000000	39.362311
1343.000000	36.632697
1342.000000	33.873260
1341.000000	31.118715
1340.000000	28.460510
1339.000000	26.065768
1338.000000	24.100942
1337.000000	22.638770
1336.000000	21.651334
1335.000000	21.043807
1334.000000	20.661374
1333.000000	20.308878
1332.000000	19.800328
1331.000000	19.002477
1330.000000	17.851825
1329.000000	16.356608
1328.000000	14.596853
1327.000000	12.707667
1326.000000	10.836104
1325.000000	9.104805
1324.000000	7.610082
1323.000000	6.421123
1322.000000	5.555221
1321.000000	4.973677
1320.000000	4.617900
1319.000000	4.427480
1318.000000	4.332895
1317.000000	4.266017
1316.000000	4.189907
1315.000000	4.104045
1314.000000	4.012429
1313.000000	3.912156
1312.000000	3.812312
1311.000000	3.734170
1310.000000	3.689367
1309.000000	3.678405
1308.000000	3.714550
1307.000000	3.824723
1306.000000	4.022713
1305.000000	4.305925
1304.000000	4.675859
1303.000000	5.138751
1302.000000	5.685634
1301.000000	6.292113
1300.000000	6.942900
1299.000000	7.633973
1298.000000	8.354191
1297.000000	9.087386
1296.000000	9.829356
1295.000000	10.585688
1294.000000	11.352834
1293.000000	12.118121
1292.000000	12.874576
1291.000000	13.618312
1290.000000	14.330892
1289.000000	14.979548
1288.000000	15.531363
1287.000000	15.954229
1286.000000	16.216801
1285.000000	16.307186
1284.000000	16.261022
1283.000000	16.164594
1282.000000	16.124555
1281.000000	16.232941
1280.000000	16.545310
1279.000000	17.065600
1278.000000	17.744844
1277.000000	18.511483
1276.000000	19.307653
1275.000000	20.099752
1274.000000	20.869776
1273.000000	21.611319
1272.000000	22.330673
1271.000000	23.035602
1270.000000	23.722473
1269.000000	24.380597
1268.000000	25.004666
1267.000000	25.594260
1266.000000	26.148004
1265.000000	26.666488
1264.000000	27.157926
1263.000000	27.635512
1262.000000	28.108882
1261.000000	28.583336
1260.000000	29.061702
1259.000000	29.540347
1258.000000	30.008389
1257.000000	30.455645
1256.000000	30.879938
1255.000000	31.284667
1254.000000	31.674104
1253.000000	32.054549
1252.000000	32.434317
1251.000000	32.818246
1250.000000	33.204043
1249.000000	33.585338
1248.000000	33.956102
1247.000000	34.311099
1246.000000	34.647110
1245.000000	34.966845
1244.000000	35.278692
1243.000000	35.591210
1242.000000	35.908993
1241.000000	36.233059
1240.000000	36.560627
1239.000000	36.882857
1238.000000	37.187614
1237.000000	37.466425
1236.000000	37.718276
1235.000000	37.949053
1234.000000	38.170360
1233.000000	38.397730
1232.000000	38.644689
1231.000000	38.915962
1230.000000	39.206223
1229.000000	39.503280
1228.000000	39.791336
1227.000000	40.054885
1226.000000	40.285708
1225.000000	40.487919
1224.000000	40.674919
1223.000000	40.863271
1222.000000	41.069822
1221.000000	41.308678
1220.000000	41.584223
1219.000000	41.886529
1218.000000	42.196034
1217.000000	42.492107
1216.000000	42.757665
1215.000000	42.983051
1214.000000	43.171924
1213.000000	43.341770
1212.000000	43.514701
1211.000000	43.707346
1210.000000	43.928345
1209.000000	44.178452
1208.000000	44.448197
1207.000000	44.719058
1206.000000	44.972513
1205.000000	45.198757
1204.000000	45.396753
1203.000000	45.571752
1202.000000	45.735872
1201.000000	45.904621
1200.000000	46.087579
1199.000000	46.282758
1198.000000	46.480099
1197.000000	46.666548
1196.000000	46.825654
1195.000000	46.941143
1194.000000	47.005162
1193.000000	47.019797
1192.000000	46.990166
1191.000000	46.918674
1190.000000	46.810136
1189.000000	46.677029
1188.000000	46.537890
1187.000000	46.415117
1186.000000	46.334028
1185.000000	46.317028
1184.000000	46.374923
1183.000000	46.506790
1182.000000	46.706549
1181.000000	46.968930
1180.000000	47.285084
1179.000000	47.637199
1178.000000	48.001660
1177.000000	48.351886
1176.000000	48.660085
1175.000000	48.905251
1174.000000	49.086430
1173.000000	49.224895
1172.000000	49.351837
1171.000000	49.496572
1170.000000	49.682314
1169.000000	49.920222
1168.000000	50.199918
1167.000000	50.491595
1166.000000	50.761582
1165.000000	50.985236
1164.000000	51.149785
1163.000000	51.257593
1162.000000	51.331730
1161.000000	51.408988
1160.000000	51.520687
1159.000000	51.681131
1158.000000	51.889401
1157.000000	52.131884
1156.000000	52.380976
1155.000000	52.602888
1154.000000	52.775881
1153.000000	52.899039
1152.000000	52.985096
1151.000000	53.053673
1150.000000	53.130482
1149.000000	53.239341
1148.000000	53.386594
1147.000000	53.558054
1146.000000	53.732309
1145.000000	53.891336
1144.000000	54.021274
1143.000000	54.116474
1142.000000	54.188273
1141.000000	54.261234
1140.000000	54.355805
1139.000000	54.478590
1138.000000	54.625987
1137.000000	54.786258
1136.000000	54.936807
1135.000000	55.051859
1134.000000	55.120978
1133.000000	55.155850
1132.000000	55.179744
1131.000000	55.218450
1130.000000	55.298393
1129.000000	55.437225
1128.000000	55.628509
1127.000000	55.841169
1126.000000	56.037265
1125.000000	56.186551
1124.000000	56.270063
1123.000000	56.286701
1122.000000	56.262651
1121.000000	56.243621
1120.000000	56.271005
1119.000000	56.366852
1118.000000	56.534345
1117.000000	56.757184
1116.000000	56.995909
1115.000000	57.199266
1114.000000	57.330337
1113.000000	57.381285
1112.000000	57.367817
1111.000000	57.322832
1110.000000	57.293350
1109.000000	57.324609
1108.000000	57.436067
1107.000000	57.614459
1106.000000	57.828000
1105.000000	58.038597
1104.000000	58.205793
1103.000000	58.299711
1102.000000	58.320901
1101.000000	58.300114
1100.000000	58.276370
1099.000000	58.281404
1098.000000	58.338502
1097.000000	58.456598
1096.000000	58.619248
1095.000000	58.790386
1094.000000	58.937971
1093.000000	59.047892
1092.000000	59.119808
1091.000000	59.164927
1090.000000	59.209664
1089.000000	59.284985
1088.000000	59.403841
1087.000000	59.554558
1086.000000	59.714967
1085.000000	59.862610
1084.000000	59.974281
1083.000000	60.034532
1082.000000	60.052336
1081.000000	60.059790
1080.000000	60.090964
1079.000000	60.167802
1078.000000	60.299957
1077.000000	60.478788
1076.000000	60.668171
1075.000000	60.816154
1074.000000	60.884353
1073.000000	60.863477
1072.000000	60.764582
1071.000000	60.612851
1070.000000	60.447252
1069.000000	60.302567
1068.000000	60.184129
1067.000000	60.062059
1066.000000	59.892563
1065.000000	59.640125
1064.000000	59.288862
1063.000000	58.857838
1062.000000	58.411546
1061.000000	58.040770
1060.000000	57.821592
1059.000000	57.794158
1058.000000	57.962494
1057.000000	58.298919
1056.000000	58.744710
1055.000000	59.221311
1054.000000	59.659435
1053.000000	60.014334
1052.000000	60.264832
1051.000000	60.416237
1050.000000	60.507474
1049.000000	60.595989
1048.000000	60.724937
1047.000000	60.907349
1046.000000	61.134831
1045.000000	61.385940
1044.000000	61.625015
1043.000000	61.814835
1042.000000	61.941256
1041.000000	62.019283
1040.000000	62.075597
1039.000000	62.136132
1038.000000	62.225916
1037.000000	62.360486
1036.000000	62.529816
1035.000000	62.702604
1034.000000	62.849765
1033.000000	62.958022
1032.000000	63.025846
1031.000000	63.064327
1030.000000	63.103455
1029.000000	63.180092
1028.000000	63.311517
1027.000000	63.486734
1026.000000	63.680123
1025.000000	63.860873
1024.000000	63.992839
1023.000000	64.048280
1022.000000	64.032145
1021.000000	63.982759
1020.000000	63.947094
1019.000000	63.963497
1018.000000	64.059044
1017.000000	64.239734
1016.000000	64.475747
1015.000000	64.709866
1014.000000	64.888055
1013.000000	64.979515
1012.000000	64.976684
1011.000000	64.898288
1010.000000	64.794867
1009.000000	64.731383
1008.000000	64.753226
1007.000000	64.871410
1006.000000	65.071543
1005.000000	65.319003
1004.000000	65.557952
1003.000000	65.729000
1002.000000	65.801729
1001.000000	65.785969
1000.000000	65.715814
999.000000	65.635407
998.000000	65.593867
997.000000	65.629577
996.000000	65.747963
995.000000	65.921202
994.000000	66.110736
993.000000	66.282236
992.000000	66.405536
991.000000	66.463366
990.000000	66.467457
989.000000	66.452798
988.000000	66.451038
987.000000	66.477928
986.000000	66.539699
985.000000	66.633358
984.000000	66.738902
983.000000	66.828279
982.000000	66.888741
981.000000	66.928865
980.000000	66.963034
979.000000	67.003342
978.000000	67.064512
977.000000	67.156930
976.000000	67.269364
975.000000	67.371171
974.000000	67.436601
973.000000	67.457203
972.000000	67.435739
971.000000	67.386176
970.000000	67.341368
969.000000	67.341837
968.000000	67.409913
967.000000	67.540653
966.000000	67.713242
965.000000	67.896281
964.000000	68.045013
963.000000	68.115852
962.000000	68.095245
961.000000	68.006955
960.000000	67.891800
959.000000	67.793299
958.000000	67.756427
957.000000	67.814338
956.000000	67.964933
955.000000	68.169676
954.000000	68.377741
953.000000	68.543432
952.000000	68.628997
951.000000	68.615578
950.000000	68.520615
949.000000	68.391853
948.000000	68.279891
947.000000	68.222095
946.000000	68.243440
945.000000	68.349487
944.000000	68.513806
943.000000	68.687659
942.000000	68.829205
941.000000	68.916104
940.000000	68.936547
939.000000	68.890427
938.000000	68.802034
937.000000	68.712431
936.000000	68.652601
935.000000	68.633232
934.000000	68.656341
933.000000	68.718410
932.000000	68.801190
931.000000	68.877495
930.000000	68.931469
929.000000	68.961977
928.000000	68.968142
927.000000	68.947251
926.000000	68.906625
925.000000	68.859066
924.000000	68.805858
923.000000	68.739366
922.000000	68.662432
921.000000	68.589228
920.000000	68.526723
919.000000	68.472077
918.000000	68.428011
917.000000	68.401692
916.000000	68.385911
915.000000	68.356511
914.000000	68.290774
913.000000	68.176232
912.000000	68.002779
911.000000	67.767709
910.000000	67.490480
909.000000	67.206833
908.000000	66.944840
907.000000	66.716719
906.000000	66.528541
905.000000	66.376362
904.000000	66.231186
903.000000	66.046996
902.000000	65.787153
901.000000	65.435350
900.000000	64.986810
899.000000	64.449881
898.000000	63.859229
897.000000	63.264889
896.000000	62.703603
895.000000	62.186216
894.000000	61.705435
893.000000	61.239323
892.000000	60.744769
891.000000	60.168963
890.000000	59.476440
889.000000	58.659397
888.000000	57.730479
887.000000	56.718007
886.000000	55.666237
885.000000	54.619766
884.000000	53.598321
883.000000	52.594338
882.000000	51.585868
881.000000	50.543563
880.000000	49.431834
879.000000	48.220590
878.000000	46.905331
877.000000	45.509062
876.000000	44.067948
875.000000	42.620106
874.000000	41.200075
873.000000	39.831184
872.000000	38.519263
871.000000	37.257829
870.000000	36.037944
869.000000	34.854453
868.000000	33.706183
867.000000	32.598962
866.000000	31.547989
865.000000	30.570377
864.000000	29.678685
863.000000	28.875574
862.000000	28.153922
861.000000	27.500834
860.000000	26.900273
859.000000	26.339699
858.000000	25.812618
857.000000	25.319260
856.000000	24.867104
855.000000	24.466270
854.000000	24.126198
853.000000	23.850855
852.000000	23.636889
851.000000	23.476720
850.000000	23.360106
849.000000	23.279339
848.000000	23.234224
847.000000	23.234634
846.000000	23.300100
845.000000	23.450704
844.000000	23.702356
843.000000	24.064843
842.000000	24.538283
841.000000	25.111415
840.000000	25.760670
839.000000	26.461255
838.000000	27.198011
837.000000	27.966207
836.000000	28.769477
835.000000	29.618406
834.000000	30.521051
833.000000	31.450345
832.000000	32.309376
831.000000	32.885412
830.000000	32.823183
829.000000	31.667229
828.000000	29.106997
827.000000	25.373076
826.000000	21.402085
825.000000	18.452891
824.000000	17.384947
823.000000	18.212340
822.000000	20.290712
821.000000	22.864197
820.000000	25.417284
819.000000	27.695081
818.000000	29.613533
817.000000	31.195607
816.000000	32.529814
815.000000	33.703467
814.000000	34.774624
813.000000	35.783216
812.000000	36.756111
811.000000	37.685873
810.000000	38.536636
809.000000	39.278999
808.000000	39.905751
807.000000	40.427783
806.000000	40.876198
805.000000	41.308510
804.000000	41.785467
803.000000	42.333556
802.000000	42.939991
801.000000	43.572710
800.000000	44.189461
799.000000	44.738958
798.000000	45.181980
797.000000	45.519615
796.000000	45.791092
795.000000	46.050416
794.000000	46.352713
793.000000	46.744936
792.000000	47.243414
791.000000	47.817515
790.000000	48.406126
789.000000	48.948698
788.000000	49.398786
787.000000	49.730986
786.000000	49.958875
785.000000	50.139620
784.000000	50.343587
783.000000	50.618196
782.000000	50.979969
781.000000	51.420309
780.000000	51.901995
779.000000	52.363369
778.000000	52.748880
777.000000	53.039461
776.000000	53.251209
775.000000	53.418768
774.000000	53.588402
773.000000	53.807361
772.000000	54.097226
771.000000	54.438421
770.000000	54.787567
769.000000	55.103617
768.000000	55.354860
767.000000	55.524370
766.000000	55.628582
765.000000	55.720489
764.000000	55.858006
763.000000	56.070737
762.000000	56.356310
761.000000	56.689302
760.000000	57.020644
759.000000	57.286872
758.000000	57.443576
757.000000	57.492532
756.000000	57.474440
755.000000	57.449217
754.000000	57.485635
753.000000	57.643269
752.000000	57.938300
751.000000	58.328133
750.000000	58.736113
749.000000	59.086144
748.000000	59.317909
747.000000	59.401040
746.000000	59.358825
745.000000	59.268264
744.000000	59.219658
743.000000	59.275795
742.000000	59.462559
741.000000	59.770328
740.000000	60.146352
739.000000	60.503998
738.000000	60.764341
737.000000	60.891693
736.000000	60.893009
735.000000	60.805879
734.000000	60.695427
733.000000	60.636427
732.000000	60.672664
731.000000	60.794840
730.000000	60.960670
729.000000	61.122690
728.000000	61.234592
727.000000	61.261001
726.000000	61.204621
725.000000	61.113132
724.000000	61.045278
723.000000	61.038403
722.000000	61.108610
721.000000	61.255850
720.000000	61.450948
719.000000	61.637940
718.000000	61.772190
717.000000	61.851010
716.000000	61.902173
715.000000	61.962788
714.000000	62.077415
713.000000	62.288493
712.000000	62.603044
711.000000	62.976430
710.000000	63.340990
709.000000	63.639513
708.000000	63.831212
707.000000	63.897647
706.000000	63.866422
705.000000	63.812981
704.000000	63.819548
703.000000	63.935249
702.000000	64.173383
701.000000	64.517267
700.000000	64.910131
699.000000	65.263845
698.000000	65.504863
697.000000	65.609671
696.000000	65.595607
695.000000	65.503777
694.000000	65.401210
693.000000	65.368041
692.000000	65.452870
691.000000	65.648839
690.000000	65.920099
689.000000	66.228254
688.000000	66.522330
687.000000	66.739316
686.000000	66.847820
685.000000	66.873962
684.000000	66.868516
683.000000	66.869079
682.000000	66.904169
681.000000	67.000069
680.000000	67.156484
679.000000	67.337122
678.000000	67.508527
677.000000	67.666731
676.000000	67.815380
675.000000	67.952781
674.000000	68.087525
673.000000	68.239307
672.000000	68.414662
671.000000	68.602834
670.000000	68.795124
669.000000	68.981869
668.000000	69.117728
667.000000	69.137234
666.000000	69.068677
665.000000	69.029988
664.000000	69.096983
663.000000	69.273250
662.000000	69.525603
661.000000	69.811566
660.000000	70.082296
659.000000	70.281527
658.000000	70.374945
657.000000	70.373067
656.000000	70.312695
655.000000	70.240203
654.000000	70.212591
653.000000	70.282784
652.000000	70.469533
651.000000	70.747312
650.000000	71.067856
649.000000	71.380812
648.000000	71.633161
647.000000	71.777806
646.000000	71.806143
645.000000	71.758936
644.000000	71.690859
643.000000	71.641923
642.000000	71.646194
641.000000	71.736569
640.000000	71.921136
639.000000	72.170571
638.000000	72.442347
637.000000	72.705379
636.000000	72.933858
635.000000	73.100677
634.000000	73.197362
633.000000	73.243311
632.000000	73.262150
631.000000	73.268130
630.000000	73.283525
629.000000	73.342388
628.000000	73.464004
627.000000	73.642750
626.000000	73.870878
625.000000	74.145466
624.000000	74.440288
623.000000	74.700084
622.000000	74.882422
621.000000	74.985640
620.000000	75.025139
619.000000	75.014989
618.000000	74.988503
617.000000	75.004382
616.000000	75.107176
615.000000	75.300519
614.000000	75.566525
613.000000	75.880864
612.000000	76.194760
611.000000	76.436308
610.000000	76.552742
609.000000	76.528479
608.000000	76.354009
607.000000	76.001806
606.000000	75.448763
605.000000	74.669237
604.000000	73.571918
603.000000	71.974341
602.000000	69.631318
601.000000	66.323140
600.000000	61.996821
599.000000	56.952764
598.000000	51.904415
597.000000	47.752672
596.000000	45.210181
595.000000	44.528708
594.000000	45.457719
593.000000	47.431756
592.000000	49.875889
591.000000	52.375696
590.000000	54.707023
589.000000	56.819342
588.000000	58.744769
587.000000	60.508945
586.000000	62.103800
585.000000	63.512483
584.000000	64.716290
583.000000	65.701551
582.000000	66.485038
581.000000	67.125895
580.000000	67.690832
579.000000	68.218031
578.000000	68.742060
577.000000	69.311759
576.000000	69.948838
575.000000	70.609614
574.000000	71.217732
573.000000	71.722743
572.000000	72.098260
571.000000	72.326516
570.000000	72.428643
569.000000	72.477268
568.000000	72.546641
567.000000	72.673328
566.000000	72.876182
565.000000	73.174347
564.000000	73.554835
563.000000	73.956580
562.000000	74.316116
561.000000	74.607365
560.000000	74.818989
559.000000	74.933949
558.000000	74.964577
557.000000	74.968162
556.000000	74.997117
555.000000	75.064789
554.000000	75.176821
553.000000	75.351894
552.000000	75.586880
551.000000	75.841034
550.000000	76.082243
549.000000	76.312747
548.000000	76.526647
547.000000	76.688505
546.000000	76.781774
545.000000	76.835824
544.000000	76.875372
543.000000	76.893958
542.000000	76.902950
541.000000	76.957030
540.000000	77.096293
539.000000	77.307089
538.000000	77.562969
537.000000	77.856107
536.000000	78.157604
535.000000	78.397860
534.000000	78.527234
533.000000	78.561977
532.000000	78.540133
531.000000	78.479923
530.000000	78.413736
529.000000	78.406487
528.000000	78.504333
527.000000	78.702347
526.000000	78.978973
525.000000	79.307113
524.000000	79.609313
523.000000	79.760421
522.000000	79.674176
521.000000	79.347529
520.000000	78.811721
519.000000	78.098902
518.000000	77.288778
517.000000	76.533758
516.000000	75.978801
515.000000	75.688624
514.000000	75.665230
513.000000	75.877399
512.000000	76.229801
511.000000	76.561311
510.000000	76.729517
509.000000	76.673630
508.000000	76.362641
507.000000	75.750559
506.000000	74.817738
505.000000	73.593375
504.000000	72.120834
503.000000	70.489650
502.000000	68.937554
501.000000	67.789561
500.000000	67.234644
499.000000	67.238509
498.000000	67.663033
497.000000	68.351057
496.000000	69.119237
495.000000	69.783114
494.000000	70.244149
493.000000	70.542235
492.000000	70.789776
491.000000	71.094250
490.000000	71.540425
489.000000	72.175245
488.000000	72.960399
487.000000	73.785000
486.000000	74.561162
485.000000	75.276665
484.000000	75.934682
483.000000	76.502778
482.000000	76.967668
481.000000	77.374402
480.000000	77.763488
479.000000	78.133447
478.000000	78.495958
477.000000	78.897621
476.000000	79.339531
475.000000	79.739176
474.000000	80.029721
473.000000	80.234134
472.000000	80.387545
471.000000	80.455097
470.000000	80.412901
469.000000	80.339995
468.000000	80.345452
467.000000	80.472976
466.000000	80.709846
465.000000	81.039739
464.000000	81.416965
463.000000	81.736961
462.000000	81.913074
461.000000	81.944655
460.000000	81.849790
459.000000	81.616155
458.000000	81.309965
457.000000	81.119758
456.000000	81.146217
455.000000	81.300257
454.000000	81.482405
453.000000	81.683701
452.000000	81.876427
451.000000	81.926374
450.000000	81.710086
449.000000	81.236483
448.000000	80.575804
447.000000	79.764253
446.000000	78.835342
445.000000	77.835497
444.000000	76.724351
443.000000	75.341847
442.000000	73.556111
441.000000	71.399769
440.000000	68.989890
439.000000	66.441411
438.000000	63.930297
437.000000	61.770153
436.000000	60.300188
435.000000	59.683103
434.000000	59.855313
433.000000	60.664304
432.000000	61.967107
431.000000	63.559920
430.000000	65.227581
429.000000	66.899002
428.000000	68.593168
427.000000	70.255893
426.000000	71.797815
425.000000	73.232674
424.000000	74.577311
423.000000	75.701599
422.000000	76.473325
421.000000	76.972866
420.000000	77.393908
419.000000	77.901854
418.000000	78.609959
417.000000	79.507727
416.000000	80.473628
415.000000	81.319542
414.000000	81.912965
413.000000	82.319272
412.000000	82.623266
411.000000	82.729941
410.000000	82.603539
409.000000	82.494108
408.000000	82.630792
407.000000	82.932628
406.000000	83.261145
405.000000	83.706415
404.000000	84.299501
403.000000	84.721578
402.000000	84.659565
401.000000	84.228175
400.000000	83.693762
