PE IR       SUBTECH     SPECTRUM    ASCII       PEDS        4.00        
   -1
23ms202, 218_nitro.asc
24/09/09
15:58:35.00
24/09/09
15:58:35.00
Administrator
Sample 1137 By Administrator Date Monday, September 09 2024
400.000000
#HDR
-1
-1
#GR
cm-1
%T
1.0
0.0
4000.000000
-1.000000
3601
8
95.609972
15.189431
#DATA
4000.000000	69.746228
3999.000000	69.776159
3998.000000	69.807923
3997.000000	69.840640
3996.000000	69.873087
3995.000000	69.903971
3994.000000	69.932484
3993.000000	69.958925
3992.000000	69.984723
3991.000000	70.011660
3990.000000	70.040703
3989.000000	70.071626
3988.000000	70.103681
3987.000000	70.136126
3986.000000	70.168017
3985.000000	70.197950
3984.000000	70.224814
3983.000000	70.248816
3982.000000	70.271445
3981.000000	70.294367
3980.000000	70.318504
3979.000000	70.344041
3978.000000	70.370968
3977.000000	70.399190
3976.000000	70.428006
3975.000000	70.455957
3974.000000	70.481748
3973.000000	70.505414
3972.000000	70.528426
3971.000000	70.552827
3970.000000	70.580037
3969.000000	70.609886
3968.000000	70.640563
3967.000000	70.669735
3966.000000	70.695750
3965.000000	70.718479
3964.000000	70.739327
3963.000000	70.760222
3962.000000	70.782563
3961.000000	70.806662
3960.000000	70.832003
3959.000000	70.858325
3958.000000	70.885865
3957.000000	70.914267
3956.000000	70.941794
3955.000000	70.966350
3954.000000	70.987057
3953.000000	71.004835
3952.000000	71.021930
3951.000000	71.041127
3950.000000	71.064404
3949.000000	71.091002
3948.000000	71.117764
3947.000000	71.141698
3946.000000	71.162564
3945.000000	71.183862
3944.000000	71.210624
3943.000000	71.244428
3942.000000	71.280846
3941.000000	71.313912
3940.000000	71.342380
3939.000000	71.370047
3938.000000	71.399762
3937.000000	71.428877
3936.000000	71.451755
3935.000000	71.466630
3934.000000	71.479045
3933.000000	71.496986
3932.000000	71.523244
3931.000000	71.553621
3930.000000	71.582129
3929.000000	71.606932
3928.000000	71.630481
3927.000000	71.656279
3926.000000	71.686105
3925.000000	71.718369
3924.000000	71.747485
3923.000000	71.767727
3922.000000	71.779491
3921.000000	71.790184
3920.000000	71.808069
3919.000000	71.835779
3918.000000	71.870182
3917.000000	71.906918
3916.000000	71.942425
3915.000000	71.974134
3914.000000	72.002177
3913.000000	72.030852
3912.000000	72.064351
3911.000000	72.101838
3910.000000	72.137450
3909.000000	72.165500
3908.000000	72.184027
3907.000000	72.193975
3906.000000	72.196648
3905.000000	72.193051
3904.000000	72.184081
3903.000000	72.171998
3902.000000	72.163646
3901.000000	72.169617
3900.000000	72.197836
3899.000000	72.245798
3898.000000	72.300073
3897.000000	72.348077
3896.000000	72.386434
3895.000000	72.419912
3894.000000	72.454691
3893.000000	72.493595
3892.000000	72.533207
3891.000000	72.566990
3890.000000	72.589376
3889.000000	72.598763
3888.000000	72.599897
3887.000000	72.605001
3886.000000	72.624403
3885.000000	72.652572
3884.000000	72.672880
3883.000000	72.680646
3882.000000	72.691547
3881.000000	72.723916
3880.000000	72.775830
3879.000000	72.826805
3878.000000	72.860569
3877.000000	72.878263
3876.000000	72.892766
3875.000000	72.915938
3874.000000	72.946138
3873.000000	72.968836
3872.000000	72.974013
3871.000000	72.971914
3870.000000	72.983077
3869.000000	73.011247
3868.000000	73.038949
3867.000000	73.052854
3866.000000	73.061882
3865.000000	73.086030
3864.000000	73.129340
3863.000000	73.176346
3862.000000	73.214035
3861.000000	73.244025
3860.000000	73.274414
3859.000000	73.312119
3858.000000	73.357432
3857.000000	73.401509
3856.000000	73.428473
3855.000000	73.428054
3854.000000	73.408702
3853.000000	73.387752
3852.000000	73.377345
3851.000000	73.385990
3850.000000	73.418270
3849.000000	73.472615
3848.000000	73.541048
3847.000000	73.610906
3846.000000	73.670818
3845.000000	73.715127
3844.000000	73.742928
3843.000000	73.758365
3842.000000	73.767184
3841.000000	73.773305
3840.000000	73.779307
3839.000000	73.787887
3838.000000	73.799840
3837.000000	73.815303
3836.000000	73.834848
3835.000000	73.859212
3834.000000	73.889386
3833.000000	73.927816
3832.000000	73.976624
3831.000000	74.032679
3830.000000	74.087924
3829.000000	74.136856
3828.000000	74.179397
3827.000000	74.218185
3826.000000	74.252110
3825.000000	74.273978
3824.000000	74.277025
3823.000000	74.268150
3822.000000	74.268062
3821.000000	74.289080
3820.000000	74.318327
3819.000000	74.336011
3818.000000	74.340466
3817.000000	74.349447
3816.000000	74.382732
3815.000000	74.438562
3814.000000	74.496142
3813.000000	74.542084
3812.000000	74.581966
3811.000000	74.626684
3810.000000	74.677191
3809.000000	74.723752
3808.000000	74.757377
3807.000000	74.778107
3806.000000	74.789178
3805.000000	74.789166
3804.000000	74.777030
3803.000000	74.763355
3802.000000	74.766795
3801.000000	74.793393
3800.000000	74.828599
3799.000000	74.859584
3798.000000	74.890952
3797.000000	74.934487
3796.000000	74.992732
3795.000000	75.054409
3794.000000	75.106991
3793.000000	75.149169
3792.000000	75.188779
3791.000000	75.231788
3790.000000	75.276651
3789.000000	75.318170
3788.000000	75.353841
3787.000000	75.384609
3786.000000	75.411994
3785.000000	75.435905
3784.000000	75.454975
3783.000000	75.468124
3782.000000	75.477592
3781.000000	75.490830
3780.000000	75.515314
3779.000000	75.550289
3778.000000	75.587155
3777.000000	75.619175
3776.000000	75.646927
3775.000000	75.675222
3774.000000	75.705785
3773.000000	75.734483
3772.000000	75.756769
3771.000000	75.774983
3770.000000	75.794380
3769.000000	75.814663
3768.000000	75.832785
3767.000000	75.851428
3766.000000	75.877598
3765.000000	75.913407
3764.000000	75.950846
3763.000000	75.978559
3762.000000	75.994249
3761.000000	76.008569
3760.000000	76.032169
3759.000000	76.061717
3758.000000	76.086772
3757.000000	76.104826
3756.000000	76.118439
3755.000000	76.126632
3754.000000	76.127840
3753.000000	76.126550
3752.000000	76.128540
3751.000000	76.129521
3750.000000	76.123159
3749.000000	76.118199
3748.000000	76.125583
3747.000000	76.141492
3746.000000	76.160787
3745.000000	76.192646
3744.000000	76.244755
3743.000000	76.304942
3742.000000	76.356606
3741.000000	76.396410
3740.000000	76.429235
3739.000000	76.456762
3738.000000	76.477054
3737.000000	76.495790
3736.000000	76.526327
3735.000000	76.571238
3734.000000	76.617270
3733.000000	76.656470
3732.000000	76.696792
3731.000000	76.746922
3730.000000	76.803693
3729.000000	76.856863
3728.000000	76.902951
3727.000000	76.948893
3726.000000	76.999549
3725.000000	77.048569
3724.000000	77.089166
3723.000000	77.125312
3722.000000	77.164672
3721.000000	77.208743
3720.000000	77.253475
3719.000000	77.294299
3718.000000	77.329450
3717.000000	77.359815
3716.000000	77.384322
3715.000000	77.399947
3714.000000	77.407334
3713.000000	77.413841
3712.000000	77.428403
3711.000000	77.453074
3710.000000	77.484885
3709.000000	77.521986
3708.000000	77.564269
3707.000000	77.612415
3706.000000	77.664847
3705.000000	77.717816
3704.000000	77.769005
3703.000000	77.819978
3702.000000	77.871453
3701.000000	77.918798
3700.000000	77.956617
3699.000000	77.984767
3698.000000	78.008359
3697.000000	78.033630
3696.000000	78.061514
3695.000000	78.086041
3694.000000	78.102971
3693.000000	78.116725
3692.000000	78.134884
3691.000000	78.157214
3690.000000	78.174275
3689.000000	78.179337
3688.000000	78.180627
3687.000000	78.195169
3686.000000	78.229963
3685.000000	78.279546
3684.000000	78.336269
3683.000000	78.394683
3682.000000	78.449561
3681.000000	78.495484
3680.000000	78.529595
3679.000000	78.547745
3678.000000	78.541859
3677.000000	78.513113
3676.000000	78.484028
3675.000000	78.474850
3674.000000	78.479100
3673.000000	78.481007
3672.000000	78.480710
3671.000000	78.500680
3670.000000	78.560935
3669.000000	78.646576
3668.000000	78.726345
3667.000000	78.790117
3666.000000	78.847017
3665.000000	78.907926
3664.000000	78.975601
3663.000000	79.044097
3662.000000	79.105174
3661.000000	79.152611
3660.000000	79.182452
3659.000000	79.192802
3658.000000	79.187288
3657.000000	79.176506
3656.000000	79.170868
3655.000000	79.171438
3654.000000	79.170986
3653.000000	79.162318
3652.000000	79.145760
3651.000000	79.128605
3650.000000	79.115685
3649.000000	79.105170
3648.000000	79.102947
3647.000000	79.123281
3646.000000	79.170215
3645.000000	79.234908
3644.000000	79.308778
3643.000000	79.388096
3642.000000	79.468574
3641.000000	79.540724
3640.000000	79.594107
3639.000000	79.626050
3638.000000	79.641426
3637.000000	79.645612
3636.000000	79.642311
3635.000000	79.637887
3634.000000	79.640265
3633.000000	79.648332
3632.000000	79.649023
3631.000000	79.631023
3630.000000	79.602328
3629.000000	79.583554
3628.000000	79.580767
3627.000000	79.588088
3626.000000	79.605489
3625.000000	79.636827
3624.000000	79.682650
3623.000000	79.736785
3622.000000	79.786226
3621.000000	79.819424
3620.000000	79.833495
3619.000000	79.831351
3618.000000	79.816462
3617.000000	79.794165
3616.000000	79.772207
3615.000000	79.760899
3614.000000	79.769378
3613.000000	79.795885
3612.000000	79.826562
3611.000000	79.848255
3610.000000	79.860585
3609.000000	79.874640
3608.000000	79.898921
3607.000000	79.930051
3606.000000	79.959772
3605.000000	79.985290
3604.000000	80.010990
3603.000000	80.043374
3602.000000	80.083630
3601.000000	80.125353
3600.000000	80.158307
3599.000000	80.173799
3598.000000	80.170918
3597.000000	80.157297
3596.000000	80.144185
3595.000000	80.140474
3594.000000	80.148577
3593.000000	80.163235
3592.000000	80.176713
3591.000000	80.183841
3590.000000	80.185901
3589.000000	80.191084
3588.000000	80.206323
3587.000000	80.226819
3586.000000	80.242214
3585.000000	80.251666
3584.000000	80.264991
3583.000000	80.292302
3582.000000	80.335405
3581.000000	80.386903
3580.000000	80.436001
3579.000000	80.474604
3578.000000	80.499467
3577.000000	80.511084
3576.000000	80.513170
3575.000000	80.511746
3574.000000	80.512757
3573.000000	80.518059
3572.000000	80.524210
3571.000000	80.524752
3570.000000	80.514644
3569.000000	80.497027
3568.000000	80.483741
3567.000000	80.484105
3566.000000	80.495404
3565.000000	80.511179
3564.000000	80.531165
3563.000000	80.560332
3562.000000	80.601809
3561.000000	80.652297
3560.000000	80.703959
3559.000000	80.749261
3558.000000	80.783525
3557.000000	80.804829
3556.000000	80.814602
3555.000000	80.817969
3554.000000	80.821596
3553.000000	80.829747
3552.000000	80.841955
3551.000000	80.855022
3550.000000	80.866583
3549.000000	80.877494
3548.000000	80.891196
3547.000000	80.909924
3546.000000	80.931206
3545.000000	80.950116
3544.000000	80.965274
3543.000000	80.980298
3542.000000	80.999422
3541.000000	81.023709
3540.000000	81.051821
3539.000000	81.081605
3538.000000	81.109902
3537.000000	81.132561
3536.000000	81.146768
3535.000000	81.153937
3534.000000	81.158485
3533.000000	81.164319
3532.000000	81.172856
3531.000000	81.183466
3530.000000	81.194471
3529.000000	81.204447
3528.000000	81.213716
3527.000000	81.224153
3526.000000	81.237102
3525.000000	81.252122
3524.000000	81.268083
3523.000000	81.284327
3522.000000	81.300765
3521.000000	81.317542
3520.000000	81.335060
3519.000000	81.353404
3518.000000	81.371522
3517.000000	81.387638
3516.000000	81.400603
3515.000000	81.410391
3514.000000	81.416805
3513.000000	81.419199
3512.000000	81.418695
3511.000000	81.418895
3510.000000	81.422189
3509.000000	81.426790
3508.000000	81.429192
3507.000000	81.428879
3506.000000	81.428926
3505.000000	81.432586
3504.000000	81.440122
3503.000000	81.448709
3502.000000	81.455136
3501.000000	81.458449
3500.000000	81.460028
3499.000000	81.460937
3498.000000	81.460096
3497.000000	81.455601
3496.000000	81.447499
3495.000000	81.438268
3494.000000	81.430333
3493.000000	81.424051
3492.000000	81.418610
3491.000000	81.413535
3490.000000	81.408171
3489.000000	81.400738
3488.000000	81.389073
3487.000000	81.371991
3486.000000	81.350184
3485.000000	81.326816
3484.000000	81.307108
3483.000000	81.295287
3482.000000	81.290188
3481.000000	81.284865
3480.000000	81.271802
3479.000000	81.248381
3478.000000	81.217251
3477.000000	81.183017
3476.000000	81.149563
3475.000000	81.119113
3474.000000	81.092691
3473.000000	81.071038
3472.000000	81.054346
3471.000000	81.040282
3470.000000	81.022792
3469.000000	80.994908
3468.000000	80.953972
3467.000000	80.903240
3466.000000	80.848609
3465.000000	80.795193
3464.000000	80.746651
3463.000000	80.704658
3462.000000	80.667087
3461.000000	80.628521
3460.000000	80.584498
3459.000000	80.534840
3458.000000	80.482293
3457.000000	80.428974
3456.000000	80.375154
3455.000000	80.320240
3454.000000	80.263411
3453.000000	80.204089
3452.000000	80.142518
3451.000000	80.079482
3450.000000	80.015162
3449.000000	79.949103
3448.000000	79.881533
3447.000000	79.813354
3446.000000	79.744605
3445.000000	79.674380
3444.000000	79.602517
3443.000000	79.530133
3442.000000	79.458126
3441.000000	79.386252
3440.000000	79.314139
3439.000000	79.241782
3438.000000	79.168049
3437.000000	79.089690
3436.000000	79.003337
3435.000000	78.908286
3434.000000	78.806762
3433.000000	78.702187
3432.000000	78.596553
3431.000000	78.488835
3430.000000	78.376059
3429.000000	78.256829
3428.000000	78.133967
3427.000000	78.012241
3426.000000	77.893915
3425.000000	77.777326
3424.000000	77.659027
3423.000000	77.535789
3422.000000	77.404658
3421.000000	77.263649
3420.000000	77.113589
3419.000000	76.958328
3418.000000	76.802681
3417.000000	76.650310
3416.000000	76.502574
3415.000000	76.357200
3414.000000	76.207905
3413.000000	76.047771
3412.000000	75.873676
3411.000000	75.686910
3410.000000	75.490015
3409.000000	75.285019
3408.000000	75.075288
3407.000000	74.866324
3406.000000	74.663153
3405.000000	74.467123
3404.000000	74.274540
3403.000000	74.077207
3402.000000	73.864280
3401.000000	73.627027
3400.000000	73.364718
3399.000000	73.085855
3398.000000	72.802865
3397.000000	72.524981
3396.000000	72.255169
3395.000000	71.991359
3394.000000	71.727723
3393.000000	71.455434
3392.000000	71.165176
3391.000000	70.851575
3390.000000	70.516931
3389.000000	70.169709
3388.000000	69.819009
3387.000000	69.469806
3386.000000	69.122616
3385.000000	68.776511
3384.000000	68.429809
3383.000000	68.078550
3382.000000	67.716487
3381.000000	67.338196
3380.000000	66.942176
3379.000000	66.530503
3378.000000	66.107047
3377.000000	65.676643
3376.000000	65.244103
3375.000000	64.812583
3374.000000	64.382308
3373.000000	63.950575
3372.000000	63.512268
3371.000000	63.060115
3370.000000	62.587904
3369.000000	62.094681
3368.000000	61.585678
3367.000000	61.068934
3366.000000	60.551269
3365.000000	60.037139
3364.000000	59.527693
3363.000000	59.019289
3362.000000	58.504724
3361.000000	57.977540
3360.000000	57.435583
3359.000000	56.880792
3358.000000	56.317133
3357.000000	55.749654
3356.000000	55.182880
3355.000000	54.618941
3354.000000	54.057098
3353.000000	53.494657
3352.000000	52.927513
3351.000000	52.350770
3350.000000	51.761842
3349.000000	51.163536
3348.000000	50.562108
3347.000000	49.962446
3346.000000	49.366220
3345.000000	48.773860
3344.000000	48.185319
3343.000000	47.598868
3342.000000	47.011778
3341.000000	46.422352
3340.000000	45.829735
3339.000000	45.232852
3338.000000	44.632338
3337.000000	44.032932
3336.000000	43.440592
3335.000000	42.857126
3334.000000	42.280038
3333.000000	41.706939
3332.000000	41.136884
3331.000000	40.568351
3330.000000	39.999621
3329.000000	39.431387
3328.000000	38.866344
3327.000000	38.306157
3326.000000	37.751874
3325.000000	37.206417
3324.000000	36.672770
3323.000000	36.150011
3322.000000	35.634043
3321.000000	35.122289
3320.000000	34.615247
3319.000000	34.113699
3318.000000	33.618554
3317.000000	33.132302
3316.000000	32.657744
3315.000000	32.195425
3314.000000	31.744380
3313.000000	31.304651
3312.000000	30.875854
3311.000000	30.454835
3310.000000	30.039187
3309.000000	29.631495
3308.000000	29.237721
3307.000000	28.862026
3306.000000	28.506162
3305.000000	28.172683
3304.000000	27.862726
3303.000000	27.572762
3302.000000	27.296738
3301.000000	27.031210
3300.000000	26.776059
3299.000000	26.531124
3298.000000	26.296879
3297.000000	26.077039
3296.000000	25.875770
3295.000000	25.693712
3294.000000	25.528797
3293.000000	25.380239
3292.000000	25.248299
3291.000000	25.130513
3290.000000	25.023356
3289.000000	24.925342
3288.000000	24.836516
3287.000000	24.756307
3286.000000	24.684585
3285.000000	24.624017
3284.000000	24.576521
3283.000000	24.539328
3282.000000	24.507595
3281.000000	24.479169
3280.000000	24.454279
3279.000000	24.432164
3278.000000	24.412095
3277.000000	24.396207
3276.000000	24.387229
3275.000000	24.384654
3274.000000	24.386001
3273.000000	24.390547
3272.000000	24.398930
3271.000000	24.410507
3270.000000	24.424399
3269.000000	24.441369
3268.000000	24.461672
3267.000000	24.483121
3266.000000	24.504118
3265.000000	24.526744
3264.000000	24.553668
3263.000000	24.583730
3262.000000	24.613921
3261.000000	24.643358
3260.000000	24.672275
3259.000000	24.699348
3258.000000	24.723714
3257.000000	24.748178
3256.000000	24.776803
3255.000000	24.810760
3254.000000	24.848994
3253.000000	24.890871
3252.000000	24.934912
3251.000000	24.977011
3250.000000	25.013588
3249.000000	25.045447
3248.000000	25.076004
3247.000000	25.107564
3246.000000	25.141696
3245.000000	25.180585
3244.000000	25.224628
3243.000000	25.270521
3242.000000	25.314812
3241.000000	25.357363
3240.000000	25.398989
3239.000000	25.438123
3238.000000	25.473053
3237.000000	25.505150
3236.000000	25.536898
3235.000000	25.568890
3234.000000	25.601604
3233.000000	25.637550
3232.000000	25.678066
3231.000000	25.720042
3230.000000	25.759142
3229.000000	25.794360
3228.000000	25.826653
3227.000000	25.855665
3226.000000	25.881106
3225.000000	25.905229
3224.000000	25.930291
3223.000000	25.955365
3222.000000	25.978523
3221.000000	26.000154
3220.000000	26.021098
3219.000000	26.039650
3218.000000	26.053858
3217.000000	26.064874
3216.000000	26.074942
3215.000000	26.083970
3214.000000	26.090802
3213.000000	26.096090
3212.000000	26.100748
3211.000000	26.103463
3210.000000	26.102705
3209.000000	26.099170
3208.000000	26.093803
3207.000000	26.085414
3206.000000	26.072911
3205.000000	26.057852
3204.000000	26.041771
3203.000000	26.023327
3202.000000	26.000852
3201.000000	25.975433
3200.000000	25.948845
3199.000000	25.920467
3198.000000	25.889257
3197.000000	25.856429
3196.000000	25.823215
3195.000000	25.788252
3194.000000	25.749881
3193.000000	25.708990
3192.000000	25.666955
3191.000000	25.622964
3190.000000	25.576359
3189.000000	25.529133
3188.000000	25.483294
3187.000000	25.437939
3186.000000	25.391513
3185.000000	25.344603
3184.000000	25.297753
3183.000000	25.249183
3182.000000	25.197702
3181.000000	25.145538
3180.000000	25.095399
3179.000000	25.047016
3178.000000	24.999246
3177.000000	24.953069
3176.000000	24.909563
3175.000000	24.867331
3174.000000	24.824909
3173.000000	24.783417
3172.000000	24.744079
3171.000000	24.705733
3170.000000	24.667523
3169.000000	24.631590
3168.000000	24.600242
3167.000000	24.572676
3166.000000	24.547337
3165.000000	24.524816
3164.000000	24.505711
3163.000000	24.488278
3162.000000	24.470967
3161.000000	24.455109
3160.000000	24.442409
3159.000000	24.432317
3158.000000	24.424393
3157.000000	24.420208
3156.000000	24.420351
3155.000000	24.422384
3154.000000	24.424685
3153.000000	24.429746
3152.000000	24.440520
3151.000000	24.456389
3150.000000	24.475384
3149.000000	24.497638
3148.000000	24.523898
3147.000000	24.553097
3146.000000	24.584492
3145.000000	24.619519
3144.000000	24.658601
3143.000000	24.698844
3142.000000	24.737553
3141.000000	24.776036
3140.000000	24.817395
3139.000000	24.863001
3138.000000	24.913543
3137.000000	24.970438
3136.000000	25.033459
3135.000000	25.099468
3134.000000	25.165801
3133.000000	25.232806
3132.000000	25.300965
3131.000000	25.368882
3130.000000	25.436650
3129.000000	25.507779
3128.000000	25.585144
3127.000000	25.667477
3126.000000	25.752402
3125.000000	25.839834
3124.000000	25.929589
3123.000000	26.018903
3122.000000	26.105643
3121.000000	26.191692
3120.000000	26.280475
3119.000000	26.373301
3118.000000	26.470660
3117.000000	26.574193
3116.000000	26.684441
3115.000000	26.798978
3114.000000	26.914942
3113.000000	27.031418
3112.000000	27.147444
3111.000000	27.260909
3110.000000	27.372018
3109.000000	27.485050
3108.000000	27.604027
3107.000000	27.728765
3106.000000	27.856960
3105.000000	27.987450
3104.000000	28.119088
3103.000000	28.249443
3102.000000	28.377419
3101.000000	28.504990
3100.000000	28.634463
3099.000000	28.766222
3098.000000	28.900895
3097.000000	29.040599
3096.000000	29.185558
3095.000000	29.332194
3094.000000	29.476693
3093.000000	29.618321
3092.000000	29.757685
3091.000000	29.894856
3090.000000	30.031263
3089.000000	30.170460
3088.000000	30.314496
3087.000000	30.461862
3086.000000	30.610704
3085.000000	30.761327
3084.000000	30.913565
3083.000000	31.064634
3082.000000	31.212203
3081.000000	31.357222
3080.000000	31.502028
3079.000000	31.648070
3078.000000	31.797243
3077.000000	31.952313
3076.000000	32.113581
3075.000000	32.277289
3074.000000	32.439269
3073.000000	32.597948
3072.000000	32.752584
3071.000000	32.901686
3070.000000	33.045630
3069.000000	33.188310
3068.000000	33.333978
3067.000000	33.484212
3066.000000	33.639028
3065.000000	33.798126
3064.000000	33.959147
3063.000000	34.117594
3062.000000	34.270709
3061.000000	34.419567
3060.000000	34.566156
3059.000000	34.711203
3058.000000	34.856231
3057.000000	35.004591
3056.000000	35.158028
3055.000000	35.314362
3054.000000	35.470258
3053.000000	35.624093
3052.000000	35.774817
3051.000000	35.921023
3050.000000	36.063185
3049.000000	36.204337
3048.000000	36.346737
3047.000000	36.490005
3046.000000	36.633909
3045.000000	36.780090
3044.000000	36.929087
3043.000000	37.078252
3042.000000	37.224695
3041.000000	37.368140
3040.000000	37.509352
3039.000000	37.648237
3038.000000	37.785404
3037.000000	37.923258
3036.000000	38.063564
3035.000000	38.205882
3034.000000	38.349732
3033.000000	38.495803
3032.000000	38.643216
3031.000000	38.788158
3030.000000	38.927512
3029.000000	39.062012
3028.000000	39.194339
3027.000000	39.326190
3026.000000	39.458830
3025.000000	39.594079
3024.000000	39.732420
3023.000000	39.871683
3022.000000	40.009218
3021.000000	40.143935
3020.000000	40.275364
3019.000000	40.402811
3018.000000	40.527086
3017.000000	40.651014
3016.000000	40.776835
3015.000000	40.904734
3014.000000	41.034780
3013.000000	41.168040
3012.000000	41.304299
3011.000000	41.440922
3010.000000	41.575324
3009.000000	41.706880
3008.000000	41.835503
3007.000000	41.960807
3006.000000	42.083895
3005.000000	42.207610
3004.000000	42.333435
3003.000000	42.459903
3002.000000	42.585264
3001.000000	42.709433
3000.000000	42.832242
2999.000000	42.952256
2998.000000	43.069197
2997.000000	43.185497
2996.000000	43.303628
2995.000000	43.423550
2994.000000	43.544227
2993.000000	43.665890
2992.000000	43.789144
2991.000000	43.913326
2990.000000	44.037146
2989.000000	44.159656
2988.000000	44.279631
2987.000000	44.395765
2986.000000	44.508599
2985.000000	44.620712
2984.000000	44.733892
2983.000000	44.847636
2982.000000	44.961225
2981.000000	45.075249
2980.000000	45.190021
2979.000000	45.304307
2978.000000	45.416984
2977.000000	45.528443
2976.000000	45.639412
2975.000000	45.750152
2974.000000	45.861752
2973.000000	45.976146
2972.000000	46.093575
2971.000000	46.211600
2970.000000	46.327813
2969.000000	46.441948
2968.000000	46.554319
2967.000000	46.664251
2966.000000	46.771426
2965.000000	46.877178
2964.000000	46.983080
2963.000000	47.089544
2962.000000	47.196791
2961.000000	47.305361
2960.000000	47.414567
2959.000000	47.522142
2958.000000	47.626593
2957.000000	47.728486
2956.000000	47.828649
2955.000000	47.927146
2954.000000	48.025025
2953.000000	48.124990
2952.000000	48.228808
2951.000000	48.335302
2950.000000	48.441880
2949.000000	48.546533
2948.000000	48.647764
2947.000000	48.744607
2946.000000	48.838100
2945.000000	48.931341
2944.000000	49.027066
2943.000000	49.126054
2942.000000	49.228122
2941.000000	49.332691
2940.000000	49.437678
2939.000000	49.539795
2938.000000	49.637172
2937.000000	49.730459
2936.000000	49.821038
2935.000000	49.909975
2934.000000	49.999258
2933.000000	50.091643
2932.000000	50.187998
2931.000000	50.286538
2930.000000	50.385440
2929.000000	50.484308
2928.000000	50.582146
2927.000000	50.676432
2926.000000	50.765795
2925.000000	50.851944
2924.000000	50.937748
2923.000000	51.024933
2922.000000	51.114497
2921.000000	51.207025
2920.000000	51.301088
2919.000000	51.393027
2918.000000	51.479808
2917.000000	51.561050
2916.000000	51.637787
2915.000000	51.711241
2914.000000	51.783797
2913.000000	51.859299
2912.000000	51.940646
2911.000000	52.027775
2910.000000	52.118447
2909.000000	52.209769
2908.000000	52.298451
2907.000000	52.381580
2906.000000	52.458547
2905.000000	52.531576
2904.000000	52.603865
2903.000000	52.678047
2902.000000	52.756275
2901.000000	52.840150
2900.000000	52.928576
2899.000000	53.017755
2898.000000	53.103322
2897.000000	53.182272
2896.000000	53.253399
2895.000000	53.317858
2894.000000	53.379977
2893.000000	53.445613
2892.000000	53.518374
2891.000000	53.598001
2890.000000	53.682123
2889.000000	53.767881
2888.000000	53.851636
2887.000000	53.929457
2886.000000	53.999598
2885.000000	54.063748
2884.000000	54.125460
2883.000000	54.188451
2882.000000	54.256243
2881.000000	54.331184
2880.000000	54.412376
2879.000000	54.495849
2878.000000	54.577959
2877.000000	54.657568
2876.000000	54.734306
2875.000000	54.806296
2874.000000	54.871378
2873.000000	54.930255
2872.000000	54.987435
2871.000000	55.048885
2870.000000	55.118542
2869.000000	55.195716
2868.000000	55.275063
2867.000000	55.349876
2866.000000	55.416456
2865.000000	55.475845
2864.000000	55.532487
2863.000000	55.591880
2862.000000	55.658447
2861.000000	55.733136
2860.000000	55.812462
2859.000000	55.891025
2858.000000	55.965341
2857.000000	56.034555
2856.000000	56.098495
2855.000000	56.157301
2854.000000	56.213357
2853.000000	56.271547
2852.000000	56.336544
2851.000000	56.410315
2850.000000	56.491610
2849.000000	56.575974
2848.000000	56.656494
2847.000000	56.727160
2846.000000	56.786826
2845.000000	56.839400
2844.000000	56.890800
2843.000000	56.946885
2842.000000	57.012898
2841.000000	57.090996
2840.000000	57.177021
2839.000000	57.261993
2838.000000	57.338620
2837.000000	57.405383
2836.000000	57.464301
2835.000000	57.517406
2834.000000	57.566995
2833.000000	57.617290
2832.000000	57.673359
2831.000000	57.738286
2830.000000	57.812028
2829.000000	57.891878
2828.000000	57.973109
2827.000000	58.050257
2826.000000	58.119576
2825.000000	58.180756
2824.000000	58.236525
2823.000000	58.291321
2822.000000	58.350229
2821.000000	58.417199
2820.000000	58.492743
2819.000000	58.573461
2818.000000	58.654236
2817.000000	58.730530
2816.000000	58.799199
2815.000000	58.859236
2814.000000	58.913035
2813.000000	58.965950
2812.000000	59.023272
2811.000000	59.087375
2810.000000	59.157497
2809.000000	59.230926
2808.000000	59.303680
2807.000000	59.371348
2806.000000	59.430857
2805.000000	59.481866
2804.000000	59.526600
2803.000000	59.569165
2802.000000	59.614803
2801.000000	59.668057
2800.000000	59.729954
2799.000000	59.797113
2798.000000	59.864028
2797.000000	59.926096
2796.000000	59.980865
2795.000000	60.028144
2794.000000	60.070235
2793.000000	60.111578
2792.000000	60.156956
2791.000000	60.209427
2790.000000	60.269498
2789.000000	60.335233
2788.000000	60.402684
2787.000000	60.467141
2786.000000	60.525117
2785.000000	60.575662
2784.000000	60.620198
2783.000000	60.661907
2782.000000	60.705058
2781.000000	60.753572
2780.000000	60.809044
2779.000000	60.870017
2778.000000	60.932941
2777.000000	60.993333
2776.000000	61.046711
2775.000000	61.090215
2774.000000	61.124438
2773.000000	61.153276
2772.000000	61.181300
2771.000000	61.211412
2770.000000	61.244430
2769.000000	61.279351
2768.000000	61.313279
2767.000000	61.342032
2766.000000	61.362195
2765.000000	61.372809
2764.000000	61.375235
2763.000000	61.372335
2762.000000	61.367920
2761.000000	61.365838
2760.000000	61.368317
2759.000000	61.375055
2758.000000	61.384141
2757.000000	61.393347
2756.000000	61.400463
2755.000000	61.403542
2754.000000	61.401795
2753.000000	61.396187
2752.000000	61.388632
2751.000000	61.380756
2750.000000	61.373205
2749.000000	61.365131
2748.000000	61.354022
2747.000000	61.336588
2746.000000	61.310510
2745.000000	61.275318
2744.000000	61.231624
2743.000000	61.180736
2742.000000	61.125292
2741.000000	61.069172
2740.000000	61.016031
2739.000000	60.968169
2738.000000	60.927048
2737.000000	60.894273
2736.000000	60.871451
2735.000000	60.859824
2734.000000	60.860937
2733.000000	60.876578
2732.000000	60.907790
2731.000000	60.954436
2730.000000	61.015549
2729.000000	61.089893
2728.000000	61.175280
2727.000000	61.268343
2726.000000	61.366024
2725.000000	61.466474
2724.000000	61.568682
2723.000000	61.671572
2722.000000	61.773809
2721.000000	61.874165
2720.000000	61.971527
2719.000000	62.065000
2718.000000	62.154285
2717.000000	62.239543
2716.000000	62.320647
2715.000000	62.397137
2714.000000	62.468808
2713.000000	62.535785
2712.000000	62.597887
2711.000000	62.654198
2710.000000	62.703897
2709.000000	62.746819
2708.000000	62.783160
2707.000000	62.813509
2706.000000	62.839140
2705.000000	62.861959
2704.000000	62.883357
2703.000000	62.903418
2702.000000	62.921539
2701.000000	62.937003
2700.000000	62.948962
2699.000000	62.956621
2698.000000	62.960182
2697.000000	62.961448
2696.000000	62.962831
2695.000000	62.966024
2694.000000	62.971668
2693.000000	62.979504
2692.000000	62.988239
2691.000000	62.995635
2690.000000	62.999558
2689.000000	62.999114
2688.000000	62.994842
2687.000000	62.988409
2686.000000	62.982383
2685.000000	62.979514
2684.000000	62.981248
2683.000000	62.986733
2682.000000	62.993421
2681.000000	62.998410
2680.000000	62.999391
2679.000000	62.995374
2678.000000	62.987538
2677.000000	62.979267
2676.000000	62.974776
2675.000000	62.977270
2674.000000	62.987943
2673.000000	63.005917
2672.000000	63.028503
2671.000000	63.052153
2670.000000	63.074051
2669.000000	63.093207
2668.000000	63.110541
2667.000000	63.128238
2666.000000	63.149010
2665.000000	63.175016
2664.000000	63.206424
2663.000000	63.240825
2662.000000	63.274058
2661.000000	63.301516
2660.000000	63.319340
2659.000000	63.325884
2658.000000	63.323025
2657.000000	63.316009
2656.000000	63.311282
2655.000000	63.313829
2654.000000	63.325781
2653.000000	63.346140
2652.000000	63.371120
2651.000000	63.395414
2650.000000	63.414557
2649.000000	63.427125
2648.000000	63.435746
2647.000000	63.446507
2646.000000	63.467047
2645.000000	63.503961
2644.000000	63.559869
2643.000000	63.632436
2642.000000	63.715463
2641.000000	63.800798
2640.000000	63.880575
2639.000000	63.949473
2638.000000	64.006922
2637.000000	64.057422
2636.000000	64.108195
2635.000000	64.165693
2634.000000	64.232949
2633.000000	64.308380
2632.000000	64.386036
2631.000000	64.457485
2630.000000	64.514804
2629.000000	64.553781
2628.000000	64.575577
2627.000000	64.586199
2626.000000	64.594484
2625.000000	64.608993
2624.000000	64.635139
2623.000000	64.673342
2622.000000	64.718755
2621.000000	64.762803
2620.000000	64.795947
2619.000000	64.811466
2618.000000	64.808441
2617.000000	64.792118
2616.000000	64.771536
2615.000000	64.755757
2614.000000	64.750599
2613.000000	64.756688
2612.000000	64.768901
2611.000000	64.778247
2610.000000	64.775378
2609.000000	64.754496
2608.000000	64.715992
2607.000000	64.666874
2606.000000	64.618817
2605.000000	64.584324
2604.000000	64.572349
2603.000000	64.585455
2602.000000	64.619669
2601.000000	64.665983
2600.000000	64.713349
2599.000000	64.752869
2598.000000	64.781353
2597.000000	64.802790
2596.000000	64.825963
2595.000000	64.860530
2594.000000	64.913483
2593.000000	64.986394
2592.000000	65.074448
2591.000000	65.167636
2590.000000	65.254280
2589.000000	65.325328
2588.000000	65.377554
2587.000000	65.414791
2586.000000	65.446648
2585.000000	65.484921
2584.000000	65.539020
2583.000000	65.612476
2582.000000	65.702028
2581.000000	65.799034
2580.000000	65.892474
2579.000000	65.972953
2578.000000	66.036341
2577.000000	66.085357
2576.000000	66.128107
2575.000000	66.174627
2574.000000	66.233237
2573.000000	66.307725
2572.000000	66.395765
2571.000000	66.489279
2570.000000	66.577220
2569.000000	66.649733
2568.000000	66.702021
2567.000000	66.735893
2566.000000	66.758702
2565.000000	66.780374
2564.000000	66.809327
2563.000000	66.849120
2562.000000	66.896716
2561.000000	66.943318
2560.000000	66.977682
2559.000000	66.989903
2558.000000	66.975306
2557.000000	66.936350
2556.000000	66.882098
2555.000000	66.825611
2554.000000	66.779991
2553.000000	66.754894
2552.000000	66.754107
2551.000000	66.775218
2550.000000	66.811292
2549.000000	66.854479
2548.000000	66.899174
2547.000000	66.943889
2546.000000	66.991618
2545.000000	67.047649
2544.000000	67.117052
2543.000000	67.201628
2542.000000	67.298111
2541.000000	67.398717
2540.000000	67.493543
2539.000000	67.574127
2538.000000	67.636410
2537.000000	67.682218
2536.000000	67.718582
2535.000000	67.755170
2534.000000	67.800556
2533.000000	67.858856
2532.000000	67.928292
2531.000000	68.001881
2530.000000	68.070473
2529.000000	68.126244
2528.000000	68.165667
2527.000000	68.190770
2526.000000	68.208395
2525.000000	68.227828
2524.000000	68.257374
2523.000000	68.301045
2522.000000	68.356955
2521.000000	68.418079
2520.000000	68.475031
2519.000000	68.519646
2518.000000	68.548125
2517.000000	68.562692
2516.000000	68.570619
2515.000000	68.581223
2514.000000	68.602360
2513.000000	68.637965
2512.000000	68.686811
2511.000000	68.742496
2510.000000	68.795387
2509.000000	68.836446
2508.000000	68.861107
2507.000000	68.870978
2506.000000	68.872907
2505.000000	68.876495
2504.000000	68.890681
2503.000000	68.920051
2502.000000	68.962873
2501.000000	69.012122
2500.000000	69.058679
2499.000000	69.094617
2498.000000	69.115591
2497.000000	69.122440
2496.000000	69.121210
2495.000000	69.120842
2494.000000	69.129505
2493.000000	69.151715
2492.000000	69.187160
2491.000000	69.230784
2490.000000	69.274140
2489.000000	69.308541
2488.000000	69.328665
2487.000000	69.334575
2486.000000	69.331264
2485.000000	69.326832
2484.000000	69.329748
2483.000000	69.345573
2482.000000	69.374488
2481.000000	69.411390
2480.000000	69.448483
2479.000000	69.478436
2478.000000	69.496543
2477.000000	69.502077
2476.000000	69.498862
2475.000000	69.494011
2474.000000	69.494972
2473.000000	69.506488
2472.000000	69.529033
2471.000000	69.559074
2470.000000	69.590659
2469.000000	69.617823
2468.000000	69.636574
2467.000000	69.645889
2466.000000	69.647816
2465.000000	69.647025
2464.000000	69.649295
2463.000000	69.658931
2462.000000	69.676785
2461.000000	69.700432
2460.000000	69.725851
2459.000000	69.748898
2458.000000	69.766211
2457.000000	69.776440
2456.000000	69.781150
2455.000000	69.784115
2454.000000	69.789274
2453.000000	69.799158
2452.000000	69.814432
2451.000000	69.833909
2450.000000	69.854919
2449.000000	69.874535
2448.000000	69.890972
2447.000000	69.904010
2446.000000	69.914465
2445.000000	69.923867
2444.000000	69.934224
2443.000000	69.947079
2442.000000	69.962371
2441.000000	69.978618
2440.000000	69.994241
2439.000000	70.008506
2438.000000	70.021459
2437.000000	70.033696
2436.000000	70.046233
2435.000000	70.060045
2434.000000	70.075389
2433.000000	70.091711
2432.000000	70.107996
2431.000000	70.122956
2430.000000	70.135368
2429.000000	70.145138
2428.000000	70.154083
2427.000000	70.165123
2426.000000	70.180389
2425.000000	70.200157
2424.000000	70.222981
2423.000000	70.246194
2422.000000	70.266582
2421.000000	70.281727
2420.000000	70.291309
2419.000000	70.297178
2418.000000	70.302375
2417.000000	70.310295
2416.000000	70.323939
2415.000000	70.344682
2414.000000	70.371172
2413.000000	70.399631
2412.000000	70.425385
2411.000000	70.444525
2410.000000	70.455309
2409.000000	70.459327
2408.000000	70.461278
2407.000000	70.466837
2406.000000	70.480101
2405.000000	70.502526
2404.000000	70.532878
2403.000000	70.567158
2402.000000	70.599292
2401.000000	70.623624
2400.000000	70.637788
2399.000000	70.643566
2398.000000	70.645673
2397.000000	70.650176
2396.000000	70.662755
2395.000000	70.686367
2394.000000	70.719660
2393.000000	70.757863
2392.000000	70.795044
2391.000000	70.825827
2390.000000	70.846702
2389.000000	70.857613
2388.000000	70.863039
2387.000000	70.870249
2386.000000	70.885890
2385.000000	70.913781
2384.000000	70.953566
2383.000000	71.001258
2382.000000	71.050190
2381.000000	71.093826
2380.000000	71.128804
2379.000000	71.154890
2378.000000	71.174803
2377.000000	71.193649
2376.000000	71.217901
2375.000000	71.252094
2374.000000	71.296574
2373.000000	71.347796
2372.000000	71.400337
2371.000000	71.448453
2370.000000	71.487288
2369.000000	71.515899
2368.000000	71.537891
2367.000000	71.558556
2366.000000	71.582482
2365.000000	71.612954
2364.000000	71.653927
2363.000000	71.702948
2362.000000	71.751944
2361.000000	71.797099
2360.000000	71.835886
2359.000000	71.868915
2358.000000	71.898063
2357.000000	71.924263
2356.000000	71.954839
2355.000000	71.990534
2354.000000	72.033210
2353.000000	72.081994
2352.000000	72.136000
2351.000000	72.190815
2350.000000	72.231759
2349.000000	72.253545
2348.000000	72.265371
2347.000000	72.289096
2346.000000	72.340766
2345.000000	72.407369
2344.000000	72.471465
2343.000000	72.518032
2342.000000	72.553913
2341.000000	72.586530
2340.000000	72.616443
2339.000000	72.645442
2338.000000	72.675040
2337.000000	72.711075
2336.000000	72.752491
2335.000000	72.800441
2334.000000	72.849313
2333.000000	72.899259
2332.000000	72.942510
2331.000000	72.984076
2330.000000	73.017782
2329.000000	73.051719
2328.000000	73.084111
2327.000000	73.121599
2326.000000	73.166124
2325.000000	73.216667
2324.000000	73.271279
2323.000000	73.322730
2322.000000	73.366526
2321.000000	73.400584
2320.000000	73.426484
2319.000000	73.452360
2318.000000	73.480624
2317.000000	73.518233
2316.000000	73.563195
2315.000000	73.619554
2314.000000	73.678183
2313.000000	73.734774
2312.000000	73.778468
2311.000000	73.811662
2310.000000	73.834128
2309.000000	73.854036
2308.000000	73.875308
2307.000000	73.906729
2306.000000	73.949185
2305.000000	74.002011
2304.000000	74.057690
2303.000000	74.111531
2302.000000	74.155518
2301.000000	74.187015
2300.000000	74.204840
2299.000000	74.217182
2298.000000	74.231189
2297.000000	74.255105
2296.000000	74.291218
2295.000000	74.339833
2294.000000	74.394867
2293.000000	74.447860
2292.000000	74.490744
2291.000000	74.520036
2290.000000	74.536606
2289.000000	74.544749
2288.000000	74.552544
2287.000000	74.568692
2286.000000	74.598744
2285.000000	74.641675
2284.000000	74.692717
2283.000000	74.744991
2282.000000	74.791250
2281.000000	74.825094
2280.000000	74.844955
2279.000000	74.855185
2278.000000	74.863339
2277.000000	74.876914
2276.000000	74.901438
2275.000000	74.939385
2274.000000	74.987679
2273.000000	75.038786
2272.000000	75.084476
2271.000000	75.119584
2270.000000	75.142420
2269.000000	75.154791
2268.000000	75.162325
2267.000000	75.172819
2266.000000	75.191992
2265.000000	75.221349
2264.000000	75.259075
2263.000000	75.301205
2262.000000	75.341791
2261.000000	75.374327
2260.000000	75.395811
2259.000000	75.407709
2258.000000	75.413995
2257.000000	75.418798
2256.000000	75.426334
2255.000000	75.439931
2254.000000	75.459210
2253.000000	75.480103
2252.000000	75.497553
2251.000000	75.508360
2250.000000	75.510492
2249.000000	75.503293
2248.000000	75.488350
2247.000000	75.469328
2246.000000	75.448911
2245.000000	75.427395
2244.000000	75.404143
2243.000000	75.378524
2242.000000	75.349019
2241.000000	75.313603
2240.000000	75.271979
2239.000000	75.226266
2238.000000	75.179089
2237.000000	75.132420
2236.000000	75.088507
2235.000000	75.049795
2234.000000	75.017364
2233.000000	74.990760
2232.000000	74.970074
2231.000000	74.956480
2230.000000	74.950450
2229.000000	74.950956
2228.000000	74.956701
2227.000000	74.966461
2226.000000	74.977540
2225.000000	74.986033
2224.000000	74.989434
2223.000000	74.987932
2222.000000	74.982984
2221.000000	74.976516
2220.000000	74.971865
2219.000000	74.973194
2218.000000	74.982472
2217.000000	74.997808
2216.000000	75.014964
2215.000000	75.029253
2214.000000	75.036277
2213.000000	75.033569
2212.000000	75.023010
2211.000000	75.010433
2210.000000	75.002024
2209.000000	75.001850
2208.000000	75.011966
2207.000000	75.032020
2206.000000	75.057533
2205.000000	75.080636
2204.000000	75.094295
2203.000000	75.095752
2202.000000	75.086536
2201.000000	75.071411
2200.000000	75.057692
2199.000000	75.052986
2198.000000	75.061448
2197.000000	75.082022
2196.000000	75.109659
2195.000000	75.136838
2194.000000	75.154747
2193.000000	75.156558
2192.000000	75.141637
2191.000000	75.115987
2190.000000	75.088362
2189.000000	75.066815
2188.000000	75.057445
2187.000000	75.062642
2186.000000	75.078749
2185.000000	75.097183
2184.000000	75.109271
2183.000000	75.109996
2182.000000	75.098300
2181.000000	75.077170
2180.000000	75.054219
2179.000000	75.039529
2178.000000	75.040607
2177.000000	75.059307
2176.000000	75.092679
2175.000000	75.134466
2174.000000	75.175904
2173.000000	75.208425
2172.000000	75.228041
2171.000000	75.236924
2170.000000	75.240906
2169.000000	75.246973
2168.000000	75.262281
2167.000000	75.291829
2166.000000	75.334843
2165.000000	75.384611
2164.000000	75.432798
2163.000000	75.473238
2162.000000	75.502493
2161.000000	75.520262
2160.000000	75.530755
2159.000000	75.541644
2158.000000	75.559899
2157.000000	75.588853
2156.000000	75.628302
2155.000000	75.674870
2154.000000	75.721961
2153.000000	75.762304
2152.000000	75.792337
2151.000000	75.813462
2150.000000	75.829241
2149.000000	75.843447
2148.000000	75.860487
2147.000000	75.884366
2146.000000	75.915605
2145.000000	75.950760
2144.000000	75.985592
2143.000000	76.017394
2142.000000	76.044697
2141.000000	76.067439
2140.000000	76.088336
2139.000000	76.111854
2138.000000	76.140776
2137.000000	76.174968
2136.000000	76.213020
2135.000000	76.252760
2134.000000	76.290414
2133.000000	76.322418
2132.000000	76.349030
2131.000000	76.374186
2130.000000	76.401277
2129.000000	76.431319
2128.000000	76.464670
2127.000000	76.501176
2126.000000	76.537853
2125.000000	76.569472
2124.000000	76.592893
2123.000000	76.609138
2122.000000	76.621424
2121.000000	76.633707
2120.000000	76.651142
2119.000000	76.678250
2118.000000	76.715034
2117.000000	76.756716
2116.000000	76.797682
2115.000000	76.833689
2114.000000	76.861009
2113.000000	76.877768
2112.000000	76.887541
2111.000000	76.898635
2110.000000	76.918272
2109.000000	76.949113
2108.000000	76.990386
2107.000000	77.038424
2106.000000	77.085223
2105.000000	77.120479
2104.000000	77.137865
2103.000000	77.138238
2102.000000	77.126933
2101.000000	77.111273
2100.000000	77.100325
2099.000000	77.102495
2098.000000	77.119907
2097.000000	77.146393
2096.000000	77.171842
2095.000000	77.186288
2094.000000	77.181528
2093.000000	77.154272
2092.000000	77.110584
2091.000000	77.064512
2090.000000	77.030385
2089.000000	77.016868
2088.000000	77.026603
2087.000000	77.056715
2086.000000	77.097626
2085.000000	77.135388
2084.000000	77.158791
2083.000000	77.164462
2082.000000	77.155887
2081.000000	77.141545
2080.000000	77.134073
2079.000000	77.146582
2078.000000	77.185371
2077.000000	77.246502
2076.000000	77.319835
2075.000000	77.393087
2074.000000	77.454019
2073.000000	77.493529
2072.000000	77.511274
2071.000000	77.517219
2070.000000	77.525147
2069.000000	77.546237
2068.000000	77.587759
2067.000000	77.652926
2066.000000	77.737888
2065.000000	77.830369
2064.000000	77.914666
2063.000000	77.979107
2062.000000	78.019993
2061.000000	78.042243
2060.000000	78.058203
2059.000000	78.082715
2058.000000	78.126170
2057.000000	78.191321
2056.000000	78.274745
2055.000000	78.367773
2054.000000	78.457014
2053.000000	78.528751
2052.000000	78.576227
2051.000000	78.602546
2050.000000	78.616709
2049.000000	78.629622
2048.000000	78.653271
2047.000000	78.697273
2046.000000	78.762301
2045.000000	78.839345
2044.000000	78.916707
2043.000000	78.985484
2042.000000	79.039432
2041.000000	79.075416
2040.000000	79.097086
2039.000000	79.114946
2038.000000	79.140517
2037.000000	79.181431
2036.000000	79.241047
2035.000000	79.317935
2034.000000	79.404175
2033.000000	79.487935
2032.000000	79.560021
2031.000000	79.616792
2030.000000	79.658708
2029.000000	79.689539
2028.000000	79.718268
2027.000000	79.755662
2026.000000	79.807332
2025.000000	79.872130
2024.000000	79.946144
2023.000000	80.024894
2022.000000	80.100012
2021.000000	80.161091
2020.000000	80.203958
2019.000000	80.234375
2018.000000	80.262318
2017.000000	80.295388
2016.000000	80.337931
2015.000000	80.392262
2014.000000	80.457880
2013.000000	80.531156
2012.000000	80.607352
2011.000000	80.681293
2010.000000	80.747263
2009.000000	80.801670
2008.000000	80.847086
2007.000000	80.889886
2006.000000	80.935068
2005.000000	80.985974
2004.000000	81.046086
2003.000000	81.118142
2002.000000	81.198272
2001.000000	81.278666
2000.000000	81.353483
1999.000000	81.419951
1998.000000	81.476708
1997.000000	81.522531
1996.000000	81.559644
1995.000000	81.594645
1994.000000	81.635544
1993.000000	81.688394
1992.000000	81.754271
1991.000000	81.826082
1990.000000	81.892799
1989.000000	81.949327
1988.000000	81.998779
1987.000000	82.043633
1986.000000	82.080138
1985.000000	82.106618
1984.000000	82.131483
1983.000000	82.166823
1982.000000	82.215104
1981.000000	82.270840
1980.000000	82.329294
1979.000000	82.386954
1978.000000	82.437364
1977.000000	82.473261
1976.000000	82.495575
1975.000000	82.512381
1974.000000	82.530444
1973.000000	82.553058
1972.000000	82.584287
1971.000000	82.626439
1970.000000	82.673908
1969.000000	82.717656
1968.000000	82.755820
1967.000000	82.791366
1966.000000	82.820804
1965.000000	82.837706
1964.000000	82.846994
1963.000000	82.862801
1962.000000	82.892228
1961.000000	82.931011
1960.000000	82.973751
1959.000000	83.018284
1958.000000	83.059028
1957.000000	83.087779
1956.000000	83.104765
1955.000000	83.118236
1954.000000	83.133685
1953.000000	83.150799
1952.000000	83.172821
1951.000000	83.206316
1950.000000	83.247831
1949.000000	83.286306
1948.000000	83.316800
1947.000000	83.341813
1946.000000	83.360727
1945.000000	83.369712
1944.000000	83.374180
1943.000000	83.388236
1942.000000	83.415692
1941.000000	83.444713
1940.000000	83.468314
1939.000000	83.492393
1938.000000	83.518414
1937.000000	83.536468
1936.000000	83.540953
1935.000000	83.540379
1934.000000	83.547110
1933.000000	83.564701
1932.000000	83.593093
1931.000000	83.633134
1930.000000	83.677387
1929.000000	83.714749
1928.000000	83.737728
1927.000000	83.746425
1926.000000	83.740962
1925.000000	83.722465
1924.000000	83.708356
1923.000000	83.721389
1922.000000	83.764204
1921.000000	83.819362
1920.000000	83.874237
1919.000000	83.925615
1918.000000	83.960278
1917.000000	83.956021
1916.000000	83.912785
1915.000000	83.862022
1914.000000	83.837302
1913.000000	83.846573
1912.000000	83.880528
1911.000000	83.931455
1910.000000	83.991496
1909.000000	84.046072
1908.000000	84.076516
1907.000000	84.077173
1906.000000	84.055420
1905.000000	84.022055
1904.000000	83.995069
1903.000000	83.992864
1902.000000	84.023714
1901.000000	84.082011
1900.000000	84.151309
1899.000000	84.212447
1898.000000	84.246561
1897.000000	84.239879
1896.000000	84.198445
1895.000000	84.145771
1894.000000	84.105055
1893.000000	84.089684
1892.000000	84.108459
1891.000000	84.165638
1890.000000	84.248818
1889.000000	84.322976
1888.000000	84.352456
1887.000000	84.329779
1886.000000	84.271921
1885.000000	84.199593
1884.000000	84.133085
1883.000000	84.093397
1882.000000	84.095519
1881.000000	84.141799
1880.000000	84.218873
1879.000000	84.302690
1878.000000	84.365458
1877.000000	84.382467
1876.000000	84.347876
1875.000000	84.280449
1874.000000	84.209212
1873.000000	84.162058
1872.000000	84.161670
1871.000000	84.216724
1870.000000	84.310948
1869.000000	84.407228
1868.000000	84.465797
1867.000000	84.464020
1866.000000	84.407109
1865.000000	84.317497
1864.000000	84.221767
1863.000000	84.146210
1862.000000	84.111576
1861.000000	84.127615
1860.000000	84.189512
1859.000000	84.277122
1858.000000	84.357794
1857.000000	84.398184
1856.000000	84.380799
1855.000000	84.313293
1854.000000	84.217910
1853.000000	84.125577
1852.000000	84.064898
1851.000000	84.053073
1850.000000	84.095010
1849.000000	84.175900
1848.000000	84.271240
1847.000000	84.357450
1846.000000	84.410836
1845.000000	84.400161
1844.000000	84.308281
1843.000000	84.163583
1842.000000	84.023967
1841.000000	83.941569
1840.000000	83.938690
1839.000000	84.001780
1838.000000	84.084541
1837.000000	84.136136
1836.000000	84.134337
1835.000000	84.084737
1834.000000	84.006124
1833.000000	83.923502
1832.000000	83.860744
1831.000000	83.836099
1830.000000	83.855444
1829.000000	83.893967
1828.000000	83.921121
1827.000000	83.932623
1826.000000	83.926703
1825.000000	83.881929
1824.000000	83.783182
1823.000000	83.652427
1822.000000	83.533735
1821.000000	83.459424
1820.000000	83.436091
1819.000000	83.453775
1818.000000	83.490435
1817.000000	83.517985
1816.000000	83.516467
1815.000000	83.474430
1814.000000	83.393141
1813.000000	83.287523
1812.000000	83.185815
1811.000000	83.118050
1810.000000	83.089629
1809.000000	83.090168
1808.000000	83.112551
1807.000000	83.146005
1806.000000	83.167139
1805.000000	83.151778
1804.000000	83.098967
1803.000000	83.026350
1802.000000	82.957629
1801.000000	82.909798
1800.000000	82.885412
1799.000000	82.878621
1798.000000	82.879959
1797.000000	82.887672
1796.000000	82.906613
1795.000000	82.933995
1794.000000	82.948530
1793.000000	82.918481
1792.000000	82.839106
1791.000000	82.741065
1790.000000	82.654527
1789.000000	82.600687
1788.000000	82.586985
1787.000000	82.599275
1786.000000	82.604727
1785.000000	82.574553
1784.000000	82.507282
1783.000000	82.414621
1782.000000	82.315842
1781.000000	82.231799
1780.000000	82.171809
1779.000000	82.136762
1778.000000	82.115088
1777.000000	82.097339
1776.000000	82.079403
1775.000000	82.063286
1774.000000	82.048507
1773.000000	82.017574
1772.000000	81.954430
1771.000000	81.860691
1770.000000	81.750659
1769.000000	81.652875
1768.000000	81.594225
1767.000000	81.564265
1766.000000	81.526559
1765.000000	81.467256
1764.000000	81.405390
1763.000000	81.355411
1762.000000	81.304585
1761.000000	81.233953
1760.000000	81.156030
1759.000000	81.104523
1758.000000	81.085274
1757.000000	81.072411
1756.000000	81.027432
1755.000000	80.938548
1754.000000	80.824351
1753.000000	80.712788
1752.000000	80.623061
1751.000000	80.561437
1750.000000	80.513919
1749.000000	80.459272
1748.000000	80.400415
1747.000000	80.339366
1746.000000	80.263837
1745.000000	80.160321
1744.000000	80.046020
1743.000000	79.958363
1742.000000	79.901560
1741.000000	79.844298
1740.000000	79.773524
1739.000000	79.704707
1738.000000	79.640912
1737.000000	79.579044
1736.000000	79.526280
1735.000000	79.454975
1734.000000	79.297424
1733.000000	79.042543
1732.000000	78.761609
1731.000000	78.537512
1730.000000	78.395295
1729.000000	78.306649
1728.000000	78.227502
1727.000000	78.136026
1726.000000	78.023552
1725.000000	77.868736
1724.000000	77.669506
1723.000000	77.467412
1722.000000	77.298103
1721.000000	77.163616
1720.000000	77.047820
1719.000000	76.935263
1718.000000	76.810439
1717.000000	76.657180
1716.000000	76.465115
1715.000000	76.238980
1714.000000	75.983328
1713.000000	75.702415
1712.000000	75.422281
1711.000000	75.178469
1710.000000	74.988766
1709.000000	74.849171
1708.000000	74.737175
1707.000000	74.622806
1706.000000	74.480806
1705.000000	74.302639
1704.000000	74.113582
1703.000000	73.960389
1702.000000	73.865187
1701.000000	73.733916
1700.000000	73.448935
1699.000000	73.061084
1698.000000	72.689485
1697.000000	72.415009
1696.000000	72.241107
1695.000000	72.064300
1694.000000	71.802797
1693.000000	71.482244
1692.000000	71.157741
1691.000000	70.865909
1690.000000	70.604952
1689.000000	70.367610
1688.000000	70.162532
1687.000000	70.019468
1686.000000	69.945149
1685.000000	69.857615
1684.000000	69.673332
1683.000000	69.375407
1682.000000	68.992781
1681.000000	68.608370
1680.000000	68.294665
1679.000000	68.081778
1678.000000	67.947921
1677.000000	67.847048
1676.000000	67.728121
1675.000000	67.551403
1674.000000	67.313879
1673.000000	67.042918
1672.000000	66.777483
1671.000000	66.536288
1670.000000	66.291311
1669.000000	66.007788
1668.000000	65.700005
1667.000000	65.426435
1666.000000	65.220256
1665.000000	65.059350
1664.000000	64.899550
1663.000000	64.705121
1662.000000	64.458860
1661.000000	64.163523
1660.000000	63.847583
1659.000000	63.564271
1658.000000	63.346453
1657.000000	63.184141
1656.000000	63.063238
1655.000000	62.989818
1654.000000	62.926067
1653.000000	62.756846
1652.000000	62.439751
1651.000000	62.079561
1650.000000	61.766865
1649.000000	61.487426
1648.000000	61.230233
1647.000000	60.996911
1646.000000	60.773737
1645.000000	60.522289
1644.000000	60.259523
1643.000000	60.017584
1642.000000	59.803238
1641.000000	59.605343
1640.000000	59.409851
1639.000000	59.224082
1638.000000	59.059060
1637.000000	58.907677
1636.000000	58.745974
1635.000000	58.548704
1634.000000	58.303505
1633.000000	58.034124
1632.000000	57.787784
1631.000000	57.592518
1630.000000	57.435280
1629.000000	57.273967
1628.000000	57.092169
1627.000000	56.912327
1626.000000	56.758392
1625.000000	56.627013
1624.000000	56.502996
1623.000000	56.383376
1622.000000	56.263457
1621.000000	56.132361
1620.000000	55.997786
1619.000000	55.888203
1618.000000	55.817937
1617.000000	55.759991
1616.000000	55.677243
1615.000000	55.569317
1614.000000	55.462158
1613.000000	55.374574
1612.000000	55.316815
1611.000000	55.287259
1610.000000	55.270513
1609.000000	55.246612
1608.000000	55.210512
1607.000000	55.173774
1606.000000	55.145726
1605.000000	55.124446
1604.000000	55.108118
1603.000000	55.109773
1602.000000	55.135296
1601.000000	55.167962
1600.000000	55.192085
1599.000000	55.211093
1598.000000	55.230902
1597.000000	55.244411
1596.000000	55.248759
1595.000000	55.257874
1594.000000	55.281768
1593.000000	55.311420
1592.000000	55.338086
1591.000000	55.369279
1590.000000	55.410889
1589.000000	55.451314
1588.000000	55.478294
1587.000000	55.498261
1586.000000	55.519794
1585.000000	55.539695
1584.000000	55.551092
1583.000000	55.559727
1582.000000	55.577471
1581.000000	55.595752
1580.000000	55.595657
1579.000000	55.581697
1578.000000	55.585105
1577.000000	55.622004
1576.000000	55.667655
1575.000000	55.680605
1574.000000	55.649233
1573.000000	55.600571
1572.000000	55.572738
1571.000000	55.586003
1570.000000	55.616822
1569.000000	55.618705
1568.000000	55.569373
1567.000000	55.509333
1566.000000	55.490751
1565.000000	55.518852
1564.000000	55.565233
1563.000000	55.619832
1562.000000	55.720303
1561.000000	55.910559
1560.000000	56.137708
1559.000000	56.364842
1558.000000	56.541821
1557.000000	56.550248
1556.000000	56.500791
1555.000000	56.528467
1554.000000	56.663443
1553.000000	56.830305
1552.000000	56.968664
1551.000000	57.102080
1550.000000	57.270188
1549.000000	57.455669
1548.000000	57.621047
1547.000000	57.778091
1546.000000	57.970435
1545.000000	58.216108
1544.000000	58.497909
1543.000000	58.795654
1542.000000	59.099289
1541.000000	59.407002
1540.000000	59.719462
1539.000000	59.972125
1538.000000	60.109978
1537.000000	60.191750
1536.000000	60.305762
1535.000000	60.524534
1534.000000	60.869183
1533.000000	61.265949
1532.000000	61.599923
1531.000000	61.857662
1530.000000	62.102997
1529.000000	62.367284
1528.000000	62.646779
1527.000000	62.950183
1526.000000	63.290435
1525.000000	63.647375
1524.000000	64.003037
1523.000000	64.404237
1522.000000	64.917391
1521.000000	65.488764
1520.000000	65.952686
1519.000000	66.259941
1518.000000	66.506300
1517.000000	66.780568
1516.000000	67.091392
1515.000000	67.406958
1514.000000	67.741852
1513.000000	68.129665
1512.000000	68.559968
1511.000000	68.983853
1510.000000	69.365214
1509.000000	69.712129
1508.000000	70.080816
1507.000000	70.559366
1506.000000	71.050046
1505.000000	71.350944
1504.000000	71.523376
1503.000000	71.724788
1502.000000	72.041490
1501.000000	72.463635
1500.000000	72.911768
1499.000000	73.310473
1498.000000	73.635521
1497.000000	73.890255
1496.000000	74.089184
1495.000000	74.264537
1494.000000	74.454821
1493.000000	74.689290
1492.000000	74.983387
1491.000000	75.334165
1490.000000	75.707342
1489.000000	76.032027
1488.000000	76.251297
1487.000000	76.380325
1486.000000	76.459862
1485.000000	76.520856
1484.000000	76.592556
1483.000000	76.714153
1482.000000	76.908237
1481.000000	77.142785
1480.000000	77.366860
1479.000000	77.556044
1478.000000	77.697606
1477.000000	77.760200
1476.000000	77.738886
1475.000000	77.678740
1474.000000	77.624847
1473.000000	77.583721
1472.000000	77.539401
1471.000000	77.476689
1470.000000	77.385596
1469.000000	77.263463
1468.000000	77.109941
1467.000000	76.907591
1466.000000	76.595679
1465.000000	76.121877
1464.000000	75.535051
1463.000000	74.967696
1462.000000	74.500883
1461.000000	74.124348
1460.000000	73.800327
1459.000000	73.476461
1458.000000	73.036235
1457.000000	72.340217
1456.000000	71.438398
1455.000000	70.510608
1454.000000	69.601306
1453.000000	68.636544
1452.000000	67.599890
1451.000000	66.530105
1450.000000	65.393743
1449.000000	64.080047
1448.000000	62.555814
1447.000000	60.903127
1446.000000	59.170215
1445.000000	57.328023
1444.000000	55.363295
1443.000000	53.302370
1442.000000	51.145805
1441.000000	48.912534
1440.000000	46.682180
1439.000000	44.445644
1438.000000	41.954451
1437.000000	38.988360
1436.000000	35.867270
1435.000000	33.155775
1434.000000	30.927976
1433.000000	28.952518
1432.000000	27.164162
1431.000000	25.655249
1430.000000	24.458402
1429.000000	23.562120
1428.000000	23.052421
1427.000000	23.000053
1426.000000	23.343969
1425.000000	24.023048
1424.000000	25.051724
1423.000000	26.360980
1422.000000	27.783126
1421.000000	29.302705
1420.000000	31.097839
1419.000000	33.193950
1418.000000	35.256641
1417.000000	37.040413
1416.000000	38.670555
1415.000000	40.325553
1414.000000	42.013655
1413.000000	43.687634
1412.000000	45.368432
1411.000000	47.072841
1410.000000	48.736137
1409.000000	50.299637
1408.000000	51.792961
1407.000000	53.267923
1406.000000	54.737684
1405.000000	56.203299
1404.000000	57.651334
1403.000000	59.028171
1402.000000	60.299937
1401.000000	61.517407
1400.000000	62.750874
1399.000000	63.970351
1398.000000	65.075674
1397.000000	66.062468
1396.000000	67.043437
1395.000000	68.091416
1394.000000	69.152484
1393.000000	70.145034
1392.000000	71.061807
1391.000000	71.930969
1390.000000	72.760854
1389.000000	73.549233
1388.000000	74.287124
1387.000000	74.944062
1386.000000	75.489766
1385.000000	75.945248
1384.000000	76.362952
1383.000000	76.763958
1382.000000	77.123260
1381.000000	77.398293
1380.000000	77.543705
1379.000000	77.507372
1378.000000	77.249603
1377.000000	76.754495
1376.000000	75.999000
1375.000000	74.950374
1374.000000	73.628952
1373.000000	72.131279
1372.000000	70.572158
1371.000000	69.047911
1370.000000	67.670464
1369.000000	66.599478
1368.000000	65.994156
1367.000000	65.924292
1366.000000	66.354361
1365.000000	67.204379
1364.000000	68.389025
1363.000000	69.804402
1362.000000	71.301004
1361.000000	72.718155
1360.000000	73.949108
1359.000000	74.944792
1358.000000	75.681869
1357.000000	76.149351
1356.000000	76.346047
1355.000000	76.285344
1354.000000	76.000907
1353.000000	75.527570
1352.000000	74.878705
1351.000000	74.036620
1350.000000	72.967318
1349.000000	71.641053
1348.000000	70.032168
1347.000000	68.131429
1346.000000	65.956119
1345.000000	63.551825
1344.000000	60.986876
1343.000000	58.326673
1342.000000	55.608845
1341.000000	52.861960
1340.000000	50.169875
1339.000000	47.698511
1338.000000	45.621435
1337.000000	44.024141
1336.000000	42.891104
1335.000000	42.132154
1334.000000	41.586593
1333.000000	41.045745
1332.000000	40.307815
1331.000000	39.222416
1330.000000	37.703782
1329.000000	35.734531
1328.000000	33.372736
1327.000000	30.745687
1326.000000	28.014876
1325.000000	25.343026
1324.000000	22.894619
1323.000000	20.823841
1322.000000	19.221174
1321.000000	18.084754
1320.000000	17.355248
1319.000000	16.939325
1318.000000	16.711386
1317.000000	16.544807
1316.000000	16.365100
1315.000000	16.162414
1314.000000	15.944098
1313.000000	15.713715
1312.000000	15.492192
1311.000000	15.316299
1310.000000	15.211237
1309.000000	15.189431
1308.000000	15.280931
1307.000000	15.530632
1306.000000	15.958233
1305.000000	16.554392
1304.000000	17.308324
1303.000000	18.208855
1302.000000	19.221733
1301.000000	20.294014
1300.000000	21.390349
1299.000000	22.496846
1298.000000	23.597543
1297.000000	24.675846
1296.000000	25.733149
1295.000000	26.782674
1294.000000	27.825001
1293.000000	28.848848
1292.000000	29.847944
1291.000000	30.817890
1290.000000	31.736373
1289.000000	32.566772
1288.000000	33.277055
1287.000000	33.837719
1286.000000	34.217700
1285.000000	34.402432
1284.000000	34.425812
1283.000000	34.375655
1282.000000	34.362813
1281.000000	34.486835
1280.000000	34.813019
1279.000000	35.353183
1278.000000	36.061328
1277.000000	36.867054
1276.000000	37.716414
1275.000000	38.581373
1274.000000	39.446401
1273.000000	40.302171
1272.000000	41.148138
1271.000000	41.981380
1270.000000	42.785037
1269.000000	43.537376
1268.000000	44.229618
1267.000000	44.866101
1266.000000	45.456317
1265.000000	46.015470
1264.000000	46.566644
1263.000000	47.132275
1262.000000	47.720297
1261.000000	48.323972
1260.000000	48.928165
1259.000000	49.509998
1258.000000	50.044468
1257.000000	50.518803
1256.000000	50.941658
1255.000000	51.336090
1254.000000	51.727891
1253.000000	52.140992
1252.000000	52.592943
1251.000000	53.085187
1250.000000	53.598768
1249.000000	54.103060
1248.000000	54.569283
1247.000000	54.977828
1246.000000	55.323619
1245.000000	55.621321
1244.000000	55.902165
1243.000000	56.200583
1242.000000	56.540876
1241.000000	56.931741
1240.000000	57.364317
1239.000000	57.811057
1238.000000	58.234149
1237.000000	58.601829
1236.000000	58.900248
1235.000000	59.136164
1234.000000	59.334999
1233.000000	59.534997
1232.000000	59.773992
1231.000000	60.073827
1230.000000	60.432825
1229.000000	60.828262
1228.000000	61.224100
1227.000000	61.581178
1226.000000	61.871657
1225.000000	62.091549
1224.000000	62.261084
1223.000000	62.415483
1222.000000	62.594581
1221.000000	62.831590
1220.000000	63.139937
1219.000000	63.505452
1218.000000	63.892666
1217.000000	64.259597
1216.000000	64.569999
1215.000000	64.803746
1214.000000	64.966514
1213.000000	65.090174
1212.000000	65.219052
1211.000000	65.392164
1210.000000	65.632304
1209.000000	65.940744
1208.000000	66.294289
1207.000000	66.650546
1206.000000	66.964994
1205.000000	67.209504
1204.000000	67.379079
1203.000000	67.490998
1202.000000	67.581914
1201.000000	67.696660
1200.000000	67.868928
1199.000000	68.107566
1198.000000	68.396549
1197.000000	68.701884
1196.000000	68.977293
1195.000000	69.176931
1194.000000	69.274120
1193.000000	69.270107
1192.000000	69.187334
1191.000000	69.056866
1190.000000	68.913608
1189.000000	68.791533
1188.000000	68.714651
1187.000000	68.692494
1186.000000	68.723300
1185.000000	68.798168
1184.000000	68.901895
1183.000000	69.019148
1182.000000	69.144434
1181.000000	69.288915
1180.000000	69.472522
1179.000000	69.710376
1178.000000	70.005551
1177.000000	70.344071
1176.000000	70.694278
1175.000000	71.016422
1174.000000	71.281575
1173.000000	71.482757
1172.000000	71.631172
1171.000000	71.749425
1170.000000	71.868355
1169.000000	72.018387
1168.000000	72.213927
1167.000000	72.447829
1166.000000	72.700019
1165.000000	72.947066
1164.000000	73.165850
1163.000000	73.340834
1162.000000	73.475036
1161.000000	73.588776
1160.000000	73.704724
1159.000000	73.838414
1158.000000	73.999207
1157.000000	74.188931
1156.000000	74.395155
1155.000000	74.594767
1154.000000	74.770256
1153.000000	74.918180
1152.000000	75.042830
1151.000000	75.151756
1150.000000	75.258910
1149.000000	75.380677
1148.000000	75.522203
1147.000000	75.673850
1146.000000	75.822555
1145.000000	75.959513
1144.000000	76.077877
1143.000000	76.174745
1142.000000	76.259750
1141.000000	76.352257
1140.000000	76.465312
1139.000000	76.598046
1138.000000	76.742481
1137.000000	76.887985
1136.000000	77.018234
1135.000000	77.116240
1134.000000	77.179589
1133.000000	77.224473
1132.000000	77.273309
1131.000000	77.345033
1130.000000	77.454627
1129.000000	77.607349
1128.000000	77.787925
1127.000000	77.963805
1126.000000	78.104847
1125.000000	78.196196
1124.000000	78.237137
1123.000000	78.241811
1122.000000	78.243705
1121.000000	78.284512
1120.000000	78.389761
1119.000000	78.557194
1118.000000	78.764896
1117.000000	78.979350
1116.000000	79.157956
1115.000000	79.262359
1114.000000	79.282485
1113.000000	79.244128
1112.000000	79.192784
1111.000000	79.176276
1110.000000	79.235740
1109.000000	79.391124
1108.000000	79.624308
1107.000000	79.882112
1106.000000	80.102725
1105.000000	80.238904
1104.000000	80.267186
1103.000000	80.196914
1102.000000	80.077897
1101.000000	79.983452
1100.000000	79.975631
1099.000000	80.081149
1098.000000	80.291664
1097.000000	80.566488
1096.000000	80.836328
1095.000000	81.025461
1094.000000	81.089735
1093.000000	81.035788
1092.000000	80.910086
1091.000000	80.781092
1090.000000	80.724486
1089.000000	80.797277
1088.000000	81.008004
1087.000000	81.311368
1086.000000	81.632222
1085.000000	81.892461
1084.000000	82.028675
1083.000000	82.013873
1082.000000	81.878714
1081.000000	81.702904
1080.000000	81.577211
1079.000000	81.569366
1078.000000	81.709150
1077.000000	81.977761
1076.000000	82.303803
1075.000000	82.586354
1074.000000	82.741039
1073.000000	82.732025
1072.000000	82.573399
1071.000000	82.321638
1070.000000	82.064342
1069.000000	81.886903
1068.000000	81.831887
1067.000000	81.882582
1066.000000	81.979380
1065.000000	82.044917
1064.000000	82.005812
1063.000000	81.823611
1062.000000	81.523342
1061.000000	81.187870
1060.000000	80.917363
1059.000000	80.795317
1058.000000	80.870471
1057.000000	81.143876
1056.000000	81.559998
1055.000000	82.020743
1054.000000	82.424720
1053.000000	82.697811
1052.000000	82.806168
1051.000000	82.766939
1050.000000	82.653095
1049.000000	82.565977
1048.000000	82.585901
1047.000000	82.742865
1046.000000	83.018945
1045.000000	83.359641
1044.000000	83.682806
1043.000000	83.905661
1042.000000	83.984574
1041.000000	83.932484
1040.000000	83.802571
1039.000000	83.667673
1038.000000	83.604064
1037.000000	83.665457
1036.000000	83.854403
1035.000000	84.123145
1034.000000	84.401830
1033.000000	84.624592
1032.000000	84.741424
1031.000000	84.734894
1030.000000	84.636750
1029.000000	84.516269
1028.000000	84.442604
1027.000000	84.458393
1026.000000	84.576566
1025.000000	84.779948
1024.000000	85.018546
1023.000000	85.226351
1022.000000	85.355329
1021.000000	85.392931
1020.000000	85.353853
1019.000000	85.272662
1018.000000	85.200971
1017.000000	85.188806
1016.000000	85.255980
1015.000000	85.386662
1014.000000	85.548245
1013.000000	85.706091
1012.000000	85.825148
1011.000000	85.880788
1010.000000	85.877039
1009.000000	85.844521
1008.000000	85.816641
1007.000000	85.815604
1006.000000	85.855270
1005.000000	85.938512
1004.000000	86.047698
1003.000000	86.151972
1002.000000	86.230446
1001.000000	86.280936
1000.000000	86.309196
999.000000	86.323528
998.000000	86.339742
997.000000	86.374780
996.000000	86.430364
995.000000	86.492416
994.000000	86.548026
993.000000	86.593028
992.000000	86.624987
991.000000	86.644219
990.000000	86.663189
989.000000	86.700880
988.000000	86.763658
987.000000	86.841326
986.000000	86.919883
985.000000	86.986878
984.000000	87.026566
983.000000	87.027310
982.000000	86.998435
981.000000	86.968297
980.000000	86.962949
979.000000	86.995112
978.000000	87.069430
977.000000	87.180032
976.000000	87.300305
975.000000	87.390148
974.000000	87.422137
973.000000	87.394087
972.000000	87.321503
971.000000	87.232398
970.000000	87.167831
969.000000	87.166782
968.000000	87.241491
967.000000	87.371848
966.000000	87.521524
965.000000	87.650157
964.000000	87.717027
963.000000	87.695982
962.000000	87.597320
961.000000	87.465657
960.000000	87.353019
959.000000	87.300126
958.000000	87.333218
957.000000	87.454548
956.000000	87.629440
955.000000	87.796624
954.000000	87.900676
953.000000	87.912558
952.000000	87.830145
951.000000	87.678879
950.000000	87.513698
949.000000	87.399629
948.000000	87.379146
947.000000	87.457429
946.000000	87.610975
945.000000	87.794160
944.000000	87.943104
943.000000	87.998233
942.000000	87.938580
941.000000	87.789454
940.000000	87.600292
939.000000	87.427092
938.000000	87.325839
937.000000	87.334151
936.000000	87.446488
935.000000	87.614576
934.000000	87.774670
933.000000	87.870857
932.000000	87.863896
931.000000	87.743720
930.000000	87.542710
929.000000	87.324275
928.000000	87.151242
927.000000	87.065584
926.000000	87.085159
925.000000	87.195229
924.000000	87.341120
923.000000	87.448306
922.000000	87.461712
921.000000	87.363661
920.000000	87.165394
919.000000	86.902606
918.000000	86.636626
917.000000	86.433864
916.000000	86.331791
915.000000	86.325762
914.000000	86.381107
913.000000	86.445118
912.000000	86.453214
911.000000	86.351138
910.000000	86.124687
909.000000	85.803621
908.000000	85.438680
907.000000	85.084803
906.000000	84.795339
905.000000	84.603261
904.000000	84.496719
903.000000	84.423828
902.000000	84.321989
901.000000	84.138746
900.000000	83.836661
899.000000	83.405278
898.000000	82.877360
897.000000	82.316563
896.000000	81.784191
895.000000	81.318048
894.000000	80.928883
893.000000	80.597348
892.000000	80.269467
891.000000	79.874858
890.000000	79.360447
889.000000	78.706877
888.000000	77.925361
887.000000	77.053994
886.000000	76.153301
885.000000	75.282709
884.000000	74.468624
883.000000	73.699369
882.000000	72.938214
881.000000	72.133916
880.000000	71.229615
879.000000	70.183550
878.000000	68.994642
877.000000	67.702007
876.000000	66.363509
875.000000	65.037394
874.000000	63.769543
873.000000	62.580462
872.000000	61.457280
871.000000	60.364172
870.000000	59.263029
869.000000	58.128854
868.000000	56.957243
867.000000	55.769958
866.000000	54.612063
865.000000	53.532259
864.000000	52.565755
863.000000	51.725891
862.000000	51.003681
861.000000	50.370896
860.000000	49.785971
859.000000	49.210616
858.000000	48.623260
857.000000	48.024339
856.000000	47.435568
855.000000	46.891272
854.000000	46.428238
853.000000	46.071163
852.000000	45.824308
851.000000	45.675201
850.000000	45.598684
849.000000	45.564972
848.000000	45.551250
847.000000	45.554931
846.000000	45.599351
845.000000	45.718281
844.000000	45.942979
843.000000	46.297149
842.000000	46.791186
841.000000	47.414937
840.000000	48.134146
839.000000	48.908555
838.000000	49.711633
837.000000	50.531489
836.000000	51.367609
835.000000	52.231832
834.000000	53.143827
833.000000	54.095910
832.000000	55.019961
831.000000	55.731785
830.000000	55.866182
829.000000	54.858910
828.000000	52.202510
827.000000	47.986442
826.000000	43.232100
825.000000	39.508706
824.000000	38.002983
823.000000	38.848515
822.000000	41.283977
821.000000	44.351024
820.000000	47.386743
819.000000	50.070646
818.000000	52.304096
817.000000	54.118847
816.000000	55.630070
815.000000	56.953119
814.000000	58.165703
813.000000	59.317167
812.000000	60.438586
811.000000	61.516907
810.000000	62.502082
809.000000	63.351714
808.000000	64.054783
807.000000	64.626337
806.000000	65.105807
805.000000	65.563022
804.000000	66.071748
803.000000	66.663755
802.000000	67.321060
801.000000	68.001584
800.000000	68.654384
799.000000	69.222252
798.000000	69.665332
797.000000	69.994101
796.000000	70.265188
795.000000	70.547331
794.000000	70.899162
793.000000	71.359912
792.000000	71.929858
791.000000	72.555753
790.000000	73.153564
789.000000	73.651545
788.000000	74.011632
787.000000	74.234026
786.000000	74.366320
785.000000	74.498360
784.000000	74.721260
783.000000	75.081197
782.000000	75.568489
781.000000	76.131698
780.000000	76.688208
779.000000	77.142298
778.000000	77.427680
777.000000	77.545583
776.000000	77.559682
775.000000	77.562759
774.000000	77.648100
773.000000	77.883453
772.000000	78.279049
771.000000	78.775761
770.000000	79.274293
769.000000	79.679181
768.000000	79.922980
767.000000	79.983330
766.000000	79.904329
765.000000	79.791087
764.000000	79.759433
763.000000	79.882213
762.000000	80.172341
761.000000	80.589825
760.000000	81.047254
759.000000	81.430774
758.000000	81.650321
757.000000	81.683888
756.000000	81.577330
755.000000	81.419078
754.000000	81.316769
753.000000	81.365938
752.000000	81.604487
751.000000	81.990946
750.000000	82.430475
749.000000	82.819023
748.000000	83.069697
747.000000	83.135879
746.000000	83.040008
745.000000	82.874048
744.000000	82.751905
743.000000	82.757197
742.000000	82.924483
741.000000	83.237751
740.000000	83.624967
739.000000	83.974628
738.000000	84.189336
737.000000	84.232171
736.000000	84.127055
735.000000	83.938100
734.000000	83.756300
733.000000	83.674987
732.000000	83.744039
731.000000	83.943230
730.000000	84.202645
729.000000	84.438350
728.000000	84.572143
727.000000	84.554679
726.000000	84.398550
725.000000	84.181480
724.000000	84.000648
723.000000	83.926563
722.000000	83.993557
721.000000	84.200949
720.000000	84.499659
719.000000	84.799319
718.000000	85.017908
717.000000	85.125102
716.000000	85.137673
715.000000	85.099388
714.000000	85.076300
713.000000	85.140088
712.000000	85.325445
711.000000	85.607128
710.000000	85.926899
709.000000	86.226063
708.000000	86.449684
707.000000	86.556664
706.000000	86.554080
705.000000	86.506613
704.000000	86.492648
703.000000	86.557444
702.000000	86.711940
701.000000	86.945307
700.000000	87.213996
699.000000	87.445470
698.000000	87.581953
697.000000	87.616265
696.000000	87.578283
695.000000	87.509910
694.000000	87.467951
693.000000	87.515574
692.000000	87.674604
691.000000	87.902439
690.000000	88.132381
689.000000	88.318324
688.000000	88.429263
687.000000	88.439141
686.000000	88.362422
685.000000	88.272049
684.000000	88.247003
683.000000	88.317796
682.000000	88.478209
681.000000	88.710490
680.000000	88.966576
679.000000	89.164079
678.000000	89.246534
677.000000	89.223776
676.000000	89.136996
675.000000	89.038031
674.000000	88.991109
673.000000	89.056043
672.000000	89.245822
671.000000	89.520941
670.000000	89.830122
669.000000	90.123716
668.000000	90.305023
667.000000	90.275878
666.000000	90.091915
665.000000	89.890143
664.000000	89.766221
663.000000	89.765733
662.000000	89.894188
661.000000	90.119805
660.000000	90.380050
659.000000	90.599544
658.000000	90.720879
657.000000	90.727578
656.000000	90.639768
655.000000	90.515264
654.000000	90.427048
653.000000	90.426566
652.000000	90.531653
651.000000	90.728963
650.000000	90.974695
649.000000	91.202704
648.000000	91.350063
647.000000	91.385196
646.000000	91.320768
645.000000	91.205969
644.000000	91.101569
643.000000	91.057270
642.000000	91.101684
641.000000	91.236935
640.000000	91.436118
639.000000	91.649012
638.000000	91.818829
637.000000	91.905362
636.000000	91.900363
635.000000	91.828039
634.000000	91.735405
633.000000	91.673482
632.000000	91.676981
631.000000	91.757436
630.000000	91.906393
629.000000	92.096251
628.000000	92.281527
627.000000	92.414003
626.000000	92.467631
625.000000	92.449800
624.000000	92.385461
623.000000	92.302286
622.000000	92.233038
621.000000	92.213573
620.000000	92.264528
619.000000	92.379371
618.000000	92.532116
617.000000	92.689216
616.000000	92.812909
615.000000	92.869917
614.000000	92.848470
613.000000	92.762287
612.000000	92.635227
611.000000	92.493386
610.000000	92.368649
609.000000	92.284959
608.000000	92.230617
607.000000	92.148118
606.000000	91.955604
605.000000	91.561823
604.000000	90.852124
603.000000	89.686473
602.000000	87.902643
601.000000	85.351079
600.000000	81.987611
599.000000	78.031734
598.000000	74.045515
597.000000	70.786647
596.000000	68.905211
595.000000	68.671112
594.000000	69.876973
593.000000	71.979049
592.000000	74.399215
591.000000	76.722631
590.000000	78.749903
589.000000	80.477658
588.000000	81.996988
587.000000	83.390614
586.000000	84.686926
585.000000	85.874747
584.000000	86.917089
583.000000	87.769871
582.000000	88.407618
581.000000	88.846811
580.000000	89.140326
579.000000	89.353660
578.000000	89.560973
577.000000	89.833399
576.000000	90.204328
575.000000	90.644270
574.000000	91.080338
573.000000	91.442472
572.000000	91.679048
571.000000	91.761884
570.000000	91.712709
569.000000	91.607574
568.000000	91.533546
567.000000	91.549466
566.000000	91.682996
565.000000	91.934324
564.000000	92.260080
563.000000	92.574573
562.000000	92.792808
561.000000	92.875673
560.000000	92.829637
559.000000	92.689711
558.000000	92.522215
557.000000	92.414698
556.000000	92.432240
555.000000	92.584415
554.000000	92.834734
553.000000	93.123167
552.000000	93.373272
551.000000	93.508856
550.000000	93.498469
549.000000	93.374913
548.000000	93.200149
547.000000	93.034883
546.000000	92.943691
545.000000	92.985019
544.000000	93.167720
543.000000	93.435275
542.000000	93.704499
541.000000	93.908411
540.000000	93.999969
539.000000	93.953870
538.000000	93.793441
537.000000	93.594478
536.000000	93.439526
535.000000	93.381004
534.000000	93.443835
533.000000	93.629923
532.000000	93.893465
531.000000	94.141037
530.000000	94.290133
529.000000	94.313997
528.000000	94.218453
527.000000	94.019313
526.000000	93.770653
525.000000	93.567182
524.000000	93.477946
523.000000	93.497659
522.000000	93.574070
521.000000	93.642399
520.000000	93.622381
519.000000	93.428030
518.000000	93.026132
517.000000	92.480278
516.000000	91.913924
515.000000	91.446568
514.000000	91.167401
513.000000	91.126466
512.000000	91.304972
511.000000	91.606201
510.000000	91.899288
509.000000	92.068019
508.000000	92.005697
507.000000	91.626359
506.000000	90.921868
505.000000	89.970143
504.000000	88.874043
503.000000	87.750372
502.000000	86.786155
501.000000	86.196707
500.000000	86.081684
499.000000	86.373617
498.000000	86.918610
497.000000	87.546661
496.000000	88.099461
495.000000	88.466616
494.000000	88.634681
493.000000	88.696996
492.000000	88.785370
491.000000	88.999961
490.000000	89.383842
489.000000	89.924145
488.000000	90.541535
487.000000	91.112968
486.000000	91.540965
485.000000	91.800932
484.000000	91.922674
483.000000	91.963413
482.000000	92.014247
481.000000	92.176121
480.000000	92.489883
479.000000	92.909380
478.000000	93.348212
477.000000	93.733861
476.000000	94.008720
475.000000	94.119288
474.000000	94.046896
473.000000	93.842887
472.000000	93.608710
471.000000	93.441031
470.000000	93.407379
469.000000	93.547977
468.000000	93.841543
467.000000	94.186523
466.000000	94.453887
465.000000	94.569784
464.000000	94.508602
463.000000	94.269606
462.000000	93.925065
461.000000	93.622762
460.000000	93.482749
459.000000	93.528976
458.000000	93.726688
457.000000	94.022687
456.000000	94.317062
455.000000	94.483031
454.000000	94.441433
453.000000	94.189015
452.000000	93.780123
451.000000	93.297998
450.000000	92.843655
449.000000	92.525877
448.000000	92.400710
447.000000	92.409519
446.000000	92.406445
445.000000	92.238604
444.000000	91.751202
443.000000	90.790503
442.000000	89.309070
441.000000	87.445582
440.000000	85.432854
439.000000	83.486682
438.000000	81.801704
437.000000	80.588681
436.000000	80.016919
435.000000	80.093110
434.000000	80.644796
433.000000	81.451782
432.000000	82.354671
431.000000	83.236416
430.000000	84.063304
429.000000	84.938476
428.000000	85.999623
427.000000	87.269151
426.000000	88.656053
425.000000	90.050083
424.000000	91.296112
423.000000	92.173908
422.000000	92.561576
421.000000	92.546587
420.000000	92.277533
419.000000	91.944919
418.000000	91.882459
417.000000	92.279384
416.000000	93.041793
415.000000	93.926894
414.000000	94.655734
413.000000	95.047044
412.000000	95.036017
411.000000	94.616322
410.000000	93.939308
409.000000	93.352458
408.000000	93.144227
407.000000	93.345487
406.000000	93.826472
405.000000	94.519866
404.000000	95.230963
403.000000	95.609972
402.000000	95.383776
401.000000	94.619609
400.000000	93.563459
