PE IR       SUBTECH     SPECTRUM    ASCII       PEDS        4.00        
   -1
23ms083_nitro.asc
24/09/12
16:25:13.00
24/09/12
16:25:13.00
Administrator
Sample 1178 By Administrator Date Thursday, September 12 2024
400.000000
#HDR
-1
-1
#GR
cm-1
%T
1.0
0.0
4000.000000
-1.000000
3601
8
91.418097
11.892994
#DATA
4000.000000	75.841148
3999.000000	75.873713
3998.000000	75.906665
3997.000000	75.940196
3996.000000	75.974161
3995.000000	76.008624
3994.000000	76.044175
3993.000000	76.081288
3992.000000	76.119398
3991.000000	76.156811
3990.000000	76.191842
3989.000000	76.224185
3988.000000	76.254921
3987.000000	76.285246
3986.000000	76.315645
3985.000000	76.346100
3984.000000	76.376735
3983.000000	76.407853
3982.000000	76.439592
3981.000000	76.471892
3980.000000	76.504634
3979.000000	76.537964
3978.000000	76.572008
3977.000000	76.606055
3976.000000	76.638586
3975.000000	76.668037
3974.000000	76.694037
3973.000000	76.718114
3972.000000	76.742709
3971.000000	76.769730
3970.000000	76.799326
3969.000000	76.830436
3968.000000	76.862131
3967.000000	76.894016
3966.000000	76.925965
3965.000000	76.957720
3964.000000	76.988671
3963.000000	77.017658
3962.000000	77.043887
3961.000000	77.067823
3960.000000	77.091113
3959.000000	77.115809
3958.000000	77.142586
3957.000000	77.171167
3956.000000	77.201631
3955.000000	77.234191
3954.000000	77.268688
3953.000000	77.303618
3952.000000	77.336720
3951.000000	77.366144
3950.000000	77.391226
3949.000000	77.412902
3948.000000	77.433666
3947.000000	77.457534
3946.000000	77.488440
3945.000000	77.526997
3944.000000	77.568365
3943.000000	77.604692
3942.000000	77.633021
3941.000000	77.657966
3940.000000	77.684865
3939.000000	77.714725
3938.000000	77.743721
3937.000000	77.768536
3936.000000	77.791230
3935.000000	77.816196
3934.000000	77.846409
3933.000000	77.880313
3932.000000	77.914613
3931.000000	77.947273
3930.000000	77.976989
3929.000000	78.005995
3928.000000	78.038278
3927.000000	78.075910
3926.000000	78.114478
3925.000000	78.144772
3924.000000	78.164339
3923.000000	78.180413
3922.000000	78.199650
3921.000000	78.222591
3920.000000	78.247880
3919.000000	78.277091
3918.000000	78.311280
3917.000000	78.347056
3916.000000	78.380321
3915.000000	78.410305
3914.000000	78.438985
3913.000000	78.467577
3912.000000	78.495034
3911.000000	78.522105
3910.000000	78.550071
3909.000000	78.580811
3908.000000	78.617539
3907.000000	78.659112
3906.000000	78.698408
3905.000000	78.724482
3904.000000	78.736243
3903.000000	78.749547
3902.000000	78.780345
3901.000000	78.828084
3900.000000	78.876767
3899.000000	78.911165
3898.000000	78.930821
3897.000000	78.945361
3896.000000	78.962168
3895.000000	78.986377
3894.000000	79.019283
3893.000000	79.057305
3892.000000	79.089293
3891.000000	79.107122
3890.000000	79.117514
3889.000000	79.135224
3888.000000	79.170104
3887.000000	79.216694
3886.000000	79.256688
3885.000000	79.281568
3884.000000	79.302207
3883.000000	79.331319
3882.000000	79.365686
3881.000000	79.390854
3880.000000	79.400293
3879.000000	79.405255
3878.000000	79.422467
3877.000000	79.458590
3876.000000	79.506404
3875.000000	79.549546
3874.000000	79.577458
3873.000000	79.598586
3872.000000	79.628717
3871.000000	79.666022
3870.000000	79.693337
3869.000000	79.709530
3868.000000	79.731454
3867.000000	79.767825
3866.000000	79.808430
3865.000000	79.837801
3864.000000	79.855683
3863.000000	79.874356
3862.000000	79.897036
3861.000000	79.920612
3860.000000	79.946063
3859.000000	79.980763
3858.000000	80.034842
3857.000000	80.111472
3856.000000	80.199541
3855.000000	80.267340
3854.000000	80.290675
3853.000000	80.297073
3852.000000	80.321621
3851.000000	80.352194
3850.000000	80.363137
3849.000000	80.352550
3848.000000	80.334818
3847.000000	80.327727
3846.000000	80.337898
3845.000000	80.360529
3844.000000	80.387872
3843.000000	80.415782
3842.000000	80.447379
3841.000000	80.491170
3840.000000	80.543789
3839.000000	80.592202
3838.000000	80.632479
3837.000000	80.668250
3836.000000	80.700457
3835.000000	80.724697
3834.000000	80.739514
3833.000000	80.748576
3832.000000	80.755085
3831.000000	80.763417
3830.000000	80.780478
3829.000000	80.809689
3828.000000	80.845988
3827.000000	80.879276
3826.000000	80.902808
3825.000000	80.924860
3824.000000	80.959709
3823.000000	81.010093
3822.000000	81.060053
3821.000000	81.091327
3820.000000	81.111970
3819.000000	81.143208
3818.000000	81.189413
3817.000000	81.232886
3816.000000	81.256311
3815.000000	81.268074
3814.000000	81.288897
3813.000000	81.317618
3812.000000	81.336992
3811.000000	81.344089
3810.000000	81.354944
3809.000000	81.382993
3808.000000	81.421659
3807.000000	81.454297
3806.000000	81.479465
3805.000000	81.514296
3804.000000	81.567034
3803.000000	81.628267
3802.000000	81.672483
3801.000000	81.689896
3800.000000	81.702416
3799.000000	81.725895
3798.000000	81.752428
3797.000000	81.767739
3796.000000	81.771847
3795.000000	81.779553
3794.000000	81.802539
3793.000000	81.835980
3792.000000	81.867924
3791.000000	81.894540
3790.000000	81.918937
3789.000000	81.943503
3788.000000	81.969289
3787.000000	81.997802
3786.000000	82.029043
3785.000000	82.059467
3784.000000	82.086193
3783.000000	82.113539
3782.000000	82.148047
3781.000000	82.189121
3780.000000	82.227949
3779.000000	82.258855
3778.000000	82.285588
3777.000000	82.313984
3776.000000	82.342645
3775.000000	82.366976
3774.000000	82.388479
3773.000000	82.414539
3772.000000	82.449069
3771.000000	82.486803
3770.000000	82.520274
3769.000000	82.551134
3768.000000	82.585874
3767.000000	82.624091
3766.000000	82.657877
3765.000000	82.679425
3764.000000	82.692881
3763.000000	82.712097
3762.000000	82.743578
3761.000000	82.781390
3760.000000	82.816616
3759.000000	82.850600
3758.000000	82.887547
3757.000000	82.924944
3756.000000	82.961775
3755.000000	83.000507
3754.000000	83.041764
3753.000000	83.081116
3752.000000	83.116773
3751.000000	83.157872
3750.000000	83.209148
3749.000000	83.260771
3748.000000	83.308871
3747.000000	83.362567
3746.000000	83.419511
3745.000000	83.453904
3744.000000	83.459140
3743.000000	83.465228
3742.000000	83.483653
3741.000000	83.496823
3740.000000	83.494192
3739.000000	83.490107
3738.000000	83.508286
3737.000000	83.552741
3736.000000	83.610471
3735.000000	83.668093
3734.000000	83.722998
3733.000000	83.773700
3732.000000	83.811024
3731.000000	83.831151
3730.000000	83.840614
3729.000000	83.849080
3728.000000	83.862017
3727.000000	83.877585
3726.000000	83.896472
3725.000000	83.924778
3724.000000	83.964729
3723.000000	84.008989
3722.000000	84.048603
3721.000000	84.083997
3720.000000	84.117750
3719.000000	84.150178
3718.000000	84.178034
3717.000000	84.199983
3716.000000	84.223755
3715.000000	84.256887
3714.000000	84.298892
3713.000000	84.343477
3712.000000	84.387500
3711.000000	84.434976
3710.000000	84.487842
3709.000000	84.540219
3708.000000	84.582257
3707.000000	84.608892
3706.000000	84.625399
3705.000000	84.641674
3704.000000	84.664264
3703.000000	84.692285
3702.000000	84.722056
3701.000000	84.753505
3700.000000	84.788515
3699.000000	84.827149
3698.000000	84.866076
3697.000000	84.899061
3696.000000	84.923891
3695.000000	84.945753
3694.000000	84.970498
3693.000000	85.002334
3692.000000	85.043559
3691.000000	85.093230
3690.000000	85.145268
3689.000000	85.195610
3688.000000	85.244023
3687.000000	85.286082
3686.000000	85.316731
3685.000000	85.333374
3684.000000	85.335996
3683.000000	85.332177
3682.000000	85.336491
3681.000000	85.354777
3680.000000	85.382050
3679.000000	85.413146
3678.000000	85.452686
3677.000000	85.503059
3676.000000	85.551443
3675.000000	85.594253
3674.000000	85.640328
3673.000000	85.690963
3672.000000	85.735883
3671.000000	85.763893
3670.000000	85.773836
3669.000000	85.783499
3668.000000	85.808324
3667.000000	85.840129
3666.000000	85.863184
3665.000000	85.875875
3664.000000	85.887521
3663.000000	85.907988
3662.000000	85.938074
3661.000000	85.969379
3660.000000	85.997675
3659.000000	86.023413
3658.000000	86.046654
3657.000000	86.063178
3656.000000	86.072836
3655.000000	86.086029
3654.000000	86.110001
3653.000000	86.141733
3652.000000	86.172608
3651.000000	86.193418
3650.000000	86.202994
3649.000000	86.215103
3648.000000	86.243330
3647.000000	86.280058
3646.000000	86.306787
3645.000000	86.317089
3644.000000	86.317550
3643.000000	86.317274
3642.000000	86.319335
3641.000000	86.323715
3640.000000	86.331924
3639.000000	86.343366
3638.000000	86.354880
3637.000000	86.364711
3636.000000	86.375228
3635.000000	86.387730
3634.000000	86.399356
3633.000000	86.410464
3632.000000	86.424894
3631.000000	86.441347
3630.000000	86.448338
3629.000000	86.441775
3628.000000	86.440729
3627.000000	86.459471
3626.000000	86.482334
3625.000000	86.490162
3624.000000	86.484442
3623.000000	86.481194
3622.000000	86.491804
3621.000000	86.509345
3620.000000	86.515777
3619.000000	86.504550
3618.000000	86.487388
3617.000000	86.475747
3616.000000	86.470087
3615.000000	86.463696
3614.000000	86.449817
3613.000000	86.429949
3612.000000	86.414588
3611.000000	86.411720
3610.000000	86.419692
3609.000000	86.432538
3608.000000	86.445286
3607.000000	86.456914
3606.000000	86.466535
3605.000000	86.469875
3604.000000	86.464386
3603.000000	86.451032
3602.000000	86.433844
3601.000000	86.417380
3600.000000	86.405374
3599.000000	86.398927
3598.000000	86.396541
3597.000000	86.394829
3596.000000	86.392833
3595.000000	86.390065
3594.000000	86.385463
3593.000000	86.380068
3592.000000	86.374840
3591.000000	86.370027
3590.000000	86.365840
3589.000000	86.362714
3588.000000	86.360757
3587.000000	86.362400
3586.000000	86.370640
3585.000000	86.383405
3584.000000	86.394189
3583.000000	86.397829
3582.000000	86.393707
3581.000000	86.383733
3580.000000	86.370630
3579.000000	86.356674
3578.000000	86.343426
3577.000000	86.332142
3576.000000	86.323412
3575.000000	86.318074
3574.000000	86.316227
3573.000000	86.317850
3572.000000	86.322136
3571.000000	86.326520
3570.000000	86.327054
3569.000000	86.320840
3568.000000	86.307853
3567.000000	86.292946
3566.000000	86.283244
3565.000000	86.281413
3564.000000	86.284205
3563.000000	86.287870
3562.000000	86.289843
3561.000000	86.288562
3560.000000	86.283799
3559.000000	86.277119
3558.000000	86.270274
3557.000000	86.263664
3556.000000	86.256681
3555.000000	86.248899
3554.000000	86.239568
3553.000000	86.227283
3552.000000	86.212328
3551.000000	86.197460
3550.000000	86.185306
3549.000000	86.177560
3548.000000	86.174987
3547.000000	86.177135
3546.000000	86.180273
3545.000000	86.179137
3544.000000	86.171031
3543.000000	86.157075
3542.000000	86.139220
3541.000000	86.119408
3540.000000	86.100962
3539.000000	86.087283
3538.000000	86.078531
3537.000000	86.070320
3536.000000	86.058696
3535.000000	86.043452
3534.000000	86.027241
3533.000000	86.012359
3532.000000	85.999399
3531.000000	85.987708
3530.000000	85.975039
3529.000000	85.959567
3528.000000	85.942997
3527.000000	85.930496
3526.000000	85.925744
3525.000000	85.926604
3524.000000	85.926195
3523.000000	85.918509
3522.000000	85.902966
3521.000000	85.884034
3520.000000	85.866746
3519.000000	85.852015
3518.000000	85.837749
3517.000000	85.823333
3516.000000	85.811182
3515.000000	85.802330
3514.000000	85.793329
3513.000000	85.779523
3512.000000	85.759614
3511.000000	85.735383
3510.000000	85.708736
3509.000000	85.681462
3508.000000	85.656386
3507.000000	85.636376
3506.000000	85.621707
3505.000000	85.609866
3504.000000	85.597435
3503.000000	85.581563
3502.000000	85.560563
3501.000000	85.535131
3500.000000	85.508715
3499.000000	85.483966
3498.000000	85.459387
3497.000000	85.431134
3496.000000	85.398048
3495.000000	85.362580
3494.000000	85.327119
3493.000000	85.291937
3492.000000	85.256773
3491.000000	85.221914
3490.000000	85.187266
3489.000000	85.151989
3488.000000	85.115015
3487.000000	85.075074
3486.000000	85.030929
3485.000000	84.982707
3484.000000	84.933176
3483.000000	84.885962
3482.000000	84.842270
3481.000000	84.800423
3480.000000	84.757504
3479.000000	84.710802
3478.000000	84.658541
3477.000000	84.601043
3476.000000	84.540668
3475.000000	84.479477
3474.000000	84.418041
3473.000000	84.357173
3472.000000	84.299362
3471.000000	84.246223
3470.000000	84.195269
3469.000000	84.141286
3468.000000	84.080118
3467.000000	84.010309
3466.000000	83.932725
3465.000000	83.850267
3464.000000	83.767293
3463.000000	83.686983
3462.000000	83.609165
3461.000000	83.531524
3460.000000	83.452122
3459.000000	83.370092
3458.000000	83.285102
3457.000000	83.197583
3456.000000	83.109471
3455.000000	83.022412
3454.000000	82.936189
3453.000000	82.849358
3452.000000	82.761262
3451.000000	82.672309
3450.000000	82.581837
3449.000000	82.487488
3448.000000	82.387409
3447.000000	82.282413
3446.000000	82.175446
3445.000000	82.069191
3444.000000	81.964129
3443.000000	81.858626
3442.000000	81.750940
3441.000000	81.641746
3440.000000	81.534026
3439.000000	81.429405
3438.000000	81.325391
3437.000000	81.216890
3436.000000	81.100304
3435.000000	80.974778
3434.000000	80.841401
3433.000000	80.702990
3432.000000	80.563563
3431.000000	80.425642
3430.000000	80.287129
3429.000000	80.143321
3428.000000	79.992170
3427.000000	79.835593
3426.000000	79.676234
3425.000000	79.515367
3424.000000	79.353690
3423.000000	79.191160
3422.000000	79.025520
3421.000000	78.853679
3420.000000	78.675317
3419.000000	78.492988
3418.000000	78.308817
3417.000000	78.123140
3416.000000	77.936042
3415.000000	77.747492
3414.000000	77.555420
3413.000000	77.356609
3412.000000	77.150013
3411.000000	76.937327
3410.000000	76.719841
3409.000000	76.496681
3408.000000	76.266818
3407.000000	76.030565
3406.000000	75.788994
3405.000000	75.543699
3404.000000	75.296998
3403.000000	75.049926
3402.000000	74.799391
3401.000000	74.538998
3400.000000	74.263461
3399.000000	73.971736
3398.000000	73.667161
3397.000000	73.355940
3396.000000	73.043944
3395.000000	72.732760
3394.000000	72.418093
3393.000000	72.093200
3392.000000	71.753549
3391.000000	71.398044
3390.000000	71.028636
3389.000000	70.649750
3388.000000	70.266599
3387.000000	69.881417
3386.000000	69.491876
3385.000000	69.094926
3384.000000	68.690236
3383.000000	68.278732
3382.000000	67.859559
3381.000000	67.430395
3380.000000	66.989944
3379.000000	66.538169
3378.000000	66.075428
3377.000000	65.603000
3376.000000	65.122929
3375.000000	64.636769
3374.000000	64.145300
3373.000000	63.649816
3372.000000	63.151556
3371.000000	62.648268
3370.000000	62.134208
3369.000000	61.604371
3368.000000	61.057510
3367.000000	60.495103
3366.000000	59.919688
3365.000000	59.335526
3364.000000	58.747532
3363.000000	58.157841
3362.000000	57.565205
3361.000000	56.967808
3360.000000	56.364808
3359.000000	55.754610
3358.000000	55.134507
3357.000000	54.503683
3356.000000	53.863652
3355.000000	53.215802
3354.000000	52.560832
3353.000000	51.900842
3352.000000	51.238980
3351.000000	50.575903
3350.000000	49.909670
3349.000000	49.239774
3348.000000	48.568036
3347.000000	47.895203
3346.000000	47.219698
3345.000000	46.540460
3344.000000	45.857928
3343.000000	45.171816
3342.000000	44.481668
3341.000000	43.790116
3340.000000	43.101972
3339.000000	42.419270
3338.000000	41.740198
3337.000000	41.063383
3336.000000	40.389727
3335.000000	39.719638
3334.000000	39.052082
3333.000000	38.387080
3332.000000	37.725676
3331.000000	37.067320
3330.000000	36.410604
3329.000000	35.756886
3328.000000	35.110244
3327.000000	34.473350
3326.000000	33.846737
3325.000000	33.231478
3324.000000	32.628723
3323.000000	32.037273
3322.000000	31.454828
3321.000000	30.881591
3320.000000	30.319466
3319.000000	29.767956
3318.000000	29.225741
3317.000000	28.694611
3316.000000	28.178151
3315.000000	27.677284
3314.000000	27.190477
3313.000000	26.718120
3312.000000	26.262040
3311.000000	25.821591
3310.000000	25.395250
3309.000000	24.984512
3308.000000	24.593269
3307.000000	24.223399
3306.000000	23.874583
3305.000000	23.547843
3304.000000	23.243430
3303.000000	22.957914
3302.000000	22.686969
3301.000000	22.430107
3300.000000	22.189487
3299.000000	21.964741
3298.000000	21.754114
3297.000000	21.558833
3296.000000	21.381086
3295.000000	21.219932
3294.000000	21.072720
3293.000000	20.939871
3292.000000	20.823604
3291.000000	20.722243
3290.000000	20.631694
3289.000000	20.550314
3288.000000	20.478856
3287.000000	20.416694
3286.000000	20.361768
3285.000000	20.314021
3284.000000	20.273992
3283.000000	20.239799
3282.000000	20.209212
3281.000000	20.183006
3280.000000	20.162813
3279.000000	20.146988
3278.000000	20.132940
3277.000000	20.121746
3276.000000	20.115895
3275.000000	20.114332
3274.000000	20.114109
3273.000000	20.115810
3272.000000	20.123019
3271.000000	20.137109
3270.000000	20.156550
3269.000000	20.179903
3268.000000	20.205679
3267.000000	20.230787
3266.000000	20.252924
3265.000000	20.273723
3264.000000	20.296226
3263.000000	20.320573
3262.000000	20.345426
3261.000000	20.371393
3260.000000	20.399459
3259.000000	20.428022
3258.000000	20.455365
3257.000000	20.483354
3256.000000	20.514800
3255.000000	20.549062
3254.000000	20.583739
3253.000000	20.618682
3252.000000	20.654558
3251.000000	20.689574
3250.000000	20.721860
3249.000000	20.753524
3248.000000	20.788323
3247.000000	20.826734
3246.000000	20.866693
3245.000000	20.907384
3244.000000	20.948772
3243.000000	20.989185
3242.000000	21.027219
3241.000000	21.064390
3240.000000	21.102466
3239.000000	21.139768
3238.000000	21.173569
3237.000000	21.204341
3236.000000	21.234603
3235.000000	21.265513
3234.000000	21.297656
3233.000000	21.332830
3232.000000	21.371427
3231.000000	21.410043
3230.000000	21.445113
3229.000000	21.476968
3228.000000	21.507403
3227.000000	21.535762
3226.000000	21.560770
3225.000000	21.583781
3224.000000	21.606487
3223.000000	21.627790
3222.000000	21.646270
3221.000000	21.663478
3220.000000	21.681291
3219.000000	21.698263
3218.000000	21.712242
3217.000000	21.724099
3216.000000	21.735316
3215.000000	21.744376
3214.000000	21.749094
3213.000000	21.750378
3212.000000	21.749998
3211.000000	21.747023
3210.000000	21.740131
3209.000000	21.730949
3208.000000	21.721652
3207.000000	21.711344
3206.000000	21.698214
3205.000000	21.683081
3204.000000	21.667126
3203.000000	21.648638
3202.000000	21.625563
3201.000000	21.599076
3200.000000	21.571329
3199.000000	21.541724
3198.000000	21.508928
3197.000000	21.474244
3196.000000	21.439537
3195.000000	21.404118
3194.000000	21.366746
3193.000000	21.328374
3192.000000	21.289801
3191.000000	21.249036
3190.000000	21.204413
3189.000000	21.157744
3188.000000	21.111270
3187.000000	21.064145
3186.000000	21.015083
3185.000000	20.965825
3184.000000	20.918490
3183.000000	20.872242
3182.000000	20.825863
3181.000000	20.780839
3180.000000	20.738467
3179.000000	20.696650
3178.000000	20.653038
3177.000000	20.608818
3176.000000	20.566117
3175.000000	20.524402
3174.000000	20.482815
3173.000000	20.443273
3172.000000	20.407724
3171.000000	20.374971
3170.000000	20.343381
3169.000000	20.314092
3168.000000	20.288394
3167.000000	20.264616
3166.000000	20.241006
3165.000000	20.218880
3164.000000	20.199826
3163.000000	20.182764
3162.000000	20.166763
3161.000000	20.153941
3160.000000	20.146245
3159.000000	20.142147
3158.000000	20.139655
3157.000000	20.139439
3156.000000	20.142373
3155.000000	20.147217
3154.000000	20.153910
3153.000000	20.165942
3152.000000	20.185753
3151.000000	20.210973
3150.000000	20.238226
3149.000000	20.267558
3148.000000	20.300177
3147.000000	20.335043
3146.000000	20.371273
3145.000000	20.410653
3144.000000	20.454273
3143.000000	20.499884
3142.000000	20.545774
3141.000000	20.594465
3140.000000	20.649210
3139.000000	20.709530
3138.000000	20.773558
3137.000000	20.841479
3136.000000	20.913492
3135.000000	20.987445
3134.000000	21.061756
3133.000000	21.138305
3132.000000	21.219206
3131.000000	21.303643
3130.000000	21.390617
3129.000000	21.481441
3128.000000	21.576767
3127.000000	21.674107
3126.000000	21.771258
3125.000000	21.869255
3124.000000	21.969308
3123.000000	22.070406
3122.000000	22.172556
3121.000000	22.278812
3120.000000	22.391160
3119.000000	22.507524
3118.000000	22.626006
3117.000000	22.748570
3116.000000	22.877320
3115.000000	23.010478
3114.000000	23.144941
3113.000000	23.279946
3112.000000	23.415432
3111.000000	23.550266
3110.000000	23.685161
3109.000000	23.823880
3108.000000	23.968586
3107.000000	24.116847
3106.000000	24.265738
3105.000000	24.415763
3104.000000	24.568086
3103.000000	24.721645
3102.000000	24.875915
3101.000000	25.033126
3100.000000	25.194786
3099.000000	25.358699
3098.000000	25.522454
3097.000000	25.686814
3096.000000	25.852839
3095.000000	26.018948
3094.000000	26.183841
3093.000000	26.349584
3092.000000	26.518816
3091.000000	26.691310
3090.000000	26.865792
3089.000000	27.042367
3088.000000	27.220716
3087.000000	27.398741
3086.000000	27.575474
3085.000000	27.752805
3084.000000	27.931953
3083.000000	28.111077
3082.000000	28.288825
3081.000000	28.467370
3080.000000	28.649553
3079.000000	28.835517
3078.000000	29.024290
3077.000000	29.215695
3076.000000	29.408413
3075.000000	29.599203
3074.000000	29.786471
3073.000000	29.971967
3072.000000	30.156960
3071.000000	30.339860
3070.000000	30.519960
3069.000000	30.700438
3068.000000	30.884853
3067.000000	31.073132
3066.000000	31.263343
3065.000000	31.454831
3064.000000	31.647104
3063.000000	31.838131
3062.000000	32.026276
3061.000000	32.211990
3060.000000	32.395768
3059.000000	32.576819
3058.000000	32.755583
3057.000000	32.934882
3056.000000	33.116556
3055.000000	33.299369
3054.000000	33.482220
3053.000000	33.666718
3052.000000	33.854289
3051.000000	34.043151
3050.000000	34.230293
3049.000000	34.414356
3048.000000	34.594821
3047.000000	34.770824
3046.000000	34.943014
3045.000000	35.114446
3044.000000	35.287654
3043.000000	35.462799
3042.000000	35.639878
3041.000000	35.820065
3040.000000	36.002902
3039.000000	36.184882
3038.000000	36.363131
3037.000000	36.538287
3036.000000	36.711994
3035.000000	36.883906
3034.000000	37.053187
3033.000000	37.220817
3032.000000	37.388250
3031.000000	37.555749
3030.000000	37.723731
3029.000000	37.893609
3028.000000	38.065722
3027.000000	38.238531
3026.000000	38.411048
3025.000000	38.583564
3024.000000	38.754698
3023.000000	38.920818
3022.000000	39.080444
3021.000000	39.236616
3020.000000	39.393048
3019.000000	39.550308
3018.000000	39.707712
3017.000000	39.866282
3016.000000	40.027397
3015.000000	40.190601
3014.000000	40.354904
3013.000000	40.520364
3012.000000	40.686286
3011.000000	40.849771
3010.000000	41.008223
3009.000000	41.161898
3008.000000	41.312496
3007.000000	41.461112
3006.000000	41.609058
3005.000000	41.758604
3004.000000	41.910885
3003.000000	42.064478
3002.000000	42.217662
3001.000000	42.370560
3000.000000	42.523718
2999.000000	42.676212
2998.000000	42.826525
2997.000000	42.973921
2996.000000	43.117902
2995.000000	43.258278
2994.000000	43.396983
2993.000000	43.537768
2992.000000	43.682560
2991.000000	43.829792
2990.000000	43.977464
2989.000000	44.125710
2988.000000	44.274873
2987.000000	44.423232
2986.000000	44.568507
2985.000000	44.710052
2984.000000	44.848140
2983.000000	44.982933
2982.000000	45.115777
2981.000000	45.249571
2980.000000	45.386020
2979.000000	45.523958
2978.000000	45.661904
2977.000000	45.800629
2976.000000	45.941571
2975.000000	46.084248
2974.000000	46.226897
2973.000000	46.368238
2972.000000	46.507191
2971.000000	46.642336
2970.000000	46.773438
2969.000000	46.902444
2968.000000	47.031478
2967.000000	47.161018
2966.000000	47.291103
2965.000000	47.422880
2964.000000	47.557405
2963.000000	47.694048
2962.000000	47.831345
2961.000000	47.968102
2960.000000	48.102688
2959.000000	48.232884
2958.000000	48.357631
2957.000000	48.477779
2956.000000	48.594391
2955.000000	48.708198
2954.000000	48.821382
2953.000000	48.937455
2952.000000	49.057903
2951.000000	49.180759
2950.000000	49.303785
2949.000000	49.426980
2948.000000	49.550678
2947.000000	49.673407
2946.000000	49.793495
2945.000000	49.911130
2944.000000	50.027141
2943.000000	50.141291
2942.000000	50.253491
2941.000000	50.365379
2940.000000	50.479008
2939.000000	50.595103
2938.000000	50.713755
2937.000000	50.835341
2936.000000	50.959044
2935.000000	51.081705
2934.000000	51.199951
2933.000000	51.312852
2932.000000	51.421618
2931.000000	51.527950
2930.000000	51.633928
2929.000000	51.742161
2928.000000	51.854560
2927.000000	51.971662
2926.000000	52.093770
2925.000000	52.221127
2924.000000	52.351845
2923.000000	52.481173
2922.000000	52.604070
2921.000000	52.717562
2920.000000	52.820054
2919.000000	52.910460
2918.000000	52.989454
2917.000000	53.060226
2916.000000	53.126774
2915.000000	53.192258
2914.000000	53.259541
2913.000000	53.331365
2912.000000	53.408781
2911.000000	53.490391
2910.000000	53.574119
2909.000000	53.658743
2908.000000	53.743171
2907.000000	53.825855
2906.000000	53.906139
2905.000000	53.985046
2904.000000	54.064104
2903.000000	54.144003
2902.000000	54.226299
2901.000000	54.313041
2900.000000	54.405104
2899.000000	54.501379
2898.000000	54.599691
2897.000000	54.697961
2896.000000	54.793536
2895.000000	54.883428
2894.000000	54.966446
2893.000000	55.044225
2892.000000	55.119297
2891.000000	55.193355
2890.000000	55.267980
2889.000000	55.345409
2888.000000	55.427127
2887.000000	55.512643
2886.000000	55.600565
2885.000000	55.689829
2884.000000	55.779000
2883.000000	55.865714
2882.000000	55.948173
2881.000000	56.026459
2880.000000	56.101627
2879.000000	56.174727
2878.000000	56.247886
2877.000000	56.325023
2876.000000	56.409315
2875.000000	56.499788
2874.000000	56.591552
2873.000000	56.679578
2872.000000	56.762007
2871.000000	56.840399
2870.000000	56.917578
2869.000000	56.995057
2868.000000	57.071908
2867.000000	57.146122
2866.000000	57.217141
2865.000000	57.286782
2864.000000	57.358002
2863.000000	57.433300
2862.000000	57.513941
2861.000000	57.599305
2860.000000	57.686755
2859.000000	57.773455
2858.000000	57.858815
2857.000000	57.944296
2856.000000	58.030791
2855.000000	58.117560
2854.000000	58.203974
2853.000000	58.290675
2852.000000	58.378174
2851.000000	58.465081
2850.000000	58.548240
2849.000000	58.623845
2848.000000	58.688817
2847.000000	58.743026
2846.000000	58.790747
2845.000000	58.838531
2844.000000	58.891033
2843.000000	58.949436
2842.000000	59.013201
2841.000000	59.080832
2840.000000	59.148474
2839.000000	59.210918
2838.000000	59.266443
2837.000000	59.319470
2836.000000	59.376835
2835.000000	59.442206
2834.000000	59.514952
2833.000000	59.592791
2832.000000	59.673463
2831.000000	59.754441
2830.000000	59.833161
2829.000000	59.908031
2828.000000	59.978541
2827.000000	60.044765
2826.000000	60.107654
2825.000000	60.169535
2824.000000	60.233390
2823.000000	60.301628
2822.000000	60.375733
2821.000000	60.456108
2820.000000	60.541226
2819.000000	60.627418
2818.000000	60.710560
2817.000000	60.787999
2816.000000	60.858707
2815.000000	60.922644
2814.000000	60.981098
2813.000000	61.037015
2812.000000	61.093676
2811.000000	61.152961
2810.000000	61.215459
2809.000000	61.281745
2808.000000	61.352419
2807.000000	61.426856
2806.000000	61.502657
2805.000000	61.576391
2804.000000	61.644602
2803.000000	61.704777
2802.000000	61.756497
2801.000000	61.801886
2800.000000	61.844390
2799.000000	61.887122
2798.000000	61.932651
2797.000000	61.983538
2796.000000	62.041753
2795.000000	62.107288
2794.000000	62.177857
2793.000000	62.250009
2792.000000	62.320100
2791.000000	62.384621
2790.000000	62.440817
2789.000000	62.487927
2788.000000	62.527917
2787.000000	62.564889
2786.000000	62.603685
2785.000000	62.648401
2784.000000	62.701266
2783.000000	62.762297
2782.000000	62.829737
2781.000000	62.900546
2780.000000	62.970606
2779.000000	63.035433
2778.000000	63.091579
2777.000000	63.137629
2776.000000	63.174014
2775.000000	63.202366
2774.000000	63.225510
2773.000000	63.247456
2772.000000	63.272159
2771.000000	63.301912
2770.000000	63.336824
2769.000000	63.375168
2768.000000	63.413634
2767.000000	63.447574
2766.000000	63.472353
2765.000000	63.485148
2764.000000	63.485735
2763.000000	63.476154
2762.000000	63.460091
2761.000000	63.442319
2760.000000	63.427671
2759.000000	63.419619
2758.000000	63.419672
2757.000000	63.427456
2756.000000	63.440743
2755.000000	63.455605
2754.000000	63.467296
2753.000000	63.471632
2752.000000	63.465822
2751.000000	63.448796
2750.000000	63.421476
2749.000000	63.386571
2748.000000	63.347639
2747.000000	63.307923
2746.000000	63.269920
2745.000000	63.235338
2744.000000	63.204429
2743.000000	63.175560
2742.000000	63.146120
2741.000000	63.114015
2740.000000	63.078370
2739.000000	63.039579
2738.000000	62.999643
2737.000000	62.962793
2736.000000	62.935046
2735.000000	62.922642
2734.000000	62.930799
2733.000000	62.962532
2732.000000	63.017972
2731.000000	63.094645
2730.000000	63.188268
2729.000000	63.293767
2728.000000	63.405202
2727.000000	63.515996
2726.000000	63.620969
2725.000000	63.718364
2724.000000	63.810053
2723.000000	63.899655
2722.000000	63.990398
2721.000000	64.084290
2720.000000	64.182066
2719.000000	64.283136
2718.000000	64.385550
2717.000000	64.486195
2716.000000	64.581243
2715.000000	64.667063
2714.000000	64.741080
2713.000000	64.802206
2712.000000	64.850778
2711.000000	64.888235
2710.000000	64.917447
2709.000000	64.942573
2708.000000	64.967732
2707.000000	64.995514
2706.000000	65.026407
2705.000000	65.059468
2704.000000	65.092731
2703.000000	65.123071
2702.000000	65.146815
2701.000000	65.161121
2700.000000	65.165203
2699.000000	65.160384
2698.000000	65.149440
2697.000000	65.136053
2696.000000	65.123937
2695.000000	65.115931
2694.000000	65.113632
2693.000000	65.117416
2692.000000	65.126297
2691.000000	65.137655
2690.000000	65.147798
2689.000000	65.153319
2688.000000	65.152095
2687.000000	65.143419
2686.000000	65.127953
2685.000000	65.107956
2684.000000	65.087036
2683.000000	65.068951
2682.000000	65.056404
2681.000000	65.050650
2680.000000	65.051609
2679.000000	65.058003
2678.000000	65.067632
2677.000000	65.077831
2676.000000	65.085975
2675.000000	65.089919
2674.000000	65.088616
2673.000000	65.082839
2672.000000	65.075248
2671.000000	65.069604
2670.000000	65.069624
2669.000000	65.077976
2668.000000	65.095678
2667.000000	65.121853
2666.000000	65.154073
2665.000000	65.188959
2664.000000	65.222539
2663.000000	65.250772
2662.000000	65.270538
2661.000000	65.280587
2660.000000	65.281763
2659.000000	65.276526
2658.000000	65.268362
2657.000000	65.261288
2656.000000	65.259071
2655.000000	65.264250
2654.000000	65.277697
2653.000000	65.298898
2652.000000	65.326233
2651.000000	65.357303
2650.000000	65.389720
2649.000000	65.421895
2648.000000	65.453604
2647.000000	65.486007
2646.000000	65.521518
2645.000000	65.563624
2644.000000	65.615644
2643.000000	65.679428
2642.000000	65.754821
2641.000000	65.839985
2640.000000	65.932035
2639.000000	66.027062
2638.000000	66.120499
2637.000000	66.208149
2636.000000	66.287122
2635.000000	66.356073
2634.000000	66.415101
2633.000000	66.465691
2632.000000	66.510494
2631.000000	66.552692
2630.000000	66.594957
2629.000000	66.639015
2628.000000	66.685369
2627.000000	66.732874
2626.000000	66.778949
2625.000000	66.820467
2624.000000	66.855027
2623.000000	66.881396
2622.000000	66.899291
2621.000000	66.909527
2620.000000	66.914022
2619.000000	66.915370
2618.000000	66.916090
2617.000000	66.918183
2616.000000	66.923125
2615.000000	66.931308
2614.000000	66.941350
2613.000000	66.950183
2612.000000	66.954026
2611.000000	66.949769
2610.000000	66.935726
2609.000000	66.911934
2608.000000	66.880200
2607.000000	66.843846
2606.000000	66.807428
2605.000000	66.776189
2604.000000	66.754985
2603.000000	66.747089
2602.000000	66.753736
2601.000000	66.774086
2600.000000	66.805539
2599.000000	66.844219
2598.000000	66.885760
2597.000000	66.926849
2596.000000	66.965864
2595.000000	67.002693
2594.000000	67.038475
2593.000000	67.075386
2592.000000	67.116463
2591.000000	67.164522
2590.000000	67.220979
2589.000000	67.285415
2588.000000	67.355605
2587.000000	67.427910
2586.000000	67.498025
2585.000000	67.562203
2584.000000	67.618359
2583.000000	67.666341
2582.000000	67.707732
2581.000000	67.745771
2580.000000	67.784974
2579.000000	67.829862
2578.000000	67.883428
2577.000000	67.946461
2576.000000	68.017694
2575.000000	68.094153
2574.000000	68.171626
2573.000000	68.245559
2572.000000	68.312217
2571.000000	68.369551
2570.000000	68.417704
2569.000000	68.459096
2568.000000	68.497767
2567.000000	68.537764
2566.000000	68.581793
2565.000000	68.631092
2564.000000	68.685312
2563.000000	68.741910
2562.000000	68.795785
2561.000000	68.840689
2560.000000	68.871686
2559.000000	68.886219
2558.000000	68.884277
2557.000000	68.868377
2556.000000	68.843582
2555.000000	68.816874
2554.000000	68.795705
2553.000000	68.786901
2552.000000	68.795616
2551.000000	68.823950
2550.000000	68.870089
2549.000000	68.929644
2548.000000	68.997566
2547.000000	69.069271
2546.000000	69.141171
2545.000000	69.211026
2544.000000	69.278891
2543.000000	69.346708
2542.000000	69.416890
2541.000000	69.491434
2540.000000	69.571271
2539.000000	69.655575
2538.000000	69.741462
2537.000000	69.825095
2536.000000	69.903212
2535.000000	69.973483
2534.000000	70.034099
2533.000000	70.084529
2532.000000	70.126802
2531.000000	70.164808
2530.000000	70.202255
2529.000000	70.241513
2528.000000	70.284028
2527.000000	70.330588
2526.000000	70.380609
2525.000000	70.432142
2524.000000	70.482749
2523.000000	70.530071
2522.000000	70.572024
2521.000000	70.607528
2520.000000	70.637482
2519.000000	70.664270
2518.000000	70.690246
2517.000000	70.717190
2516.000000	70.746544
2515.000000	70.779039
2514.000000	70.813925
2513.000000	70.849491
2512.000000	70.884466
2511.000000	70.918206
2510.000000	70.949876
2509.000000	70.978615
2508.000000	71.004533
2507.000000	71.028621
2506.000000	71.051538
2505.000000	71.073456
2504.000000	71.094949
2503.000000	71.116849
2502.000000	71.139229
2501.000000	71.161443
2500.000000	71.183375
2499.000000	71.205630
2498.000000	71.228415
2497.000000	71.251204
2496.000000	71.273566
2495.000000	71.295443
2494.000000	71.316468
2493.000000	71.335873
2492.000000	71.353250
2491.000000	71.368599
2490.000000	71.381753
2489.000000	71.392789
2488.000000	71.402990
2487.000000	71.414501
2486.000000	71.428830
2485.000000	71.446297
2484.000000	71.466626
2483.000000	71.488923
2482.000000	71.511131
2481.000000	71.530656
2480.000000	71.545876
2479.000000	71.556502
2478.000000	71.562759
2477.000000	71.565460
2476.000000	71.566851
2475.000000	71.570114
2474.000000	71.577684
2473.000000	71.590515
2472.000000	71.608567
2471.000000	71.630788
2470.000000	71.654568
2469.000000	71.676427
2468.000000	71.693641
2467.000000	71.704843
2466.000000	71.709554
2465.000000	71.708484
2464.000000	71.704415
2463.000000	71.701541
2462.000000	71.703513
2461.000000	71.712444
2460.000000	71.729094
2459.000000	71.752506
2458.000000	71.779338
2457.000000	71.804794
2456.000000	71.824845
2455.000000	71.837355
2454.000000	71.841731
2453.000000	71.839036
2452.000000	71.832538
2451.000000	71.826917
2450.000000	71.826315
2449.000000	71.833346
2448.000000	71.849182
2447.000000	71.873026
2446.000000	71.901392
2445.000000	71.929232
2444.000000	71.952272
2443.000000	71.968124
2442.000000	71.975839
2441.000000	71.975937
2440.000000	71.971124
2439.000000	71.965803
2438.000000	71.964364
2437.000000	71.970019
2436.000000	71.984439
2435.000000	72.007095
2434.000000	72.034754
2433.000000	72.062695
2432.000000	72.086834
2431.000000	72.104563
2430.000000	72.114557
2429.000000	72.117278
2428.000000	72.115534
2427.000000	72.113342
2426.000000	72.114028
2425.000000	72.119810
2424.000000	72.132307
2423.000000	72.151917
2422.000000	72.176769
2421.000000	72.203362
2420.000000	72.228307
2419.000000	72.248945
2418.000000	72.263245
2417.000000	72.270760
2416.000000	72.273624
2415.000000	72.275415
2414.000000	72.278980
2413.000000	72.286018
2412.000000	72.297928
2411.000000	72.315452
2410.000000	72.337536
2409.000000	72.361737
2408.000000	72.385686
2407.000000	72.407502
2406.000000	72.425492
2405.000000	72.438947
2404.000000	72.449126
2403.000000	72.458340
2402.000000	72.468266
2401.000000	72.479877
2400.000000	72.494168
2399.000000	72.511644
2398.000000	72.531519
2397.000000	72.552584
2396.000000	72.574445
2395.000000	72.597000
2394.000000	72.619510
2393.000000	72.641497
2392.000000	72.663729
2391.000000	72.687077
2390.000000	72.711120
2389.000000	72.734735
2388.000000	72.758044
2387.000000	72.781767
2386.000000	72.806328
2385.000000	72.833141
2384.000000	72.864523
2383.000000	72.902544
2382.000000	72.946572
2381.000000	72.994649
2380.000000	73.046070
2379.000000	73.099293
2378.000000	73.150674
2377.000000	73.195811
2376.000000	73.232238
2375.000000	73.259872
2374.000000	73.280440
2373.000000	73.298284
2372.000000	73.319646
2371.000000	73.349071
2370.000000	73.386521
2369.000000	73.431520
2368.000000	73.483571
2367.000000	73.539311
2366.000000	73.592858
2365.000000	73.639988
2364.000000	73.681525
2363.000000	73.715199
2362.000000	73.738085
2361.000000	73.753961
2360.000000	73.769009
2359.000000	73.792681
2358.000000	73.827039
2357.000000	73.871225
2356.000000	73.922883
2355.000000	73.974049
2354.000000	74.020181
2353.000000	74.058549
2352.000000	74.095995
2351.000000	74.136171
2350.000000	74.173411
2349.000000	74.206086
2348.000000	74.237699
2347.000000	74.280383
2346.000000	74.330113
2345.000000	74.376169
2344.000000	74.417768
2343.000000	74.460648
2342.000000	74.513034
2341.000000	74.566470
2340.000000	74.610344
2339.000000	74.637022
2338.000000	74.649379
2337.000000	74.652909
2336.000000	74.657452
2335.000000	74.671827
2334.000000	74.705740
2333.000000	74.757736
2332.000000	74.822910
2331.000000	74.894268
2330.000000	74.965023
2329.000000	75.031702
2328.000000	75.084796
2327.000000	75.123819
2326.000000	75.146093
2325.000000	75.153495
2324.000000	75.151919
2323.000000	75.150342
2322.000000	75.161411
2321.000000	75.188305
2320.000000	75.234341
2319.000000	75.296806
2318.000000	75.371652
2317.000000	75.446818
2316.000000	75.510359
2315.000000	75.554550
2314.000000	75.577671
2313.000000	75.583374
2312.000000	75.579689
2311.000000	75.579539
2310.000000	75.593352
2309.000000	75.626740
2308.000000	75.679389
2307.000000	75.748034
2306.000000	75.824597
2305.000000	75.897238
2304.000000	75.956109
2303.000000	75.996904
2302.000000	76.020259
2301.000000	76.029380
2300.000000	76.030898
2299.000000	76.035017
2298.000000	76.049943
2297.000000	76.079979
2296.000000	76.124817
2295.000000	76.182390
2294.000000	76.245887
2293.000000	76.305966
2292.000000	76.354232
2291.000000	76.387688
2290.000000	76.406454
2289.000000	76.412982
2288.000000	76.413108
2287.000000	76.415828
2286.000000	76.428646
2285.000000	76.454095
2284.000000	76.491594
2283.000000	76.538830
2282.000000	76.590921
2281.000000	76.640187
2280.000000	76.680541
2279.000000	76.710044
2278.000000	76.729707
2277.000000	76.741547
2276.000000	76.749730
2275.000000	76.760319
2274.000000	76.777809
2273.000000	76.803143
2272.000000	76.835129
2271.000000	76.871809
2270.000000	76.909265
2269.000000	76.942189
2268.000000	76.967392
2267.000000	76.985407
2266.000000	76.998206
2265.000000	77.008012
2264.000000	77.018270
2263.000000	77.033162
2262.000000	77.053802
2261.000000	77.077451
2260.000000	77.100857
2259.000000	77.121845
2258.000000	77.137783
2257.000000	77.145255
2256.000000	77.143868
2255.000000	77.137163
2254.000000	77.129428
2253.000000	77.123287
2252.000000	77.120920
2251.000000	77.123937
2250.000000	77.130535
2249.000000	77.134834
2248.000000	77.130941
2247.000000	77.115620
2246.000000	77.086441
2245.000000	77.042001
2244.000000	76.984998
2243.000000	76.922775
2242.000000	76.862889
2241.000000	76.810014
2240.000000	76.766830
2239.000000	76.734444
2238.000000	76.710162
2237.000000	76.687594
2236.000000	76.660836
2235.000000	76.627107
2234.000000	76.585553
2233.000000	76.536950
2232.000000	76.486195
2231.000000	76.441983
2230.000000	76.412131
2229.000000	76.400368
2228.000000	76.407353
2227.000000	76.431118
2226.000000	76.464773
2225.000000	76.496910
2224.000000	76.516821
2223.000000	76.518572
2222.000000	76.500398
2221.000000	76.464053
2220.000000	76.416600
2219.000000	76.369830
2218.000000	76.335184
2217.000000	76.319652
2216.000000	76.325812
2215.000000	76.352046
2214.000000	76.390946
2213.000000	76.430327
2212.000000	76.458379
2211.000000	76.467507
2210.000000	76.454253
2209.000000	76.419595
2208.000000	76.371161
2207.000000	76.322119
2206.000000	76.285367
2205.000000	76.269116
2204.000000	76.276782
2203.000000	76.306866
2202.000000	76.351138
2201.000000	76.396059
2200.000000	76.428785
2199.000000	76.441357
2198.000000	76.430201
2197.000000	76.395987
2196.000000	76.345917
2195.000000	76.292915
2194.000000	76.249859
2193.000000	76.225108
2192.000000	76.222555
2191.000000	76.241693
2190.000000	76.275536
2189.000000	76.311421
2188.000000	76.336728
2187.000000	76.343458
2186.000000	76.328104
2185.000000	76.291433
2184.000000	76.240453
2183.000000	76.187656
2182.000000	76.145644
2181.000000	76.122962
2180.000000	76.124066
2179.000000	76.149184
2178.000000	76.192251
2177.000000	76.241690
2176.000000	76.285799
2175.000000	76.316791
2174.000000	76.330431
2173.000000	76.325981
2172.000000	76.308545
2171.000000	76.288450
2170.000000	76.276060
2169.000000	76.278130
2168.000000	76.298445
2167.000000	76.337743
2166.000000	76.391014
2165.000000	76.447888
2164.000000	76.498233
2163.000000	76.536248
2162.000000	76.559334
2161.000000	76.567045
2160.000000	76.563209
2159.000000	76.556026
2158.000000	76.553637
2157.000000	76.560889
2156.000000	76.580395
2155.000000	76.613030
2154.000000	76.655549
2153.000000	76.700557
2152.000000	76.740926
2151.000000	76.772777
2150.000000	76.794191
2149.000000	76.804643
2148.000000	76.807220
2147.000000	76.808381
2146.000000	76.813521
2145.000000	76.824735
2144.000000	76.843279
2143.000000	76.870367
2142.000000	76.904140
2141.000000	76.939236
2140.000000	76.971208
2139.000000	76.998976
2138.000000	77.022473
2137.000000	77.041588
2136.000000	77.058720
2135.000000	77.078580
2134.000000	77.103469
2133.000000	77.131501
2132.000000	77.160410
2131.000000	77.189754
2130.000000	77.218177
2129.000000	77.242421
2128.000000	77.261178
2127.000000	77.277025
2126.000000	77.293081
2125.000000	77.310794
2124.000000	77.332105
2123.000000	77.359790
2122.000000	77.393581
2121.000000	77.429059
2120.000000	77.461976
2119.000000	77.490615
2118.000000	77.513121
2117.000000	77.526992
2116.000000	77.533482
2115.000000	77.539016
2114.000000	77.550138
2113.000000	77.569717
2112.000000	77.598930
2111.000000	77.638492
2110.000000	77.685455
2109.000000	77.732321
2108.000000	77.771768
2107.000000	77.799955
2106.000000	77.814667
2105.000000	77.814727
2104.000000	77.803514
2103.000000	77.789618
2102.000000	77.781357
2101.000000	77.783039
2100.000000	77.796762
2099.000000	77.823034
2098.000000	77.857599
2097.000000	77.890963
2096.000000	77.914124
2095.000000	77.922737
2094.000000	77.914871
2093.000000	77.889611
2092.000000	77.850915
2091.000000	77.809469
2090.000000	77.777726
2089.000000	77.764350
2088.000000	77.773513
2087.000000	77.805244
2086.000000	77.853344
2085.000000	77.906030
2084.000000	77.951939
2083.000000	77.984504
2082.000000	78.000522
2081.000000	77.999356
2080.000000	77.986038
2079.000000	77.971633
2078.000000	77.967640
2077.000000	77.981015
2076.000000	78.015028
2075.000000	78.070020
2074.000000	78.140346
2073.000000	78.214465
2072.000000	78.280649
2071.000000	78.331495
2070.000000	78.363365
2069.000000	78.375641
2068.000000	78.372930
2067.000000	78.365125
2066.000000	78.363753
2065.000000	78.379454
2064.000000	78.420380
2063.000000	78.487851
2062.000000	78.572701
2061.000000	78.659566
2060.000000	78.736433
2059.000000	78.797834
2058.000000	78.840418
2057.000000	78.862016
2056.000000	78.867249
2055.000000	78.868487
2054.000000	78.878092
2053.000000	78.903401
2052.000000	78.948607
2051.000000	79.014684
2050.000000	79.095603
2049.000000	79.179271
2048.000000	79.254340
2047.000000	79.314403
2046.000000	79.356289
2045.000000	79.379297
2044.000000	79.388157
2043.000000	79.393086
2042.000000	79.405247
2041.000000	79.433574
2040.000000	79.484136
2039.000000	79.557519
2038.000000	79.645640
2037.000000	79.735075
2036.000000	79.815474
2035.000000	79.882469
2034.000000	79.933645
2033.000000	79.967884
2032.000000	79.990629
2031.000000	80.013622
2030.000000	80.046986
2029.000000	80.094868
2028.000000	80.158268
2027.000000	80.236483
2026.000000	80.323339
2025.000000	80.408227
2024.000000	80.482948
2023.000000	80.544918
2022.000000	80.594429
2021.000000	80.632524
2020.000000	80.662770
2019.000000	80.691231
2018.000000	80.724408
2017.000000	80.769489
2016.000000	80.833583
2015.000000	80.917343
2014.000000	81.010586
2013.000000	81.098595
2012.000000	81.172837
2011.000000	81.232866
2010.000000	81.280347
2009.000000	81.317497
2008.000000	81.351662
2007.000000	81.394383
2006.000000	81.452259
2005.000000	81.524452
2004.000000	81.607832
2003.000000	81.699068
2002.000000	81.790785
2001.000000	81.871189
2000.000000	81.933562
1999.000000	81.979466
1998.000000	82.013160
1997.000000	82.041144
1996.000000	82.073916
1995.000000	82.118990
1994.000000	82.173129
1993.000000	82.230298
1992.000000	82.295435
1991.000000	82.375777
1990.000000	82.460283
1989.000000	82.526245
1988.000000	82.564543
1987.000000	82.584970
1986.000000	82.598859
1985.000000	82.610553
1984.000000	82.626469
1983.000000	82.658200
1982.000000	82.710618
1981.000000	82.776675
1980.000000	82.848855
1979.000000	82.922437
1978.000000	82.986584
1977.000000	83.027029
1976.000000	83.040914
1975.000000	83.038225
1974.000000	83.027990
1973.000000	83.016077
1972.000000	83.015645
1971.000000	83.042936
1970.000000	83.098560
1969.000000	83.165505
1968.000000	83.228729
1967.000000	83.286442
1966.000000	83.337668
1965.000000	83.372190
1964.000000	83.382223
1963.000000	83.371932
1962.000000	83.350155
1961.000000	83.326409
1960.000000	83.315917
1959.000000	83.334650
1958.000000	83.384560
1957.000000	83.452086
1956.000000	83.523888
1955.000000	83.592669
1954.000000	83.647408
1953.000000	83.673596
1952.000000	83.666750
1951.000000	83.639067
1950.000000	83.607181
1949.000000	83.580658
1948.000000	83.568770
1947.000000	83.584217
1946.000000	83.629919
1945.000000	83.691226
1944.000000	83.748074
1943.000000	83.792062
1942.000000	83.826627
1941.000000	83.849500
1940.000000	83.850465
1939.000000	83.827154
1938.000000	83.788339
1937.000000	83.748714
1936.000000	83.726772
1935.000000	83.736797
1934.000000	83.779136
1933.000000	83.842380
1932.000000	83.912089
1931.000000	83.978157
1930.000000	84.028141
1929.000000	84.045646
1928.000000	84.028735
1927.000000	83.994271
1926.000000	83.960978
1925.000000	83.930673
1924.000000	83.897176
1923.000000	83.874485
1922.000000	83.887296
1921.000000	83.934796
1920.000000	83.992984
1919.000000	84.041610
1918.000000	84.077324
1917.000000	84.102049
1916.000000	84.106680
1915.000000	84.085607
1914.000000	84.050913
1913.000000	84.021856
1912.000000	84.010742
1911.000000	84.021814
1910.000000	84.052857
1909.000000	84.097442
1908.000000	84.149081
1907.000000	84.198763
1906.000000	84.235476
1905.000000	84.246213
1904.000000	84.224339
1903.000000	84.182088
1902.000000	84.139023
1901.000000	84.106861
1900.000000	84.093460
1899.000000	84.107075
1898.000000	84.148821
1897.000000	84.202004
1896.000000	84.241791
1895.000000	84.260655
1894.000000	84.267389
1893.000000	84.263315
1892.000000	84.239168
1891.000000	84.190293
1890.000000	84.129512
1889.000000	84.086978
1888.000000	84.082091
1887.000000	84.107493
1886.000000	84.145033
1885.000000	84.178444
1884.000000	84.199171
1883.000000	84.208406
1882.000000	84.205982
1881.000000	84.185115
1880.000000	84.146398
1879.000000	84.103518
1878.000000	84.072032
1877.000000	84.059226
1876.000000	84.064041
1875.000000	84.083362
1874.000000	84.111337
1873.000000	84.136534
1872.000000	84.150963
1871.000000	84.155126
1870.000000	84.141653
1869.000000	84.100488
1868.000000	84.046536
1867.000000	84.004824
1866.000000	83.984192
1865.000000	83.981655
1864.000000	83.992793
1863.000000	84.015002
1862.000000	84.042858
1861.000000	84.063780
1860.000000	84.064328
1859.000000	84.040821
1858.000000	83.998231
1857.000000	83.943829
1856.000000	83.886444
1855.000000	83.839802
1854.000000	83.815577
1853.000000	83.813630
1852.000000	83.831621
1851.000000	83.864351
1850.000000	83.892620
1849.000000	83.890913
1848.000000	83.850991
1847.000000	83.788482
1846.000000	83.716044
1845.000000	83.631273
1844.000000	83.555645
1843.000000	83.527807
1842.000000	83.541465
1841.000000	83.567362
1840.000000	83.596361
1839.000000	83.626695
1838.000000	83.648106
1837.000000	83.641957
1836.000000	83.597843
1835.000000	83.524379
1834.000000	83.436597
1833.000000	83.348362
1832.000000	83.276592
1831.000000	83.219232
1830.000000	83.170640
1829.000000	83.150485
1828.000000	83.161750
1827.000000	83.180052
1826.000000	83.181093
1825.000000	83.158917
1824.000000	83.125634
1823.000000	83.079021
1822.000000	83.001883
1821.000000	82.895556
1820.000000	82.785535
1819.000000	82.697328
1818.000000	82.644502
1817.000000	82.631204
1816.000000	82.652978
1815.000000	82.691426
1814.000000	82.715779
1813.000000	82.702172
1812.000000	82.640402
1811.000000	82.536316
1810.000000	82.413757
1809.000000	82.296245
1808.000000	82.197946
1807.000000	82.128693
1806.000000	82.092891
1805.000000	82.081655
1804.000000	82.079569
1803.000000	82.078015
1802.000000	82.071309
1801.000000	82.058185
1800.000000	82.036793
1799.000000	81.996480
1798.000000	81.926095
1797.000000	81.826828
1796.000000	81.721529
1795.000000	81.642543
1794.000000	81.601925
1793.000000	81.582768
1792.000000	81.577191
1791.000000	81.596892
1790.000000	81.625489
1789.000000	81.622209
1788.000000	81.564478
1787.000000	81.457260
1786.000000	81.327601
1785.000000	81.210540
1784.000000	81.133550
1783.000000	81.098527
1782.000000	81.073969
1781.000000	81.035644
1780.000000	80.996486
1779.000000	80.974272
1778.000000	80.950232
1777.000000	80.894201
1776.000000	80.816428
1775.000000	80.751214
1774.000000	80.690346
1773.000000	80.577154
1772.000000	80.418797
1771.000000	80.283836
1770.000000	80.187855
1769.000000	80.113698
1768.000000	80.068177
1767.000000	80.057565
1766.000000	80.049881
1765.000000	80.004154
1764.000000	79.917619
1763.000000	79.807110
1762.000000	79.692123
1761.000000	79.600395
1760.000000	79.535653
1759.000000	79.482590
1758.000000	79.423586
1757.000000	79.353321
1756.000000	79.300824
1755.000000	79.270472
1754.000000	79.219741
1753.000000	79.119263
1752.000000	78.989832
1751.000000	78.881934
1750.000000	78.810796
1749.000000	78.739844
1748.000000	78.663428
1747.000000	78.610328
1746.000000	78.565611
1745.000000	78.486811
1744.000000	78.368064
1743.000000	78.242118
1742.000000	78.126760
1741.000000	77.999998
1740.000000	77.844624
1739.000000	77.691302
1738.000000	77.567613
1737.000000	77.468888
1736.000000	77.395280
1735.000000	77.315855
1734.000000	77.218897
1733.000000	77.125200
1732.000000	76.984916
1731.000000	76.778805
1730.000000	76.548023
1729.000000	76.320759
1728.000000	76.123758
1727.000000	75.964763
1726.000000	75.825683
1725.000000	75.683079
1724.000000	75.530549
1723.000000	75.377961
1722.000000	75.232700
1721.000000	75.094268
1720.000000	74.968841
1719.000000	74.816091
1718.000000	74.564117
1717.000000	74.240961
1716.000000	73.919094
1715.000000	73.634119
1714.000000	73.417777
1713.000000	73.264453
1712.000000	73.129855
1711.000000	72.982702
1710.000000	72.814373
1709.000000	72.621343
1708.000000	72.400594
1707.000000	72.135327
1706.000000	71.803944
1705.000000	71.442815
1704.000000	71.113874
1703.000000	70.840594
1702.000000	70.621054
1701.000000	70.432429
1700.000000	70.295526
1699.000000	70.221109
1698.000000	70.119386
1697.000000	69.888689
1696.000000	69.522113
1695.000000	69.140222
1694.000000	68.810113
1693.000000	68.504822
1692.000000	68.214657
1691.000000	67.935823
1690.000000	67.668047
1689.000000	67.431130
1688.000000	67.261734
1687.000000	67.158774
1686.000000	67.057734
1685.000000	66.774520
1684.000000	66.299035
1683.000000	65.895675
1682.000000	65.600422
1681.000000	65.294322
1680.000000	64.969542
1679.000000	64.673288
1678.000000	64.434849
1677.000000	64.218848
1676.000000	63.993990
1675.000000	63.783138
1674.000000	63.599855
1673.000000	63.397581
1672.000000	63.148866
1671.000000	62.853398
1670.000000	62.508359
1669.000000	62.152278
1668.000000	61.848377
1667.000000	61.613774
1666.000000	61.422799
1665.000000	61.240499
1664.000000	61.035183
1663.000000	60.802216
1662.000000	60.563001
1661.000000	60.313755
1660.000000	60.043860
1659.000000	59.761319
1658.000000	59.478866
1657.000000	59.216200
1656.000000	59.014285
1655.000000	58.903003
1654.000000	58.722037
1653.000000	58.439384
1652.000000	58.234168
1651.000000	58.035966
1650.000000	57.803149
1649.000000	57.586348
1648.000000	57.314454
1647.000000	56.958574
1646.000000	56.622698
1645.000000	56.363610
1644.000000	56.121994
1643.000000	55.890625
1642.000000	55.680019
1641.000000	55.479441
1640.000000	55.287312
1639.000000	55.118893
1638.000000	54.971863
1637.000000	54.767024
1636.000000	54.448871
1635.000000	54.135044
1634.000000	53.908477
1633.000000	53.709672
1632.000000	53.507028
1631.000000	53.319425
1630.000000	53.157478
1629.000000	52.996923
1628.000000	52.818807
1627.000000	52.645589
1626.000000	52.491844
1625.000000	52.332425
1624.000000	52.133941
1623.000000	51.917252
1622.000000	51.734934
1621.000000	51.595450
1620.000000	51.494457
1619.000000	51.445254
1618.000000	51.423528
1617.000000	51.361324
1616.000000	51.247730
1615.000000	51.128746
1614.000000	51.023510
1613.000000	50.922387
1612.000000	50.817114
1611.000000	50.721846
1610.000000	50.650571
1609.000000	50.591857
1608.000000	50.539435
1607.000000	50.515510
1606.000000	50.530244
1605.000000	50.558860
1604.000000	50.578493
1603.000000	50.589804
1602.000000	50.595679
1601.000000	50.585036
1600.000000	50.556330
1599.000000	50.530348
1598.000000	50.523399
1597.000000	50.529724
1596.000000	50.541832
1595.000000	50.570456
1594.000000	50.624243
1593.000000	50.687490
1592.000000	50.739909
1591.000000	50.780064
1590.000000	50.810367
1589.000000	50.820777
1588.000000	50.806229
1587.000000	50.783975
1586.000000	50.773199
1585.000000	50.770852
1584.000000	50.774382
1583.000000	50.798728
1582.000000	50.847726
1581.000000	50.902030
1580.000000	50.954397
1579.000000	51.023567
1578.000000	51.106506
1577.000000	51.134361
1576.000000	51.067869
1575.000000	50.966822
1574.000000	50.874597
1573.000000	50.797894
1572.000000	50.753353
1571.000000	50.748414
1570.000000	50.769247
1569.000000	50.800363
1568.000000	50.836608
1567.000000	50.871898
1566.000000	50.900994
1565.000000	50.913342
1564.000000	50.903242
1563.000000	50.900317
1562.000000	50.918063
1561.000000	51.003643
1560.000000	51.116367
1559.000000	51.175355
1558.000000	51.341613
1557.000000	51.557960
1556.000000	51.683364
1555.000000	51.795420
1554.000000	51.930506
1553.000000	52.080810
1552.000000	52.209016
1551.000000	52.324763
1550.000000	52.460297
1549.000000	52.631068
1548.000000	52.819628
1547.000000	53.019047
1546.000000	53.247262
1545.000000	53.504342
1544.000000	53.777652
1543.000000	54.077419
1542.000000	54.437168
1541.000000	54.805132
1540.000000	55.106997
1539.000000	55.383859
1538.000000	55.615500
1537.000000	55.765141
1536.000000	55.908127
1535.000000	56.123448
1534.000000	56.431971
1533.000000	56.805448
1532.000000	57.190079
1531.000000	57.536099
1530.000000	57.851191
1529.000000	58.162970
1528.000000	58.479690
1527.000000	58.810657
1526.000000	59.171604
1525.000000	59.555644
1524.000000	59.948951
1523.000000	60.361562
1522.000000	60.801639
1521.000000	61.264326
1520.000000	61.703964
1519.000000	62.083578
1518.000000	62.436384
1517.000000	62.790490
1516.000000	63.151127
1515.000000	63.514630
1514.000000	63.872711
1513.000000	64.237632
1512.000000	64.604659
1511.000000	64.964270
1510.000000	65.324951
1509.000000	65.735816
1508.000000	66.166877
1507.000000	66.574999
1506.000000	67.097751
1505.000000	67.631995
1504.000000	67.971072
1503.000000	68.194054
1502.000000	68.419213
1501.000000	68.693418
1500.000000	69.013122
1499.000000	69.371348
1498.000000	69.759283
1497.000000	70.158683
1496.000000	70.539997
1495.000000	70.866680
1494.000000	71.125190
1493.000000	71.340175
1492.000000	71.555008
1491.000000	71.797494
1490.000000	72.071358
1489.000000	72.373355
1488.000000	72.679803
1487.000000	72.975225
1486.000000	73.268874
1485.000000	73.541788
1484.000000	73.773002
1483.000000	73.972855
1482.000000	74.159058
1481.000000	74.330601
1480.000000	74.476949
1479.000000	74.606995
1478.000000	74.740074
1477.000000	74.880540
1476.000000	75.020350
1475.000000	75.170174
1474.000000	75.323359
1473.000000	75.436478
1472.000000	75.517300
1471.000000	75.591298
1470.000000	75.617485
1469.000000	75.554330
1468.000000	75.412091
1467.000000	75.229562
1466.000000	75.012462
1465.000000	74.734298
1464.000000	74.428662
1463.000000	74.145618
1462.000000	73.871125
1461.000000	73.573726
1460.000000	73.261521
1459.000000	72.943625
1458.000000	72.519865
1457.000000	71.953806
1456.000000	71.420544
1455.000000	70.974993
1454.000000	70.496639
1453.000000	69.895329
1452.000000	69.157729
1451.000000	68.320368
1450.000000	67.351300
1449.000000	66.148900
1448.000000	64.691014
1447.000000	63.091126
1446.000000	61.409041
1445.000000	59.577509
1444.000000	57.542871
1443.000000	55.305252
1442.000000	52.860406
1441.000000	50.242220
1440.000000	47.555975
1439.000000	44.794130
1438.000000	41.673078
1437.000000	37.973857
1436.000000	34.167209
1435.000000	30.978215
1434.000000	28.452433
1433.000000	26.239654
1432.000000	24.223349
1431.000000	22.506169
1430.000000	21.132284
1429.000000	20.082154
1428.000000	19.439241
1427.000000	19.275894
1426.000000	19.512721
1425.000000	20.069259
1424.000000	20.981363
1423.000000	22.218870
1422.000000	23.622746
1421.000000	25.170235
1420.000000	27.073393
1419.000000	29.389406
1418.000000	31.753857
1417.000000	33.866018
1416.000000	35.828828
1415.000000	37.812647
1414.000000	39.810150
1413.000000	41.766297
1412.000000	43.707310
1411.000000	45.651469
1410.000000	47.528590
1409.000000	49.284221
1408.000000	50.953735
1407.000000	52.587465
1406.000000	54.186504
1405.000000	55.739712
1404.000000	57.237740
1403.000000	58.626404
1402.000000	59.861935
1401.000000	61.001577
1400.000000	62.146030
1399.000000	63.299644
1398.000000	64.376961
1397.000000	65.354938
1396.000000	66.310012
1395.000000	67.301345
1394.000000	68.293759
1393.000000	69.217822
1392.000000	70.045821
1391.000000	70.784274
1390.000000	71.452719
1389.000000	72.086288
1388.000000	72.713014
1387.000000	73.320523
1386.000000	73.868437
1385.000000	74.331739
1384.000000	74.709260
1383.000000	74.994428
1382.000000	75.176877
1381.000000	75.257281
1380.000000	75.233484
1379.000000	75.090800
1378.000000	74.818066
1377.000000	74.406590
1376.000000	73.814199
1375.000000	72.971542
1374.000000	71.869711
1373.000000	70.599593
1372.000000	69.253281
1371.000000	67.869911
1370.000000	66.503822
1369.000000	65.288628
1368.000000	64.410183
1367.000000	63.996139
1366.000000	64.062697
1365.000000	64.562213
1364.000000	65.426770
1363.000000	66.561587
1362.000000	67.838259
1361.000000	69.124999
1360.000000	70.323804
1359.000000	71.379132
1358.000000	72.264014
1357.000000	72.963364
1356.000000	73.460842
1355.000000	73.737791
1354.000000	73.788096
1353.000000	73.619366
1352.000000	73.234482
1351.000000	72.622267
1350.000000	71.766287
1349.000000	70.655917
1348.000000	69.280544
1347.000000	67.623855
1346.000000	65.671085
1345.000000	63.425834
1344.000000	60.926772
1343.000000	58.228263
1342.000000	55.370870
1341.000000	52.399570
1340.000000	49.443941
1339.000000	46.753934
1338.000000	44.584421
1337.000000	43.047347
1336.000000	42.099203
1335.000000	41.596672
1334.000000	41.318278
1333.000000	40.994175
1332.000000	40.372172
1331.000000	39.275828
1330.000000	37.624214
1329.000000	35.428643
1328.000000	32.784225
1327.000000	29.853258
1326.000000	26.824481
1325.000000	23.877554
1324.000000	21.186166
1323.000000	18.908112
1322.000000	17.131226
1321.000000	15.848187
1320.000000	14.999440
1319.000000	14.499456
1318.000000	14.227594
1317.000000	14.046749
1316.000000	13.857947
1315.000000	13.624500
1314.000000	13.336063
1313.000000	12.993531
1312.000000	12.631151
1311.000000	12.306887
1310.000000	12.061912
1309.000000	11.913983
1308.000000	11.892994
1307.000000	12.044215
1306.000000	12.388362
1305.000000	12.916994
1304.000000	13.622946
1303.000000	14.503049
1302.000000	15.531873
1301.000000	16.662681
1300.000000	17.864570
1299.000000	19.125216
1298.000000	20.423088
1297.000000	21.728963
1296.000000	23.029009
1295.000000	24.323076
1294.000000	25.601189
1293.000000	26.844735
1292.000000	28.045402
1291.000000	29.201724
1290.000000	30.297239
1289.000000	31.302210
1288.000000	32.190609
1287.000000	32.935684
1286.000000	33.502948
1285.000000	33.867796
1284.000000	34.049581
1283.000000	34.123078
1282.000000	34.196594
1281.000000	34.383923
1280.000000	34.779005
1279.000000	35.425197
1278.000000	36.297464
1277.000000	37.327496
1276.000000	38.445175
1275.000000	39.595329
1274.000000	40.733135
1273.000000	41.825471
1272.000000	42.858086
1271.000000	43.828499
1270.000000	44.735331
1269.000000	45.581677
1268.000000	46.381536
1267.000000	47.150182
1266.000000	47.894317
1265.000000	48.616178
1264.000000	49.319100
1263.000000	50.004110
1262.000000	50.663985
1261.000000	51.289782
1260.000000	51.878694
1259.000000	52.431332
1258.000000	52.949855
1257.000000	53.441631
1256.000000	53.919742
1255.000000	54.395586
1254.000000	54.873951
1253.000000	55.356673
1252.000000	55.843268
1251.000000	56.326674
1250.000000	56.794460
1249.000000	57.236550
1248.000000	57.649142
1247.000000	58.031101
1246.000000	58.384108
1245.000000	58.717789
1244.000000	59.047392
1243.000000	59.384891
1242.000000	59.734882
1241.000000	60.097616
1240.000000	60.469480
1239.000000	60.839975
1238.000000	61.195308
1237.000000	61.525913
1236.000000	61.827870
1235.000000	62.100750
1234.000000	62.349520
1233.000000	62.587169
1232.000000	62.828988
1231.000000	63.084374
1230.000000	63.356953
1229.000000	63.647799
1228.000000	63.952713
1227.000000	64.259175
1226.000000	64.552734
1225.000000	64.825874
1224.000000	65.077052
1223.000000	65.306376
1222.000000	65.518447
1221.000000	65.725339
1220.000000	65.940370
1219.000000	66.169904
1218.000000	66.414711
1217.000000	66.674190
1216.000000	66.943003
1215.000000	67.208232
1214.000000	67.456427
1213.000000	67.681973
1212.000000	67.885290
1211.000000	68.068285
1210.000000	68.237616
1209.000000	68.406540
1208.000000	68.587035
1207.000000	68.782824
1206.000000	68.992708
1205.000000	69.214862
1204.000000	69.442516
1203.000000	69.661822
1202.000000	69.860811
1201.000000	70.036425
1200.000000	70.190201
1199.000000	70.323412
1198.000000	70.441153
1197.000000	70.554344
1196.000000	70.669368
1195.000000	70.781220
1194.000000	70.879094
1193.000000	70.951715
1192.000000	70.985022
1191.000000	70.962038
1190.000000	70.875566
1189.000000	70.737750
1188.000000	70.575403
1187.000000	70.422948
1186.000000	70.320241
1185.000000	70.304239
1184.000000	70.391379
1183.000000	70.568841
1182.000000	70.804083
1181.000000	71.063409
1180.000000	71.320794
1179.000000	71.560126
1178.000000	71.778787
1177.000000	71.983261
1176.000000	72.178350
1175.000000	72.364525
1174.000000	72.546567
1173.000000	72.735584
1172.000000	72.938266
1171.000000	73.150393
1170.000000	73.363870
1169.000000	73.572279
1168.000000	73.765977
1167.000000	73.932749
1166.000000	74.069315
1165.000000	74.185635
1164.000000	74.294290
1163.000000	74.403094
1162.000000	74.521213
1161.000000	74.660967
1160.000000	74.826902
1159.000000	75.010385
1158.000000	75.198730
1157.000000	75.382165
1156.000000	75.549162
1155.000000	75.686524
1154.000000	75.791222
1153.000000	75.873632
1152.000000	75.945513
1151.000000	76.013626
1150.000000	76.087751
1149.000000	76.182846
1148.000000	76.305933
1147.000000	76.449212
1146.000000	76.600122
1145.000000	76.748853
1144.000000	76.883268
1143.000000	76.988918
1142.000000	77.061793
1141.000000	77.112834
1140.000000	77.155201
1139.000000	77.196582
1138.000000	77.246006
1137.000000	77.315863
1136.000000	77.410587
1135.000000	77.522075
1134.000000	77.640724
1133.000000	77.761410
1132.000000	77.875332
1131.000000	77.968325
1130.000000	78.034144
1129.000000	78.080613
1128.000000	78.118265
1127.000000	78.152879
1126.000000	78.192682
1125.000000	78.250069
1124.000000	78.329926
1123.000000	78.425194
1122.000000	78.527911
1121.000000	78.634565
1120.000000	78.737330
1119.000000	78.822851
1118.000000	78.885871
1117.000000	78.934066
1116.000000	78.975249
1115.000000	79.010717
1114.000000	79.045052
1113.000000	79.089551
1112.000000	79.149735
1111.000000	79.220258
1110.000000	79.295917
1109.000000	79.377261
1108.000000	79.461423
1107.000000	79.538867
1106.000000	79.605215
1105.000000	79.664740
1104.000000	79.718323
1103.000000	79.760522
1102.000000	79.791540
1101.000000	79.821060
1100.000000	79.855213
1099.000000	79.890087
1098.000000	79.926338
1097.000000	79.972400
1096.000000	80.031681
1095.000000	80.098031
1094.000000	80.168263
1093.000000	80.245651
1092.000000	80.327003
1091.000000	80.399953
1090.000000	80.458191
1089.000000	80.506940
1088.000000	80.549377
1087.000000	80.581496
1086.000000	80.605249
1085.000000	80.633125
1084.000000	80.673955
1083.000000	80.725742
1082.000000	80.785667
1081.000000	80.854007
1080.000000	80.923691
1079.000000	80.978976
1078.000000	81.010484
1077.000000	81.018628
1076.000000	81.000550
1075.000000	80.947732
1074.000000	80.860211
1073.000000	80.750883
1072.000000	80.629596
1071.000000	80.496387
1070.000000	80.351908
1069.000000	80.198801
1068.000000	80.030710
1067.000000	79.831459
1066.000000	79.591860
1065.000000	79.317642
1064.000000	79.019914
1063.000000	78.712993
1062.000000	78.424859
1061.000000	78.195236
1060.000000	78.055015
1059.000000	78.017476
1058.000000	78.084865
1057.000000	78.253086
1056.000000	78.503970
1055.000000	78.803221
1054.000000	79.117838
1053.000000	79.424193
1052.000000	79.700719
1051.000000	79.927459
1050.000000	80.101130
1049.000000	80.239336
1048.000000	80.363554
1047.000000	80.488427
1046.000000	80.628328
1045.000000	80.797803
1044.000000	80.997190
1043.000000	81.209434
1042.000000	81.415187
1041.000000	81.600918
1040.000000	81.751793
1039.000000	81.852505
1038.000000	81.903361
1037.000000	81.924181
1036.000000	81.937288
1035.000000	81.958518
1034.000000	82.004750
1033.000000	82.093566
1032.000000	82.227724
1031.000000	82.390653
1030.000000	82.561454
1029.000000	82.723412
1028.000000	82.857144
1027.000000	82.942704
1026.000000	82.976687
1025.000000	82.976417
1024.000000	82.963192
1023.000000	82.952931
1022.000000	82.963976
1021.000000	83.016086
1020.000000	83.114109
1019.000000	83.242978
1018.000000	83.382689
1017.000000	83.517319
1016.000000	83.628295
1015.000000	83.696280
1014.000000	83.717205
1013.000000	83.705455
1012.000000	83.678060
1011.000000	83.647993
1010.000000	83.633504
1009.000000	83.656372
1008.000000	83.723720
1007.000000	83.822549
1006.000000	83.935425
1005.000000	84.049318
1004.000000	84.147998
1003.000000	84.212276
1002.000000	84.235773
1001.000000	84.229631
1000.000000	84.208575
999.000000	84.183577
998.000000	84.169824
997.000000	84.186208
996.000000	84.239800
995.000000	84.320292
994.000000	84.412839
993.000000	84.505815
992.000000	84.584587
991.000000	84.633120
990.000000	84.648219
989.000000	84.641940
988.000000	84.626460
987.000000	84.608580
986.000000	84.599597
985.000000	84.615378
984.000000	84.660494
983.000000	84.723412
982.000000	84.790678
981.000000	84.854688
980.000000	84.906153
979.000000	84.933865
978.000000	84.937652
977.000000	84.929948
976.000000	84.921060
975.000000	84.914019
974.000000	84.915702
973.000000	84.937393
972.000000	84.979473
971.000000	85.027416
970.000000	85.067499
969.000000	85.095301
968.000000	85.106788
967.000000	85.096374
966.000000	85.069011
965.000000	85.041620
964.000000	85.027232
963.000000	85.028350
962.000000	85.046815
961.000000	85.085878
960.000000	85.137648
959.000000	85.182163
958.000000	85.204192
957.000000	85.201303
956.000000	85.174177
955.000000	85.123526
954.000000	85.061035
953.000000	85.009083
952.000000	84.983636
951.000000	84.986643
950.000000	85.016242
949.000000	85.069433
948.000000	85.130991
947.000000	85.174228
946.000000	85.180449
945.000000	85.147809
944.000000	85.080818
943.000000	84.985798
942.000000	84.880193
941.000000	84.791349
940.000000	84.738894
939.000000	84.726957
938.000000	84.752850
937.000000	84.809010
936.000000	84.873191
935.000000	84.912248
934.000000	84.903213
933.000000	84.842870
932.000000	84.736937
931.000000	84.595763
930.000000	84.442927
929.000000	84.311809
928.000000	84.225492
927.000000	84.187778
926.000000	84.193093
925.000000	84.229598
924.000000	84.270268
923.000000	84.277786
922.000000	84.227164
921.000000	84.115534
920.000000	83.950082
919.000000	83.742390
918.000000	83.517163
917.000000	83.308948
916.000000	83.142654
915.000000	83.024107
914.000000	82.948222
913.000000	82.901911
912.000000	82.856027
911.000000	82.771568
910.000000	82.622160
909.000000	82.403638
908.000000	82.122740
907.000000	81.790774
906.000000	81.432012
905.000000	81.080387
904.000000	80.759558
903.000000	80.474050
902.000000	80.217341
901.000000	79.975667
900.000000	79.721714
899.000000	79.420244
898.000000	79.049407
897.000000	78.606620
896.000000	78.097374
895.000000	77.530754
894.000000	76.926204
893.000000	76.310856
892.000000	75.701154
891.000000	75.096201
890.000000	74.487327
889.000000	73.862137
888.000000	73.200790
887.000000	72.479302
886.000000	71.683599
885.000000	70.813895
884.000000	69.874093
883.000000	68.869895
882.000000	67.813896
881.000000	66.722976
880.000000	65.607509
879.000000	64.467477
878.000000	63.301224
877.000000	62.108265
876.000000	60.886288
875.000000	59.633581
874.000000	58.354928
873.000000	57.061703
872.000000	55.766679
871.000000	54.483347
870.000000	53.227384
869.000000	52.014982
868.000000	50.857895
867.000000	49.762913
866.000000	48.735422
865.000000	47.779477
864.000000	46.899108
863.000000	46.095701
862.000000	45.366140
861.000000	44.704422
860.000000	44.102728
859.000000	43.555491
858.000000	43.057657
857.000000	42.602787
856.000000	42.185387
855.000000	41.801821
854.000000	41.452622
853.000000	41.141546
852.000000	40.874464
851.000000	40.659691
850.000000	40.504165
849.000000	40.413143
848.000000	40.391195
847.000000	40.442528
846.000000	40.571114
845.000000	40.776315
844.000000	41.055674
843.000000	41.409381
842.000000	41.839027
841.000000	42.344528
840.000000	42.920844
839.000000	43.564503
838.000000	44.275982
837.000000	45.052455
836.000000	45.884026
835.000000	46.757698
834.000000	47.657905
833.000000	48.550027
832.000000	49.360622
831.000000	49.925009
830.000000	49.918735
829.000000	48.855512
828.000000	46.349365
827.000000	42.601875
826.000000	38.650543
825.000000	35.941823
824.000000	35.445108
823.000000	37.079196
822.000000	39.960637
821.000000	43.135684
820.000000	46.045566
819.000000	48.513053
818.000000	50.552564
817.000000	52.242468
816.000000	53.676439
815.000000	54.920408
814.000000	56.011877
813.000000	56.988089
812.000000	57.894392
811.000000	58.755600
810.000000	59.573982
809.000000	60.353795
808.000000	61.101432
807.000000	61.808994
806.000000	62.459537
805.000000	63.050974
804.000000	63.593568
803.000000	64.089457
802.000000	64.540492
801.000000	64.968616
800.000000	65.407003
799.000000	65.874175
798.000000	66.373027
797.000000	66.904895
796.000000	67.461533
795.000000	68.011923
794.000000	68.520084
793.000000	68.971330
792.000000	69.367518
791.000000	69.709900
790.000000	70.006985
789.000000	70.288121
788.000000	70.587550
787.000000	70.921196
786.000000	71.290989
785.000000	71.697802
784.000000	72.131989
783.000000	72.562245
782.000000	72.953704
781.000000	73.291610
780.000000	73.576088
779.000000	73.808548
778.000000	73.999637
777.000000	74.178464
776.000000	74.375475
775.000000	74.603162
774.000000	74.863365
773.000000	75.157693
772.000000	75.475675
771.000000	75.786551
770.000000	76.060592
769.000000	76.290514
768.000000	76.481298
767.000000	76.634861
766.000000	76.759616
765.000000	76.879387
764.000000	77.015538
763.000000	77.169690
762.000000	77.336038
761.000000	77.515677
760.000000	77.705189
759.000000	77.886597
758.000000	78.044831
757.000000	78.183602
756.000000	78.312088
755.000000	78.430628
754.000000	78.541922
753.000000	78.659463
752.000000	78.789848
751.000000	78.921241
750.000000	79.041833
749.000000	79.154488
748.000000	79.261413
747.000000	79.353941
746.000000	79.432380
745.000000	79.518286
744.000000	79.630590
743.000000	79.765246
742.000000	79.911175
741.000000	80.066481
740.000000	80.222632
739.000000	80.352515
738.000000	80.433723
737.000000	80.468671
736.000000	80.469424
735.000000	80.442813
734.000000	80.406469
733.000000	80.397367
732.000000	80.443963
731.000000	80.543021
730.000000	80.676265
729.000000	80.828301
728.000000	80.974846
727.000000	81.076473
726.000000	81.105742
725.000000	81.070164
724.000000	80.995875
723.000000	80.907591
722.000000	80.838594
721.000000	80.837652
720.000000	80.940765
719.000000	81.145916
718.000000	81.427417
717.000000	81.754392
716.000000	82.079851
715.000000	82.339591
714.000000	82.489807
713.000000	82.533955
712.000000	82.502440
711.000000	82.429509
710.000000	82.364726
709.000000	82.374936
708.000000	82.506251
707.000000	82.755517
706.000000	83.087774
705.000000	83.459827
704.000000	83.811967
703.000000	84.067839
702.000000	84.177974
701.000000	84.151205
700.000000	84.029090
699.000000	83.859833
698.000000	83.707333
697.000000	83.651254
696.000000	83.742420
695.000000	83.968755
694.000000	84.285141
693.000000	84.645301
692.000000	84.984192
691.000000	85.216316
690.000000	85.287719
689.000000	85.214603
688.000000	85.050654
687.000000	84.844663
686.000000	84.659624
685.000000	84.583250
684.000000	84.669685
683.000000	84.896833
682.000000	85.209376
681.000000	85.562140
680.000000	85.891803
679.000000	86.105594
678.000000	86.151910
677.000000	86.056222
676.000000	85.870056
675.000000	85.651567
674.000000	85.475989
673.000000	85.429126
672.000000	85.558532
671.000000	85.849767
670.000000	86.263148
669.000000	86.725854
668.000000	87.056932
667.000000	87.122343
666.000000	87.001778
665.000000	86.794319
664.000000	86.561581
663.000000	86.353236
662.000000	86.218680
661.000000	86.198650
660.000000	86.303952
659.000000	86.512378
658.000000	86.778633
657.000000	87.041503
656.000000	87.238143
655.000000	87.340675
654.000000	87.347692
653.000000	87.270454
652.000000	87.147007
651.000000	87.039382
650.000000	86.998758
649.000000	87.039771
648.000000	87.154967
647.000000	87.328350
646.000000	87.524304
645.000000	87.691479
644.000000	87.788327
643.000000	87.801395
642.000000	87.746375
641.000000	87.656916
640.000000	87.574434
639.000000	87.537340
638.000000	87.565815
637.000000	87.655772
636.000000	87.788034
635.000000	87.932870
634.000000	88.052175
633.000000	88.111707
632.000000	88.097639
631.000000	88.024700
630.000000	87.930761
629.000000	87.858982
628.000000	87.841155
627.000000	87.891080
626.000000	88.003625
625.000000	88.157394
624.000000	88.314390
623.000000	88.427416
622.000000	88.460104
621.000000	88.404426
620.000000	88.279297
619.000000	88.120398
618.000000	87.976618
617.000000	87.901347
616.000000	87.928615
615.000000	88.054245
614.000000	88.240302
613.000000	88.433025
612.000000	88.573006
611.000000	88.603249
610.000000	88.490240
609.000000	88.237812
608.000000	87.879628
607.000000	87.459244
606.000000	87.012632
605.000000	86.544708
604.000000	85.991173
603.000000	85.199328
602.000000	83.929080
601.000000	81.910167
600.000000	78.975250
599.000000	75.256489
598.000000	71.287555
597.000000	67.859446
596.000000	65.698000
595.000000	65.161758
594.000000	66.117846
593.000000	68.076194
592.000000	70.491567
591.000000	72.949357
590.000000	75.198801
589.000000	77.138410
588.000000	78.753610
587.000000	80.052872
586.000000	81.048112
585.000000	81.780474
584.000000	82.324162
583.000000	82.769953
582.000000	83.203515
581.000000	83.690211
580.000000	84.253575
579.000000	84.861134
578.000000	85.450968
577.000000	85.968060
576.000000	86.367932
575.000000	86.611295
574.000000	86.684999
573.000000	86.625388
572.000000	86.503857
571.000000	86.397619
570.000000	86.374612
569.000000	86.479836
568.000000	86.717979
567.000000	87.045954
566.000000	87.394304
565.000000	87.699404
564.000000	87.910575
563.000000	87.989896
562.000000	87.933019
561.000000	87.785529
560.000000	87.619091
559.000000	87.497140
558.000000	87.467295
557.000000	87.561024
556.000000	87.775274
555.000000	88.060646
554.000000	88.347347
553.000000	88.580739
552.000000	88.725078
551.000000	88.756967
550.000000	88.685058
549.000000	88.560827
548.000000	88.446092
547.000000	88.379348
546.000000	88.380309
545.000000	88.462481
544.000000	88.619576
543.000000	88.813276
542.000000	88.993599
541.000000	89.127369
540.000000	89.197129
539.000000	89.193083
538.000000	89.126720
537.000000	89.038538
536.000000	88.970649
535.000000	88.942584
534.000000	88.959782
533.000000	89.029353
532.000000	89.143950
531.000000	89.270491
530.000000	89.373919
529.000000	89.440145
528.000000	89.466457
527.000000	89.456014
526.000000	89.431750
525.000000	89.428403
524.000000	89.451114
523.000000	89.459939
522.000000	89.416323
521.000000	89.313317
520.000000	89.149264
519.000000	88.908114
518.000000	88.591131
517.000000	88.248477
516.000000	87.949773
515.000000	87.737001
514.000000	87.622439
513.000000	87.602019
512.000000	87.640677
511.000000	87.669191
510.000000	87.623363
509.000000	87.470673
508.000000	87.179253
507.000000	86.712677
506.000000	86.073869
505.000000	85.315984
504.000000	84.501127
503.000000	83.694528
502.000000	83.002028
501.000000	82.539194
500.000000	82.339064
499.000000	82.342384
498.000000	82.479444
497.000000	82.704106
496.000000	82.963207
495.000000	83.191096
494.000000	83.356344
493.000000	83.489074
492.000000	83.642061
491.000000	83.854228
490.000000	84.146459
489.000000	84.521606
488.000000	84.943620
487.000000	85.346637
486.000000	85.682723
485.000000	85.944624
484.000000	86.140933
483.000000	86.291492
482.000000	86.455917
481.000000	86.714459
480.000000	87.103437
479.000000	87.592217
478.000000	88.123445
477.000000	88.647285
476.000000	89.103733
475.000000	89.412682
474.000000	89.520562
473.000000	89.435914
472.000000	89.216119
471.000000	88.950400
470.000000	88.729428
469.000000	88.630005
468.000000	88.694716
467.000000	88.901679
466.000000	89.173822
465.000000	89.426256
464.000000	89.578977
463.000000	89.560480
462.000000	89.360633
461.000000	89.050339
460.000000	88.715568
459.000000	88.415604
458.000000	88.226207
457.000000	88.250738
456.000000	88.509397
455.000000	88.888091
454.000000	89.262962
453.000000	89.574348
452.000000	89.764447
451.000000	89.744197
450.000000	89.464298
449.000000	88.976040
448.000000	88.376711
447.000000	87.740492
446.000000	87.125376
445.000000	86.584262
444.000000	86.103458
443.000000	85.552820
442.000000	84.766404
441.000000	83.685790
440.000000	82.368248
439.000000	80.906223
438.000000	79.425439
437.000000	78.131725
436.000000	77.267073
435.000000	76.981592
434.000000	77.271034
433.000000	78.055419
432.000000	79.249641
431.000000	80.695123
430.000000	82.167804
429.000000	83.506313
428.000000	84.629298
427.000000	85.463511
426.000000	85.991286
425.000000	86.341115
424.000000	86.686670
423.000000	87.080175
422.000000	87.468043
421.000000	87.854869
420.000000	88.324929
419.000000	88.889182
418.000000	89.446612
417.000000	89.925528
416.000000	90.267971
415.000000	90.401355
414.000000	90.344967
413.000000	90.263901
412.000000	90.293609
411.000000	90.391764
410.000000	90.491595
409.000000	90.659425
408.000000	90.943026
407.000000	91.204654
406.000000	91.354449
405.000000	91.401787
404.000000	91.418097
403.000000	91.302806
402.000000	90.929835
401.000000	90.356619
400.000000	89.734484
