PE IR       SUBTECH     SPECTRUM    ASCII       PEDS        4.00        
   -1
23MS173_nitro.asc
24/09/06
16:13:16.00
24/09/06
16:13:16.00
Administrator
Sample 1126 By Administrator Date Friday, September 06 2024
400.000000
#HDR
-1
-1
#GR
cm-1
%T
1.0
0.0
4000.000000
-1.000000
3601
8
84.922236
8.548204
#DATA
4000.000000	57.166718
3999.000000	57.197672
3998.000000	57.229384
3997.000000	57.261782
3996.000000	57.294499
3995.000000	57.326980
3994.000000	57.358547
3993.000000	57.388908
3992.000000	57.418690
3991.000000	57.449161
3990.000000	57.480928
3989.000000	57.513116
3988.000000	57.544438
3987.000000	57.574760
3986.000000	57.605059
3985.000000	57.635929
3984.000000	57.666989
3983.000000	57.697648
3982.000000	57.727615
3981.000000	57.756519
3980.000000	57.783666
3979.000000	57.808645
3978.000000	57.832178
3977.000000	57.856010
3976.000000	57.881458
3975.000000	57.908158
3974.000000	57.934698
3973.000000	57.960305
3972.000000	57.985387
3971.000000	58.011053
3970.000000	58.038281
3969.000000	58.066982
3968.000000	58.095639
3967.000000	58.122375
3966.000000	58.146308
3965.000000	58.168185
3964.000000	58.190021
3963.000000	58.213616
3962.000000	58.239369
3961.000000	58.266149
3960.000000	58.292084
3959.000000	58.316536
3958.000000	58.341086
3957.000000	58.367567
3956.000000	58.395463
3955.000000	58.422386
3954.000000	58.446524
3953.000000	58.467644
3952.000000	58.486623
3951.000000	58.505065
3950.000000	58.524711
3949.000000	58.545336
3948.000000	58.564940
3947.000000	58.582406
3946.000000	58.598980
3945.000000	58.618487
3944.000000	58.646151
3943.000000	58.684331
3942.000000	58.727910
3941.000000	58.767645
3940.000000	58.798905
3939.000000	58.825272
3938.000000	58.852925
3937.000000	58.882798
3936.000000	58.909047
3935.000000	58.926092
3934.000000	58.936931
3933.000000	58.951185
3932.000000	58.974814
3931.000000	59.003915
3930.000000	59.030441
3929.000000	59.052024
3928.000000	59.072724
3927.000000	59.097467
3926.000000	59.128704
3925.000000	59.166413
3924.000000	59.205106
3923.000000	59.234101
3922.000000	59.247571
3921.000000	59.251859
3920.000000	59.259260
3919.000000	59.275929
3918.000000	59.299677
3917.000000	59.328613
3916.000000	59.363538
3915.000000	59.402917
3914.000000	59.442325
3913.000000	59.481171
3912.000000	59.522001
3911.000000	59.563686
3910.000000	59.600018
3909.000000	59.626328
3908.000000	59.643317
3907.000000	59.652528
3906.000000	59.652356
3905.000000	59.640744
3904.000000	59.620420
3903.000000	59.597454
3902.000000	59.579700
3901.000000	59.576594
3900.000000	59.596939
3899.000000	59.641889
3898.000000	59.698441
3897.000000	59.751027
3896.000000	59.795167
3895.000000	59.837741
3894.000000	59.884328
3893.000000	59.931317
3892.000000	59.968420
3891.000000	59.991936
3890.000000	60.007279
3889.000000	60.016209
3888.000000	60.014107
3887.000000	60.005055
3886.000000	60.008491
3885.000000	60.035854
3884.000000	60.070499
3883.000000	60.090645
3882.000000	60.101070
3881.000000	60.124210
3880.000000	60.166738
3879.000000	60.211239
3878.000000	60.238791
3877.000000	60.247099
3876.000000	60.250520
3875.000000	60.270476
3874.000000	60.315732
3873.000000	60.365718
3872.000000	60.385940
3871.000000	60.369669
3870.000000	60.350782
3869.000000	60.360057
3868.000000	60.384684
3867.000000	60.393667
3866.000000	60.388022
3865.000000	60.402352
3864.000000	60.453679
3863.000000	60.516352
3862.000000	60.559525
3861.000000	60.583365
3860.000000	60.608431
3859.000000	60.656221
3858.000000	60.736503
3857.000000	60.835128
3856.000000	60.909386
3855.000000	60.912237
3854.000000	60.849711
3853.000000	60.779813
3852.000000	60.738180
3851.000000	60.724138
3850.000000	60.736018
3849.000000	60.776878
3848.000000	60.844219
3847.000000	60.923638
3846.000000	60.997876
3845.000000	61.056663
3844.000000	61.095781
3843.000000	61.118612
3842.000000	61.132573
3841.000000	61.140139
3840.000000	61.139683
3839.000000	61.132925
3838.000000	61.125259
3837.000000	61.124593
3836.000000	61.138375
3835.000000	61.167527
3834.000000	61.207133
3833.000000	61.252180
3832.000000	61.302587
3831.000000	61.358245
3830.000000	61.412347
3829.000000	61.457081
3828.000000	61.490695
3827.000000	61.520067
3826.000000	61.553849
3825.000000	61.588551
3824.000000	61.605362
3823.000000	61.594263
3822.000000	61.577831
3821.000000	61.590990
3820.000000	61.633568
3819.000000	61.670886
3818.000000	61.680240
3817.000000	61.674024
3816.000000	61.688923
3815.000000	61.743133
3814.000000	61.810655
3813.000000	61.859316
3812.000000	61.892812
3811.000000	61.934716
3810.000000	61.990340
3809.000000	62.038059
3808.000000	62.057495
3807.000000	62.058858
3806.000000	62.067057
3805.000000	62.084043
3804.000000	62.090308
3803.000000	62.079110
3802.000000	62.070765
3801.000000	62.087215
3800.000000	62.118960
3799.000000	62.142124
3798.000000	62.158030
3797.000000	62.188665
3796.000000	62.247321
3795.000000	62.322431
3794.000000	62.391364
3793.000000	62.445486
3792.000000	62.493440
3791.000000	62.543226
3790.000000	62.590185
3789.000000	62.625345
3788.000000	62.647572
3787.000000	62.663454
3786.000000	62.679348
3785.000000	62.697688
3784.000000	62.717843
3783.000000	62.736762
3782.000000	62.751856
3781.000000	62.768516
3780.000000	62.797806
3779.000000	62.841764
3778.000000	62.887338
3777.000000	62.920343
3776.000000	62.939744
3775.000000	62.957217
3774.000000	62.983489
3773.000000	63.014698
3772.000000	63.037173
3771.000000	63.047621
3770.000000	63.057182
3769.000000	63.072372
3768.000000	63.087833
3767.000000	63.101216
3766.000000	63.120906
3765.000000	63.155786
3764.000000	63.200730
3763.000000	63.236526
3762.000000	63.250250
3761.000000	63.253881
3760.000000	63.269316
3759.000000	63.296456
3758.000000	63.317708
3757.000000	63.330802
3756.000000	63.347305
3755.000000	63.366643
3754.000000	63.377606
3753.000000	63.378529
3752.000000	63.379086
3751.000000	63.375683
3750.000000	63.355182
3749.000000	63.335745
3748.000000	63.349105
3747.000000	63.386319
3746.000000	63.411979
3745.000000	63.420193
3744.000000	63.444383
3743.000000	63.496966
3742.000000	63.548828
3741.000000	63.584694
3740.000000	63.618344
3739.000000	63.656748
3738.000000	63.687013
3737.000000	63.705555
3736.000000	63.737622
3735.000000	63.798332
3734.000000	63.861258
3733.000000	63.898067
3732.000000	63.919589
3731.000000	63.953312
3730.000000	64.005739
3729.000000	64.060703
3728.000000	64.106749
3727.000000	64.153474
3726.000000	64.213164
3725.000000	64.276385
3724.000000	64.325292
3723.000000	64.361615
3722.000000	64.399401
3721.000000	64.443813
3720.000000	64.489636
3719.000000	64.530596
3718.000000	64.565854
3717.000000	64.600917
3716.000000	64.636745
3715.000000	64.664160
3714.000000	64.676050
3713.000000	64.680660
3712.000000	64.696137
3711.000000	64.727566
3710.000000	64.763778
3709.000000	64.796820
3708.000000	64.828839
3707.000000	64.866938
3706.000000	64.914318
3705.000000	64.966443
3704.000000	65.018268
3703.000000	65.071742
3702.000000	65.130574
3701.000000	65.189488
3700.000000	65.239250
3699.000000	65.276694
3698.000000	65.306277
3697.000000	65.337176
3696.000000	65.373425
3695.000000	65.404824
3694.000000	65.418801
3693.000000	65.420352
3692.000000	65.428083
3691.000000	65.451444
3690.000000	65.479296
3689.000000	65.495333
3688.000000	65.502309
3687.000000	65.520456
3686.000000	65.558132
3685.000000	65.605969
3684.000000	65.656097
3683.000000	65.705272
3682.000000	65.747907
3681.000000	65.777498
3680.000000	65.798364
3679.000000	65.815696
3678.000000	65.815726
3677.000000	65.786205
3676.000000	65.757048
3675.000000	65.765996
3674.000000	65.796515
3673.000000	65.808288
3672.000000	65.793042
3671.000000	65.790653
3670.000000	65.849203
3669.000000	65.955551
3668.000000	66.051881
3667.000000	66.115134
3666.000000	66.163869
3665.000000	66.220150
3664.000000	66.290226
3663.000000	66.365088
3662.000000	66.433843
3661.000000	66.491975
3660.000000	66.537966
3659.000000	66.566366
3658.000000	66.572493
3657.000000	66.562450
3656.000000	66.550075
3655.000000	66.540200
3654.000000	66.522403
3653.000000	66.484892
3652.000000	66.431424
3651.000000	66.385668
3650.000000	66.372002
3649.000000	66.388523
3648.000000	66.421137
3647.000000	66.470013
3646.000000	66.535940
3645.000000	66.608358
3644.000000	66.679503
3643.000000	66.750555
3642.000000	66.823684
3641.000000	66.892468
3640.000000	66.945249
3639.000000	66.979179
3638.000000	67.002794
3637.000000	67.022657
3636.000000	67.036862
3635.000000	67.045537
3634.000000	67.057785
3633.000000	67.075671
3632.000000	67.080163
3631.000000	67.049904
3630.000000	66.999870
3629.000000	66.977258
3628.000000	66.994359
3627.000000	67.019915
3626.000000	67.037697
3625.000000	67.057247
3624.000000	67.090572
3623.000000	67.137178
3622.000000	67.181854
3621.000000	67.211285
3620.000000	67.228918
3619.000000	67.242583
3618.000000	67.247895
3617.000000	67.239233
3616.000000	67.221518
3615.000000	67.208755
3614.000000	67.216116
3613.000000	67.243720
3612.000000	67.272412
3611.000000	67.284448
3610.000000	67.285722
3609.000000	67.303733
3608.000000	67.357970
3607.000000	67.435892
3606.000000	67.508354
3605.000000	67.558735
3604.000000	67.590321
3603.000000	67.615734
3602.000000	67.642875
3601.000000	67.670172
3600.000000	67.691455
3599.000000	67.700340
3598.000000	67.697546
3597.000000	67.694342
3596.000000	67.704487
3595.000000	67.733587
3594.000000	67.774025
3593.000000	67.808161
3592.000000	67.820580
3591.000000	67.807017
3590.000000	67.777249
3589.000000	67.757455
3588.000000	67.775767
3587.000000	67.830890
3586.000000	67.892105
3585.000000	67.937436
3584.000000	67.970553
3583.000000	68.005458
3582.000000	68.049822
3581.000000	68.100243
3580.000000	68.148557
3579.000000	68.189059
3578.000000	68.220859
3577.000000	68.245803
3576.000000	68.266519
3575.000000	68.284717
3574.000000	68.299871
3573.000000	68.308261
3572.000000	68.304276
3571.000000	68.283485
3570.000000	68.245677
3569.000000	68.204082
3568.000000	68.187568
3567.000000	68.215918
3566.000000	68.274068
3565.000000	68.332704
3564.000000	68.380243
3563.000000	68.423860
3562.000000	68.473200
3561.000000	68.528827
3560.000000	68.583253
3559.000000	68.629174
3558.000000	68.664291
3557.000000	68.690154
3556.000000	68.710772
3555.000000	68.732107
3554.000000	68.760001
3553.000000	68.795625
3552.000000	68.831922
3551.000000	68.857543
3550.000000	68.865947
3549.000000	68.862112
3548.000000	68.861665
3547.000000	68.880604
3546.000000	68.921767
3545.000000	68.973451
3544.000000	69.022315
3543.000000	69.063727
3542.000000	69.099984
3541.000000	69.134112
3540.000000	69.168308
3539.000000	69.204575
3538.000000	69.243774
3537.000000	69.283854
3536.000000	69.319594
3535.000000	69.345887
3534.000000	69.361166
3533.000000	69.368624
3532.000000	69.374685
3531.000000	69.385202
3530.000000	69.401949
3529.000000	69.423144
3528.000000	69.447139
3527.000000	69.474283
3526.000000	69.505620
3525.000000	69.541804
3524.000000	69.582558
3523.000000	69.624502
3522.000000	69.661245
3521.000000	69.688812
3520.000000	69.710450
3519.000000	69.733553
3518.000000	69.762068
3517.000000	69.793860
3516.000000	69.824812
3515.000000	69.852720
3514.000000	69.875970
3513.000000	69.891856
3512.000000	69.900506
3511.000000	69.908137
3510.000000	69.921084
3509.000000	69.937678
3508.000000	69.949989
3507.000000	69.953591
3506.000000	69.952832
3505.000000	69.957407
3504.000000	69.974400
3503.000000	70.002142
3502.000000	70.031873
3501.000000	70.056188
3500.000000	70.075125
3499.000000	70.092988
3498.000000	70.111584
3497.000000	70.128167
3496.000000	70.138861
3495.000000	70.142013
3494.000000	70.137948
3493.000000	70.127607
3492.000000	70.113338
3491.000000	70.099813
3490.000000	70.091807
3489.000000	70.091099
3488.000000	70.095721
3487.000000	70.100537
3486.000000	70.099140
3485.000000	70.088308
3484.000000	70.071912
3483.000000	70.058448
3482.000000	70.052122
3481.000000	70.047663
3480.000000	70.035647
3479.000000	70.011843
3478.000000	69.980113
3477.000000	69.948311
3476.000000	69.923133
3475.000000	69.906714
3474.000000	69.896424
3473.000000	69.888216
3472.000000	69.879866
3471.000000	69.870177
3470.000000	69.855477
3469.000000	69.829416
3468.000000	69.787741
3467.000000	69.731726
3466.000000	69.666539
3465.000000	69.598652
3464.000000	69.535418
3463.000000	69.483410
3462.000000	69.443650
3461.000000	69.409858
3460.000000	69.373563
3459.000000	69.330215
3458.000000	69.279773
3457.000000	69.223334
3456.000000	69.161443
3455.000000	69.094547
3454.000000	69.022813
3453.000000	68.946378
3452.000000	68.866784
3451.000000	68.786874
3450.000000	68.709030
3449.000000	68.634721
3448.000000	68.565495
3447.000000	68.501213
3446.000000	68.437099
3445.000000	68.366219
3444.000000	68.285669
3443.000000	68.198125
3442.000000	68.107178
3441.000000	68.013849
3440.000000	67.918767
3439.000000	67.824466
3438.000000	67.732640
3437.000000	67.640519
3436.000000	67.542980
3435.000000	67.437657
3434.000000	67.326061
3433.000000	67.211022
3432.000000	67.093705
3431.000000	66.971938
3430.000000	66.840798
3429.000000	66.696045
3428.000000	66.538344
3427.000000	66.372842
3426.000000	66.204977
3425.000000	66.037957
3424.000000	65.873588
3423.000000	65.713226
3422.000000	65.556485
3421.000000	65.400520
3420.000000	65.241463
3419.000000	65.075941
3418.000000	64.901578
3417.000000	64.717544
3416.000000	64.525074
3415.000000	64.325708
3414.000000	64.118839
3413.000000	63.903079
3412.000000	63.679675
3411.000000	63.452434
3410.000000	63.223685
3409.000000	62.992168
3408.000000	62.755803
3407.000000	62.514273
3406.000000	62.268517
3405.000000	62.019362
3404.000000	61.766550
3403.000000	61.507669
3402.000000	61.237128
3401.000000	60.948536
3400.000000	60.639949
3399.000000	60.316393
3398.000000	59.987076
3397.000000	59.659979
3396.000000	59.338292
3395.000000	59.020368
3394.000000	58.701220
3393.000000	58.374557
3392.000000	58.034532
3391.000000	57.676960
3390.000000	57.301183
3389.000000	56.910998
3388.000000	56.512757
3387.000000	56.111109
3386.000000	55.706819
3385.000000	55.299493
3384.000000	54.890104
3383.000000	54.479897
3382.000000	54.068052
3381.000000	53.652014
3380.000000	53.229566
3379.000000	52.799052
3378.000000	52.358877
3377.000000	51.908401
3376.000000	51.448823
3375.000000	50.982549
3374.000000	50.512078
3373.000000	50.039936
3372.000000	49.568255
3371.000000	49.096631
3370.000000	48.621834
3369.000000	48.140416
3368.000000	47.651131
3367.000000	47.154653
3366.000000	46.652295
3365.000000	46.146103
3364.000000	45.638306
3363.000000	45.129424
3362.000000	44.618158
3361.000000	44.103757
3360.000000	43.587329
3359.000000	43.070293
3358.000000	42.553210
3357.000000	42.037073
3356.000000	41.523801
3355.000000	41.014498
3354.000000	40.508491
3353.000000	40.004396
3352.000000	39.500598
3351.000000	38.994655
3350.000000	38.484570
3349.000000	37.971305
3348.000000	37.458287
3347.000000	36.948078
3346.000000	36.441236
3345.000000	35.938305
3344.000000	35.440330
3343.000000	34.947188
3342.000000	34.457746
3341.000000	33.971940
3340.000000	33.490402
3339.000000	33.011984
3338.000000	32.534329
3337.000000	32.057094
3336.000000	31.582311
3335.000000	31.111415
3334.000000	30.644401
3333.000000	30.182037
3332.000000	29.725896
3331.000000	29.276137
3330.000000	28.831619
3329.000000	28.392135
3328.000000	27.958413
3327.000000	27.529838
3326.000000	27.105052
3325.000000	26.684592
3324.000000	26.270117
3323.000000	25.861700
3322.000000	25.458259
3321.000000	25.060188
3320.000000	24.668917
3319.000000	24.284168
3318.000000	23.905086
3317.000000	23.532951
3316.000000	23.169895
3315.000000	22.815647
3314.000000	22.468239
3313.000000	22.127537
3312.000000	21.794673
3311.000000	21.468884
3310.000000	21.148748
3309.000000	20.835430
3308.000000	20.532069
3307.000000	20.240294
3306.000000	19.960411
3305.000000	19.694271
3304.000000	19.443366
3303.000000	19.205650
3302.000000	18.977305
3301.000000	18.757079
3300.000000	18.546207
3299.000000	18.344646
3298.000000	18.151456
3297.000000	17.967814
3296.000000	17.795665
3295.000000	17.634736
3294.000000	17.483654
3293.000000	17.343472
3292.000000	17.216580
3291.000000	17.102384
3290.000000	16.998398
3289.000000	16.903727
3288.000000	16.818689
3287.000000	16.741976
3286.000000	16.671358
3285.000000	16.607125
3284.000000	16.550717
3283.000000	16.501311
3282.000000	16.456905
3281.000000	16.417442
3280.000000	16.384012
3279.000000	16.355679
3278.000000	16.330627
3277.000000	16.309411
3276.000000	16.293526
3275.000000	16.282013
3274.000000	16.272667
3273.000000	16.265810
3272.000000	16.263698
3271.000000	16.266792
3270.000000	16.273723
3269.000000	16.283766
3268.000000	16.296345
3267.000000	16.309415
3266.000000	16.321320
3265.000000	16.333481
3264.000000	16.348383
3263.000000	16.365894
3262.000000	16.384468
3261.000000	16.404234
3260.000000	16.425982
3259.000000	16.448547
3258.000000	16.470268
3257.000000	16.492052
3256.000000	16.515860
3255.000000	16.541400
3254.000000	16.567119
3253.000000	16.593232
3252.000000	16.620808
3251.000000	16.649080
3250.000000	16.676687
3249.000000	16.704466
3248.000000	16.734279
3247.000000	16.766136
3246.000000	16.798917
3245.000000	16.832567
3244.000000	16.867037
3243.000000	16.900547
3242.000000	16.931743
3241.000000	16.962059
3240.000000	16.993430
3239.000000	17.025074
3238.000000	17.055153
3237.000000	17.083975
3236.000000	17.113013
3235.000000	17.142356
3234.000000	17.171767
3233.000000	17.202564
3232.000000	17.235489
3231.000000	17.268252
3230.000000	17.298088
3229.000000	17.325260
3228.000000	17.351532
3227.000000	17.376868
3226.000000	17.400354
3225.000000	17.422830
3224.000000	17.445544
3223.000000	17.467688
3222.000000	17.487979
3221.000000	17.507226
3220.000000	17.526657
3219.000000	17.545111
3218.000000	17.560659
3217.000000	17.573569
3216.000000	17.585101
3215.000000	17.594982
3214.000000	17.602454
3213.000000	17.608448
3212.000000	17.614038
3211.000000	17.618217
3210.000000	17.619749
3209.000000	17.619573
3208.000000	17.619066
3207.000000	17.617492
3206.000000	17.613491
3205.000000	17.607513
3204.000000	17.600190
3203.000000	17.590204
3202.000000	17.576291
3201.000000	17.559621
3200.000000	17.541878
3199.000000	17.522585
3198.000000	17.500850
3197.000000	17.477860
3196.000000	17.454975
3195.000000	17.431203
3194.000000	17.404984
3193.000000	17.376844
3192.000000	17.347900
3191.000000	17.317499
3190.000000	17.284899
3189.000000	17.251341
3188.000000	17.218030
3187.000000	17.183949
3186.000000	17.148108
3185.000000	17.112065
3184.000000	17.077676
3183.000000	17.044334
3182.000000	17.010799
3181.000000	16.977780
3180.000000	16.946190
3179.000000	16.914944
3178.000000	16.883091
3177.000000	16.852097
3176.000000	16.823489
3175.000000	16.796212
3174.000000	16.768921
3173.000000	16.742775
3172.000000	16.719344
3171.000000	16.697965
3170.000000	16.677706
3169.000000	16.659838
3168.000000	16.645671
3167.000000	16.633883
3166.000000	16.622852
3165.000000	16.613511
3164.000000	16.607312
3163.000000	16.603492
3162.000000	16.600855
3161.000000	16.600401
3160.000000	16.603382
3159.000000	16.608722
3158.000000	16.615032
3157.000000	16.623087
3156.000000	16.633989
3155.000000	16.646907
3154.000000	16.661205
3153.000000	16.678764
3152.000000	16.701299
3151.000000	16.727508
3150.000000	16.755291
3149.000000	16.784772
3148.000000	16.816717
3147.000000	16.849984
3146.000000	16.883386
3145.000000	16.918056
3144.000000	16.955343
3143.000000	16.994363
3142.000000	17.034060
3141.000000	17.075871
3140.000000	17.121746
3139.000000	17.171177
3138.000000	17.222650
3137.000000	17.276004
3136.000000	17.331200
3135.000000	17.386801
3134.000000	17.441952
3133.000000	17.498206
3132.000000	17.557052
3131.000000	17.617683
3130.000000	17.679251
3129.000000	17.743057
3128.000000	17.810342
3127.000000	17.879882
3126.000000	17.950005
3125.000000	18.021046
3124.000000	18.093621
3123.000000	18.166668
3122.000000	18.239361
3121.000000	18.312967
3120.000000	18.388681
3119.000000	18.465690
3118.000000	18.543593
3117.000000	18.624335
3116.000000	18.709404
3115.000000	18.797272
3114.000000	18.885742
3113.000000	18.974862
3112.000000	19.065366
3111.000000	19.156487
3110.000000	19.247620
3109.000000	19.340015
3108.000000	19.434627
3107.000000	19.530140
3106.000000	19.625153
3105.000000	19.720418
3104.000000	19.816981
3103.000000	19.914248
3102.000000	20.011924
3101.000000	20.111650
3100.000000	20.214602
3099.000000	20.319384
3098.000000	20.424380
3097.000000	20.530099
3096.000000	20.637115
3095.000000	20.743986
3094.000000	20.849361
3093.000000	20.954242
3092.000000	21.060055
3091.000000	21.166387
3090.000000	21.272630
3089.000000	21.379911
3088.000000	21.489338
3087.000000	21.600124
3086.000000	21.711319
3085.000000	21.823596
3084.000000	21.937447
3083.000000	22.051448
3082.000000	22.164228
3081.000000	22.276373
3080.000000	22.388701
3079.000000	22.500502
3078.000000	22.611240
3077.000000	22.722114
3076.000000	22.834241
3075.000000	22.947142
3074.000000	23.060488
3073.000000	23.175359
3072.000000	23.292136
3071.000000	23.409042
3070.000000	23.524508
3069.000000	23.639056
3068.000000	23.753350
3067.000000	23.866441
3066.000000	23.977656
3065.000000	24.088198
3064.000000	24.199159
3063.000000	24.309903
3062.000000	24.420070
3061.000000	24.531146
3060.000000	24.644329
3059.000000	24.758734
3058.000000	24.873252
3057.000000	24.988205
3056.000000	25.103489
3055.000000	25.217145
3054.000000	25.327613
3053.000000	25.435681
3052.000000	25.542666
3051.000000	25.648564
3050.000000	25.753629
3049.000000	25.859746
3048.000000	25.968368
3047.000000	26.078709
3046.000000	26.189573
3045.000000	26.301214
3044.000000	26.413813
3043.000000	26.525938
3042.000000	26.636213
3041.000000	26.744821
3040.000000	26.851933
3039.000000	26.956422
3038.000000	27.057838
3037.000000	27.158037
3036.000000	27.259228
3035.000000	27.361912
3034.000000	27.466100
3033.000000	27.572740
3032.000000	27.682169
3031.000000	27.792698
3030.000000	27.902279
3029.000000	28.010260
3028.000000	28.116320
3027.000000	28.219417
3026.000000	28.319318
3025.000000	28.417638
3024.000000	28.515985
3023.000000	28.614469
3022.000000	28.713141
3021.000000	28.813148
3020.000000	28.915113
3019.000000	29.017934
3018.000000	29.120466
3017.000000	29.222812
3016.000000	29.324803
3015.000000	29.425032
3014.000000	29.522751
3013.000000	29.619126
3012.000000	29.715314
3011.000000	29.811001
3010.000000	29.906009
3009.000000	30.001591
3008.000000	30.098805
3007.000000	30.197257
3006.000000	30.296624
3005.000000	30.397605
3004.000000	30.500027
3003.000000	30.601689
3002.000000	30.700539
3001.000000	30.796545
3000.000000	30.890310
2999.000000	30.981610
2998.000000	31.070712
2997.000000	31.159430
2996.000000	31.249364
2995.000000	31.340522
2994.000000	31.432864
2993.000000	31.527543
2992.000000	31.625070
2991.000000	31.723723
2990.000000	31.821290
2989.000000	31.917062
2988.000000	32.010854
2987.000000	32.101662
2986.000000	32.188858
2985.000000	32.273557
2984.000000	32.357409
2983.000000	32.441219
2982.000000	32.525860
2981.000000	32.613074
2980.000000	32.703821
2979.000000	32.796862
2978.000000	32.890238
2977.000000	32.983078
2976.000000	33.074920
2975.000000	33.164643
2974.000000	33.251483
2973.000000	33.336012
2972.000000	33.419031
2971.000000	33.500626
2970.000000	33.581440
2969.000000	33.663538
2968.000000	33.748629
2967.000000	33.836470
2966.000000	33.925984
2965.000000	34.016692
2964.000000	34.107901
2963.000000	34.197905
2962.000000	34.285393
2961.000000	34.370605
2960.000000	34.453981
2959.000000	34.534982
2958.000000	34.613343
2957.000000	34.690276
2956.000000	34.767241
2955.000000	34.844746
2954.000000	34.923319
2953.000000	35.004115
2952.000000	35.087266
2951.000000	35.170861
2950.000000	35.252833
2949.000000	35.332817
2948.000000	35.411242
2947.000000	35.487965
2946.000000	35.562991
2945.000000	35.637374
2944.000000	35.712201
2943.000000	35.787601
2942.000000	35.863709
2941.000000	35.941451
2940.000000	36.021335
2939.000000	36.102514
2938.000000	36.183943
2937.000000	36.265361
2936.000000	36.346237
2935.000000	36.425041
2934.000000	36.500739
2933.000000	36.573965
2932.000000	36.645704
2931.000000	36.715969
2930.000000	36.784739
2929.000000	36.853005
2928.000000	36.921732
2927.000000	36.990833
2926.000000	37.060078
2925.000000	37.129875
2924.000000	37.200223
2923.000000	37.270089
2922.000000	37.338756
2921.000000	37.406598
2920.000000	37.473703
2919.000000	37.539095
2918.000000	37.602227
2917.000000	37.664066
2916.000000	37.725842
2915.000000	37.787894
2914.000000	37.850507
2913.000000	37.914502
2912.000000	37.980092
2911.000000	38.046283
2910.000000	38.112284
2909.000000	38.178512
2908.000000	38.245281
2907.000000	38.311668
2906.000000	38.376514
2905.000000	38.439571
2904.000000	38.500887
2903.000000	38.560311
2902.000000	38.618306
2901.000000	38.676765
2900.000000	38.737686
2899.000000	38.801372
2898.000000	38.867340
2897.000000	38.934822
2896.000000	39.002558
2895.000000	39.068816
2894.000000	39.132682
2893.000000	39.194542
2892.000000	39.254827
2891.000000	39.313265
2890.000000	39.369930
2889.000000	39.425929
2888.000000	39.482317
2887.000000	39.539337
2886.000000	39.597348
2885.000000	39.657379
2884.000000	39.719939
2883.000000	39.784195
2882.000000	39.849006
2881.000000	39.913749
2880.000000	39.977536
2879.000000	40.038994
2878.000000	40.098047
2877.000000	40.156855
2876.000000	40.217483
2875.000000	40.278977
2874.000000	40.337862
2873.000000	40.391482
2872.000000	40.440454
2871.000000	40.488383
2870.000000	40.539603
2869.000000	40.596428
2868.000000	40.657567
2867.000000	40.719283
2866.000000	40.778439
2865.000000	40.834315
2864.000000	40.887859
2863.000000	40.940207
2862.000000	40.992071
2861.000000	41.043448
2860.000000	41.093550
2859.000000	41.142038
2858.000000	41.190637
2857.000000	41.242387
2856.000000	41.298730
2855.000000	41.358228
2854.000000	41.418469
2853.000000	41.478079
2852.000000	41.536593
2851.000000	41.593650
2850.000000	41.649014
2849.000000	41.702448
2848.000000	41.753225
2847.000000	41.800965
2846.000000	41.847420
2845.000000	41.896241
2844.000000	41.950481
2843.000000	42.011117
2842.000000	42.077752
2841.000000	42.148634
2840.000000	42.219353
2839.000000	42.283751
2838.000000	42.338187
2837.000000	42.384263
2836.000000	42.426372
2835.000000	42.467663
2834.000000	42.509330
2833.000000	42.552450
2832.000000	42.598591
2831.000000	42.648866
2830.000000	42.703578
2829.000000	42.762517
2828.000000	42.824687
2827.000000	42.888031
2826.000000	42.950343
2825.000000	43.010322
2824.000000	43.067347
2823.000000	43.120925
2822.000000	43.171199
2821.000000	43.219467
2820.000000	43.267421
2819.000000	43.316233
2818.000000	43.366837
2817.000000	43.420284
2816.000000	43.476906
2815.000000	43.535675
2814.000000	43.595116
2813.000000	43.654279
2812.000000	43.712037
2811.000000	43.766198
2810.000000	43.814593
2809.000000	43.856995
2808.000000	43.895212
2807.000000	43.931535
2806.000000	43.967811
2805.000000	44.005546
2804.000000	44.045829
2803.000000	44.089016
2802.000000	44.134851
2801.000000	44.182662
2800.000000	44.230922
2799.000000	44.277161
2798.000000	44.319208
2797.000000	44.356574
2796.000000	44.390284
2795.000000	44.421766
2794.000000	44.452474
2793.000000	44.484090
2792.000000	44.518102
2791.000000	44.555068
2790.000000	44.594780
2789.000000	44.636921
2788.000000	44.681125
2787.000000	44.726670
2786.000000	44.772588
2785.000000	44.817913
2784.000000	44.861460
2783.000000	44.901761
2782.000000	44.937850
2781.000000	44.970045
2780.000000	44.999668
2779.000000	45.028309
2778.000000	45.057578
2777.000000	45.088742
2776.000000	45.121791
2775.000000	45.155026
2774.000000	45.186182
2773.000000	45.213772
2772.000000	45.236957
2771.000000	45.254773
2770.000000	45.266272
2769.000000	45.271209
2768.000000	45.270024
2767.000000	45.263281
2766.000000	45.251901
2765.000000	45.237711
2764.000000	45.222925
2763.000000	45.209113
2762.000000	45.196918
2761.000000	45.186447
2760.000000	45.177304
2759.000000	45.168408
2758.000000	45.158443
2757.000000	45.146439
2756.000000	45.131617
2755.000000	45.113151
2754.000000	45.090757
2753.000000	45.065375
2752.000000	45.038565
2751.000000	45.011347
2750.000000	44.983959
2749.000000	44.956214
2748.000000	44.927431
2747.000000	44.896089
2746.000000	44.860248
2745.000000	44.818433
2744.000000	44.769740
2743.000000	44.713733
2742.000000	44.650886
2741.000000	44.583091
2740.000000	44.513476
2739.000000	44.445881
2738.000000	44.384605
2737.000000	44.334177
2736.000000	44.298388
2735.000000	44.279477
2734.000000	44.278567
2733.000000	44.295770
2732.000000	44.329808
2731.000000	44.378307
2730.000000	44.438680
2729.000000	44.508934
2728.000000	44.586986
2727.000000	44.670294
2726.000000	44.757225
2725.000000	44.847788
2724.000000	44.942748
2723.000000	45.042215
2722.000000	45.145452
2721.000000	45.251499
2720.000000	45.358783
2719.000000	45.464392
2718.000000	45.564594
2717.000000	45.656203
2716.000000	45.737277
2715.000000	45.807113
2714.000000	45.866031
2713.000000	45.915289
2712.000000	45.956799
2711.000000	45.992512
2710.000000	46.024499
2709.000000	46.054776
2708.000000	46.084384
2707.000000	46.112857
2706.000000	46.138674
2705.000000	46.160365
2704.000000	46.176704
2703.000000	46.186381
2702.000000	46.188558
2701.000000	46.183621
2700.000000	46.173213
2699.000000	46.159501
2698.000000	46.144729
2697.000000	46.131224
2696.000000	46.120867
2695.000000	46.114436
2694.000000	46.111651
2693.000000	46.111478
2692.000000	46.112038
2691.000000	46.110645
2690.000000	46.104891
2689.000000	46.093827
2688.000000	46.077843
2687.000000	46.057802
2686.000000	46.034905
2685.000000	46.011237
2684.000000	45.989543
2683.000000	45.972072
2682.000000	45.959816
2681.000000	45.952622
2680.000000	45.949399
2679.000000	45.948251
2678.000000	45.947063
2677.000000	45.944226
2676.000000	45.938899
2675.000000	45.930914
2674.000000	45.920899
2673.000000	45.910546
2672.000000	45.902332
2671.000000	45.898987
2670.000000	45.903044
2669.000000	45.916187
2668.000000	45.938491
2667.000000	45.968037
2666.000000	46.001544
2665.000000	46.035322
2664.000000	46.065739
2663.000000	46.089810
2662.000000	46.106044
2661.000000	46.114714
2660.000000	46.117266
2659.000000	46.115771
2658.000000	46.112942
2657.000000	46.111949
2656.000000	46.115397
2655.000000	46.124371
2654.000000	46.138519
2653.000000	46.156570
2652.000000	46.176507
2651.000000	46.196092
2650.000000	46.214075
2649.000000	46.230796
2648.000000	46.247671
2647.000000	46.266502
2646.000000	46.289633
2645.000000	46.320150
2644.000000	46.360685
2643.000000	46.412325
2642.000000	46.474638
2641.000000	46.546057
2640.000000	46.623882
2639.000000	46.704096
2638.000000	46.782398
2637.000000	46.855569
2636.000000	46.921695
2635.000000	46.979694
2634.000000	47.029390
2633.000000	47.071911
2632.000000	47.109384
2631.000000	47.144160
2630.000000	47.178202
2629.000000	47.212989
2628.000000	47.249047
2627.000000	47.285411
2626.000000	47.320184
2625.000000	47.351407
2624.000000	47.377476
2623.000000	47.396978
2622.000000	47.408964
2621.000000	47.413792
2620.000000	47.412996
2619.000000	47.408437
2618.000000	47.401664
2617.000000	47.393774
2616.000000	47.385457
2615.000000	47.376675
2614.000000	47.366738
2613.000000	47.354632
2612.000000	47.338869
2611.000000	47.317598
2610.000000	47.289388
2609.000000	47.254365
2608.000000	47.214472
2607.000000	47.172702
2606.000000	47.132536
2605.000000	47.097759
2604.000000	47.071911
2603.000000	47.057515
2602.000000	47.056088
2601.000000	47.068126
2600.000000	47.092972
2599.000000	47.128679
2598.000000	47.172303
2597.000000	47.221046
2596.000000	47.272461
2595.000000	47.324482
2594.000000	47.375966
2593.000000	47.426972
2592.000000	47.478570
2591.000000	47.531938
2590.000000	47.587947
2589.000000	47.647345
2588.000000	47.710540
2587.000000	47.777276
2586.000000	47.846648
2585.000000	47.917540
2584.000000	47.988865
2583.000000	48.059441
2582.000000	48.128275
2581.000000	48.195119
2580.000000	48.260592
2579.000000	48.325785
2578.000000	48.391905
2577.000000	48.460129
2576.000000	48.531143
2575.000000	48.604538
2574.000000	48.678919
2573.000000	48.752775
2572.000000	48.824903
2571.000000	48.893999
2570.000000	48.958370
2569.000000	49.016309
2568.000000	49.066834
2567.000000	49.109560
2566.000000	49.144412
2565.000000	49.171928
2564.000000	49.193072
2563.000000	49.208713
2562.000000	49.218809
2561.000000	49.222542
2560.000000	49.219135
2559.000000	49.207689
2558.000000	49.187209
2557.000000	49.157123
2556.000000	49.118343
2555.000000	49.074096
2554.000000	49.029686
2553.000000	48.991728
2552.000000	48.967018
2551.000000	48.961197
2550.000000	48.977331
2549.000000	49.015690
2548.000000	49.073830
2547.000000	49.147452
2546.000000	49.231831
2545.000000	49.322236
2544.000000	49.414442
2543.000000	49.504768
2542.000000	49.590359
2541.000000	49.669817
2540.000000	49.742997
2539.000000	49.810228
2538.000000	49.871799
2537.000000	49.928215
2536.000000	49.980448
2535.000000	50.029810
2534.000000	50.077430
2533.000000	50.124153
2532.000000	50.170683
2531.000000	50.217208
2530.000000	50.263214
2529.000000	50.307700
2528.000000	50.349700
2527.000000	50.388604
2526.000000	50.424089
2525.000000	50.456238
2524.000000	50.485426
2523.000000	50.512056
2522.000000	50.536689
2521.000000	50.560452
2520.000000	50.585007
2519.000000	50.611587
2518.000000	50.640219
2517.000000	50.670139
2516.000000	50.700555
2515.000000	50.730739
2514.000000	50.759714
2513.000000	50.786419
2512.000000	50.810176
2511.000000	50.830683
2510.000000	50.847963
2509.000000	50.862717
2508.000000	50.876534
2507.000000	50.891304
2506.000000	50.908348
2505.000000	50.928236
2504.000000	50.950973
2503.000000	50.975860
2502.000000	51.001414
2501.000000	51.025965
2500.000000	51.048372
2499.000000	51.067969
2498.000000	51.084108
2497.000000	51.096390
2496.000000	51.105264
2495.000000	51.112104
2494.000000	51.118776
2493.000000	51.127137
2492.000000	51.138588
2491.000000	51.153523
2490.000000	51.171288
2489.000000	51.190869
2488.000000	51.211324
2487.000000	51.231342
2486.000000	51.248908
2485.000000	51.262079
2484.000000	51.270160
2483.000000	51.273854
2482.000000	51.274670
2481.000000	51.274537
2480.000000	51.275596
2479.000000	51.279708
2478.000000	51.287957
2477.000000	51.300643
2476.000000	51.317292
2475.000000	51.336372
2474.000000	51.355384
2473.000000	51.371817
2472.000000	51.383995
2471.000000	51.391086
2470.000000	51.393004
2469.000000	51.390931
2468.000000	51.387397
2467.000000	51.385166
2466.000000	51.386102
2465.000000	51.391246
2464.000000	51.401282
2463.000000	51.416123
2462.000000	51.434264
2461.000000	51.453187
2460.000000	51.470401
2459.000000	51.483866
2458.000000	51.492036
2457.000000	51.494414
2456.000000	51.492073
2455.000000	51.487178
2454.000000	51.482174
2453.000000	51.479569
2452.000000	51.481810
2451.000000	51.490407
2450.000000	51.505130
2449.000000	51.524300
2448.000000	51.545585
2447.000000	51.566278
2446.000000	51.583461
2445.000000	51.594985
2444.000000	51.600371
2443.000000	51.600509
2442.000000	51.596902
2441.000000	51.591737
2440.000000	51.588066
2439.000000	51.588875
2438.000000	51.595773
2437.000000	51.608841
2436.000000	51.627257
2435.000000	51.649379
2434.000000	51.672444
2433.000000	51.693122
2432.000000	51.708760
2431.000000	51.717992
2430.000000	51.720679
2429.000000	51.718108
2428.000000	51.713087
2427.000000	51.709055
2426.000000	51.708797
2425.000000	51.714014
2424.000000	51.725558
2423.000000	51.743320
2422.000000	51.765862
2421.000000	51.790579
2420.000000	51.814377
2419.000000	51.834239
2418.000000	51.847838
2417.000000	51.854409
2416.000000	51.855138
2415.000000	51.852473
2414.000000	51.849213
2413.000000	51.848316
2412.000000	51.852666
2411.000000	51.864033
2410.000000	51.882220
2409.000000	51.905488
2408.000000	51.931467
2407.000000	51.957451
2406.000000	51.980493
2405.000000	51.998195
2404.000000	52.009562
2403.000000	52.014977
2402.000000	52.015846
2401.000000	52.014683
2400.000000	52.014855
2399.000000	52.019395
2398.000000	52.030071
2397.000000	52.047592
2396.000000	52.071752
2395.000000	52.100711
2394.000000	52.130918
2393.000000	52.158747
2392.000000	52.182137
2391.000000	52.200379
2390.000000	52.213317
2389.000000	52.221677
2388.000000	52.227957
2387.000000	52.235614
2386.000000	52.247622
2385.000000	52.266264
2384.000000	52.293198
2383.000000	52.329194
2382.000000	52.373195
2381.000000	52.422719
2380.000000	52.474981
2379.000000	52.526852
2378.000000	52.575157
2377.000000	52.617632
2376.000000	52.653764
2375.000000	52.684051
2374.000000	52.709525
2373.000000	52.732536
2372.000000	52.756936
2371.000000	52.786292
2370.000000	52.821432
2369.000000	52.861258
2368.000000	52.904165
2367.000000	52.948167
2366.000000	52.990561
2365.000000	53.028753
2364.000000	53.063257
2363.000000	53.093959
2362.000000	53.118747
2361.000000	53.139848
2360.000000	53.160356
2359.000000	53.183773
2358.000000	53.212355
2357.000000	53.245514
2356.000000	53.285210
2355.000000	53.329571
2354.000000	53.375870
2353.000000	53.421286
2352.000000	53.463711
2351.000000	53.503804
2350.000000	53.536292
2349.000000	53.559997
2348.000000	53.580583
2347.000000	53.609746
2346.000000	53.655788
2345.000000	53.709091
2344.000000	53.757614
2343.000000	53.794380
2342.000000	53.825212
2341.000000	53.858509
2340.000000	53.894345
2339.000000	53.931345
2338.000000	53.966241
2337.000000	53.997839
2336.000000	54.025713
2335.000000	54.051515
2334.000000	54.077839
2333.000000	54.107446
2332.000000	54.140456
2331.000000	54.178461
2330.000000	54.217897
2329.000000	54.258362
2328.000000	54.299696
2327.000000	54.341955
2326.000000	54.387333
2325.000000	54.432347
2324.000000	54.477848
2323.000000	54.520500
2322.000000	54.559066
2321.000000	54.591719
2320.000000	54.618576
2319.000000	54.643284
2318.000000	54.667996
2317.000000	54.696128
2316.000000	54.728929
2315.000000	54.768330
2314.000000	54.812478
2313.000000	54.857993
2312.000000	54.901142
2311.000000	54.939960
2310.000000	54.973849
2309.000000	55.002300
2308.000000	55.026918
2307.000000	55.049452
2306.000000	55.071992
2305.000000	55.094772
2304.000000	55.119217
2303.000000	55.146740
2302.000000	55.177950
2301.000000	55.211667
2300.000000	55.246497
2299.000000	55.281632
2298.000000	55.315915
2297.000000	55.347644
2296.000000	55.376086
2295.000000	55.401307
2294.000000	55.423920
2293.000000	55.443942
2292.000000	55.463033
2291.000000	55.483168
2290.000000	55.505889
2289.000000	55.530898
2288.000000	55.558168
2287.000000	55.587726
2286.000000	55.618940
2285.000000	55.650029
2284.000000	55.679804
2283.000000	55.708067
2282.000000	55.734616
2281.000000	55.758997
2280.000000	55.781433
2279.000000	55.803062
2278.000000	55.824623
2277.000000	55.846578
2276.000000	55.869778
2275.000000	55.895449
2274.000000	55.923584
2273.000000	55.953092
2272.000000	55.983130
2271.000000	56.013157
2270.000000	56.041975
2269.000000	56.068055
2268.000000	56.091234
2267.000000	56.112569
2266.000000	56.132579
2265.000000	56.151085
2264.000000	56.168554
2263.000000	56.186124
2262.000000	56.204327
2261.000000	56.222843
2260.000000	56.241890
2259.000000	56.261782
2258.000000	56.281592
2257.000000	56.299417
2256.000000	56.314067
2255.000000	56.325264
2254.000000	56.332164
2253.000000	56.333806
2252.000000	56.330408
2251.000000	56.323180
2250.000000	56.312444
2249.000000	56.297931
2248.000000	56.280268
2247.000000	56.260468
2246.000000	56.238184
2245.000000	56.211606
2244.000000	56.179604
2243.000000	56.141875
2242.000000	56.097528
2241.000000	56.045416
2240.000000	55.985938
2239.000000	55.921113
2238.000000	55.853094
2237.000000	55.784385
2236.000000	55.719199
2235.000000	55.662403
2234.000000	55.616783
2233.000000	55.582476
2232.000000	55.558928
2231.000000	55.545461
2230.000000	55.540003
2229.000000	55.539153
2228.000000	55.540053
2227.000000	55.541141
2226.000000	55.540979
2225.000000	55.538251
2224.000000	55.533108
2223.000000	55.527129
2222.000000	55.521644
2221.000000	55.517224
2220.000000	55.514718
2219.000000	55.515031
2218.000000	55.517620
2217.000000	55.520588
2216.000000	55.522487
2215.000000	55.522847
2214.000000	55.521094
2213.000000	55.516546
2212.000000	55.509644
2211.000000	55.501811
2210.000000	55.494007
2209.000000	55.486738
2208.000000	55.481286
2207.000000	55.479332
2206.000000	55.481215
2205.000000	55.485830
2204.000000	55.492087
2203.000000	55.499056
2202.000000	55.504960
2201.000000	55.507826
2200.000000	55.507265
2199.000000	55.504121
2198.000000	55.498603
2197.000000	55.490506
2196.000000	55.481141
2195.000000	55.473042
2194.000000	55.467429
2193.000000	55.463561
2192.000000	55.460611
2191.000000	55.458332
2190.000000	55.455650
2189.000000	55.450423
2188.000000	55.441229
2187.000000	55.428103
2186.000000	55.411415
2185.000000	55.391663
2184.000000	55.370694
2183.000000	55.351563
2182.000000	55.336658
2181.000000	55.327071
2180.000000	55.323634
2179.000000	55.327023
2178.000000	55.336537
2177.000000	55.350121
2176.000000	55.365910
2175.000000	55.382633
2174.000000	55.398705
2173.000000	55.412584
2172.000000	55.424363
2171.000000	55.435645
2170.000000	55.447830
2169.000000	55.461842
2168.000000	55.479349
2167.000000	55.502384
2166.000000	55.531372
2165.000000	55.564854
2164.000000	55.601209
2163.000000	55.639068
2162.000000	55.676115
2161.000000	55.709431
2160.000000	55.737594
2159.000000	55.761155
2158.000000	55.781014
2157.000000	55.798054
2156.000000	55.814484
2155.000000	55.833646
2154.000000	55.857860
2153.000000	55.887557
2152.000000	55.922269
2151.000000	55.960736
2150.000000	56.000007
2149.000000	56.036275
2148.000000	56.067190
2147.000000	56.092263
2146.000000	56.111382
2145.000000	56.124928
2144.000000	56.135355
2143.000000	56.146582
2142.000000	56.161567
2141.000000	56.181787
2140.000000	56.208559
2139.000000	56.242734
2138.000000	56.283009
2137.000000	56.326405
2136.000000	56.370457
2135.000000	56.413289
2134.000000	56.452015
2133.000000	56.483555
2132.000000	56.507443
2131.000000	56.526032
2130.000000	56.541947
2129.000000	56.557330
2128.000000	56.575174
2127.000000	56.598596
2126.000000	56.628194
2125.000000	56.662050
2124.000000	56.698417
2123.000000	56.736228
2122.000000	56.773078
2121.000000	56.805380
2120.000000	56.831119
2119.000000	56.850651
2118.000000	56.864963
2117.000000	56.875621
2116.000000	56.886453
2115.000000	56.902488
2114.000000	56.926331
2113.000000	56.957266
2112.000000	56.993800
2111.000000	57.034681
2110.000000	57.077292
2109.000000	57.117743
2108.000000	57.153295
2107.000000	57.182757
2106.000000	57.204678
2105.000000	57.217734
2104.000000	57.223237
2103.000000	57.224951
2102.000000	57.225735
2101.000000	57.226701
2100.000000	57.229340
2099.000000	57.235399
2098.000000	57.244376
2097.000000	57.253177
2096.000000	57.259148
2095.000000	57.260967
2094.000000	57.256299
2093.000000	57.242146
2092.000000	57.218629
2091.000000	57.190175
2090.000000	57.162138
2089.000000	57.138066
2088.000000	57.120462
2087.000000	57.111658
2086.000000	57.112601
2085.000000	57.122561
2084.000000	57.140646
2083.000000	57.165866
2082.000000	57.195571
2081.000000	57.226121
2080.000000	57.255642
2079.000000	57.284205
2078.000000	57.311309
2077.000000	57.335470
2076.000000	57.357491
2075.000000	57.381222
2074.000000	57.409890
2073.000000	57.444370
2072.000000	57.484755
2071.000000	57.531600
2070.000000	57.583871
2069.000000	57.637491
2068.000000	57.688352
2067.000000	57.735930
2066.000000	57.783322
2065.000000	57.834102
2064.000000	57.889079
2063.000000	57.945350
2062.000000	57.998897
2061.000000	58.048956
2060.000000	58.099435
2059.000000	58.154778
2058.000000	58.215405
2057.000000	58.278937
2056.000000	58.344324
2055.000000	58.411683
2054.000000	58.478950
2053.000000	58.542618
2052.000000	58.601260
2051.000000	58.655566
2050.000000	58.705320
2049.000000	58.749279
2048.000000	58.788328
2047.000000	58.825911
2046.000000	58.864216
2045.000000	58.902685
2044.000000	58.941684
2043.000000	58.984832
2042.000000	59.036407
2041.000000	59.097826
2040.000000	59.166854
2039.000000	59.238623
2038.000000	59.307485
2037.000000	59.370085
2036.000000	59.427369
2035.000000	59.482183
2034.000000	59.535625
2033.000000	59.587831
2032.000000	59.641179
2031.000000	59.698912
2030.000000	59.761559
2029.000000	59.827884
2028.000000	59.898176
2027.000000	59.973536
2026.000000	60.051472
2025.000000	60.127247
2024.000000	60.198378
2023.000000	60.264664
2022.000000	60.324016
2021.000000	60.371707
2020.000000	60.406669
2019.000000	60.435528
2018.000000	60.469696
2017.000000	60.519075
2016.000000	60.586932
2015.000000	60.668452
2014.000000	60.754892
2013.000000	60.840585
2012.000000	60.925479
2011.000000	61.010352
2010.000000	61.092183
2009.000000	61.167023
2008.000000	61.235192
2007.000000	61.299859
2006.000000	61.361750
2005.000000	61.421331
2004.000000	61.482728
2003.000000	61.551553
2002.000000	61.629506
2001.000000	61.714173
2000.000000	61.805370
1999.000000	61.903059
1998.000000	62.002645
1997.000000	62.095812
1996.000000	62.173866
1995.000000	62.230776
1994.000000	62.267080
1993.000000	62.295000
1992.000000	62.333358
1991.000000	62.389973
1990.000000	62.455350
1989.000000	62.521233
1988.000000	62.594405
1987.000000	62.683905
1986.000000	62.783608
1985.000000	62.878367
1984.000000	62.961319
1983.000000	63.034545
1982.000000	63.096791
1981.000000	63.142670
1980.000000	63.174357
1979.000000	63.200466
1978.000000	63.226327
1977.000000	63.253907
1976.000000	63.289093
1975.000000	63.339563
1974.000000	63.404789
1973.000000	63.477259
1972.000000	63.550895
1971.000000	63.619873
1970.000000	63.672739
1969.000000	63.701038
1968.000000	63.713946
1967.000000	63.732012
1966.000000	63.762676
1965.000000	63.794893
1964.000000	63.821302
1963.000000	63.850216
1962.000000	63.892100
1961.000000	63.948252
1960.000000	64.015535
1959.000000	64.090205
1958.000000	64.163777
1957.000000	64.224878
1956.000000	64.270427
1955.000000	64.305793
1954.000000	64.332631
1953.000000	64.347628
1952.000000	64.353043
1951.000000	64.360267
1950.000000	64.376749
1949.000000	64.401154
1948.000000	64.435349
1947.000000	64.483952
1946.000000	64.540353
1945.000000	64.588138
1944.000000	64.622769
1943.000000	64.659948
1942.000000	64.710832
1941.000000	64.759728
1940.000000	64.784572
1939.000000	64.786448
1938.000000	64.782706
1937.000000	64.786361
1936.000000	64.803288
1935.000000	64.837704
1934.000000	64.890904
1933.000000	64.957801
1932.000000	65.029027
1931.000000	65.097978
1930.000000	65.156009
1929.000000	65.193175
1928.000000	65.208717
1927.000000	65.205516
1926.000000	65.183159
1925.000000	65.140494
1924.000000	65.096642
1923.000000	65.090483
1922.000000	65.138746
1921.000000	65.217617
1920.000000	65.297760
1919.000000	65.375431
1918.000000	65.457749
1917.000000	65.531849
1916.000000	65.571792
1915.000000	65.573524
1914.000000	65.555081
1913.000000	65.529721
1912.000000	65.499444
1911.000000	65.471945
1910.000000	65.464457
1909.000000	65.491499
1908.000000	65.553040
1907.000000	65.634615
1906.000000	65.721287
1905.000000	65.799596
1904.000000	65.861356
1903.000000	65.906010
1902.000000	65.931691
1901.000000	65.936828
1900.000000	65.925525
1899.000000	65.904507
1898.000000	65.880029
1897.000000	65.858685
1896.000000	65.855196
1895.000000	65.887653
1894.000000	65.953054
1893.000000	66.023454
1892.000000	66.073994
1891.000000	66.104775
1890.000000	66.132017
1889.000000	66.162324
1888.000000	66.179302
1887.000000	66.165933
1886.000000	66.129382
1885.000000	66.092894
1884.000000	66.075681
1883.000000	66.083442
1882.000000	66.110144
1881.000000	66.149610
1880.000000	66.201758
1879.000000	66.263958
1878.000000	66.325980
1877.000000	66.374384
1876.000000	66.400793
1875.000000	66.406093
1874.000000	66.392794
1873.000000	66.361808
1872.000000	66.318231
1871.000000	66.270750
1870.000000	66.231257
1869.000000	66.223533
1868.000000	66.267405
1867.000000	66.347110
1866.000000	66.428352
1865.000000	66.492249
1864.000000	66.535745
1863.000000	66.559258
1862.000000	66.560986
1861.000000	66.541734
1860.000000	66.510657
1859.000000	66.480423
1858.000000	66.458194
1857.000000	66.446792
1856.000000	66.449179
1855.000000	66.468592
1854.000000	66.502676
1853.000000	66.542120
1852.000000	66.578718
1851.000000	66.599669
1850.000000	66.594096
1849.000000	66.566515
1848.000000	66.538894
1847.000000	66.533395
1846.000000	66.547538
1845.000000	66.563563
1844.000000	66.574907
1843.000000	66.575646
1842.000000	66.550133
1841.000000	66.508911
1840.000000	66.483340
1839.000000	66.487059
1838.000000	66.509382
1837.000000	66.528020
1836.000000	66.530982
1835.000000	66.518796
1834.000000	66.489592
1833.000000	66.439061
1832.000000	66.370261
1831.000000	66.297638
1830.000000	66.252965
1829.000000	66.247682
1828.000000	66.247909
1827.000000	66.232369
1826.000000	66.219209
1825.000000	66.232740
1824.000000	66.267529
1823.000000	66.288871
1822.000000	66.271942
1821.000000	66.220956
1820.000000	66.150881
1819.000000	66.071306
1818.000000	65.989950
1817.000000	65.917734
1816.000000	65.866341
1815.000000	65.831488
1814.000000	65.794021
1813.000000	65.750564
1812.000000	65.719454
1811.000000	65.718510
1810.000000	65.736218
1809.000000	65.741035
1808.000000	65.722138
1807.000000	65.688021
1806.000000	65.639583
1805.000000	65.567582
1804.000000	65.474794
1803.000000	65.383070
1802.000000	65.319540
1801.000000	65.309062
1800.000000	65.348202
1799.000000	65.398097
1798.000000	65.419387
1797.000000	65.410788
1796.000000	65.406374
1795.000000	65.425414
1794.000000	65.441285
1793.000000	65.419324
1792.000000	65.372465
1791.000000	65.331733
1790.000000	65.289779
1789.000000	65.235565
1788.000000	65.184904
1787.000000	65.153363
1786.000000	65.141284
1785.000000	65.138666
1784.000000	65.133611
1783.000000	65.107592
1782.000000	65.042851
1781.000000	64.955121
1780.000000	64.873916
1779.000000	64.803179
1778.000000	64.718400
1777.000000	64.614177
1776.000000	64.529663
1775.000000	64.496823
1774.000000	64.498541
1773.000000	64.499500
1772.000000	64.502038
1771.000000	64.499574
1770.000000	64.451703
1769.000000	64.357456
1768.000000	64.264619
1767.000000	64.201107
1766.000000	64.138532
1765.000000	64.046447
1764.000000	63.938405
1763.000000	63.848617
1762.000000	63.794287
1761.000000	63.757468
1760.000000	63.705668
1759.000000	63.644397
1758.000000	63.597749
1757.000000	63.576737
1756.000000	63.575504
1755.000000	63.560337
1754.000000	63.496960
1753.000000	63.372801
1752.000000	63.200417
1751.000000	63.020878
1750.000000	62.868470
1749.000000	62.740753
1748.000000	62.647603
1747.000000	62.598727
1746.000000	62.561565
1745.000000	62.506288
1744.000000	62.452100
1743.000000	62.442018
1742.000000	62.465522
1741.000000	62.452780
1740.000000	62.364770
1739.000000	62.240227
1738.000000	62.123172
1737.000000	62.023652
1736.000000	61.929766
1735.000000	61.810184
1734.000000	61.674983
1733.000000	61.522895
1732.000000	61.309335
1731.000000	61.083274
1730.000000	60.920757
1729.000000	60.812370
1728.000000	60.708578
1727.000000	60.571056
1726.000000	60.387252
1725.000000	60.160259
1724.000000	59.914960
1723.000000	59.700199
1722.000000	59.541121
1721.000000	59.418450
1720.000000	59.295621
1719.000000	59.131907
1718.000000	58.921620
1717.000000	58.704839
1716.000000	58.494355
1715.000000	58.277919
1714.000000	58.055427
1713.000000	57.815234
1712.000000	57.553156
1711.000000	57.289354
1710.000000	57.039580
1709.000000	56.804322
1708.000000	56.577058
1707.000000	56.345425
1706.000000	56.111152
1705.000000	55.910751
1704.000000	55.785676
1703.000000	55.744770
1702.000000	55.727388
1701.000000	55.598277
1700.000000	55.311305
1699.000000	54.938413
1698.000000	54.535637
1697.000000	54.155537
1696.000000	53.849913
1695.000000	53.608397
1694.000000	53.342734
1693.000000	53.022455
1692.000000	52.699619
1691.000000	52.402841
1690.000000	52.128450
1689.000000	51.884119
1688.000000	51.700539
1687.000000	51.575119
1686.000000	51.430592
1685.000000	51.144567
1684.000000	50.776580
1683.000000	50.464952
1682.000000	50.149776
1681.000000	49.809042
1680.000000	49.525785
1679.000000	49.345602
1678.000000	49.245122
1677.000000	49.143287
1676.000000	48.975166
1675.000000	48.743270
1674.000000	48.477167
1673.000000	48.186393
1672.000000	47.890389
1671.000000	47.612039
1670.000000	47.353807
1669.000000	47.109064
1668.000000	46.868139
1667.000000	46.637120
1666.000000	46.435059
1665.000000	46.252241
1664.000000	46.056797
1663.000000	45.845570
1662.000000	45.632202
1661.000000	45.403268
1660.000000	45.147489
1659.000000	44.888583
1658.000000	44.663737
1657.000000	44.502694
1656.000000	44.416488
1655.000000	44.366012
1654.000000	44.247324
1653.000000	44.063801
1652.000000	43.830469
1651.000000	43.486343
1650.000000	43.131320
1649.000000	42.843557
1648.000000	42.589648
1647.000000	42.375832
1646.000000	42.214124
1645.000000	42.029221
1644.000000	41.773423
1643.000000	41.505889
1642.000000	41.268688
1641.000000	41.060757
1640.000000	40.879686
1639.000000	40.738566
1638.000000	40.636594
1637.000000	40.529938
1636.000000	40.398259
1635.000000	40.264451
1634.000000	40.094784
1633.000000	39.857166
1632.000000	39.603386
1631.000000	39.384358
1630.000000	39.199844
1629.000000	39.023259
1628.000000	38.851624
1627.000000	38.711115
1626.000000	38.605486
1625.000000	38.505110
1624.000000	38.385725
1623.000000	38.263634
1622.000000	38.157015
1621.000000	38.055538
1620.000000	37.962641
1619.000000	37.894605
1618.000000	37.835995
1617.000000	37.750504
1616.000000	37.631480
1615.000000	37.496718
1614.000000	37.366969
1613.000000	37.258663
1612.000000	37.176106
1611.000000	37.119944
1610.000000	37.085563
1609.000000	37.058177
1608.000000	37.027778
1607.000000	36.999566
1606.000000	36.973783
1605.000000	36.937158
1604.000000	36.883659
1603.000000	36.830824
1602.000000	36.799440
1601.000000	36.785868
1600.000000	36.778234
1599.000000	36.778905
1598.000000	36.792596
1597.000000	36.809953
1596.000000	36.821558
1595.000000	36.834779
1594.000000	36.855637
1593.000000	36.870542
1592.000000	36.865787
1591.000000	36.850165
1590.000000	36.839918
1589.000000	36.835991
1588.000000	36.832312
1587.000000	36.835071
1586.000000	36.852934
1585.000000	36.878965
1584.000000	36.903000
1583.000000	36.925262
1582.000000	36.948984
1581.000000	36.967058
1580.000000	36.975660
1579.000000	36.986744
1578.000000	37.006954
1577.000000	37.015492
1576.000000	36.995611
1575.000000	36.950071
1574.000000	36.883126
1573.000000	36.821247
1572.000000	36.790721
1571.000000	36.788190
1570.000000	36.801219
1569.000000	36.814881
1568.000000	36.802905
1567.000000	36.761991
1566.000000	36.722623
1565.000000	36.701222
1564.000000	36.702313
1563.000000	36.749793
1562.000000	36.861524
1561.000000	37.009996
1560.000000	37.081488
1559.000000	37.125435
1558.000000	37.282881
1557.000000	37.367542
1556.000000	37.325475
1555.000000	37.311987
1554.000000	37.365742
1553.000000	37.438140
1552.000000	37.476445
1551.000000	37.509331
1550.000000	37.593655
1549.000000	37.733878
1548.000000	37.881753
1547.000000	38.007161
1546.000000	38.123794
1545.000000	38.260358
1544.000000	38.441105
1543.000000	38.669536
1542.000000	38.925784
1541.000000	39.186895
1540.000000	39.477143
1539.000000	39.761560
1538.000000	39.911557
1537.000000	39.940980
1536.000000	39.973172
1535.000000	40.076209
1534.000000	40.267961
1533.000000	40.530393
1532.000000	40.792926
1531.000000	41.008449
1530.000000	41.208688
1529.000000	41.428977
1528.000000	41.677270
1527.000000	41.959652
1526.000000	42.275355
1525.000000	42.594661
1524.000000	42.889494
1523.000000	43.178847
1522.000000	43.519287
1521.000000	43.920624
1520.000000	44.280487
1519.000000	44.535800
1518.000000	44.766911
1517.000000	45.070826
1516.000000	45.455833
1515.000000	45.851252
1514.000000	46.207897
1513.000000	46.530865
1512.000000	46.822551
1511.000000	47.085637
1510.000000	47.333951
1509.000000	47.599750
1508.000000	47.947687
1507.000000	48.542379
1506.000000	49.346644
1505.000000	49.927283
1504.000000	50.152978
1503.000000	50.282784
1502.000000	50.492853
1501.000000	50.808239
1500.000000	51.180702
1499.000000	51.573456
1498.000000	51.980684
1497.000000	52.396840
1496.000000	52.787542
1495.000000	53.107865
1494.000000	53.348568
1493.000000	53.540004
1492.000000	53.714506
1491.000000	53.906284
1490.000000	54.163004
1489.000000	54.495496
1488.000000	54.850527
1487.000000	55.185654
1486.000000	55.484284
1485.000000	55.724113
1484.000000	55.904499
1483.000000	56.055044
1482.000000	56.208727
1481.000000	56.364511
1480.000000	56.500496
1479.000000	56.607893
1478.000000	56.686400
1477.000000	56.732734
1476.000000	56.758585
1475.000000	56.788556
1474.000000	56.813725
1473.000000	56.811554
1472.000000	56.783397
1471.000000	56.703016
1470.000000	56.524079
1469.000000	56.256975
1468.000000	55.946940
1467.000000	55.611635
1466.000000	55.203241
1465.000000	54.670516
1464.000000	54.057993
1463.000000	53.456179
1462.000000	52.904497
1461.000000	52.400976
1460.000000	51.946677
1459.000000	51.522370
1458.000000	51.036582
1457.000000	50.417679
1456.000000	49.720632
1455.000000	49.002069
1454.000000	48.252316
1453.000000	47.436401
1452.000000	46.552843
1451.000000	45.639810
1450.000000	44.671634
1449.000000	43.559913
1448.000000	42.304245
1447.000000	41.016415
1446.000000	39.738620
1445.000000	38.408967
1444.000000	36.988715
1443.000000	35.489533
1442.000000	33.911099
1441.000000	32.272435
1440.000000	30.652458
1439.000000	29.053869
1438.000000	27.264746
1437.000000	25.086798
1436.000000	22.794654
1435.000000	20.864793
1434.000000	19.335641
1433.000000	17.983936
1432.000000	16.738051
1431.000000	15.667574
1430.000000	14.803305
1429.000000	14.136461
1428.000000	13.735520
1427.000000	13.659910
1426.000000	13.856255
1425.000000	14.268620
1424.000000	14.922957
1423.000000	15.795867
1422.000000	16.763276
1421.000000	17.781528
1420.000000	18.969024
1419.000000	20.372172
1418.000000	21.769951
1417.000000	22.970370
1416.000000	24.055282
1415.000000	25.152468
1414.000000	26.257287
1413.000000	27.328281
1412.000000	28.392413
1411.000000	29.485095
1410.000000	30.570129
1409.000000	31.601610
1408.000000	32.599155
1407.000000	33.606382
1406.000000	34.632795
1405.000000	35.674160
1404.000000	36.718801
1403.000000	37.717817
1402.000000	38.630135
1401.000000	39.490640
1400.000000	40.378137
1399.000000	41.307094
1398.000000	42.209198
1397.000000	43.062644
1396.000000	43.952139
1395.000000	44.946891
1394.000000	45.986988
1393.000000	46.960871
1392.000000	47.841453
1391.000000	48.673050
1390.000000	49.493550
1389.000000	50.325760
1388.000000	51.185876
1387.000000	52.052320
1386.000000	52.858575
1385.000000	53.566112
1384.000000	54.196966
1383.000000	54.772541
1382.000000	55.277896
1381.000000	55.684758
1380.000000	55.971792
1379.000000	56.112962
1378.000000	56.075528
1377.000000	55.828609
1376.000000	55.332608
1375.000000	54.552027
1374.000000	53.514487
1373.000000	52.318609
1372.000000	51.060112
1371.000000	49.808894
1370.000000	48.660394
1369.000000	47.766599
1368.000000	47.279722
1367.000000	47.256654
1366.000000	47.655651
1365.000000	48.418503
1364.000000	49.518333
1363.000000	50.924707
1362.000000	52.530442
1361.000000	54.157577
1360.000000	55.655266
1359.000000	56.948949
1358.000000	58.008069
1357.000000	58.811124
1356.000000	59.331259
1355.000000	59.541045
1354.000000	59.427562
1353.000000	58.990587
1352.000000	58.234026
1351.000000	57.164598
1350.000000	55.801987
1349.000000	54.187995
1348.000000	52.365586
1347.000000	50.368464
1346.000000	48.228714
1345.000000	45.986170
1344.000000	43.690249
1343.000000	41.379032
1342.000000	39.060348
1341.000000	36.736628
1340.000000	34.469850
1339.000000	32.399094
1338.000000	30.655162
1337.000000	29.273656
1336.000000	28.212672
1335.000000	27.405101
1334.000000	26.765258
1333.000000	26.190518
1332.000000	25.584936
1331.000000	24.874587
1330.000000	23.999447
1329.000000	22.910961
1328.000000	21.596205
1327.000000	20.096204
1326.000000	18.488718
1325.000000	16.864023
1324.000000	15.323025
1323.000000	13.966800
1322.000000	12.854700
1321.000000	11.982226
1320.000000	11.310318
1319.000000	10.791856
1318.000000	10.371598
1317.000000	9.996957
1316.000000	9.648182
1315.000000	9.342418
1314.000000	9.094362
1313.000000	8.897716
1312.000000	8.746114
1311.000000	8.641189
1310.000000	8.578171
1309.000000	8.548204
1308.000000	8.564977
1307.000000	8.664061
1306.000000	8.867995
1305.000000	9.178027
1304.000000	9.595948
1303.000000	10.126208
1302.000000	10.753376
1301.000000	11.441330
1300.000000	12.163309
1299.000000	12.908767
1298.000000	13.663368
1297.000000	14.407639
1296.000000	15.134529
1295.000000	15.848438
1294.000000	16.545343
1293.000000	17.211931
1292.000000	17.842369
1291.000000	18.438430
1290.000000	18.990551
1289.000000	19.476864
1288.000000	19.880190
1287.000000	20.189820
1286.000000	20.394030
1285.000000	20.488373
1284.000000	20.498052
1283.000000	20.480275
1282.000000	20.498778
1281.000000	20.603053
1280.000000	20.824622
1279.000000	21.170321
1278.000000	21.613823
1277.000000	22.110913
1276.000000	22.627211
1275.000000	23.145410
1274.000000	23.653460
1273.000000	24.141703
1272.000000	24.611348
1271.000000	25.070049
1270.000000	25.517830
1269.000000	25.947875
1268.000000	26.359169
1267.000000	26.755801
1266.000000	27.136315
1265.000000	27.494704
1264.000000	27.831170
1263.000000	28.153057
1262.000000	28.464775
1261.000000	28.767391
1260.000000	29.066332
1259.000000	29.368593
1258.000000	29.673942
1257.000000	29.976976
1256.000000	30.276350
1255.000000	30.573279
1254.000000	30.863435
1253.000000	31.139481
1252.000000	31.399989
1251.000000	31.648869
1250.000000	31.888030
1249.000000	32.117722
1248.000000	32.342732
1247.000000	32.570628
1246.000000	32.804697
1245.000000	33.044281
1244.000000	33.289933
1243.000000	33.541860
1242.000000	33.794470
1241.000000	34.038949
1240.000000	34.270399
1239.000000	34.487627
1238.000000	34.688808
1237.000000	34.873296
1236.000000	35.046627
1235.000000	35.218419
1234.000000	35.395298
1233.000000	35.580041
1232.000000	35.775493
1231.000000	35.983692
1230.000000	36.201690
1229.000000	36.422537
1228.000000	36.640063
1227.000000	36.849524
1226.000000	37.045759
1225.000000	37.225474
1224.000000	37.390578
1223.000000	37.546530
1222.000000	37.698546
1221.000000	37.851807
1220.000000	38.013258
1219.000000	38.188923
1218.000000	38.379924
1217.000000	38.583174
1216.000000	38.794002
1215.000000	39.005689
1214.000000	39.208938
1213.000000	39.395781
1212.000000	39.563461
1211.000000	39.713153
1210.000000	39.847702
1209.000000	39.972817
1208.000000	40.098352
1207.000000	40.234825
1206.000000	40.388501
1205.000000	40.560999
1204.000000	40.751393
1203.000000	40.955631
1202.000000	41.165259
1201.000000	41.369793
1200.000000	41.560444
1199.000000	41.730926
1198.000000	41.877112
1197.000000	41.998585
1196.000000	42.098781
1195.000000	42.182994
1194.000000	42.255200
1193.000000	42.316203
1192.000000	42.363719
1191.000000	42.391512
1190.000000	42.391728
1189.000000	42.360321
1188.000000	42.301680
1187.000000	42.229476
1186.000000	42.162544
1185.000000	42.119022
1184.000000	42.111184
1183.000000	42.142670
1182.000000	42.209250
1181.000000	42.305756
1180.000000	42.431895
1179.000000	42.590675
1178.000000	42.783062
1177.000000	43.003473
1176.000000	43.240853
1175.000000	43.481313
1174.000000	43.710687
1173.000000	43.917413
1172.000000	44.094616
1171.000000	44.241327
1170.000000	44.362997
1169.000000	44.470007
1168.000000	44.573624
1167.000000	44.683450
1166.000000	44.807373
1165.000000	44.951587
1164.000000	45.118712
1163.000000	45.306026
1162.000000	45.506218
1161.000000	45.709401
1160.000000	45.904398
1159.000000	46.080883
1158.000000	46.233163
1157.000000	46.362056
1156.000000	46.472803
1155.000000	46.572915
1154.000000	46.672367
1153.000000	46.782055
1152.000000	46.909762
1151.000000	47.057812
1150.000000	47.224326
1149.000000	47.404368
1148.000000	47.589033
1147.000000	47.766491
1146.000000	47.926495
1145.000000	48.063006
1144.000000	48.173259
1143.000000	48.257596
1142.000000	48.322272
1141.000000	48.379321
1140.000000	48.441226
1139.000000	48.517270
1138.000000	48.613718
1137.000000	48.733379
1136.000000	48.872912
1135.000000	49.022808
1134.000000	49.171629
1133.000000	49.308879
1132.000000	49.424647
1131.000000	49.511575
1130.000000	49.569660
1129.000000	49.607361
1128.000000	49.637015
1127.000000	49.671445
1126.000000	49.723613
1125.000000	49.803887
1124.000000	49.915207
1123.000000	50.052856
1122.000000	50.208782
1121.000000	50.372781
1120.000000	50.530510
1119.000000	50.666311
1118.000000	50.771233
1117.000000	50.846027
1116.000000	50.896966
1115.000000	50.933380
1114.000000	50.969554
1113.000000	51.022556
1112.000000	51.104903
1111.000000	51.221039
1110.000000	51.370027
1109.000000	51.546186
1108.000000	51.735999
1107.000000	51.920309
1106.000000	52.082783
1105.000000	52.214383
1104.000000	52.310949
1103.000000	52.373026
1102.000000	52.409679
1101.000000	52.437060
1100.000000	52.471549
1099.000000	52.525600
1098.000000	52.609536
1097.000000	52.729458
1096.000000	52.880920
1095.000000	53.049706
1094.000000	53.219826
1093.000000	53.377447
1092.000000	53.508864
1091.000000	53.603562
1090.000000	53.662345
1089.000000	53.697642
1088.000000	53.725076
1087.000000	53.759232
1086.000000	53.815828
1085.000000	53.908921
1084.000000	54.042373
1083.000000	54.207654
1082.000000	54.390537
1081.000000	54.574975
1080.000000	54.741988
1079.000000	54.873765
1078.000000	54.963057
1077.000000	55.013842
1076.000000	55.034328
1075.000000	55.035634
1074.000000	55.034928
1073.000000	55.050852
1072.000000	55.091459
1071.000000	55.151115
1070.000000	55.216894
1069.000000	55.269133
1068.000000	55.278657
1067.000000	55.211460
1066.000000	55.043987
1065.000000	54.773555
1064.000000	54.417971
1063.000000	54.017395
1062.000000	53.633026
1061.000000	53.331387
1060.000000	53.160344
1059.000000	53.139052
1058.000000	53.260281
1057.000000	53.497764
1056.000000	53.811930
1055.000000	54.156929
1054.000000	54.494476
1053.000000	54.797629
1052.000000	55.047251
1051.000000	55.233242
1050.000000	55.361917
1049.000000	55.454440
1048.000000	55.535321
1047.000000	55.625685
1046.000000	55.743759
1045.000000	55.901490
1044.000000	56.096831
1043.000000	56.315148
1042.000000	56.539116
1041.000000	56.752781
1040.000000	56.938471
1039.000000	57.080280
1038.000000	57.174712
1037.000000	57.232423
1036.000000	57.269326
1035.000000	57.303383
1034.000000	57.357274
1033.000000	57.453065
1032.000000	57.600111
1031.000000	57.792891
1030.000000	58.018897
1029.000000	58.261686
1028.000000	58.497389
1027.000000	58.699525
1026.000000	58.851990
1025.000000	58.952912
1024.000000	59.007765
1023.000000	59.028563
1022.000000	59.039130
1021.000000	59.068709
1020.000000	59.137489
1019.000000	59.252614
1018.000000	59.414982
1017.000000	59.619085
1016.000000	59.846101
1015.000000	60.067213
1014.000000	60.257855
1013.000000	60.403880
1012.000000	60.497260
1011.000000	60.537986
1010.000000	60.542269
1009.000000	60.538354
1008.000000	60.551625
1007.000000	60.599357
1006.000000	60.695260
1005.000000	60.846199
1004.000000	61.042765
1003.000000	61.261972
1002.000000	61.480312
1001.000000	61.678206
1000.000000	61.835427
999.000000	61.936203
998.000000	61.982197
997.000000	61.992026
996.000000	61.987317
995.000000	61.987908
994.000000	62.017009
993.000000	62.096461
992.000000	62.232566
991.000000	62.414023
990.000000	62.623311
989.000000	62.841730
988.000000	63.045039
987.000000	63.207703
986.000000	63.317160
985.000000	63.377487
984.000000	63.399879
983.000000	63.399413
982.000000	63.400587
981.000000	63.432070
980.000000	63.511580
979.000000	63.641649
978.000000	63.818397
977.000000	64.032679
976.000000	64.263014
975.000000	64.479383
974.000000	64.658840
973.000000	64.790838
972.000000	64.870322
971.000000	64.898466
970.000000	64.891520
969.000000	64.877592
968.000000	64.881135
967.000000	64.918047
966.000000	65.001594
965.000000	65.139620
964.000000	65.323168
963.000000	65.528564
962.000000	65.732260
961.000000	65.916581
960.000000	66.063544
959.000000	66.158145
958.000000	66.201061
957.000000	66.208709
956.000000	66.199857
955.000000	66.191356
954.000000	66.204826
953.000000	66.262128
952.000000	66.370785
951.000000	66.521823
950.000000	66.701731
949.000000	66.895502
948.000000	67.080544
947.000000	67.231842
946.000000	67.337403
945.000000	67.399057
944.000000	67.420895
943.000000	67.409422
942.000000	67.384087
941.000000	67.373034
940.000000	67.395310
939.000000	67.456707
938.000000	67.559402
937.000000	67.702104
936.000000	67.869678
935.000000	68.036499
934.000000	68.182298
933.000000	68.296156
932.000000	68.367248
931.000000	68.387748
930.000000	68.365690
929.000000	68.323020
928.000000	68.279662
927.000000	68.249486
926.000000	68.248763
925.000000	68.292095
924.000000	68.378160
923.000000	68.490185
922.000000	68.610645
921.000000	68.724157
920.000000	68.808943
919.000000	68.841826
918.000000	68.815178
917.000000	68.736910
916.000000	68.617440
915.000000	68.468896
914.000000	68.314561
913.000000	68.182362
912.000000	68.085671
911.000000	68.021707
910.000000	67.984105
909.000000	67.963260
908.000000	67.936182
907.000000	67.871522
906.000000	67.748447
905.000000	67.559694
904.000000	67.300002
903.000000	66.969511
902.000000	66.585904
901.000000	66.180128
900.000000	65.777081
899.000000	65.388963
898.000000	65.024056
897.000000	64.683827
896.000000	64.352843
895.000000	64.003052
894.000000	63.608641
893.000000	63.150303
892.000000	62.608304
891.000000	61.969386
890.000000	61.240631
889.000000	60.444305
888.000000	59.603596
887.000000	58.738288
886.000000	57.869146
885.000000	57.011487
884.000000	56.162700
883.000000	55.305858
882.000000	54.420526
881.000000	53.485951
880.000000	52.480891
879.000000	51.390713
878.000000	50.217373
877.000000	48.976313
876.000000	47.689927
875.000000	46.387775
874.000000	45.103867
873.000000	43.865925
872.000000	42.688232
871.000000	41.575189
870.000000	40.524218
869.000000	39.525764
868.000000	38.564856
867.000000	37.628070
866.000000	36.707856
865.000000	35.801114
864.000000	34.912313
863.000000	34.054006
862.000000	33.240930
861.000000	32.484019
860.000000	31.789775
859.000000	31.163503
858.000000	30.604061
857.000000	30.100034
856.000000	29.636874
855.000000	29.202770
854.000000	28.789233
853.000000	28.389774
852.000000	28.004998
851.000000	27.646474
850.000000	27.328013
849.000000	27.060270
848.000000	26.854307
847.000000	26.723585
846.000000	26.678193
845.000000	26.716720
844.000000	26.832213
843.000000	27.019077
842.000000	27.270065
841.000000	27.575250
840.000000	27.925982
839.000000	28.321850
838.000000	28.766974
837.000000	29.263246
836.000000	29.815446
835.000000	30.435255
834.000000	31.130410
833.000000	31.879312
832.000000	32.612692
831.000000	33.184968
830.000000	33.346399
829.000000	32.761288
828.000000	31.169207
827.000000	28.652899
826.000000	25.752080
825.000000	23.239316
824.000000	21.702557
823.000000	21.299313
822.000000	21.841681
821.000000	23.031682
820.000000	24.582532
819.000000	26.227706
818.000000	27.757884
817.000000	29.076450
816.000000	30.199081
815.000000	31.173351
814.000000	32.026258
813.000000	32.773811
812.000000	33.439584
811.000000	34.042429
810.000000	34.591026
809.000000	35.099925
808.000000	35.592375
807.000000	36.084538
806.000000	36.578606
805.000000	37.075611
804.000000	37.577734
803.000000	38.074254
802.000000	38.543127
801.000000	38.970176
800.000000	39.355716
799.000000	39.703016
798.000000	40.015568
797.000000	40.308093
796.000000	40.604589
795.000000	40.922697
794.000000	41.269398
793.000000	41.649607
792.000000	42.064841
791.000000	42.502608
790.000000	42.939451
789.000000	43.356115
788.000000	43.741461
787.000000	44.085812
786.000000	44.384225
785.000000	44.646124
784.000000	44.891482
783.000000	45.137826
782.000000	45.398752
781.000000	45.689498
780.000000	46.021442
779.000000	46.390855
778.000000	46.781261
777.000000	47.174686
776.000000	47.553532
775.000000	47.897225
774.000000	48.190133
773.000000	48.432548
772.000000	48.636934
771.000000	48.817265
770.000000	48.989035
769.000000	49.173498
768.000000	49.389737
767.000000	49.643561
766.000000	49.929588
765.000000	50.239213
764.000000	50.558793
763.000000	50.865892
762.000000	51.138148
761.000000	51.364971
760.000000	51.545742
759.000000	51.684200
758.000000	51.792369
757.000000	51.893380
756.000000	52.011081
755.000000	52.159586
754.000000	52.346328
753.000000	52.575861
752.000000	52.842540
751.000000	53.126444
750.000000	53.404972
749.000000	53.663330
748.000000	53.889565
747.000000	54.070908
746.000000	54.205753
745.000000	54.311530
744.000000	54.411891
743.000000	54.522515
742.000000	54.654674
741.000000	54.820652
740.000000	55.024486
739.000000	55.254437
738.000000	55.493105
737.000000	55.727563
736.000000	55.943479
735.000000	56.120696
734.000000	56.245711
733.000000	56.321410
732.000000	56.357686
731.000000	56.363081
730.000000	56.352244
729.000000	56.348603
728.000000	56.369147
727.000000	56.414897
726.000000	56.481966
725.000000	56.571170
724.000000	56.678669
723.000000	56.788765
722.000000	56.886629
721.000000	56.969874
720.000000	57.040317
719.000000	57.096930
718.000000	57.146828
717.000000	57.211384
716.000000	57.310572
715.000000	57.450293
714.000000	57.631852
713.000000	57.859505
712.000000	58.128002
711.000000	58.414651
710.000000	58.695569
709.000000	58.958783
708.000000	59.194507
707.000000	59.389280
706.000000	59.541790
705.000000	59.671514
704.000000	59.800261
703.000000	59.935856
702.000000	60.083404
701.000000	60.256685
700.000000	60.463840
699.000000	60.695650
698.000000	60.937950
697.000000	61.182547
696.000000	61.416062
695.000000	61.614671
694.000000	61.765570
693.000000	61.880063
692.000000	61.973677
691.000000	62.051991
690.000000	62.126398
689.000000	62.223704
688.000000	62.362147
687.000000	62.532532
686.000000	62.720637
685.000000	62.926456
684.000000	63.143754
683.000000	63.344708
682.000000	63.505977
681.000000	63.630136
680.000000	63.725813
679.000000	63.790483
678.000000	63.832417
677.000000	63.881369
676.000000	63.958311
675.000000	64.065943
674.000000	64.207596
673.000000	64.391621
672.000000	64.612787
671.000000	64.853897
670.000000	65.110636
669.000000	65.387278
668.000000	65.627123
667.000000	65.725831
666.000000	65.700838
665.000000	65.655516
664.000000	65.652005
663.000000	65.705844
662.000000	65.814747
661.000000	65.975046
660.000000	66.180780
659.000000	66.417395
658.000000	66.667038
657.000000	66.913501
656.000000	67.136597
655.000000	67.320678
654.000000	67.463821
653.000000	67.575189
652.000000	67.669569
651.000000	67.765526
650.000000	67.885308
649.000000	68.046473
648.000000	68.251657
647.000000	68.490242
646.000000	68.749204
645.000000	69.017833
644.000000	69.278501
643.000000	69.504234
642.000000	69.677074
641.000000	69.801074
640.000000	69.890872
639.000000	69.960344
638.000000	70.028011
637.000000	70.120136
636.000000	70.259499
635.000000	70.454870
634.000000	70.703498
633.000000	70.993479
632.000000	71.298738
631.000000	71.583277
630.000000	71.820746
629.000000	72.003410
628.000000	72.131654
627.000000	72.212149
626.000000	72.271789
625.000000	72.352854
624.000000	72.482092
623.000000	72.659187
622.000000	72.879239
621.000000	73.145013
620.000000	73.448669
619.000000	73.762277
618.000000	74.058000
617.000000	74.322576
616.000000	74.544042
615.000000	74.708073
614.000000	74.820100
613.000000	74.910904
612.000000	75.007580
611.000000	75.117637
610.000000	75.244355
609.000000	75.387875
608.000000	75.519340
607.000000	75.567665
606.000000	75.444688
605.000000	75.052549
604.000000	74.249427
603.000000	72.843985
602.000000	70.623263
601.000000	67.425150
600.000000	63.250487
599.000000	58.396812
598.000000	53.471062
597.000000	49.190060
596.000000	46.129631
595.000000	44.568600
594.000000	44.448083
593.000000	45.449601
592.000000	47.176593
591.000000	49.258203
590.000000	51.382903
589.000000	53.361020
588.000000	55.133098
587.000000	56.717985
586.000000	58.150294
585.000000	59.459287
584.000000	60.664269
583.000000	61.777772
582.000000	62.815080
581.000000	63.796474
580.000000	64.726233
579.000000	65.575168
578.000000	66.315068
577.000000	66.952081
576.000000	67.508983
575.000000	67.994084
574.000000	68.406845
573.000000	68.765974
572.000000	69.101607
571.000000	69.432544
570.000000	69.770738
569.000000	70.129864
568.000000	70.511685
567.000000	70.894517
566.000000	71.251907
565.000000	71.573582
564.000000	71.852553
563.000000	72.076320
562.000000	72.248248
561.000000	72.398007
560.000000	72.554379
559.000000	72.724987
558.000000	72.914469
557.000000	73.136906
556.000000	73.395228
555.000000	73.669737
554.000000	73.943599
553.000000	74.217135
552.000000	74.484044
551.000000	74.720042
550.000000	74.913828
549.000000	75.081953
548.000000	75.238197
547.000000	75.379693
546.000000	75.517200
545.000000	75.682733
544.000000	75.887239
543.000000	76.106515
542.000000	76.322817
541.000000	76.547225
540.000000	76.782821
539.000000	77.003895
538.000000	77.192538
537.000000	77.363864
536.000000	77.532210
535.000000	77.687320
534.000000	77.823066
533.000000	77.960066
532.000000	78.112028
531.000000	78.263384
530.000000	78.404280
529.000000	78.550115
528.000000	78.707393
527.000000	78.860965
526.000000	79.013525
525.000000	79.186225
524.000000	79.359627
523.000000	79.464063
522.000000	79.448734
521.000000	79.310170
520.000000	79.043645
519.000000	78.619357
518.000000	78.040722
517.000000	77.393701
516.000000	76.795995
515.000000	76.334039
514.000000	76.064914
513.000000	76.026141
512.000000	76.194213
511.000000	76.466570
510.000000	76.719141
509.000000	76.862863
508.000000	76.813358
507.000000	76.467849
506.000000	75.754560
505.000000	74.658846
504.000000	73.192266
503.000000	71.433801
502.000000	69.649914
501.000000	68.223114
500.000000	67.388641
499.000000	67.140388
498.000000	67.365521
497.000000	67.926761
496.000000	68.646545
495.000000	69.332655
494.000000	69.866496
493.000000	70.256293
492.000000	70.579801
491.000000	70.921437
490.000000	71.355932
489.000000	71.931985
488.000000	72.631601
487.000000	73.382837
486.000000	74.133533
485.000000	74.879741
484.000000	75.608327
483.000000	76.270420
482.000000	76.847592
481.000000	77.379402
480.000000	77.891592
479.000000	78.360172
478.000000	78.768607
477.000000	79.146520
476.000000	79.515355
475.000000	79.850717
474.000000	80.144282
473.000000	80.444669
472.000000	80.777726
471.000000	81.076327
470.000000	81.271914
469.000000	81.397857
468.000000	81.519929
467.000000	81.649814
466.000000	81.763574
465.000000	81.865088
464.000000	81.966291
463.000000	82.051149
462.000000	82.121745
461.000000	82.222499
460.000000	82.367739
459.000000	82.500424
458.000000	82.579705
457.000000	82.648009
456.000000	82.715484
455.000000	82.716602
454.000000	82.637892
453.000000	82.559446
452.000000	82.548653
451.000000	82.556771
450.000000	82.483980
449.000000	82.299535
448.000000	82.007623
447.000000	81.570003
446.000000	80.934606
445.000000	80.080042
444.000000	78.958884
443.000000	77.477917
442.000000	75.605073
441.000000	73.435668
440.000000	71.089581
439.000000	68.643897
438.000000	66.202148
437.000000	63.987126
436.000000	62.294800
435.000000	61.323074
434.000000	61.060705
433.000000	61.380366
432.000000	62.183171
431.000000	63.357866
430.000000	64.752186
429.000000	66.264783
428.000000	67.851154
427.000000	69.437781
426.000000	70.946434
425.000000	72.402926
424.000000	73.849371
423.000000	75.190677
422.000000	76.295076
421.000000	77.197394
420.000000	78.019809
419.000000	78.839651
418.000000	79.671701
417.000000	80.434779
416.000000	81.082589
415.000000	81.594004
414.000000	81.976689
413.000000	82.368897
412.000000	82.868187
411.000000	83.344465
410.000000	83.663168
409.000000	83.930409
408.000000	84.269198
407.000000	84.568060
406.000000	84.672086
405.000000	84.741634
404.000000	84.879736
403.000000	84.922236
402.000000	84.697975
401.000000	84.329772
400.000000	83.989880
