PE IR       SUBTECH     SPECTRUM    ASCII       PEDS        4.00        
   -1
23ms052_nitrito.asc
24/09/05
17:05:08.00
24/09/05
17:05:08.00
Administrator
Sample 1115 By Administrator Date Thursday, September 05 2024
400.000000
#HDR
-1
-1
#GR
cm-1
%T
1.0
0.0
4000.000000
-1.000000
3601
8
89.031667
3.922412
#DATA
4000.000000	67.234437
3999.000000	67.297931
3998.000000	67.361107
3997.000000	67.424414
3996.000000	67.487822
3995.000000	67.550835
3994.000000	67.613348
3993.000000	67.676113
3992.000000	67.740049
3991.000000	67.805057
3990.000000	67.869945
3989.000000	67.933936
3988.000000	67.997694
3987.000000	68.062309
3986.000000	68.127878
3985.000000	68.193313
3984.000000	68.257440
3983.000000	68.319599
3982.000000	68.379413
3981.000000	68.436701
3980.000000	68.491779
3979.000000	68.546076
3978.000000	68.601709
3977.000000	68.659881
3976.000000	68.720236
3975.000000	68.781397
3974.000000	68.842297
3973.000000	68.903076
3972.000000	68.964352
3971.000000	69.026452
3970.000000	69.088494
3969.000000	69.148679
3968.000000	69.205520
3967.000000	69.258525
3966.000000	69.308611
3965.000000	69.357926
3964.000000	69.408772
3963.000000	69.461705
3962.000000	69.515637
3961.000000	69.569421
3960.000000	69.623483
3959.000000	69.679870
3958.000000	69.739196
3957.000000	69.799794
3956.000000	69.859826
3955.000000	69.918820
3954.000000	69.977814
3953.000000	70.037362
3952.000000	70.096940
3951.000000	70.155653
3950.000000	70.212492
3949.000000	70.266570
3948.000000	70.317945
3947.000000	70.369566
3946.000000	70.427089
3945.000000	70.494714
3944.000000	70.569841
3943.000000	70.642251
3942.000000	70.703732
3941.000000	70.756614
3940.000000	70.809366
3939.000000	70.867611
3938.000000	70.928353
3937.000000	70.985185
3936.000000	71.038064
3935.000000	71.093189
3934.000000	71.157048
3933.000000	71.228407
3932.000000	71.300123
3931.000000	71.366189
3930.000000	71.424589
3929.000000	71.480139
3928.000000	71.539928
3927.000000	71.608505
3926.000000	71.683225
3925.000000	71.753518
3924.000000	71.812349
3923.000000	71.863902
3922.000000	71.916203
3921.000000	71.972655
3920.000000	72.032022
3919.000000	72.093477
3918.000000	72.156497
3917.000000	72.217542
3916.000000	72.272512
3915.000000	72.320855
3914.000000	72.366986
3913.000000	72.415407
3912.000000	72.466085
3911.000000	72.518768
3910.000000	72.574571
3909.000000	72.637502
3908.000000	72.714004
3907.000000	72.803572
3906.000000	72.896625
3905.000000	72.977667
3904.000000	73.040370
3903.000000	73.098182
3902.000000	73.168763
3901.000000	73.254080
3900.000000	73.336282
3899.000000	73.393386
3898.000000	73.422283
3897.000000	73.439700
3896.000000	73.464011
3895.000000	73.507265
3894.000000	73.571239
3893.000000	73.648737
3892.000000	73.722766
3891.000000	73.777593
3890.000000	73.816478
3889.000000	73.858403
3888.000000	73.921454
3887.000000	74.004999
3886.000000	74.085014
3885.000000	74.141156
3884.000000	74.183751
3883.000000	74.239214
3882.000000	74.315225
3881.000000	74.390764
3880.000000	74.439639
3879.000000	74.462752
3878.000000	74.487415
3877.000000	74.536957
3876.000000	74.611029
3875.000000	74.687933
3874.000000	74.746515
3873.000000	74.791197
3872.000000	74.847245
3871.000000	74.925680
3870.000000	75.004989
3869.000000	75.063877
3868.000000	75.110611
3867.000000	75.166307
3866.000000	75.236398
3865.000000	75.304197
3864.000000	75.354698
3863.000000	75.393012
3862.000000	75.429521
3861.000000	75.470053
3860.000000	75.518262
3859.000000	75.580233
3858.000000	75.666059
3857.000000	75.778882
3856.000000	75.908438
3855.000000	76.026815
3854.000000	76.112167
3853.000000	76.179810
3852.000000	76.248704
3851.000000	76.306728
3850.000000	76.335443
3849.000000	76.335777
3848.000000	76.321249
3847.000000	76.313145
3846.000000	76.327424
3845.000000	76.367276
3844.000000	76.426273
3843.000000	76.494380
3842.000000	76.566852
3841.000000	76.650396
3840.000000	76.745103
3839.000000	76.839016
3838.000000	76.925279
3837.000000	77.004093
3836.000000	77.076823
3835.000000	77.140751
3834.000000	77.193921
3833.000000	77.237844
3832.000000	77.272696
3831.000000	77.301623
3830.000000	77.335511
3829.000000	77.383293
3828.000000	77.442177
3827.000000	77.500343
3826.000000	77.546972
3825.000000	77.589323
3824.000000	77.647603
3823.000000	77.734947
3822.000000	77.840943
3821.000000	77.934901
3820.000000	78.005604
3819.000000	78.074065
3818.000000	78.158754
3817.000000	78.249067
3816.000000	78.316254
3815.000000	78.353177
3814.000000	78.384792
3813.000000	78.426575
3812.000000	78.468209
3811.000000	78.500783
3810.000000	78.532733
3809.000000	78.578407
3808.000000	78.640874
3807.000000	78.708713
3806.000000	78.774537
3805.000000	78.850120
3804.000000	78.945331
3803.000000	79.056878
3802.000000	79.157674
3801.000000	79.223157
3800.000000	79.270346
3799.000000	79.328645
3798.000000	79.399660
3797.000000	79.461274
3796.000000	79.497524
3795.000000	79.518151
3794.000000	79.545861
3793.000000	79.588608
3792.000000	79.636579
3791.000000	79.681614
3790.000000	79.724987
3789.000000	79.771933
3788.000000	79.827168
3787.000000	79.893272
3786.000000	79.968633
3785.000000	80.046365
3784.000000	80.119539
3783.000000	80.190420
3782.000000	80.266635
3781.000000	80.348835
3780.000000	80.426552
3779.000000	80.490329
3778.000000	80.542940
3777.000000	80.594069
3776.000000	80.646943
3775.000000	80.698026
3774.000000	80.747229
3773.000000	80.801381
3772.000000	80.868203
3771.000000	80.947518
3770.000000	81.030228
3769.000000	81.110581
3768.000000	81.191960
3767.000000	81.276507
3766.000000	81.356906
3765.000000	81.419022
3764.000000	81.461523
3763.000000	81.502441
3762.000000	81.558052
3761.000000	81.627455
3760.000000	81.697224
3759.000000	81.763344
3758.000000	81.832491
3757.000000	81.906731
3756.000000	81.984995
3755.000000	82.066317
3754.000000	82.150804
3753.000000	82.237954
3752.000000	82.329562
3751.000000	82.434946
3750.000000	82.555003
3749.000000	82.674898
3748.000000	82.786331
3747.000000	82.895808
3746.000000	83.002680
3745.000000	83.078233
3744.000000	83.102602
3743.000000	83.109972
3742.000000	83.136227
3741.000000	83.175514
3740.000000	83.207748
3739.000000	83.232361
3738.000000	83.272080
3737.000000	83.344200
3736.000000	83.446193
3735.000000	83.555891
3734.000000	83.655406
3733.000000	83.740199
3732.000000	83.803685
3731.000000	83.844072
3730.000000	83.871368
3729.000000	83.900200
3728.000000	83.939763
3727.000000	83.986497
3726.000000	84.035637
3725.000000	84.092612
3724.000000	84.166149
3723.000000	84.252242
3722.000000	84.335729
3721.000000	84.410356
3720.000000	84.477552
3719.000000	84.540448
3718.000000	84.599061
3717.000000	84.652699
3716.000000	84.708976
3715.000000	84.775340
3714.000000	84.851844
3713.000000	84.934416
3712.000000	85.022221
3711.000000	85.119013
3710.000000	85.222244
3709.000000	85.319347
3708.000000	85.396254
3707.000000	85.448335
3706.000000	85.484747
3705.000000	85.519407
3704.000000	85.561743
3703.000000	85.612274
3702.000000	85.666456
3701.000000	85.721680
3700.000000	85.778102
3699.000000	85.835973
3698.000000	85.893577
3697.000000	85.945431
3696.000000	85.989626
3695.000000	86.035008
3694.000000	86.093044
3693.000000	86.169660
3692.000000	86.260864
3691.000000	86.357013
3690.000000	86.449044
3689.000000	86.535332
3688.000000	86.616500
3687.000000	86.684748
3686.000000	86.731047
3685.000000	86.750923
3684.000000	86.744961
3683.000000	86.723912
3682.000000	86.709318
3681.000000	86.716524
3680.000000	86.747644
3679.000000	86.794322
3678.000000	86.851647
3677.000000	86.919915
3676.000000	86.990926
3675.000000	87.057601
3674.000000	87.120360
3673.000000	87.178617
3672.000000	87.220508
3671.000000	87.230399
3670.000000	87.201700
3669.000000	87.154461
3668.000000	87.119306
3667.000000	87.098745
3666.000000	87.071486
3665.000000	87.025498
3664.000000	86.966775
3663.000000	86.911958
3662.000000	86.872049
3661.000000	86.844047
3660.000000	86.822523
3659.000000	86.800847
3658.000000	86.770239
3657.000000	86.723079
3656.000000	86.665019
3655.000000	86.618184
3654.000000	86.594874
3653.000000	86.582544
3652.000000	86.554563
3651.000000	86.489537
3650.000000	86.391689
3649.000000	86.295293
3648.000000	86.230681
3647.000000	86.185981
3646.000000	86.125490
3645.000000	86.031845
3644.000000	85.911888
3643.000000	85.779817
3642.000000	85.642563
3641.000000	85.502786
3640.000000	85.367185
3639.000000	85.241318
3638.000000	85.123509
3637.000000	85.007486
3636.000000	84.891501
3635.000000	84.779626
3634.000000	84.675887
3633.000000	84.584267
3632.000000	84.503484
3631.000000	84.420120
3630.000000	84.312680
3629.000000	84.177846
3628.000000	84.045270
3627.000000	83.943067
3626.000000	83.857223
3625.000000	83.755323
3624.000000	83.625322
3623.000000	83.479207
3622.000000	83.333266
3621.000000	83.190916
3620.000000	83.046366
3619.000000	82.902419
3618.000000	82.773579
3617.000000	82.666926
3616.000000	82.573317
3615.000000	82.475486
3614.000000	82.359337
3613.000000	82.225508
3612.000000	82.088838
3611.000000	81.961259
3610.000000	81.840679
3609.000000	81.719610
3608.000000	81.594393
3607.000000	81.467963
3606.000000	81.343572
3605.000000	81.218658
3604.000000	81.089724
3603.000000	80.954476
3602.000000	80.814070
3601.000000	80.674261
3600.000000	80.542504
3599.000000	80.421960
3598.000000	80.309213
3597.000000	80.196283
3596.000000	80.078852
3595.000000	79.956767
3594.000000	79.831248
3593.000000	79.707966
3592.000000	79.592110
3591.000000	79.482818
3590.000000	79.373622
3589.000000	79.260325
3588.000000	79.145878
3587.000000	79.037654
3586.000000	78.939497
3585.000000	78.847374
3584.000000	78.751724
3583.000000	78.643058
3582.000000	78.517657
3581.000000	78.379156
3580.000000	78.236288
3579.000000	78.096175
3578.000000	77.959932
3577.000000	77.825602
3576.000000	77.691740
3575.000000	77.559309
3574.000000	77.429182
3573.000000	77.303359
3572.000000	77.184813
3571.000000	77.072638
3570.000000	76.959681
3569.000000	76.839425
3568.000000	76.713748
3567.000000	76.591625
3566.000000	76.478999
3565.000000	76.373149
3564.000000	76.265209
3563.000000	76.146269
3562.000000	76.010307
3561.000000	75.857672
3560.000000	75.695671
3559.000000	75.533868
3558.000000	75.378284
3557.000000	75.230759
3556.000000	75.091190
3555.000000	74.957731
3554.000000	74.826018
3553.000000	74.691405
3552.000000	74.553680
3551.000000	74.415989
3550.000000	74.279173
3549.000000	74.141555
3548.000000	74.001860
3547.000000	73.860614
3546.000000	73.717834
3545.000000	73.573529
3544.000000	73.429256
3543.000000	73.286521
3542.000000	73.144383
3541.000000	73.002292
3540.000000	72.863097
3539.000000	72.729857
3538.000000	72.601982
3537.000000	72.476022
3536.000000	72.350710
3535.000000	72.226764
3534.000000	72.104321
3533.000000	71.983092
3532.000000	71.863172
3531.000000	71.744120
3530.000000	71.623427
3529.000000	71.500588
3528.000000	71.380451
3527.000000	71.269283
3526.000000	71.168456
3525.000000	71.074458
3524.000000	70.982796
3523.000000	70.889980
3522.000000	70.794220
3521.000000	70.696917
3520.000000	70.601544
3519.000000	70.508227
3518.000000	70.413069
3517.000000	70.313854
3516.000000	70.213212
3515.000000	70.113204
3514.000000	70.010851
3513.000000	69.902712
3512.000000	69.790150
3511.000000	69.676756
3510.000000	69.563819
3509.000000	69.452303
3508.000000	69.345659
3507.000000	69.246519
3506.000000	69.152255
3505.000000	69.057595
3504.000000	68.959609
3503.000000	68.857448
3502.000000	68.749568
3501.000000	68.635048
3500.000000	68.515897
3499.000000	68.393981
3498.000000	68.268224
3497.000000	68.137649
3496.000000	68.005270
3495.000000	67.875376
3494.000000	67.748829
3493.000000	67.624310
3492.000000	67.501817
3491.000000	67.381440
3490.000000	67.260992
3489.000000	67.138496
3488.000000	67.014730
3487.000000	66.890466
3486.000000	66.763555
3485.000000	66.631434
3484.000000	66.494796
3483.000000	66.356047
3482.000000	66.216132
3481.000000	66.075693
3480.000000	65.936128
3479.000000	65.796922
3478.000000	65.654492
3477.000000	65.506965
3476.000000	65.357631
3475.000000	65.210872
3474.000000	65.067596
3473.000000	64.926969
3472.000000	64.789672
3471.000000	64.655638
3470.000000	64.520858
3469.000000	64.380206
3468.000000	64.231548
3467.000000	64.075040
3466.000000	63.911451
3465.000000	63.743548
3464.000000	63.576600
3463.000000	63.414237
3462.000000	63.255628
3461.000000	63.098688
3460.000000	62.943093
3459.000000	62.788277
3458.000000	62.631597
3457.000000	62.471128
3456.000000	62.308312
3455.000000	62.144543
3454.000000	61.978477
3453.000000	61.808815
3452.000000	61.637299
3451.000000	61.466354
3450.000000	61.295150
3449.000000	61.121069
3448.000000	60.943616
3447.000000	60.764444
3446.000000	60.584991
3445.000000	60.406120
3444.000000	60.228091
3443.000000	60.049175
3442.000000	59.866304
3441.000000	59.679049
3440.000000	59.490682
3439.000000	59.303256
3438.000000	59.114174
3437.000000	58.919341
3436.000000	58.717624
3435.000000	58.509514
3434.000000	58.294762
3433.000000	58.074257
3432.000000	57.851470
3431.000000	57.629302
3430.000000	57.406442
3429.000000	57.179808
3428.000000	56.948760
3427.000000	56.714182
3426.000000	56.475777
3425.000000	56.232990
3424.000000	55.986616
3423.000000	55.736682
3422.000000	55.480639
3421.000000	55.216658
3420.000000	54.946797
3419.000000	54.673899
3418.000000	54.397688
3417.000000	54.116429
3416.000000	53.830191
3415.000000	53.539726
3414.000000	53.243883
3413.000000	52.941267
3412.000000	52.632296
3411.000000	52.317496
3410.000000	51.995678
3409.000000	51.665892
3408.000000	51.329218
3407.000000	50.986176
3406.000000	50.635158
3405.000000	50.275696
3404.000000	49.910434
3403.000000	49.541384
3402.000000	49.166616
3401.000000	48.782923
3400.000000	48.389226
3399.000000	47.985373
3398.000000	47.571110
3397.000000	47.148426
3396.000000	46.721204
3395.000000	46.290295
3394.000000	45.851615
3393.000000	45.401535
3392.000000	44.940714
3391.000000	44.470437
3390.000000	43.989849
3389.000000	43.498724
3388.000000	42.999577
3387.000000	42.494172
3386.000000	41.981166
3385.000000	41.459989
3384.000000	40.932858
3383.000000	40.401040
3382.000000	39.862686
3381.000000	39.316385
3380.000000	38.763477
3379.000000	38.204558
3378.000000	37.637665
3377.000000	37.062145
3376.000000	36.480178
3375.000000	35.892957
3374.000000	35.299050
3373.000000	34.698404
3372.000000	34.094038
3371.000000	33.487350
3370.000000	32.876374
3369.000000	32.260138
3368.000000	31.640783
3367.000000	31.019835
3366.000000	30.396445
3365.000000	29.771011
3364.000000	29.146043
3363.000000	28.522024
3362.000000	27.896816
3361.000000	27.270414
3360.000000	26.645872
3359.000000	26.024236
3358.000000	25.403212
3357.000000	24.782290
3356.000000	24.164328
3355.000000	23.550763
3354.000000	22.940211
3353.000000	22.333180
3352.000000	21.733430
3351.000000	21.143418
3350.000000	20.562474
3349.000000	19.990344
3348.000000	19.428045
3347.000000	18.873986
3346.000000	18.324796
3345.000000	17.780732
3344.000000	17.245750
3343.000000	16.721772
3342.000000	16.207254
3341.000000	15.702284
3340.000000	15.209690
3339.000000	14.730408
3338.000000	14.263098
3337.000000	13.808260
3336.000000	13.368156
3335.000000	12.941986
3334.000000	12.526212
3333.000000	12.120574
3332.000000	11.727932
3331.000000	11.348578
3330.000000	10.979644
3329.000000	10.620074
3328.000000	10.271904
3327.000000	9.935795
3326.000000	9.611098
3325.000000	9.299954
3324.000000	9.005354
3323.000000	8.725710
3322.000000	8.455990
3321.000000	8.194514
3320.000000	7.943815
3319.000000	7.704382
3318.000000	7.474152
3317.000000	7.253084
3316.000000	7.043069
3315.000000	6.843388
3314.000000	6.650928
3313.000000	6.465208
3312.000000	6.287805
3311.000000	6.117439
3310.000000	5.951508
3309.000000	5.791458
3308.000000	5.641856
3307.000000	5.504354
3306.000000	5.377621
3305.000000	5.262528
3304.000000	5.160583
3303.000000	5.068531
3302.000000	4.980126
3301.000000	4.893000
3300.000000	4.808962
3299.000000	4.728077
3298.000000	4.648573
3297.000000	4.571954
3296.000000	4.501997
3295.000000	4.439132
3294.000000	4.380881
3293.000000	4.327545
3292.000000	4.281964
3291.000000	4.243589
3290.000000	4.208770
3289.000000	4.176140
3288.000000	4.146829
3287.000000	4.120067
3286.000000	4.093665
3285.000000	4.068670
3284.000000	4.047917
3283.000000	4.030748
3282.000000	4.014164
3281.000000	3.998271
3280.000000	3.985573
3279.000000	3.975475
3278.000000	3.965004
3277.000000	3.954284
3276.000000	3.945912
3275.000000	3.939619
3274.000000	3.932754
3273.000000	3.925814
3272.000000	3.922412
3271.000000	3.924073
3270.000000	3.929697
3269.000000	3.939124
3268.000000	3.952350
3267.000000	3.966269
3266.000000	3.977171
3265.000000	3.985796
3264.000000	3.995441
3263.000000	4.006118
3262.000000	4.015525
3261.000000	4.024228
3260.000000	4.034665
3259.000000	4.046162
3258.000000	4.056167
3257.000000	4.065677
3256.000000	4.078144
3255.000000	4.093850
3254.000000	4.110114
3253.000000	4.126183
3252.000000	4.143009
3251.000000	4.159209
3250.000000	4.172354
3249.000000	4.183618
3248.000000	4.196523
3247.000000	4.211821
3246.000000	4.227943
3245.000000	4.245166
3244.000000	4.264691
3243.000000	4.284707
3242.000000	4.302262
3241.000000	4.317954
3240.000000	4.334395
3239.000000	4.351180
3238.000000	4.365903
3237.000000	4.378781
3236.000000	4.391867
3235.000000	4.405142
3234.000000	4.417917
3233.000000	4.432473
3232.000000	4.451362
3231.000000	4.472374
3230.000000	4.490938
3229.000000	4.506308
3228.000000	4.520818
3227.000000	4.534724
3226.000000	4.546603
3225.000000	4.557530
3224.000000	4.569846
3223.000000	4.582802
3222.000000	4.593892
3221.000000	4.603353
3220.000000	4.613032
3219.000000	4.622180
3218.000000	4.628882
3217.000000	4.634197
3216.000000	4.640399
3215.000000	4.646591
3214.000000	4.650412
3213.000000	4.652558
3212.000000	4.655110
3211.000000	4.657060
3210.000000	4.656116
3209.000000	4.653312
3208.000000	4.651286
3207.000000	4.649457
3206.000000	4.645372
3205.000000	4.639433
3204.000000	4.633716
3203.000000	4.627669
3202.000000	4.619359
3201.000000	4.609488
3200.000000	4.599923
3199.000000	4.589703
3198.000000	4.576814
3197.000000	4.562285
3196.000000	4.548295
3195.000000	4.534014
3194.000000	4.517563
3193.000000	4.500217
3192.000000	4.484361
3191.000000	4.469034
3190.000000	4.451928
3189.000000	4.433892
3188.000000	4.417111
3187.000000	4.400623
3186.000000	4.382110
3185.000000	4.362394
3184.000000	4.343809
3183.000000	4.325885
3182.000000	4.306917
3181.000000	4.287920
3180.000000	4.270739
3179.000000	4.254165
3178.000000	4.236190
3177.000000	4.218213
3176.000000	4.202709
3175.000000	4.188707
3174.000000	4.173919
3173.000000	4.159252
3172.000000	4.146795
3171.000000	4.135414
3170.000000	4.122745
3169.000000	4.109697
3168.000000	4.098647
3167.000000	4.089014
3166.000000	4.078973
3165.000000	4.069523
3164.000000	4.062595
3163.000000	4.057110
3162.000000	4.051108
3161.000000	4.045842
3160.000000	4.043520
3159.000000	4.042969
3158.000000	4.041676
3157.000000	4.039952
3156.000000	4.039122
3155.000000	4.038002
3154.000000	4.035637
3153.000000	4.035355
3152.000000	4.041326
3151.000000	4.052909
3150.000000	4.066407
3149.000000	4.080425
3148.000000	4.095422
3147.000000	4.110214
3146.000000	4.123527
3145.000000	4.137122
3144.000000	4.153102
3143.000000	4.169985
3142.000000	4.185417
3141.000000	4.200937
3140.000000	4.220014
3139.000000	4.243123
3138.000000	4.268665
3137.000000	4.296565
3136.000000	4.327081
3135.000000	4.358169
3134.000000	4.387829
3133.000000	4.417310
3132.000000	4.448477
3131.000000	4.480452
3130.000000	4.512390
3129.000000	4.546655
3128.000000	4.585388
3127.000000	4.626416
3126.000000	4.666508
3125.000000	4.705991
3124.000000	4.746231
3123.000000	4.785655
3122.000000	4.822764
3121.000000	4.860430
3120.000000	4.902603
3119.000000	4.948873
3118.000000	4.996737
3117.000000	5.046844
3116.000000	5.101479
3115.000000	5.159922
3114.000000	5.219479
3113.000000	5.279321
3112.000000	5.339433
3111.000000	5.398155
3110.000000	5.454852
3109.000000	5.512793
3108.000000	5.575333
3107.000000	5.641182
3106.000000	5.707057
3105.000000	5.772702
3104.000000	5.839427
3103.000000	5.906341
3102.000000	5.972289
3101.000000	6.039376
3100.000000	6.110527
3099.000000	6.185161
3098.000000	6.261005
3097.000000	6.338041
3096.000000	6.416922
3095.000000	6.495797
3094.000000	6.572559
3093.000000	6.648407
3092.000000	6.725745
3091.000000	6.804583
3090.000000	6.884245
3089.000000	6.966072
3088.000000	7.050861
3087.000000	7.136179
3086.000000	7.219940
3085.000000	7.304373
3084.000000	7.392622
3083.000000	7.483710
3082.000000	7.574748
3081.000000	7.665826
3080.000000	7.759029
3079.000000	7.854650
3078.000000	7.952091
3077.000000	8.052392
3076.000000	8.156017
3075.000000	8.260195
3074.000000	8.362055
3073.000000	8.462407
3072.000000	8.563172
3071.000000	8.663341
3070.000000	8.761280
3069.000000	8.858965
3068.000000	8.960040
3067.000000	9.065296
3066.000000	9.173223
3065.000000	9.283274
3064.000000	9.395197
3063.000000	9.507028
3062.000000	9.617132
3061.000000	9.726566
3060.000000	9.836614
3059.000000	9.946018
3058.000000	10.053547
3057.000000	10.161108
3056.000000	10.271045
3055.000000	10.382366
3054.000000	10.492916
3053.000000	10.603391
3052.000000	10.716077
3051.000000	10.831357
3050.000000	10.948209
3049.000000	11.066231
3048.000000	11.184384
3047.000000	11.299914
3046.000000	11.411520
3045.000000	11.521728
3044.000000	11.633613
3043.000000	11.747308
3042.000000	11.862186
3041.000000	11.979720
3040.000000	12.100865
3039.000000	12.222962
3038.000000	12.342539
3037.000000	12.459446
3036.000000	12.575651
3035.000000	12.692115
3034.000000	12.809505
3033.000000	12.929521
3032.000000	13.052369
3031.000000	13.175020
3030.000000	13.294841
3029.000000	13.412783
3028.000000	13.530558
3027.000000	13.647431
3026.000000	13.762792
3025.000000	13.879059
3024.000000	13.998523
3023.000000	14.119538
3022.000000	14.239126
3021.000000	14.357301
3020.000000	14.475695
3019.000000	14.593949
3018.000000	14.710761
3017.000000	14.826704
3016.000000	14.943021
3015.000000	15.059356
3014.000000	15.175541
3013.000000	15.293788
3012.000000	15.416164
3011.000000	15.541544
3010.000000	15.667479
3009.000000	15.793218
3008.000000	15.918516
3007.000000	16.041817
3006.000000	16.162406
3005.000000	16.282400
3004.000000	16.403971
3003.000000	16.526259
3002.000000	16.647300
3001.000000	16.766901
3000.000000	16.885499
2999.000000	17.002528
2998.000000	17.118325
2997.000000	17.235201
2996.000000	17.354023
2995.000000	17.472306
2994.000000	17.588468
2993.000000	17.705476
2992.000000	17.827082
2991.000000	17.952694
2990.000000	18.078995
2989.000000	18.204509
2988.000000	18.329359
2987.000000	18.452537
2986.000000	18.572755
2985.000000	18.690619
2984.000000	18.807183
2983.000000	18.921933
2982.000000	19.034855
2981.000000	19.148672
2980.000000	19.266150
2979.000000	19.386614
2978.000000	19.507705
2977.000000	19.628930
2976.000000	19.751015
2975.000000	19.873564
2974.000000	19.996040
2973.000000	20.119328
2972.000000	20.243731
2971.000000	20.367082
2970.000000	20.487400
2969.000000	20.605774
2968.000000	20.724120
2967.000000	20.842038
2966.000000	20.958470
2965.000000	21.074600
2964.000000	21.192282
2963.000000	21.311286
2962.000000	21.430772
2961.000000	21.551521
2960.000000	21.674032
2959.000000	21.796368
2958.000000	21.916510
2957.000000	22.034868
2956.000000	22.151932
2955.000000	22.266009
2954.000000	22.376294
2953.000000	22.485691
2952.000000	22.597151
2951.000000	22.709068
2950.000000	22.817713
2949.000000	22.922561
2948.000000	23.026127
2947.000000	23.130221
2946.000000	23.235570
2945.000000	23.343771
2944.000000	23.456192
2943.000000	23.571552
2942.000000	23.687103
2941.000000	23.801454
2940.000000	23.914179
2939.000000	24.024191
2938.000000	24.130940
2937.000000	24.235953
2936.000000	24.340875
2935.000000	24.445261
2934.000000	24.548481
2933.000000	24.652102
2932.000000	24.758031
2931.000000	24.865909
2930.000000	24.974726
2929.000000	25.085247
2928.000000	25.198252
2927.000000	25.312126
2926.000000	25.424811
2925.000000	25.536425
2924.000000	25.647525
2923.000000	25.756678
2922.000000	25.862472
2921.000000	25.966091
2920.000000	26.069190
2919.000000	26.171052
2918.000000	26.270453
2917.000000	26.368622
2916.000000	26.467534
2915.000000	26.566722
2914.000000	26.664304
2913.000000	26.759863
2912.000000	26.854073
2911.000000	26.946762
2910.000000	27.037658
2909.000000	27.127779
2908.000000	27.217895
2907.000000	27.306777
2906.000000	27.393001
2905.000000	27.477226
2904.000000	27.560869
2903.000000	27.643605
2902.000000	27.725188
2901.000000	27.807131
2900.000000	27.891435
2899.000000	27.978330
2898.000000	28.066649
2897.000000	28.155569
2896.000000	28.243887
2895.000000	28.329299
2894.000000	28.410522
2893.000000	28.489014
2892.000000	28.566599
2891.000000	28.642657
2890.000000	28.715493
2889.000000	28.785123
2888.000000	28.852669
2887.000000	28.918267
2886.000000	28.981590
2885.000000	29.043350
2884.000000	29.104303
2883.000000	29.163858
2882.000000	29.221388
2881.000000	29.277739
2880.000000	29.333621
2879.000000	29.387889
2878.000000	29.439419
2877.000000	29.489481
2876.000000	29.540268
2875.000000	29.592109
2874.000000	29.644235
2873.000000	29.697222
2872.000000	29.752838
2871.000000	29.812585
2870.000000	29.878190
2869.000000	29.952451
2868.000000	30.037411
2867.000000	30.132470
2866.000000	30.235896
2865.000000	30.346974
2864.000000	30.465101
2863.000000	30.588166
2862.000000	30.713724
2861.000000	30.840604
2860.000000	30.967806
2859.000000	31.093215
2858.000000	31.215446
2857.000000	31.335756
2856.000000	31.456254
2855.000000	31.577403
2854.000000	31.698863
2853.000000	31.821239
2852.000000	31.944914
2851.000000	32.068344
2850.000000	32.189489
2849.000000	32.307870
2848.000000	32.423595
2847.000000	32.535635
2846.000000	32.642988
2845.000000	32.746450
2844.000000	32.847445
2843.000000	32.946116
2842.000000	33.042262
2841.000000	33.137004
2840.000000	33.231564
2839.000000	33.325416
2838.000000	33.417528
2837.000000	33.508652
2836.000000	33.600606
2835.000000	33.694020
2834.000000	33.788401
2833.000000	33.883536
2832.000000	33.979064
2831.000000	34.073428
2830.000000	34.165042
2829.000000	34.253982
2828.000000	34.341073
2827.000000	34.426181
2826.000000	34.508988
2825.000000	34.590609
2824.000000	34.672659
2823.000000	34.755336
2822.000000	34.838083
2821.000000	34.921536
2820.000000	35.007054
2819.000000	35.094792
2818.000000	35.183726
2817.000000	35.273070
2816.000000	35.362217
2815.000000	35.449931
2814.000000	35.535188
2813.000000	35.618425
2812.000000	35.700663
2811.000000	35.781958
2810.000000	35.862027
2809.000000	35.941688
2808.000000	36.022208
2807.000000	36.103830
2806.000000	36.186306
2805.000000	36.270147
2804.000000	36.355825
2803.000000	36.442337
2802.000000	36.528071
2801.000000	36.612524
2800.000000	36.695906
2799.000000	36.777771
2798.000000	36.857571
2797.000000	36.935901
2796.000000	37.013638
2795.000000	37.090391
2794.000000	37.165336
2793.000000	37.239034
2792.000000	37.312921
2791.000000	37.387511
2790.000000	37.462529
2789.000000	37.538205
2788.000000	37.614835
2787.000000	37.691563
2786.000000	37.767171
2785.000000	37.841687
2784.000000	37.915770
2783.000000	37.989020
2782.000000	38.060429
2781.000000	38.130080
2780.000000	38.198810
2779.000000	38.266622
2778.000000	38.333013
2777.000000	38.398517
2776.000000	38.464406
2775.000000	38.531095
2774.000000	38.598239
2773.000000	38.666001
2772.000000	38.734661
2771.000000	38.803298
2770.000000	38.870427
2769.000000	38.935773
2768.000000	39.000056
2767.000000	39.063315
2766.000000	39.124955
2765.000000	39.185137
2764.000000	39.244631
2763.000000	39.303536
2762.000000	39.361615
2761.000000	39.419676
2760.000000	39.479033
2759.000000	39.539657
2758.000000	39.600338
2757.000000	39.660491
2756.000000	39.720376
2755.000000	39.779647
2754.000000	39.837226
2753.000000	39.892695
2752.000000	39.946414
2751.000000	39.998342
2750.000000	40.048195
2749.000000	40.096721
2748.000000	40.145412
2747.000000	40.194786
2746.000000	40.244258
2745.000000	40.293790
2744.000000	40.344261
2743.000000	40.396048
2742.000000	40.448413
2741.000000	40.500475
2740.000000	40.551742
2739.000000	40.601646
2738.000000	40.649669
2737.000000	40.695939
2736.000000	40.740837
2735.000000	40.784222
2734.000000	40.826082
2733.000000	40.867661
2732.000000	40.910675
2731.000000	40.955537
2730.000000	41.001533
2729.000000	41.048502
2728.000000	41.096995
2727.000000	41.146934
2726.000000	41.197457
2725.000000	41.247994
2724.000000	41.298266
2723.000000	41.347369
2722.000000	41.394226
2721.000000	41.438967
2720.000000	41.482640
2719.000000	41.525661
2718.000000	41.567852
2717.000000	41.609823
2716.000000	41.652745
2715.000000	41.696724
2714.000000	41.740807
2713.000000	41.784708
2712.000000	41.829148
2711.000000	41.874262
2710.000000	41.919000
2709.000000	41.962242
2708.000000	42.003328
2707.000000	42.041417
2706.000000	42.075554
2705.000000	42.105745
2704.000000	42.132763
2703.000000	42.156856
2702.000000	42.177874
2701.000000	42.196530
2700.000000	42.214296
2699.000000	42.231868
2698.000000	42.248958
2697.000000	42.265752
2696.000000	42.283034
2695.000000	42.300694
2694.000000	42.317415
2693.000000	42.332105
2692.000000	42.344544
2691.000000	42.354346
2690.000000	42.360670
2689.000000	42.363296
2688.000000	42.362894
2687.000000	42.360163
2686.000000	42.355726
2685.000000	42.350981
2684.000000	42.347798
2683.000000	42.347000
2682.000000	42.348189
2681.000000	42.351044
2680.000000	42.355535
2679.000000	42.360911
2678.000000	42.365897
2677.000000	42.370161
2676.000000	42.374416
2675.000000	42.378976
2674.000000	42.383503
2673.000000	42.388480
2672.000000	42.395562
2671.000000	42.406310
2670.000000	42.421682
2669.000000	42.442846
2668.000000	42.471361
2667.000000	42.507908
2666.000000	42.552132
2665.000000	42.603893
2664.000000	42.663280
2663.000000	42.729544
2662.000000	42.800842
2661.000000	42.875606
2660.000000	42.953246
2659.000000	43.032989
2658.000000	43.113387
2657.000000	43.193218
2656.000000	43.272093
2655.000000	43.350013
2654.000000	43.427047
2653.000000	43.503693
2652.000000	43.580576
2651.000000	43.657604
2650.000000	43.734282
2649.000000	43.810874
2648.000000	43.888145
2647.000000	43.965832
2646.000000	44.042463
2645.000000	44.116776
2644.000000	44.188255
2643.000000	44.256001
2642.000000	44.318596
2641.000000	44.375659
2640.000000	44.428276
2639.000000	44.477619
2638.000000	44.524039
2637.000000	44.568053
2636.000000	44.611012
2635.000000	44.653896
2634.000000	44.696574
2633.000000	44.738689
2632.000000	44.780294
2631.000000	44.821130
2630.000000	44.860151
2629.000000	44.896542
2628.000000	44.930270
2627.000000	44.961149
2626.000000	44.988447
2625.000000	45.011920
2624.000000	45.032503
2623.000000	45.051327
2622.000000	45.068889
2621.000000	45.085751
2620.000000	45.102867
2619.000000	45.120640
2618.000000	45.138494
2617.000000	45.155929
2616.000000	45.173259
2615.000000	45.190656
2614.000000	45.207371
2613.000000	45.222465
2612.000000	45.235465
2611.000000	45.245837
2610.000000	45.252470
2609.000000	45.254398
2608.000000	45.251451
2607.000000	45.243686
2606.000000	45.231180
2605.000000	45.214500
2604.000000	45.194656
2603.000000	45.172280
2602.000000	45.147383
2601.000000	45.120458
2600.000000	45.092696
2599.000000	45.064855
2598.000000	45.036960
2597.000000	45.009431
2596.000000	44.983624
2595.000000	44.961007
2594.000000	44.942759
2593.000000	44.930414
2592.000000	44.926245
2591.000000	44.932184
2590.000000	44.949406
2589.000000	44.979092
2588.000000	45.022068
2587.000000	45.078126
2586.000000	45.145972
2585.000000	45.224458
2584.000000	45.313105
2583.000000	45.410537
2582.000000	45.514273
2581.000000	45.621927
2580.000000	45.731946
2579.000000	45.843130
2578.000000	45.954162
2577.000000	46.064642
2576.000000	46.175320
2575.000000	46.286678
2574.000000	46.398197
2573.000000	46.509435
2572.000000	46.620997
2571.000000	46.733605
2570.000000	46.847040
2569.000000	46.960731
2568.000000	47.074613
2567.000000	47.188594
2566.000000	47.301873
2565.000000	47.413536
2564.000000	47.523175
2563.000000	47.630384
2562.000000	47.734340
2561.000000	47.834655
2560.000000	47.931967
2559.000000	48.026839
2558.000000	48.119073
2557.000000	48.208770
2556.000000	48.297206
2555.000000	48.385711
2554.000000	48.474112
2553.000000	48.561359
2552.000000	48.646890
2551.000000	48.730467
2550.000000	48.811519
2549.000000	48.889479
2548.000000	48.964422
2547.000000	49.036396
2546.000000	49.104660
2545.000000	49.168621
2544.000000	49.228522
2543.000000	49.284639
2542.000000	49.336469
2541.000000	49.383445
2540.000000	49.425976
2539.000000	49.464323
2538.000000	49.497526
2537.000000	49.524265
2536.000000	49.543664
2535.000000	49.554862
2534.000000	49.556112
2533.000000	49.545901
2532.000000	49.524306
2531.000000	49.491819
2530.000000	49.448606
2529.000000	49.395382
2528.000000	49.334612
2527.000000	49.269858
2526.000000	49.204384
2525.000000	49.141725
2524.000000	49.086204
2523.000000	49.041606
2522.000000	49.009832
2521.000000	48.992066
2520.000000	48.989619
2519.000000	49.002975
2518.000000	49.030849
2517.000000	49.070949
2516.000000	49.122140
2515.000000	49.183841
2514.000000	49.254859
2513.000000	49.334023
2512.000000	49.420652
2511.000000	49.514184
2510.000000	49.613048
2509.000000	49.715344
2508.000000	49.820113
2507.000000	49.926479
2506.000000	50.032583
2505.000000	50.136201
2504.000000	50.235981
2503.000000	50.331061
2502.000000	50.420339
2501.000000	50.503330
2500.000000	50.581236
2499.000000	50.655859
2498.000000	50.727720
2497.000000	50.796666
2496.000000	50.863218
2495.000000	50.928110
2494.000000	50.991175
2493.000000	51.051935
2492.000000	51.111017
2491.000000	51.169362
2490.000000	51.226636
2489.000000	51.281767
2488.000000	51.334345
2487.000000	51.384420
2486.000000	51.431321
2485.000000	51.474187
2484.000000	51.513257
2483.000000	51.549144
2482.000000	51.581754
2481.000000	51.611160
2480.000000	51.638993
2479.000000	51.667583
2478.000000	51.698102
2477.000000	51.730921
2476.000000	51.766877
2475.000000	51.806520
2474.000000	51.848591
2473.000000	51.890640
2472.000000	51.930745
2471.000000	51.967371
2470.000000	51.998453
2469.000000	52.022568
2468.000000	52.040630
2467.000000	52.055144
2466.000000	52.068229
2465.000000	52.081628
2464.000000	52.097872
2463.000000	52.119452
2462.000000	52.147051
2461.000000	52.179849
2460.000000	52.216989
2459.000000	52.257193
2458.000000	52.297619
2457.000000	52.334829
2456.000000	52.366888
2455.000000	52.393483
2454.000000	52.414740
2453.000000	52.431391
2452.000000	52.445508
2451.000000	52.459412
2450.000000	52.474120
2449.000000	52.490107
2448.000000	52.508808
2447.000000	52.531859
2446.000000	52.559394
2445.000000	52.590550
2444.000000	52.624878
2443.000000	52.661888
2442.000000	52.699879
2441.000000	52.736792
2440.000000	52.771766
2439.000000	52.804424
2438.000000	52.833409
2437.000000	52.857229
2436.000000	52.876082
2435.000000	52.891231
2434.000000	52.903459
2433.000000	52.913746
2432.000000	52.924732
2431.000000	52.939760
2430.000000	52.960832
2429.000000	52.988757
2428.000000	53.024336
2427.000000	53.067557
2426.000000	53.115951
2425.000000	53.165491
2424.000000	53.212585
2423.000000	53.254183
2422.000000	53.287199
2421.000000	53.310099
2420.000000	53.324660
2419.000000	53.334570
2418.000000	53.342905
2417.000000	53.352372
2416.000000	53.366779
2415.000000	53.389762
2414.000000	53.422254
2413.000000	53.462715
2412.000000	53.509176
2411.000000	53.559178
2410.000000	53.608763
2409.000000	53.653874
2408.000000	53.692726
2407.000000	53.725343
2406.000000	53.751558
2405.000000	53.771404
2404.000000	53.786792
2403.000000	53.800760
2402.000000	53.815369
2401.000000	53.832120
2400.000000	53.853541
2399.000000	53.882163
2398.000000	53.918201
2397.000000	53.960110
2396.000000	54.006713
2395.000000	54.057016
2394.000000	54.108707
2393.000000	54.158934
2392.000000	54.206434
2391.000000	54.250926
2390.000000	54.291145
2389.000000	54.325665
2388.000000	54.355233
2387.000000	54.382359
2386.000000	54.409079
2385.000000	54.437072
2384.000000	54.469428
2383.000000	54.509573
2382.000000	54.558885
2381.000000	54.616998
2380.000000	54.683961
2379.000000	54.760299
2378.000000	54.844487
2377.000000	54.932847
2376.000000	55.022041
2375.000000	55.109366
2374.000000	55.191160
2373.000000	55.263462
2372.000000	55.324955
2371.000000	55.377714
2370.000000	55.424937
2369.000000	55.469629
2368.000000	55.516553
2367.000000	55.571771
2366.000000	55.637832
2365.000000	55.712091
2364.000000	55.792080
2363.000000	55.879214
2362.000000	55.970947
2361.000000	56.061033
2360.000000	56.147498
2359.000000	56.229896
2358.000000	56.309595
2357.000000	56.385154
2356.000000	56.455597
2355.000000	56.523829
2354.000000	56.585431
2353.000000	56.634680
2352.000000	56.676599
2351.000000	56.733541
2350.000000	56.821113
2349.000000	56.926709
2348.000000	57.030883
2347.000000	57.119202
2346.000000	57.192824
2345.000000	57.263824
2344.000000	57.344567
2343.000000	57.436568
2342.000000	57.521581
2341.000000	57.591475
2340.000000	57.650889
2339.000000	57.707947
2338.000000	57.766864
2337.000000	57.829404
2336.000000	57.900470
2335.000000	57.984838
2334.000000	58.079488
2333.000000	58.176713
2332.000000	58.270702
2331.000000	58.362488
2330.000000	58.454283
2329.000000	58.541945
2328.000000	58.627888
2327.000000	58.711589
2326.000000	58.792120
2325.000000	58.865272
2324.000000	58.930448
2323.000000	58.995387
2322.000000	59.062203
2321.000000	59.133378
2320.000000	59.208753
2319.000000	59.290987
2318.000000	59.378610
2317.000000	59.466805
2316.000000	59.551893
2315.000000	59.630954
2314.000000	59.702014
2313.000000	59.763150
2312.000000	59.817268
2311.000000	59.867904
2310.000000	59.916939
2309.000000	59.964424
2308.000000	60.013804
2307.000000	60.069848
2306.000000	60.133921
2305.000000	60.204462
2304.000000	60.280479
2303.000000	60.362429
2302.000000	60.447892
2301.000000	60.532790
2300.000000	60.614977
2299.000000	60.693381
2298.000000	60.765345
2297.000000	60.827651
2296.000000	60.881774
2295.000000	60.932000
2294.000000	60.981371
2293.000000	61.031128
2292.000000	61.084577
2291.000000	61.145930
2290.000000	61.215522
2289.000000	61.290415
2288.000000	61.368698
2287.000000	61.450106
2286.000000	61.531876
2285.000000	61.609393
2284.000000	61.680074
2283.000000	61.743808
2282.000000	61.799471
2281.000000	61.846097
2280.000000	61.886423
2279.000000	61.925653
2278.000000	61.966431
2277.000000	62.009203
2276.000000	62.056231
2275.000000	62.110640
2274.000000	62.172091
2273.000000	62.237189
2272.000000	62.304423
2271.000000	62.373883
2270.000000	62.442918
2269.000000	62.506564
2268.000000	62.562291
2267.000000	62.610342
2266.000000	62.649902
2265.000000	62.679537
2264.000000	62.701557
2263.000000	62.720952
2262.000000	62.740669
2261.000000	62.761697
2260.000000	62.787057
2259.000000	62.821069
2258.000000	62.864089
2257.000000	62.912950
2256.000000	62.965379
2255.000000	63.019914
2254.000000	63.071710
2253.000000	63.113847
2252.000000	63.142881
2251.000000	63.159189
2250.000000	63.162102
2249.000000	63.151011
2248.000000	63.129709
2247.000000	63.105129
2246.000000	63.082475
2245.000000	63.064143
2244.000000	63.053892
2243.000000	63.055707
2242.000000	63.068601
2241.000000	63.086923
2240.000000	63.105770
2239.000000	63.121784
2238.000000	63.129411
2237.000000	63.121972
2236.000000	63.097262
2235.000000	63.057849
2234.000000	63.006253
2233.000000	62.944620
2232.000000	62.878530
2231.000000	62.815936
2230.000000	62.761536
2229.000000	62.716316
2228.000000	62.681722
2227.000000	62.659463
2226.000000	62.647273
2225.000000	62.639555
2224.000000	62.632435
2223.000000	62.624022
2222.000000	62.610412
2221.000000	62.586462
2220.000000	62.550836
2219.000000	62.505892
2218.000000	62.453151
2217.000000	62.393555
2216.000000	62.331764
2215.000000	62.274893
2214.000000	62.227026
2213.000000	62.189106
2212.000000	62.163478
2211.000000	62.153397
2210.000000	62.157973
2209.000000	62.172342
2208.000000	62.192506
2207.000000	62.215617
2206.000000	62.235990
2205.000000	62.246472
2204.000000	62.244248
2203.000000	62.231053
2202.000000	62.208264
2201.000000	62.176938
2200.000000	62.142410
2199.000000	62.113328
2198.000000	62.095594
2197.000000	62.091321
2196.000000	62.103067
2195.000000	62.133355
2194.000000	62.179584
2193.000000	62.234120
2192.000000	62.289952
2191.000000	62.342077
2190.000000	62.384278
2189.000000	62.410251
2188.000000	62.418731
2187.000000	62.413170
2186.000000	62.396529
2185.000000	62.371315
2184.000000	62.343944
2183.000000	62.323263
2182.000000	62.313980
2181.000000	62.316079
2180.000000	62.329887
2179.000000	62.356196
2178.000000	62.391399
2177.000000	62.427979
2176.000000	62.460551
2175.000000	62.486933
2174.000000	62.503613
2173.000000	62.506137
2172.000000	62.494611
2171.000000	62.473606
2170.000000	62.446556
2169.000000	62.415069
2168.000000	62.383565
2167.000000	62.358828
2166.000000	62.344449
2165.000000	62.340328
2164.000000	62.347390
2163.000000	62.367416
2162.000000	62.397880
2161.000000	62.432340
2160.000000	62.466343
2159.000000	62.498149
2158.000000	62.523780
2157.000000	62.537506
2156.000000	62.537908
2155.000000	62.528346
2154.000000	62.511313
2153.000000	62.487820
2152.000000	62.462234
2151.000000	62.442000
2150.000000	62.431821
2149.000000	62.432546
2148.000000	62.445554
2147.000000	62.472513
2146.000000	62.509799
2145.000000	62.548999
2144.000000	62.584082
2143.000000	62.612522
2142.000000	62.630213
2141.000000	62.632049
2140.000000	62.618645
2139.000000	62.596587
2138.000000	62.571197
2137.000000	62.544591
2136.000000	62.521104
2135.000000	62.507852
2134.000000	62.508268
2133.000000	62.520579
2132.000000	62.543066
2131.000000	62.575358
2130.000000	62.613718
2129.000000	62.650783
2128.000000	62.681477
2127.000000	62.704648
2126.000000	62.718581
2125.000000	62.720626
2124.000000	62.712580
2123.000000	62.700680
2122.000000	62.688938
2121.000000	62.677775
2120.000000	62.669750
2119.000000	62.670627
2118.000000	62.683688
2117.000000	62.708002
2116.000000	62.742700
2115.000000	62.787472
2114.000000	62.838216
2113.000000	62.887865
2112.000000	62.932926
2111.000000	62.974317
2110.000000	63.011638
2109.000000	63.042660
2108.000000	63.068958
2107.000000	63.095887
2106.000000	63.126634
2105.000000	63.161695
2104.000000	63.204132
2103.000000	63.259701
2102.000000	63.329784
2101.000000	63.411105
2100.000000	63.501604
2099.000000	63.601118
2098.000000	63.706487
2097.000000	63.810093
2096.000000	63.905821
2095.000000	63.991733
2094.000000	64.066917
2093.000000	64.131481
2092.000000	64.190062
2091.000000	64.249389
2090.000000	64.311720
2089.000000	64.375531
2088.000000	64.442069
2087.000000	64.515099
2086.000000	64.594062
2085.000000	64.674104
2084.000000	64.752452
2083.000000	64.828874
2082.000000	64.899093
2081.000000	64.955615
2080.000000	64.995144
2079.000000	65.019098
2078.000000	65.028882
2077.000000	65.024054
2076.000000	65.008745
2075.000000	64.990707
2074.000000	64.973502
2073.000000	64.958109
2072.000000	64.947247
2071.000000	64.942293
2070.000000	64.938433
2069.000000	64.931845
2068.000000	64.929336
2067.000000	64.940833
2066.000000	64.963461
2065.000000	64.983636
2064.000000	64.993906
2063.000000	64.997591
2062.000000	64.998063
2061.000000	64.994477
2060.000000	64.990130
2059.000000	64.994293
2058.000000	65.012827
2057.000000	65.044442
2056.000000	65.089379
2055.000000	65.151431
2054.000000	65.228918
2053.000000	65.314325
2052.000000	65.403139
2051.000000	65.494379
2050.000000	65.584049
2049.000000	65.667049
2048.000000	65.743019
2047.000000	65.814430
2046.000000	65.881547
2045.000000	65.946986
2044.000000	66.022622
2043.000000	66.121898
2042.000000	66.245913
2041.000000	66.385680
2040.000000	66.536116
2039.000000	66.698641
2038.000000	66.871460
2037.000000	67.047607
2036.000000	67.223705
2035.000000	67.401318
2034.000000	67.578406
2033.000000	67.747427
2032.000000	67.906518
2031.000000	68.059862
2030.000000	68.209473
2029.000000	68.353319
2028.000000	68.493961
2027.000000	68.640157
2026.000000	68.795656
2025.000000	68.960468
2024.000000	69.134717
2023.000000	69.314865
2022.000000	69.490691
2021.000000	69.657435
2020.000000	69.827988
2019.000000	70.018766
2018.000000	70.224755
2017.000000	70.422279
2016.000000	70.594938
2015.000000	70.742850
2014.000000	70.870286
2013.000000	70.979328
2012.000000	71.079074
2011.000000	71.185451
2010.000000	71.308731
2009.000000	71.447559
2008.000000	71.598779
2007.000000	71.763344
2006.000000	71.933765
2005.000000	72.097805
2004.000000	72.246189
2003.000000	72.378941
2002.000000	72.495965
2001.000000	72.590763
2000.000000	72.669653
1999.000000	72.744481
1998.000000	72.807287
1997.000000	72.838178
1996.000000	72.844868
1995.000000	72.868797
1994.000000	72.940794
1993.000000	73.049203
1992.000000	73.168753
1991.000000	73.294289
1990.000000	73.428587
1989.000000	73.563006
1988.000000	73.684394
1987.000000	73.790235
1986.000000	73.882318
1985.000000	73.959547
1984.000000	74.020624
1983.000000	74.072539
1982.000000	74.120471
1981.000000	74.158461
1980.000000	74.188687
1979.000000	74.223715
1978.000000	74.269254
1977.000000	74.319113
1976.000000	74.374919
1975.000000	74.449065
1974.000000	74.539757
1973.000000	74.622069
1972.000000	74.674738
1971.000000	74.702190
1970.000000	74.725815
1969.000000	74.763345
1968.000000	74.817005
1967.000000	74.874853
1966.000000	74.919200
1965.000000	74.940394
1964.000000	74.949427
1963.000000	74.968249
1962.000000	75.005162
1961.000000	75.053781
1960.000000	75.111467
1959.000000	75.180798
1958.000000	75.258315
1957.000000	75.332068
1956.000000	75.397546
1955.000000	75.455151
1954.000000	75.498146
1953.000000	75.520073
1952.000000	75.518495
1951.000000	75.502384
1950.000000	75.486397
1949.000000	75.474346
1948.000000	75.457874
1947.000000	75.428623
1946.000000	75.396778
1945.000000	75.397130
1944.000000	75.456530
1943.000000	75.558880
1942.000000	75.663080
1941.000000	75.742477
1940.000000	75.799636
1939.000000	75.846137
1938.000000	75.877968
1937.000000	75.886956
1936.000000	75.887150
1935.000000	75.894893
1934.000000	75.904963
1933.000000	75.908831
1932.000000	75.899898
1931.000000	75.891508
1930.000000	75.891947
1929.000000	75.886579
1928.000000	75.854856
1927.000000	75.787083
1926.000000	75.723414
1925.000000	75.722344
1924.000000	75.790943
1923.000000	75.882350
1922.000000	75.949473
1921.000000	75.988155
1920.000000	76.022142
1919.000000	76.040464
1918.000000	76.015118
1917.000000	75.955734
1916.000000	75.896120
1915.000000	75.848615
1914.000000	75.796222
1913.000000	75.733346
1912.000000	75.684601
1911.000000	75.685762
1910.000000	75.728668
1909.000000	75.774686
1908.000000	75.805744
1907.000000	75.815565
1906.000000	75.808694
1905.000000	75.786250
1904.000000	75.747130
1903.000000	75.709559
1902.000000	75.684439
1901.000000	75.658720
1900.000000	75.619702
1899.000000	75.567426
1898.000000	75.526734
1897.000000	75.525437
1896.000000	75.558276
1895.000000	75.587936
1894.000000	75.578451
1893.000000	75.532359
1892.000000	75.500178
1891.000000	75.520488
1890.000000	75.568105
1889.000000	75.600121
1888.000000	75.611053
1887.000000	75.622534
1886.000000	75.645525
1885.000000	75.665364
1884.000000	75.666639
1883.000000	75.661964
1882.000000	75.664078
1881.000000	75.664288
1880.000000	75.663573
1879.000000	75.670828
1878.000000	75.683170
1877.000000	75.696098
1876.000000	75.707915
1875.000000	75.709789
1874.000000	75.677307
1873.000000	75.584974
1872.000000	75.450227
1871.000000	75.341456
1870.000000	75.302501
1869.000000	75.316732
1868.000000	75.360856
1867.000000	75.421360
1866.000000	75.475531
1865.000000	75.498992
1864.000000	75.488015
1863.000000	75.463418
1862.000000	75.442892
1861.000000	75.424917
1860.000000	75.404814
1859.000000	75.388601
1858.000000	75.372798
1857.000000	75.346849
1856.000000	75.306119
1855.000000	75.268259
1854.000000	75.239761
1853.000000	75.184379
1852.000000	75.100103
1851.000000	75.028279
1850.000000	74.997541
1849.000000	74.997224
1848.000000	75.013661
1847.000000	75.066359
1846.000000	75.146272
1845.000000	75.155896
1844.000000	75.042132
1843.000000	74.884726
1842.000000	74.747712
1841.000000	74.633161
1840.000000	74.534525
1839.000000	74.452391
1838.000000	74.404549
1837.000000	74.392446
1836.000000	74.387753
1835.000000	74.362950
1834.000000	74.288582
1833.000000	74.167105
1832.000000	74.084862
1831.000000	74.068916
1830.000000	74.030088
1829.000000	73.913639
1828.000000	73.765289
1827.000000	73.665302
1826.000000	73.612242
1825.000000	73.549479
1824.000000	73.477818
1823.000000	73.430306
1822.000000	73.392136
1821.000000	73.328928
1820.000000	73.248079
1819.000000	73.176364
1818.000000	73.125117
1817.000000	73.065135
1816.000000	72.966040
1815.000000	72.832396
1814.000000	72.680674
1813.000000	72.549025
1812.000000	72.457991
1811.000000	72.387879
1810.000000	72.322457
1809.000000	72.255771
1808.000000	72.184819
1807.000000	72.095800
1806.000000	71.976721
1805.000000	71.824346
1804.000000	71.669546
1803.000000	71.574150
1802.000000	71.546224
1801.000000	71.545611
1800.000000	71.529772
1799.000000	71.487943
1798.000000	71.441521
1797.000000	71.394483
1796.000000	71.332714
1795.000000	71.257639
1794.000000	71.172018
1793.000000	71.058038
1792.000000	70.921564
1791.000000	70.814893
1790.000000	70.754703
1789.000000	70.709791
1788.000000	70.665093
1787.000000	70.622291
1786.000000	70.578846
1785.000000	70.493605
1784.000000	70.350903
1783.000000	70.220817
1782.000000	70.135822
1781.000000	70.060229
1780.000000	69.957339
1779.000000	69.855891
1778.000000	69.797939
1777.000000	69.763429
1776.000000	69.728657
1775.000000	69.733009
1774.000000	69.793511
1773.000000	69.800287
1772.000000	69.692434
1771.000000	69.537170
1770.000000	69.406882
1769.000000	69.313347
1768.000000	69.224173
1767.000000	69.125943
1766.000000	69.016693
1765.000000	68.897042
1764.000000	68.800333
1763.000000	68.718757
1762.000000	68.582266
1761.000000	68.383276
1760.000000	68.169406
1759.000000	68.030875
1758.000000	67.986373
1757.000000	67.942287
1756.000000	67.867086
1755.000000	67.788110
1754.000000	67.687638
1753.000000	67.513714
1752.000000	67.250554
1751.000000	66.970174
1750.000000	66.778278
1749.000000	66.644686
1748.000000	66.488579
1747.000000	66.310599
1746.000000	66.141122
1745.000000	66.012962
1744.000000	65.942384
1743.000000	65.913468
1742.000000	65.903248
1741.000000	65.892591
1740.000000	65.854463
1739.000000	65.814528
1738.000000	65.784413
1737.000000	65.740783
1736.000000	65.686310
1735.000000	65.448090
1734.000000	64.923187
1733.000000	64.339240
1732.000000	63.876530
1731.000000	63.579103
1730.000000	63.388408
1729.000000	63.178676
1728.000000	62.923717
1727.000000	62.662647
1726.000000	62.405727
1725.000000	62.160897
1724.000000	61.943599
1723.000000	61.764968
1722.000000	61.596449
1721.000000	61.379391
1720.000000	61.134933
1719.000000	60.860999
1718.000000	60.474624
1717.000000	60.011998
1716.000000	59.569894
1715.000000	59.162339
1714.000000	58.771843
1713.000000	58.385596
1712.000000	58.009465
1711.000000	57.662199
1710.000000	57.321656
1709.000000	56.943278
1708.000000	56.565302
1707.000000	56.267189
1706.000000	56.050278
1705.000000	55.901053
1704.000000	55.816084
1703.000000	55.785660
1702.000000	55.706374
1701.000000	55.269698
1700.000000	54.495131
1699.000000	53.785804
1698.000000	53.352004
1697.000000	53.043965
1696.000000	52.543061
1695.000000	51.870915
1694.000000	51.233328
1693.000000	50.681774
1692.000000	50.197449
1691.000000	49.772169
1690.000000	49.420929
1689.000000	49.137818
1688.000000	48.890562
1687.000000	48.619013
1686.000000	48.326534
1685.000000	47.832358
1684.000000	47.035889
1683.000000	46.271620
1682.000000	45.716103
1681.000000	45.303076
1680.000000	44.965461
1679.000000	44.668261
1678.000000	44.400174
1677.000000	44.089682
1676.000000	43.637686
1675.000000	43.072697
1674.000000	42.519211
1673.000000	42.028198
1672.000000	41.598517
1671.000000	41.203825
1670.000000	40.767924
1669.000000	40.257061
1668.000000	39.745124
1667.000000	39.298493
1666.000000	38.903502
1665.000000	38.516250
1664.000000	38.093967
1663.000000	37.636487
1662.000000	37.183390
1661.000000	36.747442
1660.000000	36.347769
1659.000000	36.025035
1658.000000	35.795575
1657.000000	35.612430
1656.000000	35.454034
1655.000000	35.401323
1654.000000	35.165244
1653.000000	34.496060
1652.000000	33.745467
1651.000000	33.127372
1650.000000	32.647292
1649.000000	32.319285
1648.000000	32.063391
1647.000000	31.760499
1646.000000	31.395090
1645.000000	31.017255
1644.000000	30.641803
1643.000000	30.310105
1642.000000	30.024466
1641.000000	29.749528
1640.000000	29.480951
1639.000000	29.247572
1638.000000	29.089067
1637.000000	28.942208
1636.000000	28.672538
1635.000000	28.312981
1634.000000	27.978059
1633.000000	27.685281
1632.000000	27.424297
1631.000000	27.198453
1630.000000	27.010064
1629.000000	26.839690
1628.000000	26.665123
1627.000000	26.496945
1626.000000	26.341423
1625.000000	26.187937
1624.000000	26.022248
1623.000000	25.862241
1622.000000	25.741229
1621.000000	25.654826
1620.000000	25.594035
1619.000000	25.573920
1618.000000	25.578640
1617.000000	25.533707
1616.000000	25.423866
1615.000000	25.311061
1614.000000	25.231551
1613.000000	25.174740
1612.000000	25.122420
1611.000000	25.088555
1610.000000	25.091126
1609.000000	25.112666
1608.000000	25.129871
1607.000000	25.154306
1606.000000	25.194864
1605.000000	25.236553
1604.000000	25.281302
1603.000000	25.351220
1602.000000	25.449629
1601.000000	25.547756
1600.000000	25.628879
1599.000000	25.706966
1598.000000	25.792274
1597.000000	25.876971
1596.000000	25.957983
1595.000000	26.046770
1594.000000	26.143617
1593.000000	26.230131
1592.000000	26.300987
1591.000000	26.376514
1590.000000	26.467029
1589.000000	26.558112
1588.000000	26.639581
1587.000000	26.725000
1586.000000	26.827217
1585.000000	26.928620
1584.000000	27.019559
1583.000000	27.120654
1582.000000	27.241597
1581.000000	27.362244
1580.000000	27.471992
1579.000000	27.592883
1578.000000	27.747620
1577.000000	27.885875
1576.000000	27.942717
1575.000000	27.951414
1574.000000	27.953073
1573.000000	27.958489
1572.000000	27.990406
1571.000000	28.079235
1570.000000	28.214319
1569.000000	28.332873
1568.000000	28.408590
1567.000000	28.481051
1566.000000	28.601127
1565.000000	28.779860
1564.000000	28.998911
1563.000000	29.240236
1562.000000	29.409193
1561.000000	29.528097
1560.000000	29.714635
1559.000000	29.883441
1558.000000	29.993161
1557.000000	30.022163
1556.000000	30.019664
1555.000000	30.091776
1554.000000	30.194507
1553.000000	30.286062
1552.000000	30.394596
1551.000000	30.588480
1550.000000	30.866938
1549.000000	31.151358
1548.000000	31.372575
1547.000000	31.550485
1546.000000	31.763921
1545.000000	32.057754
1544.000000	32.411222
1543.000000	32.770516
1542.000000	33.184593
1541.000000	33.712411
1540.000000	34.245314
1539.000000	34.668808
1538.000000	34.941178
1537.000000	35.103843
1536.000000	35.281186
1535.000000	35.601022
1534.000000	36.079412
1533.000000	36.607518
1532.000000	37.077637
1531.000000	37.461812
1530.000000	37.812019
1529.000000	38.186346
1528.000000	38.626788
1527.000000	39.155997
1526.000000	39.736018
1525.000000	40.281717
1524.000000	40.783993
1523.000000	41.360372
1522.000000	42.047487
1521.000000	42.693953
1520.000000	43.159790
1519.000000	43.514397
1518.000000	43.956168
1517.000000	44.530726
1516.000000	45.120266
1515.000000	45.633397
1514.000000	46.046648
1513.000000	46.392051
1512.000000	46.700979
1511.000000	47.000824
1510.000000	47.304242
1509.000000	47.802293
1508.000000	48.721398
1507.000000	49.825262
1506.000000	50.743957
1505.000000	51.293621
1504.000000	51.575139
1503.000000	51.875995
1502.000000	52.321920
1501.000000	52.874816
1500.000000	53.473836
1499.000000	54.115691
1498.000000	54.798858
1497.000000	55.470899
1496.000000	56.061866
1495.000000	56.541550
1494.000000	56.900928
1493.000000	57.150159
1492.000000	57.389740
1491.000000	57.776959
1490.000000	58.347930
1489.000000	58.997226
1488.000000	59.605740
1487.000000	60.123434
1486.000000	60.544748
1485.000000	60.826390
1484.000000	60.992737
1483.000000	61.139040
1482.000000	61.288509
1481.000000	61.367949
1480.000000	61.324455
1479.000000	61.182540
1478.000000	60.952894
1477.000000	60.611072
1476.000000	60.138198
1475.000000	59.562282
1474.000000	58.810001
1473.000000	57.639607
1472.000000	56.024251
1471.000000	54.219906
1470.000000	52.329847
1469.000000	50.262711
1468.000000	47.926150
1467.000000	45.230986
1466.000000	41.999695
1465.000000	38.162463
1464.000000	34.147487
1463.000000	30.520944
1462.000000	27.401785
1461.000000	24.619374
1460.000000	22.069096
1459.000000	19.715596
1458.000000	17.390226
1457.000000	15.091806
1456.000000	13.307720
1455.000000	12.284413
1454.000000	11.739864
1453.000000	11.430087
1452.000000	11.331739
1451.000000	11.480487
1450.000000	11.853416
1449.000000	12.445169
1448.000000	13.300151
1447.000000	14.386572
1446.000000	15.576935
1445.000000	16.809384
1444.000000	18.136270
1443.000000	19.589758
1442.000000	21.113134
1441.000000	22.625307
1440.000000	24.098452
1439.000000	25.575584
1438.000000	27.168730
1437.000000	28.951482
1436.000000	30.768464
1435.000000	32.344244
1434.000000	33.627013
1433.000000	34.768236
1432.000000	35.872138
1431.000000	36.919061
1430.000000	37.825458
1429.000000	38.524695
1428.000000	38.973300
1427.000000	39.183316
1426.000000	39.235561
1425.000000	39.224182
1424.000000	39.211312
1423.000000	39.203866
1422.000000	39.172189
1421.000000	39.110591
1420.000000	39.095169
1419.000000	39.215552
1418.000000	39.502951
1417.000000	39.957340
1416.000000	40.576550
1415.000000	41.343787
1414.000000	42.226338
1413.000000	43.222197
1412.000000	44.353378
1411.000000	45.594817
1410.000000	46.864573
1409.000000	48.101265
1408.000000	49.282478
1407.000000	50.423624
1406.000000	51.572267
1405.000000	52.745227
1404.000000	53.876491
1403.000000	54.850880
1402.000000	55.638867
1401.000000	56.337642
1400.000000	57.049161
1399.000000	57.764466
1398.000000	58.432820
1397.000000	59.080000
1396.000000	59.749088
1395.000000	60.400019
1394.000000	60.942017
1393.000000	61.336784
1392.000000	61.599219
1391.000000	61.738239
1390.000000	61.761579
1389.000000	61.695496
1388.000000	61.548939
1387.000000	61.316807
1386.000000	61.063968
1385.000000	60.904669
1384.000000	60.903804
1383.000000	61.031073
1382.000000	61.202693
1381.000000	61.332152
1380.000000	61.340377
1379.000000	61.178024
1378.000000	60.856870
1377.000000	60.439673
1376.000000	59.996242
1375.000000	59.575843
1374.000000	59.191987
1373.000000	58.830966
1372.000000	58.452609
1371.000000	58.035140
1370.000000	57.609427
1369.000000	57.199138
1368.000000	56.782376
1367.000000	56.313048
1366.000000	55.773224
1365.000000	55.191033
1364.000000	54.613376
1363.000000	54.065077
1362.000000	53.552079
1361.000000	53.071166
1360.000000	52.604528
1359.000000	52.153490
1358.000000	51.765462
1357.000000	51.500026
1356.000000	51.387893
1355.000000	51.423084
1354.000000	51.569704
1353.000000	51.766144
1352.000000	51.923805
1351.000000	51.962101
1350.000000	51.831725
1349.000000	51.488681
1348.000000	50.888455
1347.000000	50.007464
1346.000000	48.855456
1345.000000	47.447798
1344.000000	45.799241
1343.000000	43.940288
1342.000000	41.927248
1341.000000	39.817192
1340.000000	37.652391
1339.000000	35.481006
1338.000000	33.344431
1337.000000	31.233997
1336.000000	29.106190
1335.000000	26.942354
1334.000000	24.764775
1333.000000	22.606458
1332.000000	20.503132
1331.000000	18.510625
1330.000000	16.689622
1329.000000	15.066824
1328.000000	13.639064
1327.000000	12.399879
1326.000000	11.333224
1325.000000	10.401207
1324.000000	9.565998
1323.000000	8.817987
1322.000000	8.160304
1321.000000	7.584933
1320.000000	7.092637
1319.000000	6.710570
1318.000000	6.470304
1317.000000	6.380525
1316.000000	6.438528
1315.000000	6.652827
1314.000000	7.025020
1313.000000	7.531919
1312.000000	8.143607
1311.000000	8.842725
1310.000000	9.618865
1309.000000	10.454981
1308.000000	11.335256
1307.000000	12.253512
1306.000000	13.200973
1305.000000	14.159419
1304.000000	15.113591
1303.000000	16.059084
1302.000000	16.992028
1301.000000	17.899804
1300.000000	18.768510
1299.000000	19.590506
1298.000000	20.358368
1297.000000	21.060629
1296.000000	21.694754
1295.000000	22.280694
1294.000000	22.855974
1293.000000	23.461804
1292.000000	24.136299
1291.000000	24.911197
1290.000000	25.805173
1289.000000	26.817289
1288.000000	27.927601
1287.000000	29.102953
1286.000000	30.301297
1285.000000	31.476972
1284.000000	32.586691
1283.000000	33.593607
1282.000000	34.468746
1281.000000	35.192054
1280.000000	35.751712
1279.000000	36.149569
1278.000000	36.407191
1277.000000	36.558812
1276.000000	36.645438
1275.000000	36.717027
1274.000000	36.832285
1273.000000	37.048540
1272.000000	37.409127
1271.000000	37.937636
1270.000000	38.639111
1269.000000	39.500888
1268.000000	40.493042
1267.000000	41.579080
1266.000000	42.723368
1265.000000	43.891178
1264.000000	45.047855
1263.000000	46.165658
1262.000000	47.234341
1261.000000	48.252856
1260.000000	49.209642
1259.000000	50.082707
1258.000000	50.859711
1257.000000	51.540209
1256.000000	52.121710
1255.000000	52.598896
1254.000000	52.973048
1253.000000	53.253525
1252.000000	53.441787
1251.000000	53.531966
1250.000000	53.524944
1249.000000	53.422966
1248.000000	53.220532
1247.000000	52.908152
1246.000000	52.485791
1245.000000	51.962637
1244.000000	51.341860
1243.000000	50.625574
1242.000000	49.824781
1241.000000	48.955085
1240.000000	48.028926
1239.000000	47.057247
1238.000000	46.057827
1237.000000	45.050400
1236.000000	44.049673
1235.000000	43.070534
1234.000000	42.133509
1233.000000	41.258411
1232.000000	40.459574
1231.000000	39.750563
1230.000000	39.143751
1229.000000	38.647802
1228.000000	38.265152
1227.000000	37.995922
1226.000000	37.840499
1225.000000	37.791760
1224.000000	37.837473
1223.000000	37.965352
1222.000000	38.165289
1221.000000	38.429597
1220.000000	38.749523
1219.000000	39.119248
1218.000000	39.535984
1217.000000	39.995652
1216.000000	40.492833
1215.000000	41.022789
1214.000000	41.584546
1213.000000	42.177031
1212.000000	42.793516
1211.000000	43.423772
1210.000000	44.059356
1209.000000	44.694678
1208.000000	45.323741
1207.000000	45.941030
1206.000000	46.546633
1205.000000	47.145467
1204.000000	47.740929
1203.000000	48.334205
1202.000000	48.929264
1201.000000	49.531509
1200.000000	50.141380
1199.000000	50.755262
1198.000000	51.371767
1197.000000	51.990826
1196.000000	52.606758
1195.000000	53.210982
1194.000000	53.801732
1193.000000	54.382255
1192.000000	54.950459
1191.000000	55.499141
1190.000000	56.027861
1189.000000	56.543704
1188.000000	57.049233
1187.000000	57.541353
1186.000000	58.021851
1185.000000	58.499127
1184.000000	58.975691
1183.000000	59.442035
1182.000000	59.886730
1181.000000	60.304589
1180.000000	60.697026
1179.000000	61.073695
1178.000000	61.450442
1177.000000	61.835442
1176.000000	62.216012
1175.000000	62.569300
1174.000000	62.883968
1173.000000	63.160267
1172.000000	63.397609
1171.000000	63.596001
1170.000000	63.768022
1169.000000	63.933982
1168.000000	64.104463
1167.000000	64.281385
1166.000000	64.470939
1165.000000	64.679913
1164.000000	64.901184
1163.000000	65.116965
1162.000000	65.316582
1161.000000	65.496821
1160.000000	65.648366
1159.000000	65.760369
1158.000000	65.836990
1157.000000	65.895222
1156.000000	65.947392
1155.000000	66.000296
1154.000000	66.067660
1153.000000	66.164883
1152.000000	66.292460
1151.000000	66.439929
1150.000000	66.604869
1149.000000	66.791537
1148.000000	66.993648
1147.000000	67.195091
1146.000000	67.387732
1145.000000	67.572810
1144.000000	67.745952
1143.000000	67.898318
1142.000000	68.032088
1141.000000	68.158485
1140.000000	68.281080
1139.000000	68.397632
1138.000000	68.515932
1137.000000	68.650858
1136.000000	68.806408
1135.000000	68.976710
1134.000000	69.162691
1133.000000	69.371246
1132.000000	69.598106
1131.000000	69.827664
1130.000000	70.049077
1129.000000	70.256944
1128.000000	70.437467
1127.000000	70.571707
1126.000000	70.654034
1125.000000	70.689844
1124.000000	70.680251
1123.000000	70.625407
1122.000000	70.540405
1121.000000	70.450582
1120.000000	70.369034
1119.000000	70.295626
1118.000000	70.232178
1117.000000	70.178946
1116.000000	70.118923
1115.000000	70.020960
1114.000000	69.860882
1113.000000	69.624550
1112.000000	69.292733
1111.000000	68.848695
1110.000000	68.293450
1109.000000	67.640835
1108.000000	66.900469
1107.000000	66.073885
1106.000000	65.170281
1105.000000	64.198685
1104.000000	63.152680
1103.000000	62.016529
1102.000000	60.776283
1101.000000	59.420804
1100.000000	57.929727
1099.000000	56.280544
1098.000000	54.464320
1097.000000	52.477236
1096.000000	50.315221
1095.000000	47.977115
1094.000000	45.471368
1093.000000	42.817323
1092.000000	40.038936
1091.000000	37.172802
1090.000000	34.266657
1089.000000	31.369815
1088.000000	28.531843
1087.000000	25.806899
1086.000000	23.243182
1085.000000	20.872791
1084.000000	18.719476
1083.000000	16.796078
1082.000000	15.101662
1081.000000	13.618686
1080.000000	12.328647
1079.000000	11.222639
1078.000000	10.278700
1077.000000	9.465979
1076.000000	8.762481
1075.000000	8.158126
1074.000000	7.641888
1073.000000	7.193299
1072.000000	6.801892
1071.000000	6.469041
1070.000000	6.188932
1069.000000	5.948631
1068.000000	5.743155
1067.000000	5.578203
1066.000000	5.452230
1065.000000	5.353752
1064.000000	5.281223
1063.000000	5.242784
1062.000000	5.238221
1061.000000	5.257944
1060.000000	5.300908
1059.000000	5.377057
1058.000000	5.487536
1057.000000	5.623445
1056.000000	5.784623
1055.000000	5.980167
1054.000000	6.211398
1053.000000	6.469597
1052.000000	6.754358
1051.000000	7.076136
1050.000000	7.436256
1049.000000	7.826304
1048.000000	8.245229
1047.000000	8.700861
1046.000000	9.194533
1045.000000	9.719735
1044.000000	10.279607
1043.000000	10.885565
1042.000000	11.540439
1041.000000	12.239054
1040.000000	12.981305
1039.000000	13.773946
1038.000000	14.616398
1037.000000	15.499412
1036.000000	16.418889
1035.000000	17.374112
1034.000000	18.357211
1033.000000	19.354823
1032.000000	20.360628
1031.000000	21.376621
1030.000000	22.401334
1029.000000	23.428942
1028.000000	24.458028
1027.000000	25.492080
1026.000000	26.531965
1025.000000	27.575399
1024.000000	28.622811
1023.000000	29.676310
1022.000000	30.733236
1021.000000	31.785807
1020.000000	32.826930
1019.000000	33.851601
1018.000000	34.854193
1017.000000	35.829414
1016.000000	36.774519
1015.000000	37.690028
1014.000000	38.578013
1013.000000	39.441323
1012.000000	40.285070
1011.000000	41.116022
1010.000000	41.941389
1009.000000	42.766201
1008.000000	43.590725
1007.000000	44.411626
1006.000000	45.224377
1005.000000	46.024132
1004.000000	46.804565
1003.000000	47.558812
1002.000000	48.283513
1001.000000	48.977910
1000.000000	49.641060
999.000000	50.273771
998.000000	50.882055
997.000000	51.475487
996.000000	52.060793
995.000000	52.642375
994.000000	53.227329
993.000000	53.822460
992.000000	54.427208
991.000000	55.034252
990.000000	55.636763
989.000000	56.229027
988.000000	56.800403
987.000000	57.338878
986.000000	57.840366
985.000000	58.308521
984.000000	58.747175
983.000000	59.160314
982.000000	59.560094
981.000000	59.964026
980.000000	60.383723
979.000000	60.823688
978.000000	61.287700
977.000000	61.776032
976.000000	62.276131
975.000000	62.766085
974.000000	63.229303
973.000000	63.656794
972.000000	64.039607
971.000000	64.371570
970.000000	64.660165
969.000000	64.924725
968.000000	65.181587
967.000000	65.441538
966.000000	65.717800
965.000000	66.022630
964.000000	66.355419
963.000000	66.704185
962.000000	67.058681
961.000000	67.412185
960.000000	67.752270
959.000000	68.064222
958.000000	68.343855
957.000000	68.596372
956.000000	68.823311
955.000000	69.021665
954.000000	69.196139
953.000000	69.356995
952.000000	69.507320
951.000000	69.645266
950.000000	69.777416
949.000000	69.917950
948.000000	70.075437
947.000000	70.252713
946.000000	70.457291
945.000000	70.696914
944.000000	70.963705
943.000000	71.234604
942.000000	71.486880
941.000000	71.702579
940.000000	71.860389
939.000000	71.942702
938.000000	71.952531
937.000000	71.912027
936.000000	71.846995
935.000000	71.783624
934.000000	71.755372
933.000000	71.793262
932.000000	71.906168
931.000000	72.080275
930.000000	72.294161
929.000000	72.520770
928.000000	72.720023
927.000000	72.849251
926.000000	72.886973
925.000000	72.835089
924.000000	72.703845
923.000000	72.509980
922.000000	72.284469
921.000000	72.064902
920.000000	71.874600
919.000000	71.720156
918.000000	71.604059
917.000000	71.523775
916.000000	71.461334
915.000000	71.389804
914.000000	71.291886
913.000000	71.161639
912.000000	70.990311
911.000000	70.767281
910.000000	70.491923
909.000000	70.169619
908.000000	69.798053
907.000000	69.368478
906.000000	68.882220
905.000000	68.350215
904.000000	67.780293
903.000000	67.180602
902.000000	66.570481
901.000000	65.974681
900.000000	65.404760
899.000000	64.854818
898.000000	64.312327
897.000000	63.758585
896.000000	63.162528
895.000000	62.487843
894.000000	61.708341
893.000000	60.813708
892.000000	59.802410
891.000000	58.685114
890.000000	57.490548
889.000000	56.253895
888.000000	55.002361
887.000000	53.751942
886.000000	52.512573
885.000000	51.285001
884.000000	50.054175
883.000000	48.795689
882.000000	47.487204
881.000000	46.112864
880.000000	44.662949
879.000000	43.135404
878.000000	41.538858
877.000000	39.888734
876.000000	38.202789
875.000000	36.500201
874.000000	34.799189
873.000000	33.114942
872.000000	31.460786
871.000000	29.849317
870.000000	28.287891
869.000000	26.778321
868.000000	25.320987
867.000000	23.916308
866.000000	22.560586
865.000000	21.245488
864.000000	19.968267
863.000000	18.732732
862.000000	17.541412
861.000000	16.395961
860.000000	15.303940
859.000000	14.281099
858.000000	13.341347
857.000000	12.495888
856.000000	11.764141
855.000000	11.166860
854.000000	10.712937
853.000000	10.394579
852.000000	10.195327
851.000000	10.093840
850.000000	10.056341
849.000000	10.046818
848.000000	10.043094
847.000000	10.037470
846.000000	10.026716
845.000000	10.010367
844.000000	9.998997
843.000000	10.009467
842.000000	10.051716
841.000000	10.130482
840.000000	10.254639
839.000000	10.434775
838.000000	10.672566
837.000000	10.962410
836.000000	11.303308
835.000000	11.695369
834.000000	12.129369
833.000000	12.590161
832.000000	13.069541
831.000000	13.568671
830.000000	14.088165
829.000000	14.626155
828.000000	15.183715
827.000000	15.763456
826.000000	16.366880
825.000000	16.999902
824.000000	17.678193
823.000000	18.417553
822.000000	19.218818
821.000000	20.069010
820.000000	20.950118
819.000000	21.841549
818.000000	22.720477
817.000000	23.568472
816.000000	24.377467
815.000000	25.146177
814.000000	25.875041
813.000000	26.567427
812.000000	27.232836
811.000000	27.884064
810.000000	28.533802
809.000000	29.194602
808.000000	29.877892
807.000000	30.589919
806.000000	31.329768
805.000000	32.091665
804.000000	32.866118
803.000000	33.639954
802.000000	34.400476
801.000000	35.141194
800.000000	35.861405
799.000000	36.562198
798.000000	37.246420
797.000000	37.921077
796.000000	38.595108
795.000000	39.275717
794.000000	39.968626
793.000000	40.678256
792.000000	41.403693
791.000000	42.136697
790.000000	42.866421
789.000000	43.583501
788.000000	44.278268
787.000000	44.940732
786.000000	45.566093
785.000000	46.156234
784.000000	46.714643
783.000000	47.244774
782.000000	47.755326
781.000000	48.259708
780.000000	48.767223
779.000000	49.280133
778.000000	49.799969
777.000000	50.329829
776.000000	50.867803
775.000000	51.405051
774.000000	51.933468
773.000000	52.448824
772.000000	52.944878
771.000000	53.412708
770.000000	53.848513
769.000000	54.256020
768.000000	54.638925
767.000000	54.998964
766.000000	55.342896
765.000000	55.683333
764.000000	56.031297
763.000000	56.394307
762.000000	56.781434
761.000000	57.199710
760.000000	57.642528
759.000000	58.089421
758.000000	58.519062
757.000000	58.915067
756.000000	59.261055
755.000000	59.542267
754.000000	59.756909
753.000000	59.917016
752.000000	60.038033
751.000000	60.136744
750.000000	60.237423
749.000000	60.367344
748.000000	60.541498
747.000000	60.759182
746.000000	61.013706
745.000000	61.293844
744.000000	61.575099
743.000000	61.823538
742.000000	62.013732
741.000000	62.136806
740.000000	62.192685
739.000000	62.188237
738.000000	62.144824
737.000000	62.094712
736.000000	62.065195
735.000000	62.072502
734.000000	62.129990
733.000000	62.248794
732.000000	62.428540
731.000000	62.657258
730.000000	62.923217
729.000000	63.217758
728.000000	63.526931
727.000000	63.832956
726.000000	64.127189
725.000000	64.410672
724.000000	64.680394
723.000000	64.928378
722.000000	65.155169
721.000000	65.371878
720.000000	65.587201
719.000000	65.804985
718.000000	66.035724
717.000000	66.297617
716.000000	66.603072
715.000000	66.954784
714.000000	67.353905
713.000000	67.797228
712.000000	68.263758
711.000000	68.717562
710.000000	69.127543
709.000000	69.473741
708.000000	69.739746
707.000000	69.917634
706.000000	70.023300
705.000000	70.092763
704.000000	70.160710
703.000000	70.253358
702.000000	70.397598
701.000000	70.618195
700.000000	70.922624
699.000000	71.298563
698.000000	71.724507
697.000000	72.169374
696.000000	72.585084
695.000000	72.923755
694.000000	73.164670
693.000000	73.312545
692.000000	73.379265
691.000000	73.384569
690.000000	73.369523
689.000000	73.386023
688.000000	73.464721
687.000000	73.607100
686.000000	73.806115
685.000000	74.055139
684.000000	74.338449
683.000000	74.632500
682.000000	74.919549
681.000000	75.186999
680.000000	75.418557
679.000000	75.602534
678.000000	75.744061
677.000000	75.853225
676.000000	75.933504
675.000000	75.985162
674.000000	76.016348
673.000000	76.044297
672.000000	76.087469
671.000000	76.168042
670.000000	76.317513
669.000000	76.544787
668.000000	76.816088
667.000000	77.071915
666.000000	77.250879
665.000000	77.390366
664.000000	77.565950
663.000000	77.765794
662.000000	77.940181
661.000000	78.059923
660.000000	78.122356
659.000000	78.126039
658.000000	78.081929
657.000000	78.023421
656.000000	77.987243
655.000000	77.993739
654.000000	78.059108
653.000000	78.206344
652.000000	78.439908
651.000000	78.729767
650.000000	79.033462
649.000000	79.318018
648.000000	79.549242
647.000000	79.690496
646.000000	79.735852
645.000000	79.717978
644.000000	79.667558
643.000000	79.594296
642.000000	79.517375
641.000000	79.479684
640.000000	79.512616
639.000000	79.610202
638.000000	79.752110
637.000000	79.928936
636.000000	80.128466
635.000000	80.321938
634.000000	80.483377
633.000000	80.604634
632.000000	80.681925
631.000000	80.709337
630.000000	80.697576
629.000000	80.676098
628.000000	80.665207
627.000000	80.667907
626.000000	80.693440
625.000000	80.757340
624.000000	80.849932
623.000000	80.937426
622.000000	81.005205
621.000000	81.069290
620.000000	81.138697
619.000000	81.201048
618.000000	81.256073
617.000000	81.330425
616.000000	81.438518
615.000000	81.557601
614.000000	81.658449
613.000000	81.732339
612.000000	81.775344
611.000000	81.777315
610.000000	81.743877
609.000000	81.703741
608.000000	81.677573
607.000000	81.665227
606.000000	81.672947
605.000000	81.718340
604.000000	81.794340
603.000000	81.858905
602.000000	81.874453
601.000000	81.828371
600.000000	81.697165
599.000000	81.430309
598.000000	80.997988
597.000000	80.427790
596.000000	79.789255
595.000000	79.175874
594.000000	78.708725
593.000000	78.509754
592.000000	78.635855
591.000000	79.035238
590.000000	79.580239
589.000000	80.143558
588.000000	80.635337
587.000000	81.010672
586.000000	81.273836
585.000000	81.459959
584.000000	81.591923
583.000000	81.677478
582.000000	81.750121
581.000000	81.868613
580.000000	82.053813
579.000000	82.262636
578.000000	82.453385
577.000000	82.634296
576.000000	82.823637
575.000000	82.993084
574.000000	83.089773
573.000000	83.094987
572.000000	83.028636
571.000000	82.924889
570.000000	82.825512
569.000000	82.768683
568.000000	82.762771
567.000000	82.783107
566.000000	82.801059
565.000000	82.804781
564.000000	82.786209
563.000000	82.737280
562.000000	82.668154
561.000000	82.606331
560.000000	82.568651
559.000000	82.551642
558.000000	82.551516
557.000000	82.571213
556.000000	82.603132
555.000000	82.623405
554.000000	82.612433
553.000000	82.564509
552.000000	82.477964
551.000000	82.359753
550.000000	82.241666
549.000000	82.166638
548.000000	82.157979
547.000000	82.221522
546.000000	82.367604
545.000000	82.596908
544.000000	82.868582
543.000000	83.115052
542.000000	83.292167
541.000000	83.392684
540.000000	83.411629
539.000000	83.337722
538.000000	83.188531
537.000000	83.021584
536.000000	82.894039
535.000000	82.833733
534.000000	82.850489
533.000000	82.949474
532.000000	83.119204
531.000000	83.324612
530.000000	83.524590
529.000000	83.685091
528.000000	83.777587
527.000000	83.797383
526.000000	83.786628
525.000000	83.786684
524.000000	83.776742
523.000000	83.699565
522.000000	83.536222
521.000000	83.324065
520.000000	83.110050
519.000000	82.921338
518.000000	82.782280
517.000000	82.712266
516.000000	82.684726
515.000000	82.628561
514.000000	82.488173
513.000000	82.256639
512.000000	81.945277
511.000000	81.553709
510.000000	81.079317
509.000000	80.528600
508.000000	79.902057
507.000000	79.199591
506.000000	78.441795
505.000000	77.655916
504.000000	76.855520
503.000000	76.077438
502.000000	75.413760
501.000000	74.943309
500.000000	74.652731
499.000000	74.477158
498.000000	74.395793
497.000000	74.434201
496.000000	74.599209
495.000000	74.859329
494.000000	75.190362
493.000000	75.602801
492.000000	76.093421
491.000000	76.613459
490.000000	77.107027
489.000000	77.553413
488.000000	77.962318
487.000000	78.360125
486.000000	78.792742
485.000000	79.299978
484.000000	79.864480
483.000000	80.413900
482.000000	80.890383
481.000000	81.275990
480.000000	81.545194
479.000000	81.660829
478.000000	81.629980
477.000000	81.514965
476.000000	81.364034
475.000000	81.178715
474.000000	80.986363
473.000000	80.897084
472.000000	81.001653
471.000000	81.255719
470.000000	81.575446
469.000000	81.952541
468.000000	82.415408
467.000000	82.935254
466.000000	83.419701
465.000000	83.798694
464.000000	84.054963
463.000000	84.206339
462.000000	84.305586
461.000000	84.404917
460.000000	84.484108
459.000000	84.479685
458.000000	84.418306
457.000000	84.394089
456.000000	84.404545
455.000000	84.384185
454.000000	84.340447
453.000000	84.373487
452.000000	84.561652
451.000000	84.839842
450.000000	85.079787
449.000000	85.246131
448.000000	85.400619
447.000000	85.582939
446.000000	85.756456
445.000000	85.874425
444.000000	85.929807
443.000000	85.950862
442.000000	85.981913
441.000000	86.050083
440.000000	86.138075
439.000000	86.209169
438.000000	86.277797
437.000000	86.444844
436.000000	86.797248
435.000000	87.285507
434.000000	87.772658
433.000000	88.167559
432.000000	88.431442
431.000000	88.533497
430.000000	88.481817
429.000000	88.330567
428.000000	88.108393
427.000000	87.818478
426.000000	87.530483
425.000000	87.387104
424.000000	87.489630
423.000000	87.804712
422.000000	88.188984
421.000000	88.427892
420.000000	88.327033
419.000000	88.064798
418.000000	88.017119
417.000000	88.208048
416.000000	88.478264
415.000000	88.687999
414.000000	88.776602
413.000000	88.828144
412.000000	88.921163
411.000000	88.991561
410.000000	88.972915
409.000000	88.931201
408.000000	88.917300
407.000000	88.877215
406.000000	88.810014
405.000000	88.816276
404.000000	88.943876
403.000000	89.031667
402.000000	88.914155
401.000000	88.599850
400.000000	88.165258
