PE IR       SUBTECH     SPECTRUM    ASCII       PEDS        4.00        
   -1
23MS029_nitrito.asc
24/09/03
16:38:45.00
24/09/03
16:38:45.00
Administrator
Sample 1098 By Administrator Date Tuesday, September 03 2024
400.000000
#HDR
-1
-1
#GR
cm-1
%T
1.0
0.0
4000.000000
-1.000000
3601
8
93.846756
11.936785
#DATA
4000.000000	81.386161
3999.000000	81.435158
3998.000000	81.483277
3997.000000	81.529318
3996.000000	81.572364
3995.000000	81.612124
3994.000000	81.649450
3993.000000	81.686501
3992.000000	81.725739
3991.000000	81.768357
3990.000000	81.813562
3989.000000	81.859739
3988.000000	81.906281
3987.000000	81.953639
3986.000000	82.001747
3985.000000	82.049034
3984.000000	82.093570
3983.000000	82.134755
3982.000000	82.173442
3981.000000	82.210830
3980.000000	82.247776
3979.000000	82.285021
3978.000000	82.323363
3977.000000	82.363152
3976.000000	82.403836
3975.000000	82.444486
3974.000000	82.484890
3973.000000	82.525824
3972.000000	82.567919
3971.000000	82.610680
3970.000000	82.652549
3969.000000	82.691636
3968.000000	82.726769
3967.000000	82.758277
3966.000000	82.788005
3965.000000	82.818723
3964.000000	82.852884
3963.000000	82.890926
3962.000000	82.930945
3961.000000	82.970416
3960.000000	83.008349
3959.000000	83.045864
3958.000000	83.084489
3957.000000	83.124049
3956.000000	83.162863
3955.000000	83.199622
3954.000000	83.234448
3953.000000	83.268542
3952.000000	83.303265
3951.000000	83.339790
3950.000000	83.378208
3949.000000	83.416319
3948.000000	83.451528
3947.000000	83.484263
3946.000000	83.518885
3945.000000	83.560738
3944.000000	83.610918
3943.000000	83.663642
3942.000000	83.710656
3941.000000	83.749624
3940.000000	83.785707
3939.000000	83.824523
3938.000000	83.865896
3937.000000	83.905346
3936.000000	83.940713
3935.000000	83.975308
3934.000000	84.014589
3933.000000	84.060219
3932.000000	84.108075
3931.000000	84.152416
3930.000000	84.190784
3929.000000	84.225877
3928.000000	84.263398
3927.000000	84.307874
3926.000000	84.358659
3925.000000	84.409150
3924.000000	84.451523
3923.000000	84.483961
3922.000000	84.511692
3921.000000	84.541138
3920.000000	84.575430
3919.000000	84.614274
3918.000000	84.655924
3917.000000	84.698232
3916.000000	84.738729
3915.000000	84.776565
3914.000000	84.813987
3913.000000	84.854135
3912.000000	84.897005
3911.000000	84.938708
3910.000000	84.975611
3909.000000	85.008206
3908.000000	85.040758
3907.000000	85.077445
3906.000000	85.118241
3905.000000	85.158609
3904.000000	85.193228
3903.000000	85.222669
3902.000000	85.255272
3901.000000	85.298351
3900.000000	85.349762
3899.000000	85.400248
3898.000000	85.442336
3897.000000	85.477269
3896.000000	85.511610
3895.000000	85.550895
3894.000000	85.596952
3893.000000	85.647006
3892.000000	85.692922
3891.000000	85.726309
3890.000000	85.747146
3889.000000	85.765180
3888.000000	85.792373
3887.000000	85.834895
3886.000000	85.887096
3885.000000	85.934769
3884.000000	85.971338
3883.000000	86.006096
3882.000000	86.050572
3881.000000	86.102165
3880.000000	86.146520
3879.000000	86.177074
3878.000000	86.202699
3877.000000	86.234223
3876.000000	86.272611
3875.000000	86.310412
3874.000000	86.340325
3873.000000	86.364464
3872.000000	86.393683
3871.000000	86.436089
3870.000000	86.485996
3869.000000	86.530550
3868.000000	86.567932
3867.000000	86.607670
3866.000000	86.655699
3865.000000	86.706840
3864.000000	86.749876
3863.000000	86.780694
3862.000000	86.806474
3861.000000	86.833127
3860.000000	86.859945
3859.000000	86.886735
3858.000000	86.917202
3857.000000	86.954536
3856.000000	86.998100
3855.000000	87.050884
3854.000000	87.120113
3853.000000	87.196309
3852.000000	87.262017
3851.000000	87.314655
3850.000000	87.356412
3849.000000	87.385431
3848.000000	87.401259
3847.000000	87.409607
3846.000000	87.420749
3845.000000	87.442391
3844.000000	87.474517
3843.000000	87.514304
3842.000000	87.561806
3841.000000	87.617780
3840.000000	87.679634
3839.000000	87.740461
3838.000000	87.793309
3837.000000	87.837976
3836.000000	87.879216
3835.000000	87.920304
3834.000000	87.959786
3833.000000	87.993958
3832.000000	88.022146
3831.000000	88.047807
3830.000000	88.075825
3829.000000	88.110159
3828.000000	88.151239
3827.000000	88.195128
3826.000000	88.236977
3825.000000	88.275686
3824.000000	88.315004
3823.000000	88.360436
3822.000000	88.412096
3821.000000	88.460742
3820.000000	88.500660
3819.000000	88.541937
3818.000000	88.594196
3817.000000	88.651451
3816.000000	88.701081
3815.000000	88.739301
3814.000000	88.772618
3813.000000	88.806888
3812.000000	88.841377
3811.000000	88.872367
3810.000000	88.900615
3809.000000	88.932160
3808.000000	88.971792
3807.000000	89.017099
3806.000000	89.061981
3805.000000	89.105456
3804.000000	89.151641
3803.000000	89.200480
3802.000000	89.245542
3801.000000	89.282974
3800.000000	89.319771
3799.000000	89.367091
3798.000000	89.423947
3797.000000	89.475810
3796.000000	89.511197
3795.000000	89.535044
3794.000000	89.561119
3793.000000	89.597279
3792.000000	89.641490
3791.000000	89.687795
3790.000000	89.732583
3789.000000	89.776182
3788.000000	89.820311
3787.000000	89.864966
3786.000000	89.907464
3785.000000	89.944769
3784.000000	89.977972
3783.000000	90.012829
3782.000000	90.055204
3781.000000	90.106118
3780.000000	90.160095
3779.000000	90.208628
3778.000000	90.248110
3777.000000	90.281964
3776.000000	90.314844
3775.000000	90.348850
3774.000000	90.384709
3773.000000	90.423759
3772.000000	90.467310
3771.000000	90.514021
3770.000000	90.558409
3769.000000	90.596230
3768.000000	90.631023
3767.000000	90.669383
3766.000000	90.711276
3765.000000	90.751777
3764.000000	90.789816
3763.000000	90.829948
3762.000000	90.875903
3761.000000	90.926229
3760.000000	90.976106
3759.000000	91.020379
3758.000000	91.058575
3757.000000	91.095709
3756.000000	91.135856
3755.000000	91.178458
3754.000000	91.219508
3753.000000	91.256077
3752.000000	91.289213
3751.000000	91.320472
3750.000000	91.352468
3749.000000	91.392761
3748.000000	91.446923
3747.000000	91.511435
3746.000000	91.575349
3745.000000	91.630329
3744.000000	91.677379
3743.000000	91.723711
3742.000000	91.774565
3741.000000	91.825022
3740.000000	91.862969
3739.000000	91.881402
3738.000000	91.890093
3737.000000	91.913668
3736.000000	91.968857
3735.000000	92.045302
3734.000000	92.117587
3733.000000	92.172122
3732.000000	92.212160
3731.000000	92.247069
3730.000000	92.283315
3729.000000	92.321412
3728.000000	92.358933
3727.000000	92.393959
3726.000000	92.425311
3725.000000	92.453256
3724.000000	92.481537
3723.000000	92.515430
3722.000000	92.557201
3721.000000	92.606741
3720.000000	92.664127
3719.000000	92.726370
3718.000000	92.785827
3717.000000	92.835675
3716.000000	92.873683
3715.000000	92.901045
3714.000000	92.919926
3713.000000	92.934647
3712.000000	92.954249
3711.000000	92.986966
3710.000000	93.034877
3709.000000	93.091989
3708.000000	93.147704
3707.000000	93.195460
3706.000000	93.234472
3705.000000	93.268598
3704.000000	93.303405
3703.000000	93.343687
3702.000000	93.388367
3701.000000	93.431393
3700.000000	93.468730
3699.000000	93.500148
3698.000000	93.524204
3697.000000	93.538755
3696.000000	93.545635
3695.000000	93.550937
3694.000000	93.563098
3693.000000	93.589541
3692.000000	93.635006
3691.000000	93.696446
3690.000000	93.759052
3689.000000	93.803173
3688.000000	93.823582
3687.000000	93.832630
3686.000000	93.840612
3685.000000	93.846756
3684.000000	93.844902
3683.000000	93.832759
3682.000000	93.813801
3681.000000	93.794582
3680.000000	93.780288
3679.000000	93.772293
3678.000000	93.765822
3677.000000	93.755249
3676.000000	93.742804
3675.000000	93.735261
3674.000000	93.739983
3673.000000	93.755396
3672.000000	93.761399
3671.000000	93.735676
3670.000000	93.678684
3669.000000	93.614498
3668.000000	93.570173
3667.000000	93.551812
3666.000000	93.540797
3665.000000	93.515616
3664.000000	93.470640
3663.000000	93.414502
3662.000000	93.357875
3661.000000	93.304862
3660.000000	93.251888
3659.000000	93.190757
3658.000000	93.111676
3657.000000	93.011005
3656.000000	92.898601
3655.000000	92.792814
3654.000000	92.704214
3653.000000	92.625669
3652.000000	92.538549
3651.000000	92.427684
3650.000000	92.291390
3649.000000	92.141340
3648.000000	91.999088
3647.000000	91.878781
3646.000000	91.773954
3645.000000	91.668240
3644.000000	91.551389
3643.000000	91.422094
3642.000000	91.284206
3641.000000	91.142350
3640.000000	90.999352
3639.000000	90.856099
3638.000000	90.710121
3637.000000	90.557005
3636.000000	90.393786
3635.000000	90.223512
3634.000000	90.055034
3633.000000	89.895846
3632.000000	89.742900
3631.000000	89.579004
3630.000000	89.386359
3629.000000	89.168761
3628.000000	88.955448
3627.000000	88.776986
3626.000000	88.634718
3625.000000	88.505498
3624.000000	88.369876
3623.000000	88.223618
3622.000000	88.066440
3621.000000	87.892752
3620.000000	87.696847
3619.000000	87.484230
3618.000000	87.273235
3617.000000	87.082319
3616.000000	86.913861
3615.000000	86.754890
3614.000000	86.589743
3613.000000	86.412125
3612.000000	86.228058
3611.000000	86.046137
3610.000000	85.867244
3609.000000	85.688710
3608.000000	85.513194
3607.000000	85.348104
3606.000000	85.197447
3605.000000	85.056811
3604.000000	84.916508
3603.000000	84.768887
3602.000000	84.610579
3601.000000	84.443758
3600.000000	84.275597
3599.000000	84.112641
3598.000000	83.955648
3597.000000	83.800657
3596.000000	83.643371
3595.000000	83.481705
3594.000000	83.315791
3593.000000	83.147834
3592.000000	82.982534
3591.000000	82.822340
3590.000000	82.665616
3589.000000	82.511526
3588.000000	82.363548
3587.000000	82.224671
3586.000000	82.094434
3585.000000	81.969359
3584.000000	81.843095
3583.000000	81.709563
3582.000000	81.566374
3581.000000	81.416262
3580.000000	81.265154
3579.000000	81.117270
3578.000000	80.971878
3577.000000	80.825490
3576.000000	80.677232
3575.000000	80.529039
3574.000000	80.383861
3573.000000	80.244186
3572.000000	80.112555
3571.000000	79.988242
3570.000000	79.864340
3569.000000	79.731938
3568.000000	79.587534
3567.000000	79.433944
3566.000000	79.277734
3565.000000	79.128279
3564.000000	78.991895
3563.000000	78.867087
3562.000000	78.746176
3561.000000	78.621271
3560.000000	78.489487
3559.000000	78.352455
3558.000000	78.212871
3557.000000	78.073085
3556.000000	77.936114
3555.000000	77.803755
3554.000000	77.673838
3553.000000	77.541448
3552.000000	77.403472
3551.000000	77.260575
3550.000000	77.114790
3549.000000	76.968602
3548.000000	76.826149
3547.000000	76.691422
3546.000000	76.564275
3545.000000	76.441191
3544.000000	76.319540
3543.000000	76.197752
3542.000000	76.073209
3541.000000	75.943498
3540.000000	75.809962
3539.000000	75.676761
3538.000000	75.546659
3537.000000	75.419307
3536.000000	75.292912
3535.000000	75.166505
3534.000000	75.040016
3533.000000	74.914685
3532.000000	74.792395
3531.000000	74.673809
3530.000000	74.557348
3529.000000	74.442000
3528.000000	74.329863
3527.000000	74.223670
3526.000000	74.122546
3525.000000	74.021826
3524.000000	73.916067
3523.000000	73.801374
3522.000000	73.677822
3521.000000	73.551177
3520.000000	73.429987
3519.000000	73.318767
3518.000000	73.215102
3517.000000	73.114470
3516.000000	73.014798
3515.000000	72.914793
3514.000000	72.811013
3513.000000	72.700617
3512.000000	72.585308
3511.000000	72.469264
3510.000000	72.354205
3509.000000	72.239701
3508.000000	72.126312
3507.000000	72.014850
3506.000000	71.903872
3505.000000	71.791420
3504.000000	71.677986
3503.000000	71.565086
3502.000000	71.452838
3501.000000	71.341325
3500.000000	71.232299
3499.000000	71.125914
3498.000000	71.017730
3497.000000	70.902170
3496.000000	70.778510
3495.000000	70.651310
3494.000000	70.525828
3493.000000	70.405159
3492.000000	70.290319
3491.000000	70.179695
3490.000000	70.068883
3489.000000	69.953819
3488.000000	69.833985
3487.000000	69.711135
3486.000000	69.586613
3485.000000	69.461963
3484.000000	69.340092
3483.000000	69.223114
3482.000000	69.109547
3481.000000	68.995792
3480.000000	68.879199
3479.000000	68.758283
3478.000000	68.632414
3477.000000	68.503715
3476.000000	68.377312
3475.000000	68.256642
3474.000000	68.140095
3473.000000	68.024101
3472.000000	67.907475
3471.000000	67.790556
3470.000000	67.672278
3469.000000	67.551071
3468.000000	67.427341
3467.000000	67.302545
3466.000000	67.177268
3465.000000	67.052132
3464.000000	66.928719
3463.000000	66.807314
3462.000000	66.685302
3461.000000	66.560146
3460.000000	66.432445
3459.000000	66.304383
3458.000000	66.177182
3457.000000	66.051668
3456.000000	65.928899
3455.000000	65.808026
3454.000000	65.685445
3453.000000	65.558789
3452.000000	65.430089
3451.000000	65.303329
3450.000000	65.180503
3449.000000	65.061295
3448.000000	64.944107
3447.000000	64.825524
3446.000000	64.701470
3445.000000	64.571013
3444.000000	64.436997
3443.000000	64.302080
3442.000000	64.166999
3441.000000	64.033712
3440.000000	63.906443
3439.000000	63.786832
3438.000000	63.670387
3437.000000	63.550252
3436.000000	63.422449
3435.000000	63.286091
3434.000000	63.141637
3433.000000	62.992264
3432.000000	62.843770
3431.000000	62.699784
3430.000000	62.558045
3429.000000	62.413396
3428.000000	62.263018
3427.000000	62.106923
3426.000000	61.946423
3425.000000	61.784694
3424.000000	61.626469
3423.000000	61.474012
3422.000000	61.324157
3421.000000	61.171226
3420.000000	61.011512
3419.000000	60.843692
3418.000000	60.667591
3417.000000	60.485077
3416.000000	60.300423
3415.000000	60.117161
3414.000000	59.935236
3413.000000	59.752596
3412.000000	59.567458
3411.000000	59.377811
3410.000000	59.180932
3409.000000	58.975483
3408.000000	58.763099
3407.000000	58.546503
3406.000000	58.327793
3405.000000	58.109086
3404.000000	57.891781
3403.000000	57.673724
3402.000000	57.448916
3401.000000	57.211889
3400.000000	56.961068
3399.000000	56.697749
3398.000000	56.425026
3397.000000	56.148398
3396.000000	55.873529
3395.000000	55.601184
3394.000000	55.325957
3393.000000	55.041324
3392.000000	54.743964
3391.000000	54.432816
3390.000000	54.108557
3389.000000	53.775162
3388.000000	53.438596
3387.000000	53.101236
3386.000000	52.759427
3385.000000	52.408433
3384.000000	52.046452
3383.000000	51.673537
3382.000000	51.290026
3381.000000	50.897845
3380.000000	50.500478
3379.000000	50.099125
3378.000000	49.691328
3377.000000	49.274357
3376.000000	48.847043
3375.000000	48.408232
3374.000000	47.957006
3373.000000	47.495736
3372.000000	47.029682
3371.000000	46.561106
3370.000000	46.087462
3369.000000	45.605382
3368.000000	45.113154
3367.000000	44.608849
3366.000000	44.090166
3365.000000	43.558599
3364.000000	43.019709
3363.000000	42.477781
3362.000000	41.933380
3361.000000	41.386222
3360.000000	40.836568
3359.000000	40.282579
3358.000000	39.720335
3357.000000	39.148779
3356.000000	38.570682
3355.000000	37.988553
3354.000000	37.403232
3353.000000	36.816941
3352.000000	36.233232
3351.000000	35.652218
3350.000000	35.069871
3349.000000	34.483313
3348.000000	33.893318
3347.000000	33.301458
3346.000000	32.708996
3345.000000	32.119211
3344.000000	31.536037
3343.000000	30.959197
3342.000000	30.384617
3341.000000	29.810406
3340.000000	29.238651
3339.000000	28.671245
3338.000000	28.108521
3337.000000	27.552289
3336.000000	27.005711
3335.000000	26.469238
3334.000000	25.940590
3333.000000	25.419221
3332.000000	24.906233
3331.000000	24.400477
3330.000000	23.899243
3329.000000	23.402989
3328.000000	22.915796
3327.000000	22.440465
3326.000000	21.977536
3325.000000	21.528130
3324.000000	21.092768
3323.000000	20.668453
3322.000000	20.251257
3321.000000	19.841823
3320.000000	19.444437
3319.000000	19.060542
3318.000000	18.688831
3317.000000	18.329425
3316.000000	17.983302
3315.000000	17.648326
3314.000000	17.320544
3313.000000	16.999585
3312.000000	16.687917
3311.000000	16.385698
3310.000000	16.091916
3309.000000	15.808851
3308.000000	15.541118
3307.000000	15.290379
3306.000000	15.055196
3305.000000	14.835398
3304.000000	14.630510
3303.000000	14.436509
3302.000000	14.248704
3301.000000	14.066864
3300.000000	13.893386
3299.000000	13.727610
3298.000000	13.567442
3297.000000	13.414595
3296.000000	13.272243
3295.000000	13.139710
3294.000000	13.014459
3293.000000	12.898183
3292.000000	12.795170
3291.000000	12.704906
3290.000000	12.622773
3289.000000	12.546078
3288.000000	12.474832
3287.000000	12.407917
3286.000000	12.343629
3285.000000	12.283772
3284.000000	12.231375
3283.000000	12.185789
3282.000000	12.144497
3281.000000	12.107942
3280.000000	12.077830
3279.000000	12.051938
3278.000000	12.026325
3277.000000	12.001462
3276.000000	11.980791
3275.000000	11.964698
3274.000000	11.951007
3273.000000	11.940526
3272.000000	11.936785
3271.000000	11.940616
3270.000000	11.949684
3269.000000	11.962288
3268.000000	11.977323
3267.000000	11.992210
3266.000000	12.005319
3265.000000	12.019348
3264.000000	12.037903
3263.000000	12.059875
3262.000000	12.081622
3261.000000	12.102513
3260.000000	12.124050
3259.000000	12.145637
3258.000000	12.166117
3257.000000	12.188055
3256.000000	12.215177
3255.000000	12.246915
3254.000000	12.279643
3253.000000	12.311828
3252.000000	12.343575
3251.000000	12.373156
3250.000000	12.399119
3249.000000	12.424532
3248.000000	12.454381
3247.000000	12.489687
3246.000000	12.527937
3245.000000	12.567464
3244.000000	12.607389
3243.000000	12.645129
3242.000000	12.678805
3241.000000	12.710636
3240.000000	12.743987
3239.000000	12.778387
3238.000000	12.811280
3237.000000	12.842590
3236.000000	12.873766
3235.000000	12.904501
3234.000000	12.934471
3233.000000	12.966095
3232.000000	13.001270
3231.000000	13.037514
3230.000000	13.071519
3229.000000	13.104179
3228.000000	13.137803
3227.000000	13.170868
3226.000000	13.200059
3225.000000	13.225485
3224.000000	13.249225
3223.000000	13.271047
3222.000000	13.290009
3221.000000	13.308255
3220.000000	13.328535
3219.000000	13.349540
3218.000000	13.368025
3217.000000	13.383628
3216.000000	13.397522
3215.000000	13.408722
3214.000000	13.416032
3213.000000	13.421718
3212.000000	13.428628
3211.000000	13.435488
3210.000000	13.439195
3209.000000	13.439573
3208.000000	13.437901
3207.000000	13.433028
3206.000000	13.423370
3205.000000	13.410968
3204.000000	13.399050
3203.000000	13.387461
3202.000000	13.374303
3201.000000	13.359785
3200.000000	13.344487
3199.000000	13.326013
3198.000000	13.301939
3197.000000	13.274153
3196.000000	13.246229
3195.000000	13.218577
3194.000000	13.189945
3193.000000	13.161161
3192.000000	13.133176
3191.000000	13.103606
3190.000000	13.069772
3189.000000	13.033095
3188.000000	12.996635
3187.000000	12.960468
3186.000000	12.923428
3185.000000	12.886943
3184.000000	12.852811
3183.000000	12.819392
3182.000000	12.784143
3181.000000	12.747878
3180.000000	12.712617
3179.000000	12.677656
3178.000000	12.641759
3177.000000	12.606883
3176.000000	12.575570
3175.000000	12.546730
3174.000000	12.517892
3173.000000	12.489293
3172.000000	12.462040
3171.000000	12.434922
3170.000000	12.406977
3169.000000	12.380751
3168.000000	12.359069
3167.000000	12.340766
3166.000000	12.323408
3165.000000	12.307513
3164.000000	12.294384
3163.000000	12.282622
3162.000000	12.270680
3161.000000	12.260450
3160.000000	12.254321
3159.000000	12.251196
3158.000000	12.249003
3157.000000	12.248142
3156.000000	12.249108
3155.000000	12.250018
3154.000000	12.250628
3153.000000	12.255757
3152.000000	12.269980
3151.000000	12.291741
3150.000000	12.316451
3149.000000	12.342568
3148.000000	12.370612
3147.000000	12.399211
3146.000000	12.426903
3145.000000	12.455411
3144.000000	12.486802
3143.000000	12.519922
3142.000000	12.553426
3141.000000	12.589973
3140.000000	12.633261
3139.000000	12.682963
3138.000000	12.736391
3137.000000	12.792543
3136.000000	12.851025
3135.000000	12.909806
3134.000000	12.967739
3133.000000	13.027350
3132.000000	13.091355
3131.000000	13.158953
3130.000000	13.228535
3129.000000	13.300941
3128.000000	13.376817
3127.000000	13.453788
3126.000000	13.529909
3125.000000	13.607068
3124.000000	13.687367
3123.000000	13.769426
3122.000000	13.851686
3121.000000	13.936125
3120.000000	14.024920
3119.000000	14.116477
3118.000000	14.208937
3117.000000	14.304577
3116.000000	14.406553
3115.000000	14.513917
3114.000000	14.623299
3113.000000	14.733080
3112.000000	14.842466
3111.000000	14.949770
3110.000000	15.055490
3109.000000	15.164194
3108.000000	15.279476
3107.000000	15.399442
3106.000000	15.520332
3105.000000	15.641639
3104.000000	15.764141
3103.000000	15.886326
3102.000000	16.006945
3101.000000	16.128322
3100.000000	16.253372
3099.000000	16.381539
3098.000000	16.511269
3097.000000	16.643633
3096.000000	16.779630
3095.000000	16.916672
3094.000000	17.051531
3093.000000	17.184743
3092.000000	17.318836
3091.000000	17.454525
3090.000000	17.591803
3089.000000	17.732003
3088.000000	17.875396
3087.000000	18.019211
3086.000000	18.161277
3085.000000	18.303306
3084.000000	18.447553
3083.000000	18.592956
3082.000000	18.737982
3081.000000	18.884437
3080.000000	19.035143
3079.000000	19.189986
3078.000000	19.347349
3077.000000	19.506855
3076.000000	19.667543
3075.000000	19.826200
3074.000000	19.980935
3073.000000	20.134079
3072.000000	20.288489
3071.000000	20.443428
3070.000000	20.597348
3069.000000	20.752007
3068.000000	20.910163
3067.000000	21.071292
3066.000000	21.232959
3065.000000	21.394601
3064.000000	21.556817
3063.000000	21.718851
3062.000000	21.879778
3061.000000	22.040400
3060.000000	22.201378
3059.000000	22.361427
3058.000000	22.519784
3057.000000	22.678264
3056.000000	22.838342
3055.000000	22.998479
3054.000000	23.157048
3053.000000	23.315657
3052.000000	23.476841
3051.000000	23.640338
3050.000000	23.804081
3049.000000	23.966845
3048.000000	24.127761
3047.000000	24.285529
3046.000000	24.440658
3045.000000	24.596365
3044.000000	24.754989
3043.000000	24.915478
3042.000000	25.076198
3041.000000	25.237496
3040.000000	25.399254
3039.000000	25.558795
3038.000000	25.714188
3037.000000	25.867413
3036.000000	26.021796
3035.000000	26.178332
3034.000000	26.336587
3033.000000	26.496649
3032.000000	26.657571
3031.000000	26.816319
3030.000000	26.971015
3029.000000	27.123276
3028.000000	27.275323
3027.000000	27.427088
3026.000000	27.578179
3025.000000	27.729885
3024.000000	27.882667
3023.000000	28.034302
3022.000000	28.183243
3021.000000	28.331492
3020.000000	28.481525
3019.000000	28.632598
3018.000000	28.782723
3017.000000	28.932011
3016.000000	29.081409
3015.000000	29.230337
3014.000000	29.378388
3013.000000	29.527406
3012.000000	29.679063
3011.000000	29.832013
3010.000000	29.983776
3009.000000	30.133746
3008.000000	30.282232
3007.000000	30.428632
3006.000000	30.572976
3005.000000	30.717432
3004.000000	30.863904
3003.000000	31.011496
3002.000000	31.158325
3001.000000	31.304106
3000.000000	31.449214
2999.000000	31.593056
2998.000000	31.735250
2997.000000	31.876586
2996.000000	32.017197
2995.000000	32.155970
2994.000000	32.293483
2993.000000	32.433050
2992.000000	32.576649
2991.000000	32.722033
2990.000000	32.866011
2989.000000	33.008350
2988.000000	33.150249
2987.000000	33.291325
2986.000000	33.430651
2985.000000	33.568807
2984.000000	33.706398
2983.000000	33.842346
2982.000000	33.976052
2981.000000	34.109409
2980.000000	34.244288
2979.000000	34.379742
2978.000000	34.514171
2977.000000	34.648569
2976.000000	34.785112
2975.000000	34.923872
2974.000000	35.063182
2973.000000	35.201833
2972.000000	35.338926
2971.000000	35.473165
2970.000000	35.604582
2969.000000	35.735670
2968.000000	35.868560
2967.000000	36.002412
2966.000000	36.135349
2965.000000	36.267461
2964.000000	36.399851
2963.000000	36.532390
2962.000000	36.664606
2961.000000	36.797262
2960.000000	36.930929
2959.000000	37.064366
2958.000000	37.195975
2957.000000	37.325333
2956.000000	37.451806
2955.000000	37.573954
2954.000000	37.692253
2953.000000	37.810113
2952.000000	37.930089
2951.000000	38.051030
2950.000000	38.171119
2949.000000	38.291275
2948.000000	38.413079
2947.000000	38.535516
2946.000000	38.656581
2945.000000	38.776446
2944.000000	38.896365
2943.000000	39.016007
2942.000000	39.134453
2941.000000	39.252463
2940.000000	39.370953
2939.000000	39.488502
2938.000000	39.602910
2937.000000	39.714427
2936.000000	39.825202
2935.000000	39.936644
2934.000000	40.049537
2933.000000	40.165370
2932.000000	40.284794
2931.000000	40.405457
2930.000000	40.523582
2929.000000	40.637314
2928.000000	40.746899
2927.000000	40.853145
2926.000000	40.957726
2925.000000	41.063657
2924.000000	41.172915
2923.000000	41.284348
2922.000000	41.395754
2921.000000	41.506671
2920.000000	41.617368
2919.000000	41.726853
2918.000000	41.834358
2917.000000	41.941525
2916.000000	42.050457
2915.000000	42.160137
2914.000000	42.266774
2913.000000	42.367229
2912.000000	42.460719
2911.000000	42.548271
2910.000000	42.632500
2909.000000	42.717378
2908.000000	42.806275
2907.000000	42.900063
2906.000000	42.997480
2905.000000	43.096381
2904.000000	43.193790
2903.000000	43.286460
2902.000000	43.373266
2901.000000	43.456907
2900.000000	43.541410
2899.000000	43.629541
2898.000000	43.722069
2897.000000	43.817803
2896.000000	43.913080
2895.000000	44.003124
2894.000000	44.085900
2893.000000	44.163733
2892.000000	44.240108
2891.000000	44.316472
2890.000000	44.393219
2889.000000	44.471493
2888.000000	44.551634
2887.000000	44.631105
2886.000000	44.706294
2885.000000	44.775738
2884.000000	44.840113
2883.000000	44.900408
2882.000000	44.957950
2881.000000	45.015021
2880.000000	45.073129
2879.000000	45.131126
2878.000000	45.186814
2877.000000	45.239640
2876.000000	45.290202
2875.000000	45.338027
2874.000000	45.382255
2873.000000	45.424312
2872.000000	45.468267
2871.000000	45.518497
2870.000000	45.577865
2869.000000	45.647257
2868.000000	45.725244
2867.000000	45.808917
2866.000000	45.896752
2865.000000	45.990350
2864.000000	46.092547
2863.000000	46.204307
2862.000000	46.324144
2861.000000	46.449001
2860.000000	46.574608
2859.000000	46.696550
2858.000000	46.813292
2857.000000	46.927712
2856.000000	47.044301
2855.000000	47.165455
2854.000000	47.291104
2853.000000	47.420107
2852.000000	47.550052
2851.000000	47.676726
2850.000000	47.796046
2849.000000	47.906563
2848.000000	48.009449
2847.000000	48.107155
2846.000000	48.203193
2845.000000	48.301615
2844.000000	48.404539
2843.000000	48.510463
2842.000000	48.616263
2841.000000	48.720005
2840.000000	48.820761
2839.000000	48.917412
2838.000000	49.009940
2837.000000	49.101131
2836.000000	49.194489
2835.000000	49.290331
2834.000000	49.385258
2833.000000	49.475346
2832.000000	49.558762
2831.000000	49.636179
2830.000000	49.710663
2829.000000	49.787153
2828.000000	49.869981
2827.000000	49.960011
2826.000000	50.054477
2825.000000	50.149169
2824.000000	50.240175
2823.000000	50.324879
2822.000000	50.403282
2821.000000	50.478549
2820.000000	50.554821
2819.000000	50.634249
2818.000000	50.716419
2817.000000	50.799738
2816.000000	50.881983
2815.000000	50.960534
2814.000000	51.034262
2813.000000	51.105514
2812.000000	51.178783
2811.000000	51.257268
2810.000000	51.341312
2809.000000	51.429356
2808.000000	51.518563
2807.000000	51.604930
2806.000000	51.684886
2805.000000	51.757788
2804.000000	51.826232
2803.000000	51.894191
2802.000000	51.965474
2801.000000	52.042919
2800.000000	52.126670
2799.000000	52.212933
2798.000000	52.295958
2797.000000	52.372168
2796.000000	52.442074
2795.000000	52.508889
2794.000000	52.576615
2793.000000	52.648907
2792.000000	52.727340
2791.000000	52.809597
2790.000000	52.890284
2789.000000	52.964380
2788.000000	53.030010
2787.000000	53.088675
2786.000000	53.144441
2785.000000	53.202676
2784.000000	53.267620
2783.000000	53.339762
2782.000000	53.415672
2781.000000	53.490449
2780.000000	53.560105
2779.000000	53.622761
2778.000000	53.679626
2777.000000	53.735103
2776.000000	53.794322
2775.000000	53.859500
2774.000000	53.928916
2773.000000	53.998929
2772.000000	54.065948
2771.000000	54.127023
2770.000000	54.180899
2769.000000	54.229614
2768.000000	54.278230
2767.000000	54.331910
2766.000000	54.393112
2765.000000	54.460875
2764.000000	54.531419
2763.000000	54.599445
2762.000000	54.660671
2761.000000	54.714419
2760.000000	54.763828
2759.000000	54.813451
2758.000000	54.866883
2757.000000	54.925613
2756.000000	54.988334
2755.000000	55.050899
2754.000000	55.108371
2753.000000	55.158283
2752.000000	55.202018
2751.000000	55.243480
2750.000000	55.287346
2749.000000	55.337702
2748.000000	55.396048
2747.000000	55.459496
2746.000000	55.521894
2745.000000	55.577600
2744.000000	55.624262
2743.000000	55.663012
2742.000000	55.697715
2741.000000	55.733942
2740.000000	55.776451
2739.000000	55.826047
2738.000000	55.879239
2737.000000	55.931228
2736.000000	55.978676
2735.000000	56.020306
2734.000000	56.056969
2733.000000	56.092058
2732.000000	56.130482
2731.000000	56.175653
2730.000000	56.227205
2729.000000	56.281267
2728.000000	56.332199
2727.000000	56.374577
2726.000000	56.405876
2725.000000	56.428883
2724.000000	56.450828
2723.000000	56.479134
2722.000000	56.517594
2721.000000	56.565522
2720.000000	56.618669
2719.000000	56.670700
2718.000000	56.715863
2717.000000	56.752234
2716.000000	56.782529
2715.000000	56.811598
2714.000000	56.843442
2713.000000	56.879938
2712.000000	56.920252
2711.000000	56.960509
2710.000000	56.995526
2709.000000	57.022417
2708.000000	57.042705
2707.000000	57.061187
2706.000000	57.083342
2705.000000	57.113256
2704.000000	57.151617
2703.000000	57.194299
2702.000000	57.233760
2701.000000	57.263065
2700.000000	57.279183
2699.000000	57.283411
2698.000000	57.280460
2697.000000	57.277406
2696.000000	57.280941
2695.000000	57.293625
2694.000000	57.312623
2693.000000	57.332283
2692.000000	57.347623
2691.000000	57.356005
2690.000000	57.357798
2689.000000	57.356652
2688.000000	57.357670
2687.000000	57.363692
2686.000000	57.373212
2685.000000	57.381935
2684.000000	57.385441
2683.000000	57.380517
2682.000000	57.366463
2681.000000	57.346721
2680.000000	57.328305
2679.000000	57.318098
2678.000000	57.319245
2677.000000	57.330442
2676.000000	57.347036
2675.000000	57.362423
2674.000000	57.370557
2673.000000	57.369554
2672.000000	57.363137
2671.000000	57.358376
2670.000000	57.362078
2669.000000	57.378390
2668.000000	57.407693
2667.000000	57.446206
2666.000000	57.488076
2665.000000	57.529521
2664.000000	57.571101
2663.000000	57.616576
2662.000000	57.670088
2661.000000	57.734505
2660.000000	57.810230
2659.000000	57.893564
2658.000000	57.977219
2657.000000	58.053953
2656.000000	58.120411
2655.000000	58.178084
2654.000000	58.231895
2653.000000	58.288400
2652.000000	58.353277
2651.000000	58.428047
2650.000000	58.508660
2649.000000	58.587901
2648.000000	58.659363
2647.000000	58.719963
2646.000000	58.770592
2645.000000	58.815650
2644.000000	58.861066
2643.000000	58.910831
2642.000000	58.964811
2641.000000	59.019564
2640.000000	59.070324
2639.000000	59.112766
2638.000000	59.144892
2637.000000	59.169008
2636.000000	59.191340
2635.000000	59.218146
2634.000000	59.251995
2633.000000	59.291176
2632.000000	59.331184
2631.000000	59.366285
2630.000000	59.391524
2629.000000	59.405779
2628.000000	59.413099
2627.000000	59.420286
2626.000000	59.433106
2625.000000	59.454123
2624.000000	59.482195
2623.000000	59.512558
2622.000000	59.538572
2621.000000	59.555484
2620.000000	59.563137
2619.000000	59.565308
2618.000000	59.567319
2617.000000	59.574168
2616.000000	59.588725
2615.000000	59.609607
2614.000000	59.631240
2613.000000	59.647314
2612.000000	59.654451
2611.000000	59.653071
2610.000000	59.646288
2609.000000	59.638833
2608.000000	59.635245
2607.000000	59.636601
2606.000000	59.639003
2605.000000	59.635796
2604.000000	59.621562
2603.000000	59.594559
2602.000000	59.557069
2601.000000	59.515080
2600.000000	59.476237
2599.000000	59.446014
2598.000000	59.425166
2597.000000	59.410526
2596.000000	59.397532
2595.000000	59.382144
2594.000000	59.362650
2593.000000	59.341507
2592.000000	59.325434
2591.000000	59.321981
2590.000000	59.335813
2589.000000	59.367818
2588.000000	59.415509
2587.000000	59.474153
2586.000000	59.538397
2585.000000	59.605240
2584.000000	59.676079
2583.000000	59.754742
2582.000000	59.844452
2581.000000	59.945654
2580.000000	60.055305
2579.000000	60.167172
2578.000000	60.273617
2577.000000	60.369480
2576.000000	60.454936
2575.000000	60.534914
2574.000000	60.616382
2573.000000	60.705722
2572.000000	60.806509
2571.000000	60.917527
2570.000000	61.032950
2569.000000	61.145583
2568.000000	61.250409
2567.000000	61.345763
2566.000000	61.433007
2565.000000	61.516121
2564.000000	61.599990
2563.000000	61.687061
2562.000000	61.775399
2561.000000	61.860725
2560.000000	61.939986
2559.000000	62.012666
2558.000000	62.080633
2557.000000	62.148143
2556.000000	62.220745
2555.000000	62.301904
2554.000000	62.390233
2553.000000	62.480442
2552.000000	62.566226
2551.000000	62.641971
2550.000000	62.704092
2549.000000	62.753163
2548.000000	62.794811
2547.000000	62.836734
2546.000000	62.884284
2545.000000	62.938942
2544.000000	62.998888
2543.000000	63.059704
2542.000000	63.115756
2541.000000	63.163231
2540.000000	63.202445
2539.000000	63.236279
2538.000000	63.267116
2537.000000	63.295671
2536.000000	63.320681
2535.000000	63.338457
2534.000000	63.343237
2533.000000	63.330732
2532.000000	63.301707
2531.000000	63.261059
2530.000000	63.214966
2529.000000	63.168988
2528.000000	63.127049
2527.000000	63.089836
2526.000000	63.054114
2525.000000	63.015780
2524.000000	62.973440
2523.000000	62.929194
2522.000000	62.887380
2521.000000	62.854160
2520.000000	62.836181
2519.000000	62.837470
2518.000000	62.857484
2517.000000	62.892342
2516.000000	62.938245
2515.000000	62.992236
2514.000000	63.052259
2513.000000	63.118507
2512.000000	63.193188
2511.000000	63.278046
2510.000000	63.371259
2509.000000	63.467889
2508.000000	63.562481
2507.000000	63.650276
2506.000000	63.728061
2505.000000	63.796047
2504.000000	63.858686
2503.000000	63.921764
2502.000000	63.988817
2501.000000	64.060367
2500.000000	64.134993
2499.000000	64.209433
2498.000000	64.278985
2497.000000	64.340491
2496.000000	64.394663
2495.000000	64.444643
2494.000000	64.493123
2493.000000	64.541630
2492.000000	64.591064
2491.000000	64.640543
2490.000000	64.686775
2489.000000	64.726679
2488.000000	64.760061
2487.000000	64.789025
2486.000000	64.815973
2485.000000	64.843716
2484.000000	64.875664
2483.000000	64.913143
2482.000000	64.953350
2481.000000	64.991710
2480.000000	65.025719
2479.000000	65.055216
2478.000000	65.080552
2477.000000	65.102909
2476.000000	65.125222
2475.000000	65.150035
2474.000000	65.176790
2473.000000	65.202765
2472.000000	65.226030
2471.000000	65.245950
2470.000000	65.262197
2469.000000	65.275758
2468.000000	65.290129
2467.000000	65.309152
2466.000000	65.333852
2465.000000	65.362605
2464.000000	65.393312
2463.000000	65.423639
2462.000000	65.450500
2461.000000	65.471779
2460.000000	65.488203
2459.000000	65.501941
2458.000000	65.514208
2457.000000	65.525758
2456.000000	65.538328
2455.000000	65.553332
2454.000000	65.570171
2453.000000	65.587722
2452.000000	65.606636
2451.000000	65.628307
2450.000000	65.652746
2449.000000	65.679200
2448.000000	65.707520
2447.000000	65.736651
2446.000000	65.763010
2445.000000	65.782779
2444.000000	65.795263
2443.000000	65.802382
2442.000000	65.806342
2441.000000	65.809918
2440.000000	65.817370
2439.000000	65.832147
2438.000000	65.854104
2437.000000	65.880852
2436.000000	65.910634
2435.000000	65.941863
2434.000000	65.971238
2433.000000	65.995156
2432.000000	66.012408
2431.000000	66.023603
2430.000000	66.029109
2429.000000	66.030109
2428.000000	66.030523
2427.000000	66.035152
2426.000000	66.046370
2425.000000	66.064401
2424.000000	66.089607
2423.000000	66.122056
2422.000000	66.159988
2421.000000	66.200709
2420.000000	66.242419
2419.000000	66.282961
2418.000000	66.318261
2417.000000	66.344519
2416.000000	66.361391
2415.000000	66.371072
2414.000000	66.375661
2413.000000	66.377779
2412.000000	66.382127
2411.000000	66.393502
2410.000000	66.413562
2409.000000	66.441427
2408.000000	66.475900
2407.000000	66.514947
2406.000000	66.554288
2405.000000	66.589549
2404.000000	66.619176
2403.000000	66.643370
2402.000000	66.661630
2401.000000	66.673857
2400.000000	66.682473
2399.000000	66.690720
2398.000000	66.700028
2397.000000	66.711277
2396.000000	66.727336
2395.000000	66.751463
2394.000000	66.784327
2393.000000	66.824643
2392.000000	66.871109
2391.000000	66.920931
2390.000000	66.968295
2389.000000	67.007102
2388.000000	67.035521
2387.000000	67.055320
2386.000000	67.069168
2385.000000	67.081665
2384.000000	67.099139
2383.000000	67.127275
2382.000000	67.166852
2381.000000	67.215558
2380.000000	67.272551
2379.000000	67.336348
2378.000000	67.403565
2377.000000	67.470604
2376.000000	67.536735
2375.000000	67.601380
2374.000000	67.661574
2373.000000	67.714227
2372.000000	67.759690
2371.000000	67.799630
2370.000000	67.833355
2369.000000	67.862597
2368.000000	67.894750
2367.000000	67.937232
2366.000000	67.991962
2365.000000	68.056400
2364.000000	68.132186
2363.000000	68.212406
2362.000000	68.283102
2361.000000	68.341072
2360.000000	68.386733
2359.000000	68.426977
2358.000000	68.466586
2357.000000	68.505004
2356.000000	68.552374
2355.000000	68.604366
2354.000000	68.659860
2353.000000	68.715715
2352.000000	68.778646
2351.000000	68.852225
2350.000000	68.915647
2349.000000	68.958515
2348.000000	68.989421
2347.000000	69.038201
2346.000000	69.122619
2345.000000	69.214057
2344.000000	69.286717
2343.000000	69.321251
2342.000000	69.340241
2341.000000	69.363504
2340.000000	69.397555
2339.000000	69.445420
2338.000000	69.503221
2337.000000	69.572249
2336.000000	69.642694
2335.000000	69.713311
2334.000000	69.774246
2333.000000	69.831713
2332.000000	69.879937
2331.000000	69.937087
2330.000000	69.992298
2329.000000	70.057818
2328.000000	70.118753
2327.000000	70.178093
2326.000000	70.230154
2325.000000	70.274615
2324.000000	70.319088
2323.000000	70.365675
2322.000000	70.418279
2321.000000	70.475062
2320.000000	70.533547
2319.000000	70.596879
2318.000000	70.654649
2317.000000	70.707391
2316.000000	70.746093
2315.000000	70.786264
2314.000000	70.827025
2313.000000	70.880964
2312.000000	70.939528
2311.000000	71.007997
2310.000000	71.072494
2309.000000	71.131181
2308.000000	71.174404
2307.000000	71.210349
2306.000000	71.240880
2305.000000	71.276241
2304.000000	71.319073
2303.000000	71.377340
2302.000000	71.444902
2301.000000	71.517020
2300.000000	71.581670
2299.000000	71.638841
2298.000000	71.685012
2297.000000	71.725963
2296.000000	71.765392
2295.000000	71.811887
2294.000000	71.864695
2293.000000	71.919208
2292.000000	71.968680
2291.000000	72.010379
2290.000000	72.044007
2289.000000	72.072322
2288.000000	72.103958
2287.000000	72.148245
2286.000000	72.209208
2285.000000	72.281133
2284.000000	72.355308
2283.000000	72.421894
2282.000000	72.472512
2281.000000	72.502415
2280.000000	72.516406
2279.000000	72.526298
2278.000000	72.543046
2277.000000	72.572371
2276.000000	72.615348
2275.000000	72.669529
2274.000000	72.726783
2273.000000	72.778108
2272.000000	72.820184
2271.000000	72.857010
2270.000000	72.893731
2269.000000	72.933137
2268.000000	72.976278
2267.000000	73.021320
2266.000000	73.060654
2265.000000	73.084883
2264.000000	73.091097
2263.000000	73.085573
2262.000000	73.079075
2261.000000	73.082059
2260.000000	73.104343
2259.000000	73.150040
2258.000000	73.212836
2257.000000	73.277486
2256.000000	73.329381
2255.000000	73.360713
2254.000000	73.369656
2253.000000	73.360659
2252.000000	73.344160
2251.000000	73.332514
2250.000000	73.330973
2249.000000	73.336592
2248.000000	73.343812
2247.000000	73.348157
2246.000000	73.346598
2245.000000	73.339696
2244.000000	73.334218
2243.000000	73.338968
2242.000000	73.356313
2241.000000	73.379964
2240.000000	73.400005
2239.000000	73.406221
2238.000000	73.389102
2237.000000	73.344652
2236.000000	73.280695
2235.000000	73.214051
2234.000000	73.160340
2233.000000	73.127888
2232.000000	73.118180
2231.000000	73.125705
2230.000000	73.137077
2229.000000	73.137122
2228.000000	73.118813
2227.000000	73.085688
2226.000000	73.045271
2225.000000	73.004350
2224.000000	72.968459
2223.000000	72.939580
2222.000000	72.912232
2221.000000	72.876893
2220.000000	72.829047
2219.000000	72.773210
2218.000000	72.718802
2217.000000	72.676145
2216.000000	72.654440
2215.000000	72.656934
2214.000000	72.675422
2213.000000	72.693295
2212.000000	72.695728
2211.000000	72.676025
2210.000000	72.634931
2209.000000	72.580082
2208.000000	72.525913
2207.000000	72.487759
2206.000000	72.472384
2205.000000	72.475617
2204.000000	72.488103
2203.000000	72.500462
2202.000000	72.505107
2201.000000	72.499821
2200.000000	72.490988
2199.000000	72.489321
2198.000000	72.500629
2197.000000	72.522545
2196.000000	72.548082
2195.000000	72.568314
2194.000000	72.573453
2193.000000	72.558566
2192.000000	72.530250
2191.000000	72.503925
2190.000000	72.493330
2189.000000	72.504406
2188.000000	72.536094
2187.000000	72.580736
2186.000000	72.623669
2185.000000	72.649411
2184.000000	72.651813
2183.000000	72.636638
2182.000000	72.615053
2181.000000	72.597968
2180.000000	72.594082
2179.000000	72.605714
2178.000000	72.624737
2177.000000	72.637113
2176.000000	72.633792
2175.000000	72.615518
2174.000000	72.589463
2173.000000	72.565849
2172.000000	72.556102
2171.000000	72.566587
2170.000000	72.591796
2169.000000	72.617174
2168.000000	72.629886
2167.000000	72.624634
2166.000000	72.602258
2165.000000	72.569323
2164.000000	72.539024
2163.000000	72.525256
2162.000000	72.532528
2161.000000	72.553538
2160.000000	72.576084
2159.000000	72.589137
2158.000000	72.585027
2157.000000	72.563274
2156.000000	72.534378
2155.000000	72.514588
2154.000000	72.514515
2153.000000	72.533883
2152.000000	72.565112
2151.000000	72.596548
2150.000000	72.614251
2149.000000	72.608484
2148.000000	72.581906
2147.000000	72.547941
2146.000000	72.520662
2145.000000	72.507979
2144.000000	72.511751
2143.000000	72.527319
2142.000000	72.542750
2141.000000	72.545034
2140.000000	72.530472
2139.000000	72.506622
2138.000000	72.485135
2137.000000	72.475940
2136.000000	72.485389
2135.000000	72.512144
2134.000000	72.543616
2133.000000	72.561920
2132.000000	72.556165
2131.000000	72.527693
2130.000000	72.485776
2129.000000	72.443809
2128.000000	72.417601
2127.000000	72.418670
2126.000000	72.445592
2125.000000	72.484810
2124.000000	72.520863
2123.000000	72.543483
2122.000000	72.548365
2121.000000	72.538242
2120.000000	72.523983
2119.000000	72.518319
2118.000000	72.525829
2117.000000	72.541490
2116.000000	72.557669
2115.000000	72.568291
2114.000000	72.568442
2113.000000	72.558149
2112.000000	72.547828
2111.000000	72.553973
2110.000000	72.586892
2109.000000	72.645175
2108.000000	72.719348
2107.000000	72.795487
2106.000000	72.856649
2105.000000	72.890205
2104.000000	72.897681
2103.000000	72.894147
2102.000000	72.896944
2101.000000	72.917947
2100.000000	72.963140
2099.000000	73.031234
2098.000000	73.110902
2097.000000	73.186815
2096.000000	73.250974
2095.000000	73.305766
2094.000000	73.357409
2093.000000	73.412056
2092.000000	73.476279
2091.000000	73.552785
2090.000000	73.632822
2089.000000	73.699290
2088.000000	73.740337
2087.000000	73.756986
2086.000000	73.759063
2085.000000	73.760610
2084.000000	73.777954
2083.000000	73.822708
2082.000000	73.892103
2081.000000	73.969740
2080.000000	74.036998
2079.000000	74.081087
2078.000000	74.095391
2077.000000	74.081561
2076.000000	74.052342
2075.000000	74.025391
2074.000000	74.010311
2073.000000	74.004606
2072.000000	74.001308
2071.000000	73.993750
2070.000000	73.974658
2069.000000	73.940209
2068.000000	73.898816
2067.000000	73.870083
2066.000000	73.870618
2065.000000	73.901773
2064.000000	73.950274
2063.000000	73.996288
2062.000000	74.021218
2061.000000	74.016039
2060.000000	73.987302
2059.000000	73.952745
2058.000000	73.929923
2057.000000	73.930517
2056.000000	73.960569
2055.000000	74.017803
2054.000000	74.088742
2053.000000	74.155567
2052.000000	74.209157
2051.000000	74.252598
2050.000000	74.293190
2049.000000	74.337802
2048.000000	74.394360
2047.000000	74.467015
2046.000000	74.547958
2045.000000	74.621696
2044.000000	74.680760
2043.000000	74.732053
2042.000000	74.788120
2041.000000	74.859083
2040.000000	74.952742
2039.000000	75.073137
2038.000000	75.214878
2037.000000	75.363644
2036.000000	75.505225
2035.000000	75.630919
2034.000000	75.736596
2033.000000	75.824865
2032.000000	75.908602
2031.000000	76.004654
2030.000000	76.120787
2029.000000	76.252472
2028.000000	76.390966
2027.000000	76.527460
2026.000000	76.652243
2025.000000	76.759307
2024.000000	76.855149
2023.000000	76.953965
2022.000000	77.062356
2021.000000	77.175826
2020.000000	77.290446
2019.000000	77.408709
2018.000000	77.531224
2017.000000	77.650859
2016.000000	77.760278
2015.000000	77.859733
2014.000000	77.954584
2013.000000	78.051528
2012.000000	78.157516
2011.000000	78.273701
2010.000000	78.389706
2009.000000	78.490963
2008.000000	78.572610
2007.000000	78.641008
2006.000000	78.704708
2005.000000	78.770847
2004.000000	78.848384
2003.000000	78.942636
2002.000000	79.045821
2001.000000	79.141847
2000.000000	79.220150
1999.000000	79.281205
1998.000000	79.327184
1997.000000	79.357752
1996.000000	79.377329
1995.000000	79.398306
1994.000000	79.434512
1993.000000	79.493881
1992.000000	79.572518
1991.000000	79.655027
1990.000000	79.725663
1989.000000	79.781879
1988.000000	79.836804
1987.000000	79.903861
1986.000000	79.981237
1985.000000	80.056819
1984.000000	80.123018
1983.000000	80.177201
1982.000000	80.213190
1981.000000	80.226670
1980.000000	80.227153
1979.000000	80.235178
1978.000000	80.264236
1977.000000	80.314844
1976.000000	80.382970
1975.000000	80.462091
1974.000000	80.537256
1973.000000	80.590016
1972.000000	80.612022
1971.000000	80.606878
1970.000000	80.582833
1969.000000	80.556410
1968.000000	80.556043
1967.000000	80.599310
1966.000000	80.668448
1965.000000	80.727324
1964.000000	80.759789
1963.000000	80.778204
1962.000000	80.800600
1961.000000	80.834493
1960.000000	80.881762
1959.000000	80.941269
1958.000000	81.001924
1957.000000	81.047499
1956.000000	81.072174
1955.000000	81.080734
1954.000000	81.075465
1953.000000	81.056966
1952.000000	81.037407
1951.000000	81.033679
1950.000000	81.048533
1949.000000	81.071590
1948.000000	81.096356
1947.000000	81.120894
1946.000000	81.134757
1945.000000	81.128147
1944.000000	81.118509
1943.000000	81.141212
1942.000000	81.202504
1941.000000	81.271234
1940.000000	81.319136
1939.000000	81.340159
1938.000000	81.337334
1937.000000	81.314616
1936.000000	81.284797
1935.000000	81.269197
1934.000000	81.280777
1933.000000	81.316413
1932.000000	81.368241
1931.000000	81.426315
1930.000000	81.474630
1929.000000	81.496503
1928.000000	81.484335
1927.000000	81.439003
1926.000000	81.361430
1925.000000	81.267626
1924.000000	81.201500
1923.000000	81.202549
1922.000000	81.260065
1921.000000	81.326400
1920.000000	81.365227
1919.000000	81.377555
1918.000000	81.382134
1917.000000	81.388336
1916.000000	81.398884
1915.000000	81.412888
1914.000000	81.415145
1913.000000	81.384605
1912.000000	81.320274
1911.000000	81.246115
1910.000000	81.188767
1909.000000	81.157820
1908.000000	81.150283
1907.000000	81.162400
1906.000000	81.185469
1905.000000	81.209281
1904.000000	81.229453
1903.000000	81.245650
1902.000000	81.253937
1901.000000	81.247184
1900.000000	81.223633
1899.000000	81.188502
1898.000000	81.145257
1897.000000	81.102009
1896.000000	81.077872
1895.000000	81.083863
1894.000000	81.101812
1893.000000	81.100461
1892.000000	81.070604
1891.000000	81.040136
1890.000000	81.044676
1889.000000	81.083763
1888.000000	81.130957
1887.000000	81.169270
1886.000000	81.193580
1885.000000	81.202970
1884.000000	81.201598
1883.000000	81.194964
1882.000000	81.184442
1881.000000	81.170460
1880.000000	81.160337
1879.000000	81.163391
1878.000000	81.176377
1877.000000	81.186035
1876.000000	81.185653
1875.000000	81.177507
1874.000000	81.162159
1873.000000	81.134078
1872.000000	81.082396
1871.000000	80.998860
1870.000000	80.905510
1869.000000	80.854547
1868.000000	80.870460
1867.000000	80.930200
1866.000000	80.992791
1865.000000	81.025663
1864.000000	81.023469
1863.000000	81.003816
1862.000000	80.981552
1861.000000	80.959180
1860.000000	80.939915
1859.000000	80.930269
1858.000000	80.927180
1857.000000	80.919550
1856.000000	80.904467
1855.000000	80.889797
1854.000000	80.877738
1853.000000	80.860077
1852.000000	80.826738
1851.000000	80.773945
1850.000000	80.702603
1849.000000	80.630194
1848.000000	80.590091
1847.000000	80.595749
1846.000000	80.612849
1845.000000	80.595312
1844.000000	80.541718
1843.000000	80.488342
1842.000000	80.458831
1841.000000	80.438742
1840.000000	80.405551
1839.000000	80.361946
1838.000000	80.324830
1837.000000	80.297689
1836.000000	80.269485
1835.000000	80.234206
1834.000000	80.188677
1833.000000	80.115514
1832.000000	79.999509
1831.000000	79.877488
1830.000000	79.807272
1829.000000	79.782779
1828.000000	79.767792
1827.000000	79.743803
1826.000000	79.707878
1825.000000	79.670078
1824.000000	79.642883
1823.000000	79.630269
1822.000000	79.616011
1821.000000	79.574122
1820.000000	79.499524
1819.000000	79.411114
1818.000000	79.324573
1817.000000	79.243221
1816.000000	79.166340
1815.000000	79.090374
1814.000000	79.006540
1813.000000	78.914988
1812.000000	78.842608
1811.000000	78.811302
1810.000000	78.801626
1809.000000	78.781345
1808.000000	78.744535
1807.000000	78.700017
1806.000000	78.641494
1805.000000	78.552058
1804.000000	78.432190
1803.000000	78.306326
1802.000000	78.205977
1801.000000	78.142083
1800.000000	78.100943
1799.000000	78.058745
1798.000000	78.006976
1797.000000	77.964500
1796.000000	77.958006
1795.000000	77.977120
1794.000000	77.965802
1793.000000	77.891872
1792.000000	77.793846
1791.000000	77.715554
1790.000000	77.664621
1789.000000	77.628087
1788.000000	77.593298
1787.000000	77.552464
1786.000000	77.498706
1785.000000	77.428105
1784.000000	77.344406
1783.000000	77.255618
1782.000000	77.172587
1781.000000	77.105955
1780.000000	77.062504
1779.000000	77.030830
1778.000000	76.985825
1777.000000	76.913682
1776.000000	76.832431
1775.000000	76.761616
1774.000000	76.687173
1773.000000	76.608043
1772.000000	76.553979
1771.000000	76.528216
1770.000000	76.508418
1769.000000	76.471485
1768.000000	76.416611
1767.000000	76.362476
1766.000000	76.317493
1765.000000	76.264509
1764.000000	76.182453
1763.000000	76.076087
1762.000000	75.968895
1761.000000	75.866365
1760.000000	75.778717
1759.000000	75.715656
1758.000000	75.663786
1757.000000	75.595668
1756.000000	75.506472
1755.000000	75.421792
1754.000000	75.338442
1753.000000	75.205925
1752.000000	74.997110
1751.000000	74.772186
1750.000000	74.606818
1749.000000	74.507468
1748.000000	74.436503
1747.000000	74.362708
1746.000000	74.270183
1745.000000	74.164317
1744.000000	74.090248
1743.000000	74.087119
1742.000000	74.117650
1741.000000	74.088118
1740.000000	73.961301
1739.000000	73.802000
1738.000000	73.690938
1737.000000	73.626432
1736.000000	73.513888
1735.000000	73.283104
1734.000000	73.001243
1733.000000	72.743421
1732.000000	72.548000
1731.000000	72.415980
1730.000000	72.314109
1729.000000	72.193416
1728.000000	72.036669
1727.000000	71.862659
1726.000000	71.677484
1725.000000	71.471191
1724.000000	71.261333
1723.000000	71.084630
1722.000000	70.942241
1721.000000	70.770533
1720.000000	70.484358
1719.000000	70.089341
1718.000000	69.720578
1717.000000	69.461503
1716.000000	69.284501
1715.000000	69.133884
1714.000000	68.952054
1713.000000	68.712605
1712.000000	68.435396
1711.000000	68.155468
1710.000000	67.887715
1709.000000	67.625621
1708.000000	67.355657
1707.000000	67.075156
1706.000000	66.800771
1705.000000	66.564389
1704.000000	66.427129
1703.000000	66.414068
1702.000000	66.353111
1701.000000	65.964110
1700.000000	65.298654
1699.000000	64.690632
1698.000000	64.307908
1697.000000	64.088277
1696.000000	63.865026
1695.000000	63.537114
1694.000000	63.173627
1693.000000	62.821036
1692.000000	62.463076
1691.000000	62.091759
1690.000000	61.724026
1689.000000	61.384379
1688.000000	61.094242
1687.000000	60.844506
1686.000000	60.524205
1685.000000	60.071126
1684.000000	59.573447
1683.000000	59.102264
1682.000000	58.710308
1681.000000	58.387529
1680.000000	58.122343
1679.000000	57.920546
1678.000000	57.751695
1677.000000	57.511735
1676.000000	57.108018
1675.000000	56.587048
1674.000000	56.088858
1673.000000	55.675695
1672.000000	55.313759
1671.000000	54.954377
1670.000000	54.572399
1669.000000	54.144405
1668.000000	53.697677
1667.000000	53.308157
1666.000000	52.991493
1665.000000	52.683823
1664.000000	52.330579
1663.000000	51.952816
1662.000000	51.584110
1661.000000	51.213758
1660.000000	50.829939
1659.000000	50.449396
1658.000000	50.098771
1657.000000	49.794428
1656.000000	49.528995
1655.000000	49.237087
1654.000000	48.895447
1653.000000	48.452810
1652.000000	47.919466
1651.000000	47.498339
1650.000000	47.174935
1649.000000	46.845707
1648.000000	46.503524
1647.000000	46.216291
1646.000000	45.957471
1645.000000	45.673241
1644.000000	45.371600
1643.000000	45.074178
1642.000000	44.777583
1641.000000	44.462681
1640.000000	44.142040
1639.000000	43.859920
1638.000000	43.631802
1637.000000	43.438408
1636.000000	43.250056
1635.000000	43.017736
1634.000000	42.749951
1633.000000	42.483571
1632.000000	42.235735
1631.000000	42.013311
1630.000000	41.808359
1629.000000	41.609740
1628.000000	41.427256
1627.000000	41.279072
1626.000000	41.154021
1625.000000	41.007175
1624.000000	40.824311
1623.000000	40.645781
1622.000000	40.505829
1621.000000	40.402830
1620.000000	40.326851
1619.000000	40.277485
1618.000000	40.252947
1617.000000	40.239060
1616.000000	40.206030
1615.000000	40.158000
1614.000000	40.117233
1613.000000	40.083433
1612.000000	40.055801
1611.000000	40.051979
1610.000000	40.085852
1609.000000	40.142531
1608.000000	40.200199
1607.000000	40.254869
1606.000000	40.307458
1605.000000	40.351512
1604.000000	40.396338
1603.000000	40.472770
1602.000000	40.592718
1601.000000	40.728632
1600.000000	40.848594
1599.000000	40.946413
1598.000000	41.026371
1597.000000	41.089244
1596.000000	41.148827
1595.000000	41.233449
1594.000000	41.353376
1593.000000	41.487660
1592.000000	41.615835
1591.000000	41.738453
1590.000000	41.856539
1589.000000	41.956824
1588.000000	42.034837
1587.000000	42.110617
1586.000000	42.203879
1585.000000	42.312048
1584.000000	42.423772
1583.000000	42.537578
1582.000000	42.644578
1581.000000	42.720180
1580.000000	42.752069
1579.000000	42.762000
1578.000000	42.791996
1577.000000	42.887249
1576.000000	43.046079
1575.000000	43.207966
1574.000000	43.340090
1573.000000	43.442174
1572.000000	43.514694
1571.000000	43.564907
1570.000000	43.631682
1569.000000	43.718983
1568.000000	43.798395
1567.000000	43.880385
1566.000000	43.982014
1565.000000	44.096981
1564.000000	44.213620
1563.000000	44.348999
1562.000000	44.511125
1561.000000	44.594872
1560.000000	44.577140
1559.000000	44.793934
1558.000000	45.087590
1557.000000	45.234773
1556.000000	45.317768
1555.000000	45.426352
1554.000000	45.558095
1553.000000	45.665466
1552.000000	45.745356
1551.000000	45.857065
1550.000000	46.056133
1549.000000	46.318177
1548.000000	46.571895
1547.000000	46.774237
1546.000000	46.927501
1545.000000	47.079595
1544.000000	47.275875
1543.000000	47.504565
1542.000000	47.744644
1541.000000	48.105497
1540.000000	48.674297
1539.000000	49.230502
1538.000000	49.614546
1537.000000	49.875178
1536.000000	50.089390
1535.000000	50.315531
1534.000000	50.629487
1533.000000	51.041884
1532.000000	51.463772
1531.000000	51.854230
1530.000000	52.228353
1529.000000	52.592542
1528.000000	52.958230
1527.000000	53.352189
1526.000000	53.770460
1525.000000	54.166132
1524.000000	54.517081
1523.000000	54.880318
1522.000000	55.353981
1521.000000	55.887430
1520.000000	56.307533
1519.000000	56.577193
1518.000000	56.799769
1517.000000	57.088765
1516.000000	57.449853
1515.000000	57.817901
1514.000000	58.146523
1513.000000	58.400411
1512.000000	58.563090
1511.000000	58.649052
1510.000000	58.669371
1509.000000	58.643369
1508.000000	58.778445
1507.000000	59.357785
1506.000000	60.062482
1505.000000	60.528137
1504.000000	60.832168
1503.000000	61.140866
1502.000000	61.525468
1501.000000	61.970388
1500.000000	62.437745
1499.000000	62.932882
1498.000000	63.495183
1497.000000	64.129126
1496.000000	64.767593
1495.000000	65.333025
1494.000000	65.784777
1493.000000	66.097900
1492.000000	66.272771
1491.000000	66.403845
1490.000000	66.643713
1489.000000	67.013340
1488.000000	67.432278
1487.000000	67.843429
1486.000000	68.194413
1485.000000	68.429259
1484.000000	68.541065
1483.000000	68.575633
1482.000000	68.566906
1481.000000	68.513364
1480.000000	68.418208
1479.000000	68.283193
1478.000000	68.055302
1477.000000	67.675244
1476.000000	67.169083
1475.000000	66.584636
1474.000000	65.865149
1473.000000	64.910326
1472.000000	63.745108
1471.000000	62.510992
1470.000000	61.250312
1469.000000	59.883262
1468.000000	58.335284
1467.000000	56.522891
1466.000000	54.289241
1465.000000	51.562700
1464.000000	48.592174
1463.000000	45.751308
1462.000000	43.137681
1461.000000	40.634029
1460.000000	38.151932
1459.000000	35.611119
1458.000000	32.857906
1457.000000	29.936791
1456.000000	27.436313
1455.000000	25.787710
1454.000000	24.768896
1453.000000	24.087415
1452.000000	23.696036
1451.000000	23.639831
1450.000000	23.902111
1449.000000	24.461194
1448.000000	25.341227
1447.000000	26.491240
1446.000000	27.765789
1445.000000	29.086722
1444.000000	30.480706
1443.000000	31.956547
1442.000000	33.445757
1441.000000	34.876496
1440.000000	36.238969
1439.000000	37.579346
1438.000000	38.978681
1437.000000	40.509586
1436.000000	42.079440
1435.000000	43.468887
1434.000000	44.629201
1433.000000	45.673658
1432.000000	46.676889
1431.000000	47.619482
1430.000000	48.454050
1429.000000	49.154308
1428.000000	49.704255
1427.000000	50.101752
1426.000000	50.383138
1425.000000	50.619524
1424.000000	50.866944
1423.000000	51.121569
1422.000000	51.356361
1421.000000	51.555738
1420.000000	51.737357
1419.000000	51.979443
1418.000000	52.317899
1417.000000	52.725766
1416.000000	53.182317
1415.000000	53.666131
1414.000000	54.155846
1413.000000	54.656748
1412.000000	55.191513
1411.000000	55.767990
1410.000000	56.373218
1409.000000	56.988375
1408.000000	57.589096
1407.000000	58.153561
1406.000000	58.693075
1405.000000	59.237359
1404.000000	59.769231
1403.000000	60.235758
1402.000000	60.622014
1401.000000	60.957906
1400.000000	61.278683
1399.000000	61.597552
1398.000000	61.907935
1397.000000	62.216751
1396.000000	62.540043
1395.000000	62.869454
1394.000000	63.167734
1393.000000	63.404578
1392.000000	63.570381
1391.000000	63.649909
1390.000000	63.607916
1389.000000	63.383261
1388.000000	62.913218
1387.000000	62.226232
1386.000000	61.521191
1385.000000	61.082054
1384.000000	61.098048
1383.000000	61.576128
1382.000000	62.348648
1381.000000	63.159896
1380.000000	63.799403
1379.000000	64.183153
1378.000000	64.343657
1377.000000	64.361670
1376.000000	64.311097
1375.000000	64.263192
1374.000000	64.271617
1373.000000	64.322130
1372.000000	64.353885
1371.000000	64.327302
1370.000000	64.254774
1369.000000	64.173383
1368.000000	64.094546
1367.000000	63.994500
1366.000000	63.844336
1365.000000	63.626457
1364.000000	63.345302
1363.000000	63.033003
1362.000000	62.715751
1361.000000	62.386681
1360.000000	62.027047
1359.000000	61.640646
1358.000000	61.267551
1357.000000	60.962955
1356.000000	60.766978
1355.000000	60.698269
1354.000000	60.754039
1353.000000	60.900042
1352.000000	61.072578
1351.000000	61.205782
1350.000000	61.254698
1349.000000	61.183615
1348.000000	60.948762
1347.000000	60.512594
1346.000000	59.862213
1345.000000	59.000311
1344.000000	57.931182
1343.000000	56.658066
1342.000000	55.192164
1341.000000	53.559347
1340.000000	51.803058
1339.000000	49.974280
1338.000000	48.096213
1337.000000	46.146301
1336.000000	44.084889
1335.000000	41.899694
1334.000000	39.615262
1333.000000	37.266705
1332.000000	34.896005
1331.000000	32.567689
1330.000000	30.355137
1329.000000	28.307535
1328.000000	26.450581
1327.000000	24.801240
1326.000000	23.356240
1325.000000	22.083669
1324.000000	20.946055
1323.000000	19.927687
1322.000000	19.020186
1321.000000	18.206932
1320.000000	17.493735
1319.000000	16.928093
1318.000000	16.571909
1317.000000	16.465413
1316.000000	16.627561
1315.000000	17.072412
1314.000000	17.788124
1313.000000	18.724719
1312.000000	19.818270
1311.000000	21.013282
1310.000000	22.267278
1309.000000	23.543945
1308.000000	24.817854
1307.000000	26.073226
1306.000000	27.290753
1305.000000	28.445849
1304.000000	29.522516
1303.000000	30.521097
1302.000000	31.451992
1301.000000	32.331833
1300.000000	33.183600
1299.000000	34.031443
1298.000000	34.887644
1297.000000	35.747574
1296.000000	36.600679
1295.000000	37.442229
1294.000000	38.275849
1293.000000	39.111205
1292.000000	39.962949
1291.000000	40.848462
1290.000000	41.783276
1289.000000	42.775060
1288.000000	43.817945
1287.000000	44.890522
1286.000000	45.960986
1285.000000	46.997138
1284.000000	47.974054
1283.000000	48.878846
1282.000000	49.710789
1281.000000	50.475807
1280.000000	51.174965
1279.000000	51.802353
1278.000000	52.354406
1277.000000	52.832925
1276.000000	53.245860
1275.000000	53.612808
1274.000000	53.971787
1273.000000	54.371518
1272.000000	54.850378
1271.000000	55.423326
1270.000000	56.084623
1269.000000	56.813896
1268.000000	57.579348
1267.000000	58.350287
1266.000000	59.112456
1265.000000	59.867252
1264.000000	60.616749
1263.000000	61.358148
1262.000000	62.090364
1261.000000	62.809681
1260.000000	63.494196
1259.000000	64.108221
1258.000000	64.632000
1257.000000	65.072082
1256.000000	65.445023
1255.000000	65.766177
1254.000000	66.049578
1253.000000	66.302966
1252.000000	66.513480
1251.000000	66.655563
1250.000000	66.716682
1249.000000	66.703483
1248.000000	66.630391
1247.000000	66.513501
1246.000000	66.373493
1245.000000	66.224835
1244.000000	66.054497
1243.000000	65.828331
1242.000000	65.516982
1241.000000	65.109428
1240.000000	64.611172
1239.000000	64.044246
1238.000000	63.450352
1237.000000	62.874045
1236.000000	62.338876
1235.000000	61.845209
1234.000000	61.384694
1233.000000	60.948984
1232.000000	60.531707
1231.000000	60.138177
1230.000000	59.791390
1229.000000	59.522170
1228.000000	59.347617
1227.000000	59.264406
1226.000000	59.257425
1225.000000	59.303146
1224.000000	59.374975
1223.000000	59.455793
1222.000000	59.551460
1221.000000	59.688288
1220.000000	59.891530
1219.000000	60.172673
1218.000000	60.527022
1217.000000	60.931648
1216.000000	61.346812
1215.000000	61.731490
1214.000000	62.067938
1213.000000	62.367300
1212.000000	62.653708
1211.000000	62.950354
1210.000000	63.274456
1209.000000	63.629157
1208.000000	63.995306
1207.000000	64.341403
1206.000000	64.647362
1205.000000	64.916791
1204.000000	65.169615
1203.000000	65.433569
1202.000000	65.738486
1201.000000	66.100700
1200.000000	66.505636
1199.000000	66.913385
1198.000000	67.285009
1197.000000	67.600908
1196.000000	67.862278
1195.000000	68.091364
1194.000000	68.330592
1193.000000	68.622721
1192.000000	68.981714
1191.000000	69.386111
1190.000000	69.799265
1189.000000	70.187481
1188.000000	70.526213
1187.000000	70.810987
1186.000000	71.068908
1185.000000	71.343986
1184.000000	71.662982
1183.000000	72.017466
1182.000000	72.374684
1181.000000	72.692891
1180.000000	72.935179
1179.000000	73.091132
1178.000000	73.191578
1177.000000	73.290909
1176.000000	73.431973
1175.000000	73.631531
1174.000000	73.885298
1173.000000	74.165407
1172.000000	74.419987
1171.000000	74.598103
1170.000000	74.686512
1169.000000	74.714591
1168.000000	74.726912
1167.000000	74.762917
1166.000000	74.851360
1165.000000	74.996626
1164.000000	75.165687
1163.000000	75.305207
1162.000000	75.381959
1161.000000	75.400060
1160.000000	75.387142
1159.000000	75.381583
1158.000000	75.426939
1157.000000	75.550109
1156.000000	75.735008
1155.000000	75.928747
1154.000000	76.078701
1153.000000	76.157304
1152.000000	76.162566
1151.000000	76.119382
1150.000000	76.081172
1149.000000	76.103774
1148.000000	76.205071
1147.000000	76.356447
1146.000000	76.510389
1145.000000	76.625236
1144.000000	76.674145
1143.000000	76.658232
1142.000000	76.617444
1141.000000	76.609484
1140.000000	76.667939
1139.000000	76.785399
1138.000000	76.927451
1137.000000	77.047454
1136.000000	77.095927
1135.000000	77.044945
1134.000000	76.915678
1133.000000	76.768576
1132.000000	76.662073
1131.000000	76.626383
1130.000000	76.661925
1129.000000	76.739569
1128.000000	76.801986
1127.000000	76.790746
1126.000000	76.686013
1125.000000	76.513497
1124.000000	76.316836
1123.000000	76.135162
1122.000000	75.994457
1121.000000	75.893837
1120.000000	75.791409
1119.000000	75.626198
1118.000000	75.362321
1117.000000	75.007919
1116.000000	74.599703
1115.000000	74.184849
1114.000000	73.809599
1113.000000	73.495917
1112.000000	73.215263
1111.000000	72.899969
1110.000000	72.481998
1109.000000	71.922992
1108.000000	71.219981
1107.000000	70.402594
1106.000000	69.527191
1105.000000	68.645437
1104.000000	67.769709
1103.000000	66.870853
1102.000000	65.897748
1101.000000	64.802629
1100.000000	63.551965
1099.000000	62.141346
1098.000000	60.600525
1097.000000	58.967593
1096.000000	57.263830
1095.000000	55.483577
1094.000000	53.600256
1093.000000	51.582123
1092.000000	49.405458
1091.000000	47.078159
1090.000000	44.643230
1089.000000	42.161238
1088.000000	39.692733
1087.000000	37.287032
1086.000000	34.973629
1085.000000	32.761749
1084.000000	30.658076
1083.000000	28.674938
1082.000000	26.829902
1081.000000	25.139144
1080.000000	23.620919
1079.000000	22.294165
1078.000000	21.151270
1077.000000	20.162035
1076.000000	19.294100
1075.000000	18.522472
1074.000000	17.825475
1073.000000	17.181762
1072.000000	16.589904
1071.000000	16.064287
1070.000000	15.609537
1069.000000	15.217780
1068.000000	14.882981
1067.000000	14.605818
1066.000000	14.379702
1065.000000	14.192068
1064.000000	14.047958
1063.000000	13.966558
1062.000000	13.959577
1061.000000	14.026525
1060.000000	14.167923
1059.000000	14.386684
1058.000000	14.669370
1057.000000	14.991909
1056.000000	15.345197
1055.000000	15.736597
1054.000000	16.172900
1053.000000	16.654664
1052.000000	17.189176
1051.000000	17.787202
1050.000000	18.441093
1049.000000	19.128523
1048.000000	19.834307
1047.000000	20.557058
1046.000000	21.298794
1045.000000	22.063350
1044.000000	22.866772
1043.000000	23.727569
1042.000000	24.646272
1041.000000	25.605391
1040.000000	26.584919
1039.000000	27.570966
1038.000000	28.553214
1037.000000	29.529724
1036.000000	30.515207
1035.000000	31.530508
1034.000000	32.584429
1033.000000	33.667829
1032.000000	34.761175
1031.000000	35.840743
1030.000000	36.884415
1029.000000	37.883446
1028.000000	38.850581
1027.000000	39.812493
1026.000000	40.792518
1025.000000	41.800101
1024.000000	42.826948
1023.000000	43.847979
1022.000000	44.831694
1021.000000	45.755791
1020.000000	46.618576
1019.000000	47.437919
1018.000000	48.241971
1017.000000	49.057179
1016.000000	49.893409
1015.000000	50.737785
1014.000000	51.561494
1013.000000	52.335645
1012.000000	53.046066
1011.000000	53.699863
1010.000000	54.324957
1009.000000	54.957778
1008.000000	55.622436
1007.000000	56.318824
1006.000000	57.024644
1005.000000	57.706468
1004.000000	58.332105
1003.000000	58.885266
1002.000000	59.377537
1001.000000	59.842283
1000.000000	60.314335
999.000000	60.814320
998.000000	61.343767
997.000000	61.885756
996.000000	62.407652
995.000000	62.878570
994.000000	63.292982
993.000000	63.674614
992.000000	64.057578
991.000000	64.468619
990.000000	64.919665
989.000000	65.401942
988.000000	65.881364
987.000000	66.314621
986.000000	66.677392
985.000000	66.977317
984.000000	67.242362
983.000000	67.506662
982.000000	67.804045
981.000000	68.154784
980.000000	68.548897
979.000000	68.951213
978.000000	69.326837
977.000000	69.658968
976.000000	69.947271
975.000000	70.204501
974.000000	70.456578
973.000000	70.728621
972.000000	71.023218
971.000000	71.317618
970.000000	71.583774
969.000000	71.805771
968.000000	71.980981
967.000000	72.123457
966.000000	72.268327
965.000000	72.456684
964.000000	72.707080
963.000000	73.005697
962.000000	73.320525
961.000000	73.615768
960.000000	73.857465
959.000000	74.027317
958.000000	74.138276
957.000000	74.226220
956.000000	74.322086
955.000000	74.438192
954.000000	74.577170
953.000000	74.734263
952.000000	74.892104
951.000000	75.031163
950.000000	75.152182
949.000000	75.275759
948.000000	75.419277
947.000000	75.583985
946.000000	75.762602
945.000000	75.940720
944.000000	76.091042
943.000000	76.184415
942.000000	76.215630
941.000000	76.208354
940.000000	76.193653
939.000000	76.197192
938.000000	76.241572
937.000000	76.339191
936.000000	76.476558
935.000000	76.619961
934.000000	76.741935
933.000000	76.833461
932.000000	76.892832
931.000000	76.920634
930.000000	76.926890
929.000000	76.925488
928.000000	76.916737
927.000000	76.887870
926.000000	76.834803
925.000000	76.768080
924.000000	76.699695
923.000000	76.638320
922.000000	76.597129
921.000000	76.587362
920.000000	76.599680
919.000000	76.605221
918.000000	76.578896
917.000000	76.509502
916.000000	76.391143
915.000000	76.223216
914.000000	76.021377
913.000000	75.811486
912.000000	75.605729
911.000000	75.398994
910.000000	75.185551
909.000000	74.965765
908.000000	74.736605
907.000000	74.491997
906.000000	74.235188
905.000000	73.974617
904.000000	73.704486
903.000000	73.404744
902.000000	73.059846
901.000000	72.666673
900.000000	72.225030
899.000000	71.737347
898.000000	71.219985
897.000000	70.695946
896.000000	70.173830
895.000000	69.643302
894.000000	69.090281
893.000000	68.505701
892.000000	67.878364
891.000000	67.198021
890.000000	66.468508
889.000000	65.704174
888.000000	64.912403
887.000000	64.085733
886.000000	63.211673
885.000000	62.280195
884.000000	61.281348
883.000000	60.212157
882.000000	59.084985
881.000000	57.922140
880.000000	56.739982
879.000000	55.541084
878.000000	54.320698
877.000000	53.069203
876.000000	51.772534
875.000000	50.421077
874.000000	49.019456
873.000000	47.585617
872.000000	46.139611
871.000000	44.695241
870.000000	43.258207
869.000000	41.825371
868.000000	40.387857
867.000000	38.937907
866.000000	37.476789
865.000000	36.017410
864.000000	34.581084
863.000000	33.187772
862.000000	31.846008
861.000000	30.552561
860.000000	29.299677
859.000000	28.084013
858.000000	26.910427
857.000000	25.797388
856.000000	24.784120
855.000000	23.916838
854.000000	23.231615
853.000000	22.741835
852.000000	22.435923
851.000000	22.279760
850.000000	22.217275
849.000000	22.193253
848.000000	22.175200
847.000000	22.155426
846.000000	22.140796
845.000000	22.143320
844.000000	22.178183
843.000000	22.254385
842.000000	22.367495
841.000000	22.510223
840.000000	22.685606
839.000000	22.906283
838.000000	23.184422
837.000000	23.527679
836.000000	23.940413
835.000000	24.414029
834.000000	24.920373
833.000000	25.424251
832.000000	25.906564
831.000000	26.379060
830.000000	26.880240
829.000000	27.461277
828.000000	28.164869
827.000000	29.003572
826.000000	29.955847
825.000000	30.977718
824.000000	32.017457
823.000000	33.028801
822.000000	33.987500
821.000000	34.904270
820.000000	35.811855
819.000000	36.738111
818.000000	37.690006
817.000000	38.655276
816.000000	39.604967
815.000000	40.500130
814.000000	41.312158
813.000000	42.042981
812.000000	42.723174
811.000000	43.392434
810.000000	44.083581
809.000000	44.812004
808.000000	45.564242
807.000000	46.301054
806.000000	46.982198
805.000000	47.595258
804.000000	48.160743
803.000000	48.719638
802.000000	49.319933
801.000000	49.998469
800.000000	50.754725
799.000000	51.541951
798.000000	52.291638
797.000000	52.950813
796.000000	53.500702
795.000000	53.961222
794.000000	54.388137
793.000000	54.850564
792.000000	55.390874
791.000000	56.000457
790.000000	56.631113
789.000000	57.223716
788.000000	57.730835
787.000000	58.139439
786.000000	58.488020
785.000000	58.849806
784.000000	59.283778
783.000000	59.798850
782.000000	60.357074
781.000000	60.893633
780.000000	61.336127
779.000000	61.637033
778.000000	61.812219
777.000000	61.942128
776.000000	62.123654
775.000000	62.420076
774.000000	62.844186
773.000000	63.357410
772.000000	63.874440
771.000000	64.296591
770.000000	64.572625
769.000000	64.730402
768.000000	64.848738
767.000000	65.008980
766.000000	65.266276
765.000000	65.629170
764.000000	66.044001
763.000000	66.413331
762.000000	66.658050
761.000000	66.767656
760.000000	66.797294
759.000000	66.834388
758.000000	66.967755
757.000000	67.249406
756.000000	67.655621
755.000000	68.086979
754.000000	68.425355
753.000000	68.597341
752.000000	68.600137
751.000000	68.497717
750.000000	68.401959
749.000000	68.423093
748.000000	68.604344
747.000000	68.895890
746.000000	69.193596
745.000000	69.396597
744.000000	69.444676
743.000000	69.342832
742.000000	69.173794
741.000000	69.062055
740.000000	69.097362
739.000000	69.283736
738.000000	69.551864
737.000000	69.797856
736.000000	69.918181
735.000000	69.855882
734.000000	69.649945
733.000000	69.424958
732.000000	69.313401
731.000000	69.385205
730.000000	69.634143
729.000000	69.989087
728.000000	70.329616
727.000000	70.536780
726.000000	70.571705
725.000000	70.505563
724.000000	70.463629
723.000000	70.550836
722.000000	70.816405
721.000000	71.238419
720.000000	71.711775
719.000000	72.084719
718.000000	72.252886
717.000000	72.226523
716.000000	72.108929
715.000000	72.034827
714.000000	72.123660
713.000000	72.434009
712.000000	72.916549
711.000000	73.424171
710.000000	73.801200
709.000000	73.971244
708.000000	73.954286
707.000000	73.843902
706.000000	73.776462
705.000000	73.874301
704.000000	74.167002
703.000000	74.562518
702.000000	74.911865
701.000000	75.101115
700.000000	75.091682
699.000000	74.933430
698.000000	74.762931
697.000000	74.748326
696.000000	74.983452
695.000000	75.425918
694.000000	75.937936
693.000000	76.362173
692.000000	76.565104
691.000000	76.488877
690.000000	76.210196
689.000000	75.921727
688.000000	75.806952
687.000000	75.927266
686.000000	76.233937
685.000000	76.626500
684.000000	76.967433
683.000000	77.120459
682.000000	77.055998
681.000000	76.894244
680.000000	76.802916
679.000000	76.875437
678.000000	77.121194
677.000000	77.483901
676.000000	77.815502
675.000000	77.948780
674.000000	77.816146
673.000000	77.501662
672.000000	77.186351
671.000000	77.053576
670.000000	77.236554
669.000000	77.784865
668.000000	78.521422
667.000000	79.040285
666.000000	79.130029
665.000000	78.893811
664.000000	78.510793
663.000000	78.138479
662.000000	77.910717
661.000000	77.908680
660.000000	78.115662
659.000000	78.420504
658.000000	78.670002
657.000000	78.741002
656.000000	78.600980
655.000000	78.360121
654.000000	78.200403
653.000000	78.248885
652.000000	78.532748
651.000000	78.983921
650.000000	79.442519
649.000000	79.705282
648.000000	79.643185
647.000000	79.290926
646.000000	78.820991
645.000000	78.440982
644.000000	78.304503
643.000000	78.463053
642.000000	78.842492
641.000000	79.266249
640.000000	79.544833
639.000000	79.577927
638.000000	79.393843
637.000000	79.119735
636.000000	78.916568
635.000000	78.902520
634.000000	79.085199
633.000000	79.348032
632.000000	79.515601
631.000000	79.459376
630.000000	79.169488
629.000000	78.754553
628.000000	78.391143
627.000000	78.253921
626.000000	78.431586
625.000000	78.867634
624.000000	79.377169
623.000000	79.737878
622.000000	79.804131
621.000000	79.572275
620.000000	79.166263
619.000000	78.773443
618.000000	78.564113
617.000000	78.615479
616.000000	78.875103
615.000000	79.189188
614.000000	79.383660
613.000000	79.357851
612.000000	79.136919
611.000000	78.855799
610.000000	78.685748
609.000000	78.739916
608.000000	79.011116
607.000000	79.373728
606.000000	79.645843
605.000000	79.678402
604.000000	79.426482
603.000000	78.973296
602.000000	78.496755
601.000000	78.182226
600.000000	78.128986
599.000000	78.299339
598.000000	78.543402
597.000000	78.680764
596.000000	78.589796
595.000000	78.266721
594.000000	77.837571
593.000000	77.498798
592.000000	77.416699
591.000000	77.641718
590.000000	78.080968
589.000000	78.546013
588.000000	78.845544
587.000000	78.876037
586.000000	78.673804
585.000000	78.390813
584.000000	78.205001
583.000000	78.235992
582.000000	78.507930
581.000000	78.940360
580.000000	79.364391
579.000000	79.594504
578.000000	79.543879
577.000000	79.279863
576.000000	78.975275
575.000000	78.804791
574.000000	78.853395
573.000000	79.086765
572.000000	79.378635
571.000000	79.569810
570.000000	79.550130
569.000000	79.322304
568.000000	78.995154
567.000000	78.727960
566.000000	78.658689
565.000000	78.835087
564.000000	79.183591
563.000000	79.541686
562.000000	79.738488
561.000000	79.679756
560.000000	79.384550
559.000000	78.971382
558.000000	78.607496
557.000000	78.428153
556.000000	78.467516
555.000000	78.649477
554.000000	78.834018
553.000000	78.890366
552.000000	78.759620
551.000000	78.490198
550.000000	78.218061
549.000000	78.084677
548.000000	78.152058
547.000000	78.381961
546.000000	78.663478
545.000000	78.857986
544.000000	78.850898
543.000000	78.615302
542.000000	78.247666
541.000000	77.923180
540.000000	77.791761
539.000000	77.910355
538.000000	78.236272
537.000000	78.651354
536.000000	79.003693
535.000000	79.173832
534.000000	79.142812
533.000000	78.998870
532.000000	78.868600
531.000000	78.843710
530.000000	78.946676
529.000000	79.125869
528.000000	79.277394
527.000000	79.305099
526.000000	79.195125
525.000000	79.025084
524.000000	78.896382
523.000000	78.882422
522.000000	79.018297
521.000000	79.285015
520.000000	79.589198
519.000000	79.791349
518.000000	79.790224
517.000000	79.583187
516.000000	79.242595
515.000000	78.868091
514.000000	78.559111
513.000000	78.380932
512.000000	78.324639
511.000000	78.304157
510.000000	78.210889
509.000000	77.976739
508.000000	77.598376
507.000000	77.136386
506.000000	76.691740
505.000000	76.341523
504.000000	76.088580
503.000000	75.879266
502.000000	75.657803
501.000000	75.384760
500.000000	75.038405
499.000000	74.643783
498.000000	74.305265
497.000000	74.163021
496.000000	74.295237
495.000000	74.668636
494.000000	75.179060
493.000000	75.719059
492.000000	76.199556
491.000000	76.558771
490.000000	76.793463
489.000000	76.963229
488.000000	77.142276
487.000000	77.376414
486.000000	77.678342
485.000000	78.022994
484.000000	78.337661
483.000000	78.533893
482.000000	78.588032
481.000000	78.567930
480.000000	78.565755
479.000000	78.633655
478.000000	78.780417
477.000000	78.976968
476.000000	79.146897
475.000000	79.194163
474.000000	79.084835
473.000000	78.902953
472.000000	78.786176
471.000000	78.801559
470.000000	78.952915
469.000000	79.244541
468.000000	79.657155
467.000000	80.101216
466.000000	80.451276
465.000000	80.645442
464.000000	80.701920
463.000000	80.682264
462.000000	80.675817
461.000000	80.760127
460.000000	80.926175
459.000000	81.079248
458.000000	81.147994
457.000000	81.143642
456.000000	81.080829
455.000000	80.962455
454.000000	80.840627
453.000000	80.822251
452.000000	80.985257
451.000000	81.275387
450.000000	81.554344
449.000000	81.728077
448.000000	81.779168
447.000000	81.731867
446.000000	81.634782
445.000000	81.557043
444.000000	81.553980
443.000000	81.649645
442.000000	81.840193
441.000000	82.081683
440.000000	82.278373
439.000000	82.335004
438.000000	82.245826
437.000000	82.128930
436.000000	82.129294
435.000000	82.295481
434.000000	82.580104
433.000000	82.915998
432.000000	83.219968
431.000000	83.389636
430.000000	83.383832
429.000000	83.258774
428.000000	83.082720
427.000000	82.887485
426.000000	82.725797
425.000000	82.677718
424.000000	82.754083
423.000000	82.858891
422.000000	82.889109
421.000000	82.792929
420.000000	82.527950
419.000000	82.237822
418.000000	82.230541
417.000000	82.516402
416.000000	82.871557
415.000000	83.085919
414.000000	83.058254
413.000000	82.865199
412.000000	82.640473
411.000000	82.436883
410.000000	82.306736
409.000000	82.370187
408.000000	82.672963
407.000000	83.094280
406.000000	83.486176
405.000000	83.806184
404.000000	84.016821
403.000000	84.009475
402.000000	83.768002
401.000000	83.487040
400.000000	83.323775
