PE IR       SUBTECH     SPECTRUM    ASCII       PEDS        4.00        
   -1
23ms191_nitrito.asc
24/08/30
17:33:44.00
24/08/30
17:33:44.00
Administrator
Sample 1075 By Administrator Date Friday, August 30 2024
400.000000
#HDR
-1
-1
#GR
cm-1
%T
1.0
0.0
4000.000000
-1.000000
3601
8
89.636473
28.056087
#DATA
4000.000000	79.339182
3999.000000	79.370503
3998.000000	79.399550
3997.000000	79.427688
3996.000000	79.456522
3995.000000	79.487041
3994.000000	79.519272
3993.000000	79.553006
3992.000000	79.588454
3991.000000	79.625327
3990.000000	79.661452
3989.000000	79.693899
3988.000000	79.722291
3987.000000	79.749694
3986.000000	79.779600
3985.000000	79.812759
3984.000000	79.847633
3983.000000	79.882703
3982.000000	79.917180
3981.000000	79.950197
3980.000000	79.980419
3979.000000	80.007383
3978.000000	80.032980
3977.000000	80.060379
3976.000000	80.091531
3975.000000	80.125761
3974.000000	80.161051
3973.000000	80.195750
3972.000000	80.228761
3971.000000	80.259816
3970.000000	80.289140
3969.000000	80.316664
3968.000000	80.342239
3967.000000	80.366488
3966.000000	80.390974
3965.000000	80.417909
3964.000000	80.449057
3963.000000	80.483960
3962.000000	80.519772
3961.000000	80.552324
3960.000000	80.578604
3959.000000	80.600245
3958.000000	80.622230
3957.000000	80.648004
3956.000000	80.677490
3955.000000	80.709450
3954.000000	80.743385
3953.000000	80.778425
3952.000000	80.812019
3951.000000	80.841460
3950.000000	80.865377
3949.000000	80.883987
3948.000000	80.900183
3947.000000	80.918075
3946.000000	80.941255
3945.000000	80.974016
3944.000000	81.020059
3943.000000	81.074944
3942.000000	81.124629
3941.000000	81.157380
3940.000000	81.175115
3939.000000	81.191389
3938.000000	81.215999
3937.000000	81.244985
3936.000000	81.268680
3935.000000	81.286945
3934.000000	81.312623
3933.000000	81.355645
3932.000000	81.409670
3931.000000	81.458965
3930.000000	81.494222
3929.000000	81.520084
3928.000000	81.545750
3927.000000	81.576469
3926.000000	81.614454
3925.000000	81.657294
3924.000000	81.694315
3923.000000	81.715176
3922.000000	81.723201
3921.000000	81.733136
3920.000000	81.754402
3919.000000	81.782655
3918.000000	81.811507
3917.000000	81.843492
3916.000000	81.882038
3915.000000	81.922175
3914.000000	81.959120
3913.000000	81.997006
3912.000000	82.040035
3911.000000	82.084531
3910.000000	82.122772
3909.000000	82.153502
3908.000000	82.182341
3907.000000	82.212305
3906.000000	82.239006
3905.000000	82.256812
3904.000000	82.263494
3903.000000	82.263069
3902.000000	82.266543
3901.000000	82.288283
3900.000000	82.336515
3899.000000	82.400224
3898.000000	82.455251
3897.000000	82.491683
3896.000000	82.520691
3895.000000	82.558004
3894.000000	82.605657
3893.000000	82.653465
3892.000000	82.691579
3891.000000	82.720068
3890.000000	82.736715
3889.000000	82.734693
3888.000000	82.722599
3887.000000	82.733894
3886.000000	82.791775
3885.000000	82.869849
3884.000000	82.918384
3883.000000	82.929890
3882.000000	82.942272
3881.000000	82.984214
3880.000000	83.039570
3879.000000	83.073565
3878.000000	83.077895
3877.000000	83.077877
3876.000000	83.106797
3875.000000	83.176788
3874.000000	83.259324
3873.000000	83.304421
3872.000000	83.294743
3871.000000	83.273817
3870.000000	83.295740
3869.000000	83.352235
3868.000000	83.390251
3867.000000	83.395314
3866.000000	83.412705
3865.000000	83.477101
3864.000000	83.554745
3863.000000	83.592782
3862.000000	83.591195
3861.000000	83.588364
3860.000000	83.610888
3859.000000	83.664327
3858.000000	83.743387
3857.000000	83.833403
3856.000000	83.908498
3855.000000	83.956080
3854.000000	83.990723
3853.000000	84.018705
3852.000000	84.028067
3851.000000	84.020604
3850.000000	84.015264
3849.000000	84.027418
3848.000000	84.051679
3847.000000	84.073660
3846.000000	84.092272
3845.000000	84.117694
3844.000000	84.155330
3843.000000	84.202434
3842.000000	84.248250
3841.000000	84.284951
3840.000000	84.315919
3839.000000	84.348022
3838.000000	84.382219
3837.000000	84.418192
3836.000000	84.456113
3835.000000	84.494577
3834.000000	84.529490
3833.000000	84.561180
3832.000000	84.594145
3831.000000	84.626050
3830.000000	84.650128
3829.000000	84.667474
3828.000000	84.688712
3827.000000	84.727398
3826.000000	84.780871
3825.000000	84.824989
3824.000000	84.840749
3823.000000	84.847984
3822.000000	84.890227
3821.000000	84.973004
3820.000000	85.044232
3819.000000	85.063436
3818.000000	85.050618
3817.000000	85.060447
3816.000000	85.120414
3815.000000	85.192598
3814.000000	85.227754
3813.000000	85.232801
3812.000000	85.250252
3811.000000	85.295994
3810.000000	85.345594
3809.000000	85.372087
3808.000000	85.386641
3807.000000	85.422175
3806.000000	85.478476
3805.000000	85.522320
3804.000000	85.538592
3803.000000	85.555791
3802.000000	85.608113
3801.000000	85.679213
3800.000000	85.718837
3799.000000	85.719930
3798.000000	85.724320
3797.000000	85.763581
3796.000000	85.823634
3795.000000	85.867431
3794.000000	85.883059
3793.000000	85.892452
3792.000000	85.917960
3791.000000	85.957691
3790.000000	85.997419
3789.000000	86.032216
3788.000000	86.068596
3787.000000	86.111190
3786.000000	86.157252
3785.000000	86.201065
3784.000000	86.237074
3783.000000	86.260025
3782.000000	86.273170
3781.000000	86.292397
3780.000000	86.331046
3779.000000	86.382329
3778.000000	86.427301
3777.000000	86.458576
3776.000000	86.487046
3775.000000	86.526794
3774.000000	86.574336
3773.000000	86.610043
3772.000000	86.625041
3771.000000	86.638599
3770.000000	86.669485
3769.000000	86.707971
3768.000000	86.736777
3767.000000	86.761727
3766.000000	86.803726
3765.000000	86.865403
3764.000000	86.920352
3763.000000	86.944849
3762.000000	86.950213
3761.000000	86.970975
3760.000000	87.017408
3759.000000	87.063823
3758.000000	87.095949
3757.000000	87.129906
3756.000000	87.175068
3755.000000	87.219401
3754.000000	87.253962
3753.000000	87.288962
3752.000000	87.329525
3751.000000	87.359652
3750.000000	87.381257
3749.000000	87.422768
3748.000000	87.482270
3747.000000	87.523069
3746.000000	87.536800
3745.000000	87.567848
3744.000000	87.635603
3743.000000	87.691528
3742.000000	87.704126
3741.000000	87.702678
3740.000000	87.718125
3739.000000	87.737515
3738.000000	87.739298
3737.000000	87.747776
3736.000000	87.805946
3735.000000	87.899856
3734.000000	87.972908
3733.000000	88.012292
3732.000000	88.050336
3731.000000	88.099705
3730.000000	88.140050
3729.000000	88.156203
3728.000000	88.165877
3727.000000	88.197499
3726.000000	88.248364
3725.000000	88.289522
3724.000000	88.314139
3723.000000	88.344103
3722.000000	88.389685
3721.000000	88.439574
3720.000000	88.482262
3719.000000	88.518255
3718.000000	88.556294
3717.000000	88.599864
3716.000000	88.638785
3715.000000	88.663615
3714.000000	88.681320
3713.000000	88.709775
3712.000000	88.754013
3711.000000	88.800271
3710.000000	88.841800
3709.000000	88.885798
3708.000000	88.936850
3707.000000	88.990938
3706.000000	89.038150
3705.000000	89.071691
3704.000000	89.094878
3703.000000	89.118107
3702.000000	89.146610
3701.000000	89.176240
3700.000000	89.202213
3699.000000	89.224749
3698.000000	89.251669
3697.000000	89.291458
3696.000000	89.335710
3695.000000	89.364289
3694.000000	89.374554
3693.000000	89.389202
3692.000000	89.425542
3691.000000	89.471226
3690.000000	89.500962
3689.000000	89.513034
3688.000000	89.529377
3687.000000	89.557877
3686.000000	89.583903
3685.000000	89.598538
3684.000000	89.605826
3683.000000	89.606748
3682.000000	89.598924
3681.000000	89.591140
3680.000000	89.600678
3679.000000	89.619893
3678.000000	89.615104
3677.000000	89.584986
3676.000000	89.578245
3675.000000	89.611635
3674.000000	89.636473
3673.000000	89.615110
3672.000000	89.567532
3671.000000	89.547835
3670.000000	89.570238
3669.000000	89.585374
3668.000000	89.563359
3667.000000	89.528605
3666.000000	89.504455
3665.000000	89.488838
3664.000000	89.466979
3663.000000	89.431389
3662.000000	89.388835
3661.000000	89.347674
3660.000000	89.305229
3659.000000	89.250269
3658.000000	89.179387
3657.000000	89.107244
3656.000000	89.049980
3655.000000	89.002850
3654.000000	88.946315
3653.000000	88.871015
3652.000000	88.789083
3651.000000	88.713526
3650.000000	88.630173
3649.000000	88.517358
3648.000000	88.400440
3647.000000	88.319257
3646.000000	88.266906
3645.000000	88.210523
3644.000000	88.137648
3643.000000	88.058508
3642.000000	87.980230
3641.000000	87.894363
3640.000000	87.792421
3639.000000	87.681803
3638.000000	87.571300
3637.000000	87.454963
3636.000000	87.324310
3635.000000	87.191488
3634.000000	87.077229
3633.000000	86.976265
3632.000000	86.857200
3631.000000	86.702688
3630.000000	86.539343
3629.000000	86.402471
3628.000000	86.283995
3627.000000	86.164431
3626.000000	86.047271
3625.000000	85.943014
3624.000000	85.850565
3623.000000	85.755708
3622.000000	85.643611
3621.000000	85.516257
3620.000000	85.384991
3619.000000	85.250282
3618.000000	85.106222
3617.000000	84.955132
3616.000000	84.803216
3615.000000	84.657349
3614.000000	84.520867
3613.000000	84.386979
3612.000000	84.245433
3611.000000	84.096957
3610.000000	83.957364
3609.000000	83.844808
3608.000000	83.756021
3607.000000	83.667871
3606.000000	83.565115
3605.000000	83.451146
3604.000000	83.336630
3603.000000	83.225716
3602.000000	83.114459
3601.000000	83.001138
3600.000000	82.887109
3599.000000	82.769920
3598.000000	82.647727
3597.000000	82.522434
3596.000000	82.396613
3595.000000	82.271851
3594.000000	82.147819
3593.000000	82.023510
3592.000000	81.898881
3591.000000	81.772428
3590.000000	81.646292
3589.000000	81.531031
3588.000000	81.432663
3587.000000	81.339943
3586.000000	81.240284
3585.000000	81.136410
3584.000000	81.037695
3583.000000	80.946090
3582.000000	80.855429
3581.000000	80.759910
3580.000000	80.659662
3579.000000	80.557450
3578.000000	80.454419
3577.000000	80.350393
3576.000000	80.245473
3575.000000	80.140002
3574.000000	80.034054
3573.000000	79.926484
3572.000000	79.815267
3571.000000	79.696062
3570.000000	79.565359
3569.000000	79.431695
3568.000000	79.311792
3567.000000	79.210511
3566.000000	79.117116
3565.000000	79.025371
3564.000000	78.937952
3563.000000	78.857084
3562.000000	78.777518
3561.000000	78.690340
3560.000000	78.591268
3559.000000	78.482876
3558.000000	78.371054
3557.000000	78.261261
3556.000000	78.156938
3555.000000	78.058079
3554.000000	77.962197
3553.000000	77.866138
3552.000000	77.766650
3551.000000	77.660033
3550.000000	77.543326
3549.000000	77.419768
3548.000000	77.298766
3547.000000	77.187580
3546.000000	77.085304
3545.000000	76.988219
3544.000000	76.896315
3543.000000	76.810694
3542.000000	76.728479
3541.000000	76.644095
3540.000000	76.553996
3539.000000	76.457157
3538.000000	76.354432
3537.000000	76.248812
3536.000000	76.144697
3535.000000	76.045895
3534.000000	75.953887
3533.000000	75.869618
3532.000000	75.792461
3531.000000	75.717312
3530.000000	75.635119
3529.000000	75.540377
3528.000000	75.436221
3527.000000	75.330166
3526.000000	75.228478
3525.000000	75.136175
3524.000000	75.056702
3523.000000	74.987543
3522.000000	74.920522
3521.000000	74.849234
3520.000000	74.773715
3519.000000	74.695506
3518.000000	74.612939
3517.000000	74.524378
3516.000000	74.433135
3515.000000	74.345686
3514.000000	74.264917
3513.000000	74.188794
3512.000000	74.114757
3511.000000	74.041322
3510.000000	73.965504
3509.000000	73.883908
3508.000000	73.796266
3507.000000	73.705666
3506.000000	73.615926
3505.000000	73.530316
3504.000000	73.450226
3503.000000	73.373558
3502.000000	73.296448
3501.000000	73.217356
3500.000000	73.138061
3499.000000	73.059560
3498.000000	72.980345
3497.000000	72.899040
3496.000000	72.816675
3495.000000	72.735133
3494.000000	72.655032
3493.000000	72.576101
3492.000000	72.498095
3491.000000	72.419813
3490.000000	72.338885
3489.000000	72.254774
3488.000000	72.170128
3487.000000	72.087415
3486.000000	72.006802
3485.000000	71.928389
3484.000000	71.853216
3483.000000	71.780385
3482.000000	71.705271
3481.000000	71.624005
3480.000000	71.537670
3479.000000	71.450223
3478.000000	71.364550
3477.000000	71.282416
3476.000000	71.205385
3475.000000	71.132851
3474.000000	71.061606
3473.000000	70.988820
3472.000000	70.913658
3471.000000	70.835174
3470.000000	70.751188
3469.000000	70.661678
3468.000000	70.571346
3467.000000	70.485944
3466.000000	70.407896
3465.000000	70.336735
3464.000000	70.271050
3463.000000	70.207446
3462.000000	70.139928
3461.000000	70.063970
3460.000000	69.980265
3459.000000	69.893001
3458.000000	69.806129
3457.000000	69.722529
3456.000000	69.644986
3455.000000	69.574728
3454.000000	69.509603
3453.000000	69.445809
3452.000000	69.379694
3451.000000	69.307687
3450.000000	69.227095
3449.000000	69.139008
3448.000000	69.048826
3447.000000	68.961859
3446.000000	68.880340
3445.000000	68.805740
3444.000000	68.739735
3443.000000	68.680281
3442.000000	68.619729
3441.000000	68.550068
3440.000000	68.469333
3439.000000	68.381099
3438.000000	68.289624
3437.000000	68.198042
3436.000000	68.109799
3435.000000	68.027811
3434.000000	67.951699
3433.000000	67.878265
3432.000000	67.803475
3431.000000	67.723562
3430.000000	67.635788
3429.000000	67.540231
3428.000000	67.440434
3427.000000	67.340719
3426.000000	67.243814
3425.000000	67.151005
3424.000000	67.062581
3423.000000	66.976767
3422.000000	66.889613
3421.000000	66.797494
3420.000000	66.699206
3419.000000	66.595302
3418.000000	66.487033
3417.000000	66.376731
3416.000000	66.267135
3415.000000	66.158915
3414.000000	66.050112
3413.000000	65.938917
3412.000000	65.825233
3411.000000	65.708895
3410.000000	65.588490
3409.000000	65.463284
3408.000000	65.334659
3407.000000	65.204222
3406.000000	65.072292
3405.000000	64.938833
3404.000000	64.803854
3403.000000	64.666020
3402.000000	64.522537
3401.000000	64.371976
3400.000000	64.215750
3399.000000	64.056043
3398.000000	63.893764
3397.000000	63.729115
3396.000000	63.562231
3395.000000	63.392057
3394.000000	63.215768
3393.000000	63.030624
3392.000000	62.835772
3391.000000	62.631968
3390.000000	62.421604
3389.000000	62.208603
3388.000000	61.996193
3387.000000	61.783830
3386.000000	61.567633
3385.000000	61.344288
3384.000000	61.112179
3383.000000	60.869760
3382.000000	60.615640
3381.000000	60.351061
3380.000000	60.079893
3379.000000	59.805301
3378.000000	59.528340
3377.000000	59.249652
3376.000000	58.969252
3375.000000	58.684243
3374.000000	58.389371
3373.000000	58.080955
3372.000000	57.758839
3371.000000	57.424051
3370.000000	57.078353
3369.000000	56.725808
3368.000000	56.371644
3367.000000	56.018122
3366.000000	55.663140
3365.000000	55.303638
3364.000000	54.937343
3363.000000	54.561283
3362.000000	54.172450
3361.000000	53.771031
3360.000000	53.360903
3359.000000	52.946163
3358.000000	52.529155
3357.000000	52.112117
3356.000000	51.696473
3355.000000	51.280125
3354.000000	50.858109
3353.000000	50.426898
3352.000000	49.986344
3351.000000	49.537675
3350.000000	49.082829
3349.000000	48.625677
3348.000000	48.170332
3347.000000	47.717613
3346.000000	47.265472
3345.000000	46.812895
3344.000000	46.360160
3343.000000	45.905774
3342.000000	45.447021
3341.000000	44.983872
3340.000000	44.519399
3339.000000	44.056379
3338.000000	43.596418
3337.000000	43.141851
3336.000000	42.694563
3335.000000	42.252809
3334.000000	41.812734
3333.000000	41.373222
3332.000000	40.935979
3331.000000	40.501648
3330.000000	40.069437
3329.000000	39.640246
3328.000000	39.216741
3327.000000	38.800040
3326.000000	38.389963
3325.000000	37.987791
3324.000000	37.594856
3323.000000	37.209445
3322.000000	36.828623
3321.000000	36.452880
3320.000000	36.085638
3319.000000	35.728171
3318.000000	35.379435
3317.000000	35.039290
3316.000000	34.708205
3315.000000	34.384540
3314.000000	34.065766
3313.000000	33.752297
3312.000000	33.446385
3311.000000	33.148230
3310.000000	32.857476
3309.000000	32.576681
3308.000000	32.309794
3307.000000	32.057612
3306.000000	31.818249
3305.000000	31.591258
3304.000000	31.376171
3303.000000	31.169542
3302.000000	30.967530
3301.000000	30.770641
3300.000000	30.582295
3299.000000	30.403475
3298.000000	30.233183
3297.000000	30.072406
3296.000000	29.922437
3295.000000	29.781089
3294.000000	29.644735
3293.000000	29.513726
3292.000000	29.391764
3291.000000	29.280255
3290.000000	29.178343
3289.000000	29.086216
3288.000000	29.004408
3287.000000	28.930691
3286.000000	28.861520
3285.000000	28.796326
3284.000000	28.735829
3283.000000	28.678213
3282.000000	28.621253
3281.000000	28.566682
3280.000000	28.518525
3279.000000	28.477772
3278.000000	28.442882
3277.000000	28.414060
3276.000000	28.392181
3275.000000	28.374799
3274.000000	28.357655
3273.000000	28.339972
3272.000000	28.324753
3271.000000	28.314457
3270.000000	28.310030
3269.000000	28.312638
3268.000000	28.322311
3267.000000	28.336038
3266.000000	28.350440
3265.000000	28.365401
3264.000000	28.381967
3263.000000	28.398513
3262.000000	28.413001
3261.000000	28.426765
3260.000000	28.442484
3259.000000	28.459981
3258.000000	28.477823
3257.000000	28.497521
3256.000000	28.521715
3255.000000	28.549701
3254.000000	28.578554
3253.000000	28.607417
3252.000000	28.636899
3251.000000	28.665917
3250.000000	28.693095
3249.000000	28.720130
3248.000000	28.749970
3247.000000	28.782780
3246.000000	28.816909
3245.000000	28.852219
3244.000000	28.889118
3243.000000	28.925954
3242.000000	28.961129
3241.000000	28.996004
3240.000000	29.032466
3239.000000	29.069082
3238.000000	29.103095
3237.000000	29.134404
3236.000000	29.164464
3235.000000	29.193265
3234.000000	29.220973
3233.000000	29.250514
3232.000000	29.284496
3231.000000	29.321279
3230.000000	29.357476
3229.000000	29.392448
3228.000000	29.426876
3227.000000	29.459125
3226.000000	29.487016
3225.000000	29.511631
3224.000000	29.535447
3223.000000	29.558519
3222.000000	29.579955
3221.000000	29.601261
3220.000000	29.624363
3219.000000	29.647761
3218.000000	29.668373
3217.000000	29.685562
3216.000000	29.700011
3215.000000	29.710577
3214.000000	29.715882
3213.000000	29.717728
3212.000000	29.719252
3211.000000	29.721052
3210.000000	29.722207
3209.000000	29.723061
3208.000000	29.723794
3207.000000	29.721916
3206.000000	29.714640
3205.000000	29.702429
3204.000000	29.687148
3203.000000	29.668885
3202.000000	29.647636
3201.000000	29.625795
3200.000000	29.605640
3199.000000	29.585791
3198.000000	29.563477
3197.000000	29.538247
3196.000000	29.510418
3195.000000	29.478360
3194.000000	29.440774
3193.000000	29.399821
3192.000000	29.358721
3191.000000	29.317908
3190.000000	29.276728
3189.000000	29.236312
3188.000000	29.197397
3187.000000	29.157547
3186.000000	29.114047
3185.000000	29.067753
3184.000000	29.021008
3183.000000	28.973971
3182.000000	28.926244
3181.000000	28.879681
3180.000000	28.835966
3179.000000	28.793455
3178.000000	28.749752
3177.000000	28.705467
3176.000000	28.662265
3175.000000	28.619499
3174.000000	28.576188
3173.000000	28.534000
3172.000000	28.494860
3171.000000	28.457743
3170.000000	28.420925
3169.000000	28.385151
3168.000000	28.351502
3167.000000	28.318558
3166.000000	28.285093
3165.000000	28.253145
3164.000000	28.225227
3163.000000	28.200851
3162.000000	28.178720
3161.000000	28.159881
3160.000000	28.145183
3159.000000	28.132194
3158.000000	28.118106
3157.000000	28.103258
3156.000000	28.089044
3155.000000	28.075192
3154.000000	28.062603
3153.000000	28.056087
3152.000000	28.059927
3151.000000	28.072810
3150.000000	28.090012
3149.000000	28.108365
3148.000000	28.126188
3147.000000	28.141354
3146.000000	28.153529
3145.000000	28.166279
3144.000000	28.183386
3143.000000	28.205074
3142.000000	28.230450
3141.000000	28.261086
3140.000000	28.298734
3139.000000	28.341612
3138.000000	28.386378
3137.000000	28.431643
3136.000000	28.477082
3135.000000	28.521770
3134.000000	28.566222
3133.000000	28.613989
3132.000000	28.668013
3131.000000	28.727774
3130.000000	28.792049
3129.000000	28.861195
3128.000000	28.934062
3127.000000	29.005963
3126.000000	29.073161
3125.000000	29.136942
3124.000000	29.200441
3123.000000	29.264739
3122.000000	29.331092
3121.000000	29.403405
3120.000000	29.484493
3119.000000	29.572117
3118.000000	29.662180
3117.000000	29.753326
3116.000000	29.845605
3115.000000	29.937651
3114.000000	30.028512
3113.000000	30.120004
3112.000000	30.214100
3111.000000	30.310468
3110.000000	30.409185
3109.000000	30.512654
3108.000000	30.621624
3107.000000	30.732105
3106.000000	30.839553
3105.000000	30.943807
3104.000000	31.047145
3103.000000	31.150330
3102.000000	31.254007
3101.000000	31.360951
3100.000000	31.473483
3099.000000	31.590265
3098.000000	31.708647
3097.000000	31.827838
3096.000000	31.947275
3095.000000	32.064686
3094.000000	32.178874
3093.000000	32.292266
3092.000000	32.408003
3091.000000	32.526582
3090.000000	32.647495
3089.000000	32.771330
3088.000000	32.897625
3087.000000	33.023502
3086.000000	33.147270
3085.000000	33.270997
3084.000000	33.396904
3083.000000	33.523749
3082.000000	33.649630
3081.000000	33.775539
3080.000000	33.903351
3079.000000	34.032667
3078.000000	34.162495
3077.000000	34.293707
3076.000000	34.427074
3075.000000	34.561207
3074.000000	34.694875
3073.000000	34.829086
3072.000000	34.964333
3071.000000	35.098275
3070.000000	35.228954
3069.000000	35.357963
3068.000000	35.487948
3067.000000	35.619171
3066.000000	35.751052
3065.000000	35.884829
3064.000000	36.021914
3063.000000	36.161490
3062.000000	36.301933
3061.000000	36.442494
3060.000000	36.581647
3059.000000	36.716381
3058.000000	36.845499
3057.000000	36.971618
3056.000000	37.097799
3055.000000	37.224602
3054.000000	37.352294
3053.000000	37.483230
3052.000000	37.619212
3051.000000	37.758416
3050.000000	37.897222
3049.000000	38.033127
3048.000000	38.164368
3047.000000	38.289414
3046.000000	38.409441
3045.000000	38.529130
3044.000000	38.652762
3043.000000	38.781228
3042.000000	38.914151
3041.000000	39.051778
3040.000000	39.192401
3039.000000	39.330530
3038.000000	39.460883
3037.000000	39.582736
3036.000000	39.698940
3035.000000	39.812922
3034.000000	39.928407
3033.000000	40.049191
3032.000000	40.176138
3031.000000	40.306103
3030.000000	40.435645
3029.000000	40.563811
3028.000000	40.689942
3027.000000	40.811782
3026.000000	40.928487
3025.000000	41.043022
3024.000000	41.159062
3023.000000	41.277331
3022.000000	41.396990
3021.000000	41.518133
3020.000000	41.640530
3019.000000	41.761834
3018.000000	41.879703
3017.000000	41.994062
3016.000000	42.105735
3015.000000	42.214939
3014.000000	42.323064
3013.000000	42.433672
3012.000000	42.549269
3011.000000	42.668751
3010.000000	42.789582
3009.000000	42.910540
3008.000000	43.030713
3007.000000	43.148295
3006.000000	43.262549
3005.000000	43.375068
3004.000000	43.487309
3003.000000	43.598579
3002.000000	43.708060
3001.000000	43.816602
3000.000000	43.925099
2999.000000	44.033283
2998.000000	44.141779
2997.000000	44.252628
2996.000000	44.365963
2995.000000	44.478648
2994.000000	44.588383
2993.000000	44.696774
2992.000000	44.806102
2991.000000	44.915419
2990.000000	45.022373
2989.000000	45.126898
2988.000000	45.230598
2987.000000	45.334241
2986.000000	45.438135
2985.000000	45.543292
2984.000000	45.649934
2983.000000	45.756241
2982.000000	45.860612
2981.000000	45.963680
2980.000000	46.066391
2979.000000	46.167885
2978.000000	46.267440
2977.000000	46.366970
2976.000000	46.469556
2975.000000	46.576714
2974.000000	46.688491
2973.000000	46.804439
2972.000000	46.922656
2971.000000	47.039645
2970.000000	47.153128
2969.000000	47.263981
2968.000000	47.374159
2967.000000	47.484729
2966.000000	47.597353
2965.000000	47.715345
2964.000000	47.840711
2963.000000	47.971438
2962.000000	48.103251
2961.000000	48.232506
2960.000000	48.355866
2959.000000	48.469910
2958.000000	48.573268
2957.000000	48.667789
2956.000000	48.755804
2955.000000	48.838205
2954.000000	48.916786
2953.000000	48.995526
2952.000000	49.077071
2951.000000	49.159461
2950.000000	49.238978
2949.000000	49.314687
2948.000000	49.388572
2947.000000	49.463230
2946.000000	49.541558
2945.000000	49.627116
2944.000000	49.722111
2943.000000	49.825689
2942.000000	49.935553
2941.000000	50.050003
2940.000000	50.167351
2939.000000	50.285244
2938.000000	50.402705
2937.000000	50.521370
2936.000000	50.643320
2935.000000	50.769229
2934.000000	50.899889
2933.000000	51.037582
2932.000000	51.184056
2931.000000	51.338819
2930.000000	51.501200
2929.000000	51.672184
2928.000000	51.852652
2927.000000	52.041898
2926.000000	52.239790
2925.000000	52.448728
2924.000000	52.671218
2923.000000	52.907178
2922.000000	53.154584
2921.000000	53.410056
2920.000000	53.665094
2919.000000	53.901549
2918.000000	54.093413
2917.000000	54.213422
2916.000000	54.242596
2915.000000	54.179301
2914.000000	54.043908
2913.000000	53.872733
2912.000000	53.702990
2911.000000	53.559821
2910.000000	53.454035
2909.000000	53.387077
2908.000000	53.354587
2907.000000	53.349059
2906.000000	53.362715
2905.000000	53.389600
2904.000000	53.424548
2903.000000	53.462403
2902.000000	53.499781
2901.000000	53.537505
2900.000000	53.577543
2899.000000	53.621223
2898.000000	53.668887
2897.000000	53.720248
2896.000000	53.773577
2895.000000	53.826056
2894.000000	53.876094
2893.000000	53.924026
2892.000000	53.969716
2891.000000	54.011577
2890.000000	54.049275
2889.000000	54.085513
2888.000000	54.123573
2887.000000	54.164701
2886.000000	54.208846
2885.000000	54.255904
2884.000000	54.304371
2883.000000	54.350653
2882.000000	54.391711
2881.000000	54.427350
2880.000000	54.458908
2879.000000	54.487729
2878.000000	54.516536
2877.000000	54.550211
2876.000000	54.592407
2875.000000	54.641908
2874.000000	54.693938
2873.000000	54.744158
2872.000000	54.790420
2871.000000	54.832502
2870.000000	54.872299
2869.000000	54.913684
2868.000000	54.960573
2867.000000	55.015603
2866.000000	55.081468
2865.000000	55.161476
2864.000000	55.257150
2863.000000	55.366241
2862.000000	55.484570
2861.000000	55.608896
2860.000000	55.737250
2859.000000	55.868943
2858.000000	56.006703
2857.000000	56.158047
2856.000000	56.333244
2855.000000	56.542196
2854.000000	56.792250
2853.000000	57.083166
2852.000000	57.397864
2851.000000	57.695783
2850.000000	57.921959
2849.000000	58.030495
2848.000000	58.008377
2847.000000	57.882862
2846.000000	57.706718
2845.000000	57.532581
2844.000000	57.394174
2843.000000	57.302631
2842.000000	57.254486
2841.000000	57.240821
2840.000000	57.250689
2839.000000	57.273090
2838.000000	57.300539
2837.000000	57.330626
2836.000000	57.363694
2835.000000	57.400153
2834.000000	57.440395
2833.000000	57.485337
2832.000000	57.535429
2831.000000	57.589607
2830.000000	57.646371
2829.000000	57.704716
2828.000000	57.763321
2827.000000	57.820226
2826.000000	57.874430
2825.000000	57.926823
2824.000000	57.978731
2823.000000	58.030658
2822.000000	58.083229
2821.000000	58.137837
2820.000000	58.195192
2819.000000	58.254308
2818.000000	58.313828
2817.000000	58.373188
2816.000000	58.431680
2815.000000	58.487801
2814.000000	58.540767
2813.000000	58.591615
2812.000000	58.641880
2811.000000	58.692254
2810.000000	58.743367
2809.000000	58.796516
2808.000000	58.852437
2807.000000	58.910367
2806.000000	58.969157
2805.000000	59.028206
2804.000000	59.086527
2803.000000	59.142352
2802.000000	59.194875
2801.000000	59.245288
2800.000000	59.295205
2799.000000	59.345292
2798.000000	59.396350
2797.000000	59.450142
2796.000000	59.507578
2795.000000	59.567053
2794.000000	59.625805
2793.000000	59.682031
2792.000000	59.734790
2791.000000	59.783219
2790.000000	59.827394
2789.000000	59.869289
2788.000000	59.911655
2787.000000	59.956401
2786.000000	60.004639
2785.000000	60.056965
2784.000000	60.112444
2783.000000	60.168136
2782.000000	60.220889
2781.000000	60.269228
2780.000000	60.313125
2779.000000	60.353226
2778.000000	60.391337
2777.000000	60.430500
2776.000000	60.473159
2775.000000	60.519625
2774.000000	60.568814
2773.000000	60.619397
2772.000000	60.669358
2771.000000	60.715806
2770.000000	60.756781
2769.000000	60.792885
2768.000000	60.826506
2767.000000	60.860245
2766.000000	60.896658
2765.000000	60.938134
2764.000000	60.985479
2763.000000	61.037013
2762.000000	61.089900
2761.000000	61.141718
2760.000000	61.190339
2759.000000	61.233803
2758.000000	61.271747
2757.000000	61.306376
2756.000000	61.341006
2755.000000	61.378080
2754.000000	61.418955
2753.000000	61.464207
2752.000000	61.512822
2751.000000	61.561825
2750.000000	61.607918
2749.000000	61.649295
2748.000000	61.685625
2747.000000	61.717511
2746.000000	61.746949
2745.000000	61.777250
2744.000000	61.811112
2743.000000	61.848977
2742.000000	61.889689
2741.000000	61.931816
2740.000000	61.973614
2739.000000	62.012889
2738.000000	62.048255
2737.000000	62.080205
2736.000000	62.110305
2735.000000	62.139984
2734.000000	62.170599
2733.000000	62.203580
2732.000000	62.239382
2731.000000	62.276836
2730.000000	62.314239
2729.000000	62.350461
2728.000000	62.384566
2727.000000	62.415558
2726.000000	62.443446
2725.000000	62.469805
2724.000000	62.496326
2723.000000	62.523518
2722.000000	62.551370
2721.000000	62.580215
2720.000000	62.610031
2719.000000	62.639770
2718.000000	62.668386
2717.000000	62.695967
2716.000000	62.723165
2715.000000	62.750299
2714.000000	62.777683
2713.000000	62.805906
2712.000000	62.834935
2711.000000	62.863685
2710.000000	62.891215
2709.000000	62.917616
2708.000000	62.943197
2707.000000	62.967850
2706.000000	62.991827
2705.000000	63.016021
2704.000000	63.040468
2703.000000	63.063558
2702.000000	63.083709
2701.000000	63.100908
2700.000000	63.115923
2699.000000	63.129076
2698.000000	63.140832
2697.000000	63.152672
2696.000000	63.166048
2695.000000	63.181056
2694.000000	63.196844
2693.000000	63.212524
2692.000000	63.226912
2691.000000	63.238383
2690.000000	63.246170
2689.000000	63.251297
2688.000000	63.255444
2687.000000	63.259705
2686.000000	63.264990
2685.000000	63.272455
2684.000000	63.282312
2683.000000	63.292887
2682.000000	63.301867
2681.000000	63.307839
2680.000000	63.310130
2679.000000	63.308500
2678.000000	63.304235
2677.000000	63.300634
2676.000000	63.301022
2675.000000	63.306566
2674.000000	63.316544
2673.000000	63.329738
2672.000000	63.344516
2671.000000	63.358766
2670.000000	63.371324
2669.000000	63.383206
2668.000000	63.396824
2667.000000	63.414335
2666.000000	63.437450
2665.000000	63.467678
2664.000000	63.505253
2663.000000	63.548427
2662.000000	63.594469
2661.000000	63.641071
2660.000000	63.686515
2659.000000	63.729591
2658.000000	63.770701
2657.000000	63.812229
2656.000000	63.856774
2655.000000	63.905344
2654.000000	63.957439
2653.000000	64.011832
2652.000000	64.066346
2651.000000	64.117958
2650.000000	64.164511
2649.000000	64.206145
2648.000000	64.244497
2647.000000	64.281254
2646.000000	64.318060
2645.000000	64.356598
2644.000000	64.397466
2643.000000	64.439329
2642.000000	64.479989
2641.000000	64.517819
2640.000000	64.551565
2639.000000	64.580145
2638.000000	64.603863
2637.000000	64.625204
2636.000000	64.647238
2635.000000	64.671355
2634.000000	64.697216
2633.000000	64.723944
2632.000000	64.750336
2631.000000	64.774722
2630.000000	64.795876
2629.000000	64.814009
2628.000000	64.830202
2627.000000	64.845408
2626.000000	64.860717
2625.000000	64.877667
2624.000000	64.897086
2623.000000	64.917985
2622.000000	64.938420
2621.000000	64.957133
2620.000000	64.973715
2619.000000	64.988029
2618.000000	65.000501
2617.000000	65.012489
2616.000000	65.025367
2615.000000	65.039479
2614.000000	65.054461
2613.000000	65.069864
2612.000000	65.084627
2611.000000	65.096882
2610.000000	65.105326
2609.000000	65.110494
2608.000000	65.113927
2607.000000	65.116561
2606.000000	65.118672
2605.000000	65.120378
2604.000000	65.121152
2603.000000	65.119441
2602.000000	65.113728
2601.000000	65.103898
2600.000000	65.090866
2599.000000	65.075660
2598.000000	65.059789
2597.000000	65.045618
2596.000000	65.035189
2595.000000	65.028886
2594.000000	65.026031
2593.000000	65.026225
2592.000000	65.029562
2591.000000	65.036184
2590.000000	65.046818
2589.000000	65.063404
2588.000000	65.087897
2587.000000	65.121187
2586.000000	65.163105
2585.000000	65.212815
2584.000000	65.268462
2583.000000	65.326900
2582.000000	65.385369
2581.000000	65.442952
2580.000000	65.500199
2579.000000	65.558286
2578.000000	65.618930
2577.000000	65.684280
2576.000000	65.755268
2575.000000	65.830282
2574.000000	65.906182
2573.000000	65.980172
2572.000000	66.050363
2571.000000	66.115675
2570.000000	66.176548
2569.000000	66.235489
2568.000000	66.295841
2567.000000	66.359941
2566.000000	66.428553
2565.000000	66.501102
2564.000000	66.575325
2563.000000	66.647402
2562.000000	66.713750
2561.000000	66.773022
2560.000000	66.826300
2559.000000	66.876012
2558.000000	66.925411
2557.000000	66.978056
2556.000000	67.036184
2555.000000	67.099311
2554.000000	67.164752
2553.000000	67.229245
2552.000000	67.289707
2551.000000	67.343549
2550.000000	67.389942
2549.000000	67.430814
2548.000000	67.469882
2547.000000	67.510542
2546.000000	67.554799
2545.000000	67.603304
2544.000000	67.654882
2543.000000	67.706304
2542.000000	67.753660
2541.000000	67.794306
2540.000000	67.827570
2539.000000	67.854112
2538.000000	67.875713
2537.000000	67.895157
2536.000000	67.914784
2535.000000	67.935020
2534.000000	67.954301
2533.000000	67.970214
2532.000000	67.980183
2531.000000	67.981450
2530.000000	67.972365
2529.000000	67.953492
2528.000000	67.927164
2527.000000	67.896197
2526.000000	67.863387
2525.000000	67.831970
2524.000000	67.804891
2523.000000	67.783637
2522.000000	67.768405
2521.000000	67.759352
2520.000000	67.756719
2519.000000	67.760331
2518.000000	67.770086
2517.000000	67.786595
2516.000000	67.811039
2515.000000	67.843791
2514.000000	67.884118
2513.000000	67.930966
2512.000000	67.982937
2511.000000	68.038475
2510.000000	68.096365
2509.000000	68.156145
2508.000000	68.217328
2507.000000	68.278310
2506.000000	68.337107
2505.000000	68.392739
2504.000000	68.445352
2503.000000	68.495282
2502.000000	68.543010
2501.000000	68.589685
2500.000000	68.636669
2499.000000	68.684440
2498.000000	68.732416
2497.000000	68.779855
2496.000000	68.825811
2495.000000	68.868606
2494.000000	68.906441
2493.000000	68.938792
2492.000000	68.966984
2491.000000	68.993334
2490.000000	69.020369
2489.000000	69.050368
2488.000000	69.084406
2487.000000	69.121569
2486.000000	69.159455
2485.000000	69.195352
2484.000000	69.226824
2483.000000	69.251917
2482.000000	69.270328
2481.000000	69.284354
2480.000000	69.297805
2479.000000	69.313843
2478.000000	69.334143
2477.000000	69.359390
2476.000000	69.388970
2475.000000	69.420141
2474.000000	69.448808
2473.000000	69.471782
2472.000000	69.488167
2471.000000	69.499091
2470.000000	69.507234
2469.000000	69.516418
2468.000000	69.530285
2467.000000	69.550491
2466.000000	69.576322
2465.000000	69.605576
2464.000000	69.635112
2463.000000	69.661095
2462.000000	69.680365
2461.000000	69.692301
2460.000000	69.698977
2459.000000	69.703737
2458.000000	69.710230
2457.000000	69.721985
2456.000000	69.741043
2455.000000	69.766303
2454.000000	69.794102
2453.000000	69.820595
2452.000000	69.843131
2451.000000	69.859974
2450.000000	69.870486
2449.000000	69.876313
2448.000000	69.881351
2447.000000	69.889713
2446.000000	69.903828
2445.000000	69.924058
2444.000000	69.948923
2443.000000	69.975436
2442.000000	70.000191
2441.000000	70.020813
2440.000000	70.036327
2439.000000	70.046725
2438.000000	70.053239
2437.000000	70.058684
2436.000000	70.066200
2435.000000	70.077197
2434.000000	70.091115
2433.000000	70.106717
2432.000000	70.122294
2431.000000	70.135019
2430.000000	70.142066
2429.000000	70.143494
2428.000000	70.143273
2427.000000	70.147056
2426.000000	70.159139
2425.000000	70.181140
2424.000000	70.211804
2423.000000	70.247552
2422.000000	70.284350
2421.000000	70.319557
2420.000000	70.351982
2419.000000	70.380519
2418.000000	70.404105
2417.000000	70.422968
2416.000000	70.438721
2415.000000	70.453019
2414.000000	70.467217
2413.000000	70.483254
2412.000000	70.503227
2411.000000	70.527518
2410.000000	70.554299
2409.000000	70.581190
2408.000000	70.606430
2407.000000	70.628546
2406.000000	70.646532
2405.000000	70.661032
2404.000000	70.674256
2403.000000	70.688261
2402.000000	70.704176
2401.000000	70.723061
2400.000000	70.745922
2399.000000	70.772360
2398.000000	70.800356
2397.000000	70.827866
2396.000000	70.853656
2395.000000	70.876649
2394.000000	70.896046
2393.000000	70.912794
2392.000000	70.929571
2391.000000	70.948851
2390.000000	70.972035
2389.000000	70.999893
2388.000000	71.032904
2387.000000	71.069753
2386.000000	71.107623
2385.000000	71.145200
2384.000000	71.182412
2383.000000	71.219849
2382.000000	71.257374
2381.000000	71.295592
2380.000000	71.336834
2379.000000	71.381669
2378.000000	71.429246
2377.000000	71.478856
2376.000000	71.530334
2375.000000	71.581245
2374.000000	71.628054
2373.000000	71.670142
2372.000000	71.710208
2371.000000	71.750006
2370.000000	71.787857
2369.000000	71.824864
2368.000000	71.864586
2367.000000	71.907563
2366.000000	71.951531
2365.000000	71.995684
2364.000000	72.043637
2363.000000	72.091535
2362.000000	72.132289
2361.000000	72.168998
2360.000000	72.205576
2359.000000	72.244544
2358.000000	72.283726
2357.000000	72.320242
2356.000000	72.358281
2355.000000	72.393558
2354.000000	72.430070
2353.000000	72.470458
2352.000000	72.518458
2351.000000	72.570644
2350.000000	72.613457
2349.000000	72.643600
2348.000000	72.669621
2347.000000	72.713632
2346.000000	72.782459
2345.000000	72.852039
2344.000000	72.904573
2343.000000	72.934276
2342.000000	72.958337
2341.000000	72.983223
2340.000000	73.007829
2339.000000	73.031578
2338.000000	73.056950
2337.000000	73.090165
2336.000000	73.129918
2335.000000	73.177350
2334.000000	73.230253
2333.000000	73.290673
2332.000000	73.347808
2331.000000	73.401954
2330.000000	73.444577
2329.000000	73.487045
2328.000000	73.523928
2327.000000	73.561693
2326.000000	73.599962
2325.000000	73.641549
2324.000000	73.686720
2323.000000	73.731083
2322.000000	73.773615
2321.000000	73.812472
2320.000000	73.847484
2319.000000	73.881972
2318.000000	73.915426
2317.000000	73.952976
2316.000000	73.991028
2315.000000	74.034743
2314.000000	74.078478
2313.000000	74.125374
2312.000000	74.168598
2311.000000	74.212896
2310.000000	74.255000
2309.000000	74.298733
2308.000000	74.339648
2307.000000	74.380470
2306.000000	74.419160
2305.000000	74.458393
2304.000000	74.496256
2303.000000	74.535446
2302.000000	74.574421
2301.000000	74.615495
2300.000000	74.656675
2299.000000	74.700766
2298.000000	74.745363
2297.000000	74.790733
2296.000000	74.833199
2295.000000	74.873123
2294.000000	74.909174
2293.000000	74.942462
2292.000000	74.973871
2291.000000	75.006119
2290.000000	75.041098
2289.000000	75.079258
2288.000000	75.120203
2287.000000	75.162579
2286.000000	75.204798
2285.000000	75.244139
2284.000000	75.279526
2283.000000	75.311025
2282.000000	75.340327
2281.000000	75.369226
2280.000000	75.400369
2279.000000	75.436054
2278.000000	75.476863
2277.000000	75.521130
2276.000000	75.565787
2275.000000	75.607853
2274.000000	75.644309
2273.000000	75.673597
2272.000000	75.696384
2271.000000	75.715882
2270.000000	75.736002
2269.000000	75.760250
2268.000000	75.790958
2267.000000	75.828389
2266.000000	75.869650
2265.000000	75.909956
2264.000000	75.944804
2263.000000	75.971532
2262.000000	75.989582
2261.000000	76.000723
2260.000000	76.009799
2259.000000	76.022411
2258.000000	76.042408
2257.000000	76.070131
2256.000000	76.103446
2255.000000	76.138420
2254.000000	76.169619
2253.000000	76.192207
2252.000000	76.204152
2251.000000	76.207388
2250.000000	76.205864
2249.000000	76.204770
2248.000000	76.208758
2247.000000	76.221134
2246.000000	76.241193
2245.000000	76.264712
2244.000000	76.286280
2243.000000	76.301140
2242.000000	76.305875
2241.000000	76.299641
2240.000000	76.285428
2239.000000	76.268962
2238.000000	76.255879
2237.000000	76.249683
2236.000000	76.251382
2235.000000	76.259096
2234.000000	76.268184
2233.000000	76.273160
2232.000000	76.270347
2231.000000	76.258645
2230.000000	76.238793
2229.000000	76.213523
2228.000000	76.187884
2227.000000	76.167407
2226.000000	76.154999
2225.000000	76.149901
2224.000000	76.149000
2223.000000	76.148188
2222.000000	76.143110
2221.000000	76.130802
2220.000000	76.111371
2219.000000	76.087606
2218.000000	76.063038
2217.000000	76.040960
2216.000000	76.024330
2215.000000	76.014693
2214.000000	76.010863
2213.000000	76.009668
2212.000000	76.008193
2211.000000	76.004770
2210.000000	75.998505
2209.000000	75.989433
2208.000000	75.979085
2207.000000	75.969708
2206.000000	75.962656
2205.000000	75.958285
2204.000000	75.956945
2203.000000	75.958908
2202.000000	75.963542
2201.000000	75.969744
2200.000000	75.977100
2199.000000	75.985638
2198.000000	75.994677
2197.000000	76.003016
2196.000000	76.010047
2195.000000	76.015752
2194.000000	76.020059
2193.000000	76.023488
2192.000000	76.028127
2191.000000	76.036631
2190.000000	76.050152
2189.000000	76.068004
2188.000000	76.088674
2187.000000	76.109880
2186.000000	76.128051
2185.000000	76.139630
2184.000000	76.143363
2183.000000	76.140845
2182.000000	76.135324
2181.000000	76.131006
2180.000000	76.132461
2179.000000	76.142554
2178.000000	76.160350
2177.000000	76.181697
2176.000000	76.201551
2175.000000	76.215218
2174.000000	76.218904
2173.000000	76.211550
2172.000000	76.196460
2171.000000	76.179881
2170.000000	76.167929
2169.000000	76.165199
2168.000000	76.174456
2167.000000	76.194929
2166.000000	76.220808
2165.000000	76.243391
2164.000000	76.255666
2163.000000	76.254819
2162.000000	76.241929
2161.000000	76.221748
2160.000000	76.202380
2159.000000	76.192438
2158.000000	76.196896
2157.000000	76.215494
2156.000000	76.243874
2155.000000	76.274759
2154.000000	76.299176
2153.000000	76.309800
2152.000000	76.304760
2151.000000	76.288012
2150.000000	76.266577
2149.000000	76.248340
2148.000000	76.240758
2147.000000	76.248274
2146.000000	76.269516
2145.000000	76.297815
2144.000000	76.324874
2143.000000	76.343485
2142.000000	76.348555
2141.000000	76.338713
2140.000000	76.318023
2139.000000	76.294589
2138.000000	76.276630
2137.000000	76.269912
2136.000000	76.277121
2135.000000	76.296897
2134.000000	76.323148
2133.000000	76.347384
2132.000000	76.362914
2131.000000	76.366913
2130.000000	76.359753
2129.000000	76.344790
2128.000000	76.328447
2127.000000	76.317953
2126.000000	76.317749
2125.000000	76.328441
2124.000000	76.348291
2123.000000	76.373757
2122.000000	76.399109
2121.000000	76.418245
2120.000000	76.428051
2119.000000	76.429249
2118.000000	76.424442
2117.000000	76.417250
2116.000000	76.412867
2115.000000	76.416639
2114.000000	76.430969
2113.000000	76.454565
2112.000000	76.484644
2111.000000	76.518124
2110.000000	76.550934
2109.000000	76.578747
2108.000000	76.599616
2107.000000	76.614798
2106.000000	76.627019
2105.000000	76.639622
2104.000000	76.657109
2103.000000	76.683981
2102.000000	76.721882
2101.000000	76.769018
2100.000000	76.822143
2099.000000	76.877356
2098.000000	76.929370
2097.000000	76.972796
2096.000000	77.005731
2095.000000	77.030842
2094.000000	77.052952
2093.000000	77.077083
2092.000000	77.108496
2091.000000	77.151570
2090.000000	77.206729
2089.000000	77.269410
2088.000000	77.332600
2087.000000	77.389506
2086.000000	77.434266
2085.000000	77.463336
2084.000000	77.478021
2083.000000	77.484510
2082.000000	77.490421
2081.000000	77.501832
2080.000000	77.522668
2079.000000	77.553707
2078.000000	77.591126
2077.000000	77.627274
2076.000000	77.654436
2075.000000	77.667754
2074.000000	77.665456
2073.000000	77.649312
2072.000000	77.625458
2071.000000	77.602859
2070.000000	77.588944
2069.000000	77.586843
2068.000000	77.595885
2067.000000	77.612858
2066.000000	77.632487
2065.000000	77.648759
2064.000000	77.657041
2063.000000	77.655230
2062.000000	77.644123
2061.000000	77.628329
2060.000000	77.616259
2059.000000	77.616512
2058.000000	77.633075
2057.000000	77.664394
2056.000000	77.706067
2055.000000	77.752474
2054.000000	77.796627
2053.000000	77.832193
2052.000000	77.857153
2051.000000	77.874569
2050.000000	77.889703
2049.000000	77.908448
2048.000000	77.937378
2047.000000	77.981575
2046.000000	78.041115
2045.000000	78.110959
2044.000000	78.184612
2043.000000	78.256773
2042.000000	78.323641
2041.000000	78.383539
2040.000000	78.437769
2039.000000	78.489802
2038.000000	78.543752
2037.000000	78.604229
2036.000000	78.676284
2035.000000	78.762609
2034.000000	78.860790
2033.000000	78.964678
2032.000000	79.067847
2031.000000	79.164790
2030.000000	79.250767
2029.000000	79.324253
2028.000000	79.389420
2027.000000	79.454157
2026.000000	79.524735
2025.000000	79.604749
2024.000000	79.696228
2023.000000	79.798224
2022.000000	79.904127
2021.000000	80.004228
2020.000000	80.091853
2019.000000	80.166112
2018.000000	80.230523
2017.000000	80.291328
2016.000000	80.355160
2015.000000	80.425870
2014.000000	80.503638
2013.000000	80.587729
2012.000000	80.678032
2011.000000	80.772193
2010.000000	80.863607
2009.000000	80.945242
2008.000000	81.014189
2007.000000	81.071434
2006.000000	81.119130
2005.000000	81.161823
2004.000000	81.207145
2003.000000	81.261503
2002.000000	81.325703
2001.000000	81.396163
2000.000000	81.469701
1999.000000	81.542900
1998.000000	81.609602
1997.000000	81.662984
1996.000000	81.701159
1995.000000	81.727189
1994.000000	81.746333
1993.000000	81.767581
1992.000000	81.803293
1991.000000	81.858746
1990.000000	81.925679
1989.000000	81.992488
1988.000000	82.055792
1987.000000	82.116278
1986.000000	82.169668
1985.000000	82.210395
1984.000000	82.240914
1983.000000	82.269285
1982.000000	82.299383
1981.000000	82.330233
1980.000000	82.364156
1979.000000	82.405520
1978.000000	82.452639
1977.000000	82.498626
1976.000000	82.541402
1975.000000	82.583280
1974.000000	82.621891
1973.000000	82.651073
1972.000000	82.670771
1971.000000	82.686227
1970.000000	82.698213
1969.000000	82.705690
1968.000000	82.717900
1967.000000	82.750203
1966.000000	82.804096
1965.000000	82.864090
1964.000000	82.916821
1963.000000	82.960188
1962.000000	82.993537
1961.000000	83.013431
1960.000000	83.021896
1959.000000	83.027811
1958.000000	83.037215
1957.000000	83.051246
1956.000000	83.074594
1955.000000	83.113854
1954.000000	83.165024
1953.000000	83.214128
1952.000000	83.251006
1951.000000	83.274808
1950.000000	83.285129
1949.000000	83.280511
1948.000000	83.267788
1947.000000	83.261489
1946.000000	83.269414
1945.000000	83.287477
1944.000000	83.312683
1943.000000	83.351379
1942.000000	83.405373
1941.000000	83.458478
1940.000000	83.491604
1939.000000	83.501704
1938.000000	83.496777
1937.000000	83.486734
1936.000000	83.483441
1935.000000	83.498188
1934.000000	83.532679
1933.000000	83.577917
1932.000000	83.622170
1931.000000	83.657631
1930.000000	83.677662
1929.000000	83.677114
1928.000000	83.659461
1927.000000	83.634436
1926.000000	83.610427
1925.000000	83.590944
1924.000000	83.584434
1923.000000	83.605240
1922.000000	83.655586
1921.000000	83.713873
1920.000000	83.752437
1919.000000	83.759844
1918.000000	83.746160
1917.000000	83.727716
1916.000000	83.712405
1915.000000	83.704995
1914.000000	83.709874
1913.000000	83.723888
1912.000000	83.737631
1911.000000	83.745124
1910.000000	83.747396
1909.000000	83.746767
1908.000000	83.742421
1907.000000	83.732362
1906.000000	83.720113
1905.000000	83.712246
1904.000000	83.713996
1903.000000	83.726979
1902.000000	83.749135
1901.000000	83.773337
1900.000000	83.789950
1899.000000	83.791648
1898.000000	83.777663
1897.000000	83.753135
1896.000000	83.729190
1895.000000	83.719858
1894.000000	83.731682
1893.000000	83.756050
1892.000000	83.776669
1891.000000	83.785620
1890.000000	83.790997
1889.000000	83.804787
1888.000000	83.823166
1887.000000	83.834323
1886.000000	83.837914
1885.000000	83.842865
1884.000000	83.855429
1883.000000	83.874991
1882.000000	83.896794
1881.000000	83.915278
1880.000000	83.926739
1879.000000	83.930515
1878.000000	83.929098
1877.000000	83.927094
1876.000000	83.928129
1875.000000	83.933104
1874.000000	83.940653
1873.000000	83.948680
1872.000000	83.950748
1871.000000	83.932939
1870.000000	83.887931
1869.000000	83.838241
1868.000000	83.819425
1867.000000	83.836943
1866.000000	83.872327
1865.000000	83.909368
1864.000000	83.939386
1863.000000	83.958053
1862.000000	83.964234
1861.000000	83.960059
1860.000000	83.948626
1859.000000	83.932945
1858.000000	83.917301
1857.000000	83.907498
1856.000000	83.906408
1855.000000	83.912663
1854.000000	83.922644
1853.000000	83.929875
1852.000000	83.928626
1851.000000	83.912720
1850.000000	83.878620
1849.000000	83.833274
1848.000000	83.799255
1847.000000	83.796351
1846.000000	83.817302
1845.000000	83.836913
1844.000000	83.846139
1843.000000	83.847496
1842.000000	83.833985
1841.000000	83.802763
1840.000000	83.758810
1839.000000	83.709022
1838.000000	83.663398
1837.000000	83.630835
1836.000000	83.615652
1835.000000	83.616774
1834.000000	83.627036
1833.000000	83.629679
1832.000000	83.605901
1831.000000	83.548115
1830.000000	83.478553
1829.000000	83.427595
1828.000000	83.396800
1827.000000	83.373012
1826.000000	83.349394
1825.000000	83.334981
1824.000000	83.340308
1823.000000	83.354593
1822.000000	83.355194
1821.000000	83.332054
1820.000000	83.291875
1819.000000	83.242916
1818.000000	83.189505
1817.000000	83.141177
1816.000000	83.109999
1815.000000	83.091492
1814.000000	83.066121
1813.000000	83.024414
1812.000000	82.976317
1811.000000	82.933964
1810.000000	82.897549
1809.000000	82.864749
1808.000000	82.836963
1807.000000	82.811595
1806.000000	82.783415
1805.000000	82.752876
1804.000000	82.722569
1803.000000	82.687605
1802.000000	82.640030
1801.000000	82.588978
1800.000000	82.549012
1799.000000	82.515605
1798.000000	82.474938
1797.000000	82.432889
1796.000000	82.410023
1795.000000	82.409924
1794.000000	82.404839
1793.000000	82.373974
1792.000000	82.340084
1791.000000	82.324355
1790.000000	82.308928
1789.000000	82.281176
1788.000000	82.247657
1787.000000	82.213573
1786.000000	82.178237
1785.000000	82.144832
1784.000000	82.114750
1783.000000	82.079341
1782.000000	82.026806
1781.000000	81.966782
1780.000000	81.923310
1779.000000	81.901734
1778.000000	81.879435
1777.000000	81.844664
1776.000000	81.818737
1775.000000	81.818226
1774.000000	81.809658
1773.000000	81.748253
1772.000000	81.667049
1771.000000	81.618611
1770.000000	81.588870
1769.000000	81.550831
1768.000000	81.511124
1767.000000	81.484492
1766.000000	81.462736
1765.000000	81.434659
1764.000000	81.399327
1763.000000	81.356777
1762.000000	81.302398
1761.000000	81.236986
1760.000000	81.169040
1759.000000	81.112791
1758.000000	81.067987
1757.000000	81.026828
1756.000000	80.997636
1755.000000	80.985523
1754.000000	80.965534
1753.000000	80.896426
1752.000000	80.765358
1751.000000	80.612950
1750.000000	80.485855
1749.000000	80.392641
1748.000000	80.341836
1747.000000	80.336673
1746.000000	80.341377
1745.000000	80.314986
1744.000000	80.266991
1743.000000	80.235197
1742.000000	80.214891
1741.000000	80.160389
1740.000000	80.061792
1739.000000	79.971445
1738.000000	79.932451
1737.000000	79.942460
1736.000000	79.951757
1735.000000	79.885923
1734.000000	79.747973
1733.000000	79.582367
1732.000000	79.389092
1731.000000	79.202167
1730.000000	79.058262
1729.000000	78.951123
1728.000000	78.862055
1727.000000	78.781785
1726.000000	78.692390
1725.000000	78.573367
1724.000000	78.427625
1723.000000	78.282642
1722.000000	78.156477
1721.000000	78.045048
1720.000000	77.920673
1719.000000	77.737086
1718.000000	77.493692
1717.000000	77.270691
1716.000000	77.104407
1715.000000	76.960609
1714.000000	76.814562
1713.000000	76.653148
1712.000000	76.470058
1711.000000	76.271067
1710.000000	76.065294
1709.000000	75.858526
1708.000000	75.651852
1707.000000	75.434190
1706.000000	75.206123
1705.000000	75.014072
1704.000000	74.909575
1703.000000	74.890999
1702.000000	74.859368
1701.000000	74.665909
1700.000000	74.327311
1699.000000	73.988303
1698.000000	73.709116
1697.000000	73.485602
1696.000000	73.289823
1695.000000	73.079424
1694.000000	72.814242
1693.000000	72.512046
1692.000000	72.205310
1691.000000	71.895373
1690.000000	71.583917
1689.000000	71.306893
1688.000000	71.111688
1687.000000	70.990683
1686.000000	70.833272
1685.000000	70.502805
1684.000000	70.083230
1683.000000	69.747404
1682.000000	69.451736
1681.000000	69.143518
1680.000000	68.848828
1679.000000	68.612910
1678.000000	68.436148
1677.000000	68.247927
1676.000000	67.975703
1675.000000	67.640204
1674.000000	67.303446
1673.000000	66.977590
1672.000000	66.657385
1671.000000	66.339872
1670.000000	66.026487
1669.000000	65.726134
1668.000000	65.440558
1667.000000	65.177685
1666.000000	64.936719
1665.000000	64.680683
1664.000000	64.367637
1663.000000	64.017392
1662.000000	63.687268
1661.000000	63.384854
1660.000000	63.089917
1659.000000	62.811800
1658.000000	62.572974
1657.000000	62.393727
1656.000000	62.279668
1655.000000	62.161874
1654.000000	61.893401
1653.000000	61.496240
1652.000000	61.093393
1651.000000	60.678173
1650.000000	60.306070
1649.000000	59.986462
1648.000000	59.676864
1647.000000	59.393517
1646.000000	59.178479
1645.000000	58.964410
1644.000000	58.697314
1643.000000	58.412674
1642.000000	58.144134
1641.000000	57.888879
1640.000000	57.651235
1639.000000	57.456429
1638.000000	57.299946
1637.000000	57.123745
1636.000000	56.907631
1635.000000	56.707606
1634.000000	56.516672
1633.000000	56.298418
1632.000000	56.073924
1631.000000	55.874803
1630.000000	55.704356
1629.000000	55.545454
1628.000000	55.399162
1627.000000	55.286600
1626.000000	55.200779
1625.000000	55.096241
1624.000000	54.945471
1623.000000	54.787218
1622.000000	54.671036
1621.000000	54.594423
1620.000000	54.551076
1619.000000	54.547982
1618.000000	54.566886
1617.000000	54.569780
1616.000000	54.542618
1615.000000	54.495497
1614.000000	54.445508
1613.000000	54.398286
1612.000000	54.351189
1611.000000	54.318214
1610.000000	54.321344
1609.000000	54.358337
1608.000000	54.415051
1607.000000	54.491947
1606.000000	54.584424
1605.000000	54.665506
1604.000000	54.718610
1603.000000	54.762807
1602.000000	54.821371
1601.000000	54.889723
1600.000000	54.958362
1599.000000	55.037579
1598.000000	55.135668
1597.000000	55.238027
1596.000000	55.329916
1595.000000	55.419589
1594.000000	55.516549
1593.000000	55.607798
1592.000000	55.680160
1591.000000	55.746798
1590.000000	55.827698
1589.000000	55.920475
1588.000000	56.012779
1587.000000	56.107961
1586.000000	56.213076
1585.000000	56.314844
1584.000000	56.398581
1583.000000	56.474310
1582.000000	56.556429
1581.000000	56.639114
1580.000000	56.720574
1579.000000	56.820373
1578.000000	56.941177
1577.000000	57.047219
1576.000000	57.115867
1575.000000	57.156415
1574.000000	57.174800
1573.000000	57.189718
1572.000000	57.216116
1571.000000	57.250266
1570.000000	57.297992
1569.000000	57.363614
1568.000000	57.419876
1567.000000	57.456623
1566.000000	57.492007
1565.000000	57.534414
1564.000000	57.598761
1563.000000	57.721941
1562.000000	57.918800
1561.000000	58.109269
1560.000000	58.152217
1559.000000	58.160917
1558.000000	58.346459
1557.000000	58.484231
1556.000000	58.500955
1555.000000	58.510019
1554.000000	58.559436
1553.000000	58.621550
1552.000000	58.683128
1551.000000	58.777535
1550.000000	58.939799
1549.000000	59.153973
1548.000000	59.369470
1547.000000	59.558917
1546.000000	59.725107
1545.000000	59.881504
1544.000000	60.051742
1543.000000	60.250473
1542.000000	60.467761
1541.000000	60.710593
1540.000000	61.046711
1539.000000	61.446834
1538.000000	61.734612
1537.000000	61.888479
1536.000000	62.008208
1535.000000	62.149206
1534.000000	62.327472
1533.000000	62.558626
1532.000000	62.815663
1531.000000	63.059893
1530.000000	63.304984
1529.000000	63.580471
1528.000000	63.896822
1527.000000	64.248367
1526.000000	64.610016
1525.000000	64.943972
1524.000000	65.234108
1523.000000	65.498895
1522.000000	65.778889
1521.000000	66.099821
1520.000000	66.402577
1519.000000	66.642545
1518.000000	66.874046
1517.000000	67.165347
1516.000000	67.517546
1515.000000	67.858226
1514.000000	68.128973
1513.000000	68.324996
1512.000000	68.465388
1511.000000	68.579329
1510.000000	68.695791
1509.000000	68.832476
1508.000000	69.030129
1507.000000	69.423189
1506.000000	70.020799
1505.000000	70.490754
1504.000000	70.718163
1503.000000	70.871558
1502.000000	71.068719
1501.000000	71.320741
1500.000000	71.612725
1499.000000	71.947206
1498.000000	72.327495
1497.000000	72.750324
1496.000000	73.191201
1495.000000	73.588852
1494.000000	73.898814
1493.000000	74.131273
1492.000000	74.312865
1491.000000	74.468810
1490.000000	74.634896
1489.000000	74.840392
1488.000000	75.077050
1487.000000	75.324395
1486.000000	75.565525
1485.000000	75.776554
1484.000000	75.946518
1483.000000	76.084172
1482.000000	76.185501
1481.000000	76.230758
1480.000000	76.213357
1479.000000	76.136751
1478.000000	75.986881
1477.000000	75.758871
1476.000000	75.497176
1475.000000	75.231476
1474.000000	74.885068
1473.000000	74.348397
1472.000000	73.639073
1471.000000	72.828828
1470.000000	71.911534
1469.000000	70.861155
1468.000000	69.674100
1467.000000	68.313104
1466.000000	66.664026
1465.000000	64.673614
1464.000000	62.510830
1463.000000	60.390066
1462.000000	58.344273
1461.000000	56.315724
1460.000000	54.283730
1459.000000	52.181323
1458.000000	49.838101
1457.000000	47.322091
1456.000000	45.154658
1455.000000	43.643866
1454.000000	42.623199
1453.000000	41.894734
1452.000000	41.433352
1451.000000	41.270214
1450.000000	41.378949
1449.000000	41.728926
1448.000000	42.330822
1447.000000	43.143269
1446.000000	44.047386
1445.000000	44.974361
1444.000000	45.947436
1443.000000	46.984584
1442.000000	48.041872
1441.000000	49.072823
1440.000000	50.085733
1439.000000	51.125085
1438.000000	52.235340
1437.000000	53.431309
1436.000000	54.627033
1435.000000	55.663771
1434.000000	56.513435
1433.000000	57.287123
1432.000000	58.071242
1431.000000	58.863824
1430.000000	59.622968
1429.000000	60.317894
1428.000000	60.920580
1427.000000	61.404437
1426.000000	61.769835
1425.000000	62.041091
1424.000000	62.256431
1423.000000	62.449345
1422.000000	62.633632
1421.000000	62.804343
1420.000000	62.953110
1419.000000	63.104268
1418.000000	63.288555
1417.000000	63.506537
1416.000000	63.759449
1415.000000	64.040028
1414.000000	64.320773
1413.000000	64.582243
1412.000000	64.831221
1411.000000	65.082389
1410.000000	65.339707
1409.000000	65.603749
1408.000000	65.876121
1407.000000	66.155797
1406.000000	66.445228
1405.000000	66.749278
1404.000000	67.054346
1403.000000	67.322857
1402.000000	67.528680
1401.000000	67.673705
1400.000000	67.772434
1399.000000	67.848413
1398.000000	67.927368
1397.000000	68.025087
1396.000000	68.144585
1395.000000	68.277803
1394.000000	68.392773
1393.000000	68.434281
1392.000000	68.363167
1391.000000	68.161055
1390.000000	67.782722
1389.000000	67.114445
1388.000000	66.031007
1387.000000	64.595113
1386.000000	63.179863
1385.000000	62.279227
1384.000000	62.222511
1383.000000	63.026200
1382.000000	64.378888
1381.000000	65.809270
1380.000000	66.957192
1379.000000	67.703239
1378.000000	68.110775
1377.000000	68.305686
1376.000000	68.401075
1375.000000	68.490062
1374.000000	68.638573
1373.000000	68.849194
1372.000000	69.068482
1371.000000	69.250875
1370.000000	69.382821
1369.000000	69.456133
1368.000000	69.458524
1367.000000	69.385853
1366.000000	69.247928
1365.000000	69.060415
1364.000000	68.842440
1363.000000	68.630412
1362.000000	68.464705
1361.000000	68.343903
1360.000000	68.227412
1359.000000	68.082375
1358.000000	67.907736
1357.000000	67.723422
1356.000000	67.556740
1355.000000	67.441042
1354.000000	67.408512
1353.000000	67.471091
1352.000000	67.608277
1351.000000	67.779016
1350.000000	67.937618
1349.000000	68.030522
1348.000000	67.998638
1347.000000	67.797631
1346.000000	67.412487
1345.000000	66.852302
1344.000000	66.141683
1343.000000	65.309544
1342.000000	64.377704
1341.000000	63.354114
1340.000000	62.243760
1339.000000	61.059702
1338.000000	59.798128
1337.000000	58.424739
1336.000000	56.904513
1335.000000	55.234951
1334.000000	53.446687
1333.000000	51.580761
1332.000000	49.686149
1331.000000	47.826043
1330.000000	46.057948
1329.000000	44.409074
1328.000000	42.885401
1327.000000	41.488289
1326.000000	40.206041
1325.000000	39.010661
1324.000000	37.882534
1323.000000	36.827721
1322.000000	35.856241
1321.000000	34.967903
1320.000000	34.181586
1319.000000	33.548839
1318.000000	33.123984
1317.000000	32.934602
1316.000000	32.987734
1315.000000	33.284839
1314.000000	33.803531
1313.000000	34.494334
1312.000000	35.307855
1311.000000	36.207887
1310.000000	37.165042
1309.000000	38.150512
1308.000000	39.145595
1307.000000	40.140063
1306.000000	41.115580
1305.000000	42.045292
1304.000000	42.912459
1303.000000	43.716365
1302.000000	44.460809
1301.000000	45.151387
1300.000000	45.803021
1299.000000	46.437737
1298.000000	47.069862
1297.000000	47.701844
1296.000000	48.336515
1295.000000	48.982069
1294.000000	49.643399
1293.000000	50.318075
1292.000000	51.002506
1291.000000	51.694733
1290.000000	52.391405
1289.000000	53.090017
1288.000000	53.795395
1287.000000	54.518350
1286.000000	55.265869
1285.000000	56.036988
1284.000000	56.825746
1283.000000	57.620727
1282.000000	58.401076
1281.000000	59.139303
1280.000000	59.810042
1279.000000	60.398262
1278.000000	60.903524
1277.000000	61.339140
1276.000000	61.730930
1275.000000	62.112902
1274.000000	62.518758
1273.000000	62.972950
1272.000000	63.484762
1271.000000	64.048013
1270.000000	64.643683
1269.000000	65.244936
1268.000000	65.825873
1267.000000	66.373649
1266.000000	66.894791
1265.000000	67.408838
1264.000000	67.935121
1263.000000	68.484692
1262.000000	69.058582
1261.000000	69.645261
1260.000000	70.217810
1259.000000	70.740584
1258.000000	71.186087
1257.000000	71.543892
1256.000000	71.819668
1255.000000	72.034189
1254.000000	72.220074
1253.000000	72.410530
1252.000000	72.623126
1251.000000	72.856016
1250.000000	73.094495
1249.000000	73.313764
1248.000000	73.483077
1247.000000	73.576857
1246.000000	73.587679
1245.000000	73.527423
1244.000000	73.416690
1243.000000	73.279138
1242.000000	73.137238
1241.000000	73.003597
1240.000000	72.875261
1239.000000	72.737566
1238.000000	72.575302
1237.000000	72.376730
1236.000000	72.134194
1235.000000	71.850263
1234.000000	71.541844
1233.000000	71.233807
1232.000000	70.949021
1231.000000	70.705849
1230.000000	70.517898
1229.000000	70.390899
1228.000000	70.319815
1227.000000	70.293648
1226.000000	70.303205
1225.000000	70.340507
1224.000000	70.397335
1223.000000	70.466789
1222.000000	70.547017
1221.000000	70.641694
1220.000000	70.756231
1219.000000	70.898773
1218.000000	71.079825
1217.000000	71.305427
1216.000000	71.570364
1215.000000	71.858614
1214.000000	72.151041
1213.000000	72.429579
1212.000000	72.678008
1211.000000	72.886929
1210.000000	73.060815
1209.000000	73.217073
1208.000000	73.377760
1207.000000	73.563630
1206.000000	73.790640
1205.000000	74.062890
1204.000000	74.366211
1203.000000	74.672511
1202.000000	74.952605
1201.000000	75.184987
1200.000000	75.359552
1199.000000	75.483370
1198.000000	75.584521
1197.000000	75.702625
1196.000000	75.870652
1195.000000	76.103943
1194.000000	76.399048
1193.000000	76.732922
1192.000000	77.064643
1191.000000	77.349161
1190.000000	77.558272
1189.000000	77.690302
1188.000000	77.766049
1187.000000	77.824070
1186.000000	77.914480
1185.000000	78.080864
1184.000000	78.336655
1183.000000	78.655388
1182.000000	78.982654
1181.000000	79.258059
1180.000000	79.438306
1179.000000	79.515479
1178.000000	79.518237
1177.000000	79.492941
1176.000000	79.483487
1175.000000	79.526108
1174.000000	79.647256
1173.000000	79.850174
1172.000000	80.104647
1171.000000	80.358427
1170.000000	80.562158
1169.000000	80.684535
1168.000000	80.715788
1167.000000	80.672875
1166.000000	80.600595
1165.000000	80.554234
1164.000000	80.574515
1163.000000	80.675861
1162.000000	80.848819
1161.000000	81.061853
1160.000000	81.265707
1159.000000	81.412583
1158.000000	81.480091
1157.000000	81.476295
1156.000000	81.428497
1155.000000	81.375030
1154.000000	81.358796
1153.000000	81.409715
1152.000000	81.528283
1151.000000	81.690061
1150.000000	81.863924
1149.000000	82.020925
1148.000000	82.134227
1147.000000	82.187728
1146.000000	82.188809
1145.000000	82.164073
1144.000000	82.141949
1143.000000	82.144308
1142.000000	82.187634
1141.000000	82.277864
1140.000000	82.402390
1139.000000	82.536482
1138.000000	82.658560
1137.000000	82.754643
1136.000000	82.813913
1135.000000	82.832371
1134.000000	82.820563
1133.000000	82.797512
1132.000000	82.777389
1131.000000	82.768963
1130.000000	82.782098
1129.000000	82.823186
1128.000000	82.884490
1127.000000	82.947149
1126.000000	82.994215
1125.000000	83.012318
1124.000000	82.986711
1123.000000	82.907271
1122.000000	82.780330
1121.000000	82.626708
1120.000000	82.467345
1119.000000	82.318479
1118.000000	82.193254
1117.000000	82.093810
1116.000000	82.002436
1115.000000	81.886778
1114.000000	81.716216
1113.000000	81.469005
1112.000000	81.130797
1111.000000	80.703916
1110.000000	80.214017
1109.000000	79.699392
1108.000000	79.191162
1107.000000	78.701498
1106.000000	78.224936
1105.000000	77.734447
1104.000000	77.182689
1103.000000	76.520313
1102.000000	75.714846
1101.000000	74.760039
1100.000000	73.672067
1099.000000	72.482077
1098.000000	71.231244
1097.000000	69.948286
1096.000000	68.638102
1095.000000	67.281267
1094.000000	65.841846
1093.000000	64.281330
1092.000000	62.569776
1091.000000	60.703377
1090.000000	58.707821
1089.000000	56.630462
1088.000000	54.533065
1087.000000	52.478901
1086.000000	50.514969
1085.000000	48.662700
1084.000000	46.928160
1083.000000	45.307206
1082.000000	43.787041
1081.000000	42.352075
1080.000000	41.000870
1079.000000	39.751475
1078.000000	38.616460
1077.000000	37.598378
1076.000000	36.698067
1075.000000	35.913120
1074.000000	35.227450
1073.000000	34.610048
1072.000000	34.037871
1071.000000	33.500956
1070.000000	32.989464
1069.000000	32.498447
1068.000000	32.039804
1067.000000	31.638460
1066.000000	31.310020
1065.000000	31.055278
1064.000000	30.878243
1063.000000	30.783223
1062.000000	30.760816
1061.000000	30.792661
1060.000000	30.869984
1059.000000	30.997030
1058.000000	31.172170
1057.000000	31.388942
1056.000000	31.651872
1055.000000	31.971137
1054.000000	32.346423
1053.000000	32.766707
1052.000000	33.227783
1051.000000	33.733642
1050.000000	34.279142
1049.000000	34.853384
1048.000000	35.453734
1047.000000	36.083924
1046.000000	36.740963
1045.000000	37.416784
1044.000000	38.112463
1043.000000	38.834654
1042.000000	39.582566
1041.000000	40.351460
1040.000000	41.143269
1039.000000	41.964108
1038.000000	42.811230
1037.000000	43.673287
1036.000000	44.540958
1035.000000	45.406513
1034.000000	46.258356
1033.000000	47.086464
1032.000000	47.893053
1031.000000	48.690828
1030.000000	49.492842
1029.000000	50.309118
1028.000000	51.147217
1027.000000	52.006657
1026.000000	52.871874
1025.000000	53.718287
1024.000000	54.524107
1023.000000	55.276676
1022.000000	55.974378
1021.000000	56.628075
1020.000000	57.261378
1019.000000	57.902451
1018.000000	58.571490
1017.000000	59.273474
1016.000000	59.995847
1015.000000	60.712113
1014.000000	61.390406
1013.000000	62.005445
1012.000000	62.548434
1011.000000	63.029108
1010.000000	63.473385
1009.000000	63.915642
1008.000000	64.386357
1007.000000	64.901583
1006.000000	65.457593
1005.000000	66.032591
1004.000000	66.593416
1003.000000	67.106645
1002.000000	67.552235
1001.000000	67.930087
1000.000000	68.258236
999.000000	68.566868
998.000000	68.889711
997.000000	69.253027
996.000000	69.664741
995.000000	70.112173
994.000000	70.569236
993.000000	71.005031
992.000000	71.392155
991.000000	71.716268
990.000000	71.983834
989.000000	72.218728
988.000000	72.449212
987.000000	72.699456
986.000000	72.985787
985.000000	73.311530
984.000000	73.663290
983.000000	74.017040
982.000000	74.351093
981.000000	74.652096
980.000000	74.913134
979.000000	75.135350
978.000000	75.331384
977.000000	75.520755
976.000000	75.718892
975.000000	75.933353
974.000000	76.168303
973.000000	76.423575
972.000000	76.689835
971.000000	76.951543
970.000000	77.196648
969.000000	77.419284
968.000000	77.614422
967.000000	77.778987
966.000000	77.918904
965.000000	78.048093
964.000000	78.180408
963.000000	78.327078
962.000000	78.499077
961.000000	78.702213
960.000000	78.927899
959.000000	79.155943
958.000000	79.366014
957.000000	79.542533
956.000000	79.673168
955.000000	79.754522
954.000000	79.802242
953.000000	79.846730
952.000000	79.916762
951.000000	80.030053
950.000000	80.193496
949.000000	80.399714
948.000000	80.621299
947.000000	80.818788
946.000000	80.961143
945.000000	81.036561
944.000000	81.050865
943.000000	81.027271
942.000000	81.006265
941.000000	81.031013
940.000000	81.125204
939.000000	81.285413
938.000000	81.488570
937.000000	81.698402
936.000000	81.870106
935.000000	81.965555
934.000000	81.974120
933.000000	81.916865
932.000000	81.832054
931.000000	81.762494
930.000000	81.748198
929.000000	81.812311
928.000000	81.945779
927.000000	82.110181
926.000000	82.258564
925.000000	82.350751
924.000000	82.359697
923.000000	82.280916
922.000000	82.140627
921.000000	81.985750
920.000000	81.861301
919.000000	81.796547
918.000000	81.802172
917.000000	81.864656
916.000000	81.944172
915.000000	81.989822
914.000000	81.965229
913.000000	81.859210
912.000000	81.678479
911.000000	81.444759
910.000000	81.195908
909.000000	80.973701
908.000000	80.802793
907.000000	80.682464
906.000000	80.594917
905.000000	80.511082
904.000000	80.392846
903.000000	80.206186
902.000000	79.938318
901.000000	79.600294
900.000000	79.215173
899.000000	78.809449
898.000000	78.412229
897.000000	78.045569
896.000000	77.712429
895.000000	77.396598
894.000000	77.073052
893.000000	76.714981
892.000000	76.294679
891.000000	75.792733
890.000000	75.210290
889.000000	74.566066
888.000000	73.884134
887.000000	73.186327
886.000000	72.491673
885.000000	71.810841
884.000000	71.136696
883.000000	70.447464
882.000000	69.717198
881.000000	68.923281
880.000000	68.049804
879.000000	67.091997
878.000000	66.062647
877.000000	64.988108
876.000000	63.897435
875.000000	62.814069
874.000000	61.749826
873.000000	60.702342
872.000000	59.655564
871.000000	58.586366
870.000000	57.474425
869.000000	56.308498
868.000000	55.090396
867.000000	53.835412
866.000000	52.568419
865.000000	51.316833
864.000000	50.102794
863.000000	48.936315
862.000000	47.811878
861.000000	46.713946
860.000000	45.626590
859.000000	44.541115
858.000000	43.459912
857.000000	42.401676
856.000000	41.406382
855.000000	40.523264
854.000000	39.796716
853.000000	39.254685
852.000000	38.901123
851.000000	38.712132
850.000000	38.634979
849.000000	38.609361
848.000000	38.587722
847.000000	38.541564
846.000000	38.461912
845.000000	38.358596
844.000000	38.258018
843.000000	38.189362
842.000000	38.172298
841.000000	38.219265
840.000000	38.338120
839.000000	38.526331
838.000000	38.767078
837.000000	39.038399
836.000000	39.325640
835.000000	39.619330
834.000000	39.910388
833.000000	40.194091
832.000000	40.476734
831.000000	40.777581
830.000000	41.125322
829.000000	41.552694
828.000000	42.083849
827.000000	42.718189
826.000000	43.431954
825.000000	44.193883
824.000000	44.976890
823.000000	45.759210
822.000000	46.526647
821.000000	47.279454
820.000000	48.026540
819.000000	48.772576
818.000000	49.514950
817.000000	50.250730
816.000000	50.975953
815.000000	51.679394
814.000000	52.345628
813.000000	52.964696
812.000000	53.535599
811.000000	54.062719
810.000000	54.557570
809.000000	55.041089
808.000000	55.535772
807.000000	56.055542
806.000000	56.604164
805.000000	57.177499
804.000000	57.760485
803.000000	58.327173
802.000000	58.853901
801.000000	59.331607
800.000000	59.764669
799.000000	60.166060
798.000000	60.558877
797.000000	60.973120
796.000000	61.429472
795.000000	61.926958
794.000000	62.448716
793.000000	62.971561
792.000000	63.467302
791.000000	63.907300
790.000000	64.278740
789.000000	64.593910
788.000000	64.880094
787.000000	65.166702
786.000000	65.481704
785.000000	65.845014
784.000000	66.254822
783.000000	66.685040
782.000000	67.102159
781.000000	67.480120
780.000000	67.800664
779.000000	68.055658
778.000000	68.258432
777.000000	68.443706
776.000000	68.647439
775.000000	68.890123
774.000000	69.178827
773.000000	69.510698
772.000000	69.867261
771.000000	70.216601
770.000000	70.531010
769.000000	70.798535
768.000000	71.017251
767.000000	71.191873
766.000000	71.340737
765.000000	71.492078
764.000000	71.665442
763.000000	71.863933
762.000000	72.086494
761.000000	72.332889
760.000000	72.590585
759.000000	72.831806
758.000000	73.033458
757.000000	73.191163
756.000000	73.310465
755.000000	73.398642
754.000000	73.472260
753.000000	73.557829
752.000000	73.674639
751.000000	73.824822
750.000000	74.002918
749.000000	74.200811
748.000000	74.396644
747.000000	74.554437
746.000000	74.646538
745.000000	74.668969
744.000000	74.633092
743.000000	74.558014
742.000000	74.477430
741.000000	74.435835
740.000000	74.463534
739.000000	74.560971
738.000000	74.708827
737.000000	74.877264
736.000000	75.022006
735.000000	75.095252
734.000000	75.079308
733.000000	75.001014
732.000000	74.908303
731.000000	74.845080
730.000000	74.850268
729.000000	74.953628
728.000000	75.155688
727.000000	75.420611
726.000000	75.695106
725.000000	75.929178
724.000000	76.082701
723.000000	76.137606
722.000000	76.117305
721.000000	76.080956
720.000000	76.087216
719.000000	76.170127
718.000000	76.346553
717.000000	76.618154
716.000000	76.949773
715.000000	77.267017
714.000000	77.497597
713.000000	77.609773
712.000000	77.612496
711.000000	77.543756
710.000000	77.470682
709.000000	77.472518
708.000000	77.597519
707.000000	77.840253
706.000000	78.159211
705.000000	78.499436
704.000000	78.794941
703.000000	78.980103
702.000000	79.029876
701.000000	78.980320
700.000000	78.896148
699.000000	78.837087
698.000000	78.852483
697.000000	78.976611
696.000000	79.203931
695.000000	79.480745
694.000000	79.745683
693.000000	79.961596
692.000000	80.100069
691.000000	80.137913
690.000000	80.087959
689.000000	80.011015
688.000000	79.971104
687.000000	79.990849
686.000000	80.073772
685.000000	80.229186
684.000000	80.441950
683.000000	80.656984
682.000000	80.827386
681.000000	80.946926
680.000000	81.014268
679.000000	81.010959
678.000000	80.946664
677.000000	80.871754
676.000000	80.825207
675.000000	80.826493
674.000000	80.898138
673.000000	81.063873
672.000000	81.320238
671.000000	81.638368
670.000000	81.987292
669.000000	82.300283
668.000000	82.398089
667.000000	82.189462
666.000000	81.868379
665.000000	81.592027
664.000000	81.420254
663.000000	81.394165
662.000000	81.527284
661.000000	81.781538
660.000000	82.079956
659.000000	82.338046
658.000000	82.485307
657.000000	82.478212
656.000000	82.319123
655.000000	82.082502
654.000000	81.871679
653.000000	81.761866
652.000000	81.802038
651.000000	82.015395
650.000000	82.360855
649.000000	82.722504
648.000000	82.974285
647.000000	83.044100
646.000000	82.920846
645.000000	82.645985
644.000000	82.313318
643.000000	82.049366
642.000000	81.960030
641.000000	82.078921
640.000000	82.368067
639.000000	82.742997
638.000000	83.084313
637.000000	83.266943
636.000000	83.220002
635.000000	82.963792
634.000000	82.592196
633.000000	82.225899
632.000000	81.976391
631.000000	81.923889
630.000000	82.085903
629.000000	82.399341
628.000000	82.747869
627.000000	83.011643
626.000000	83.102343
625.000000	82.991292
624.000000	82.721195
623.000000	82.392007
622.000000	82.120872
621.000000	81.995485
620.000000	82.050191
619.000000	82.262637
618.000000	82.558538
617.000000	82.833343
616.000000	82.993126
615.000000	82.990532
614.000000	82.834148
613.000000	82.578261
612.000000	82.305116
611.000000	82.099769
610.000000	82.020668
609.000000	82.079318
608.000000	82.243122
607.000000	82.453927
606.000000	82.643018
605.000000	82.750605
604.000000	82.742993
603.000000	82.620224
602.000000	82.413879
601.000000	82.174587
600.000000	81.953557
599.000000	81.789846
598.000000	81.701484
597.000000	81.685807
596.000000	81.728325
595.000000	81.808270
594.000000	81.898656
593.000000	81.967243
592.000000	81.986909
591.000000	81.946294
590.000000	81.853655
589.000000	81.735174
588.000000	81.635237
587.000000	81.612485
586.000000	81.715111
585.000000	81.949376
584.000000	82.267501
583.000000	82.587470
582.000000	82.822107
581.000000	82.905434
580.000000	82.812255
579.000000	82.571528
578.000000	82.263353
577.000000	81.999252
576.000000	81.892479
575.000000	82.010664
574.000000	82.330694
573.000000	82.745369
572.000000	83.115031
571.000000	83.315460
570.000000	83.275911
569.000000	83.004379
568.000000	82.589709
567.000000	82.174266
566.000000	81.900762
565.000000	81.858916
564.000000	82.061527
563.000000	82.444727
562.000000	82.873335
561.000000	83.180178
560.000000	83.236585
559.000000	83.007215
558.000000	82.558511
557.000000	82.027894
556.000000	81.576740
555.000000	81.342914
554.000000	81.388908
553.000000	81.672553
552.000000	82.069435
551.000000	82.422464
550.000000	82.591424
549.000000	82.499117
548.000000	82.163441
547.000000	81.697351
546.000000	81.267350
545.000000	81.019716
544.000000	81.028311
543.000000	81.283850
542.000000	81.700725
541.000000	82.141213
540.000000	82.465042
539.000000	82.582732
538.000000	82.483309
537.000000	82.229936
536.000000	81.932970
535.000000	81.715516
534.000000	81.666941
533.000000	81.814879
532.000000	82.120652
531.000000	82.499086
530.000000	82.848595
529.000000	83.084050
528.000000	83.159319
527.000000	83.083702
526.000000	82.923122
525.000000	82.764006
524.000000	82.669149
523.000000	82.661164
522.000000	82.737008
521.000000	82.880267
520.000000	83.062354
519.000000	83.245476
518.000000	83.391181
517.000000	83.466419
516.000000	83.444641
515.000000	83.312422
514.000000	83.081766
513.000000	82.795123
512.000000	82.508878
511.000000	82.274308
510.000000	82.125022
509.000000	82.071716
508.000000	82.085984
507.000000	82.105054
506.000000	82.054039
505.000000	81.869337
504.000000	81.516386
503.000000	81.013036
502.000000	80.454801
501.000000	79.983680
500.000000	79.707124
499.000000	79.667641
498.000000	79.860528
497.000000	80.230167
496.000000	80.660344
495.000000	81.006772
494.000000	81.164705
493.000000	81.117282
492.000000	80.932592
491.000000	80.744074
490.000000	80.706715
489.000000	80.935643
488.000000	81.448019
487.000000	82.157584
486.000000	82.912496
485.000000	83.534342
484.000000	83.861144
483.000000	83.815733
482.000000	83.464019
481.000000	82.985060
480.000000	82.581852
479.000000	82.417108
478.000000	82.571924
477.000000	83.012930
476.000000	83.591005
475.000000	84.100261
474.000000	84.362207
473.000000	84.296834
472.000000	83.961207
471.000000	83.528660
470.000000	83.194174
469.000000	83.100789
468.000000	83.321256
467.000000	83.837594
466.000000	84.510960
465.000000	85.141742
464.000000	85.553618
463.000000	85.639816
462.000000	85.411294
461.000000	84.998746
460.000000	84.578397
459.000000	84.303660
458.000000	84.291154
457.000000	84.578326
456.000000	85.053267
455.000000	85.527751
454.000000	85.864305
453.000000	86.000643
452.000000	85.938250
451.000000	85.734911
450.000000	85.474347
449.000000	85.250490
448.000000	85.154045
447.000000	85.237951
446.000000	85.476444
445.000000	85.796298
444.000000	86.119825
443.000000	86.378819
442.000000	86.534068
441.000000	86.589195
440.000000	86.571057
439.000000	86.494624
438.000000	86.372547
437.000000	86.251927
436.000000	86.211123
435.000000	86.305089
434.000000	86.537671
433.000000	86.884199
432.000000	87.286824
431.000000	87.630610
430.000000	87.801575
429.000000	87.754546
428.000000	87.499720
427.000000	87.089258
426.000000	86.648577
425.000000	86.357575
424.000000	86.348410
423.000000	86.626773
422.000000	87.077899
421.000000	87.530285
420.000000	87.757158
419.000000	87.579316
418.000000	87.079189
417.000000	86.474972
416.000000	85.939069
415.000000	85.606302
414.000000	85.600128
413.000000	85.996632
412.000000	86.729927
411.000000	87.561493
410.000000	88.200666
409.000000	88.434798
408.000000	88.180113
407.000000	87.509110
406.000000	86.696406
405.000000	86.116245
404.000000	86.019953
403.000000	86.440635
402.000000	87.256897
401.000000	88.271870
400.000000	89.165234
