PE IR       SUBTECH     SPECTRUM    ASCII       PEDS        4.00        
   -1
23MS147_NITRO.asc
24/09/06
15:30:58.00
24/09/06
15:30:58.00
Administrator
Sample 1120 By Administrator Date Friday, September 06 2024
400.000000
#HDR
-1
-1
#GR
cm-1
%T
1.0
0.0
4000.000000
-1.000000
3601
8
90.452514
15.592500
#DATA
4000.000000	69.013627
3999.000000	69.042337
3998.000000	69.072109
3997.000000	69.101991
3996.000000	69.130659
3995.000000	69.157465
3994.000000	69.182752
3993.000000	69.207379
3992.000000	69.232250
3991.000000	69.258322
3990.000000	69.286289
3989.000000	69.315793
3988.000000	69.345365
3987.000000	69.373700
3986.000000	69.400809
3985.000000	69.427467
3984.000000	69.454021
3983.000000	69.480323
3982.000000	69.506383
3981.000000	69.532471
3980.000000	69.558570
3979.000000	69.584105
3978.000000	69.608321
3977.000000	69.631068
3976.000000	69.652795
3975.000000	69.673831
3974.000000	69.694180
3973.000000	69.714273
3972.000000	69.735334
3971.000000	69.758650
3970.000000	69.784917
3969.000000	69.813700
3968.000000	69.843237
3967.000000	69.871053
3966.000000	69.895528
3965.000000	69.916796
3964.000000	69.936523
3963.000000	69.956668
3962.000000	69.978464
3961.000000	70.002187
3960.000000	70.027166
3959.000000	70.052029
3958.000000	70.076236
3957.000000	70.100328
3956.000000	70.124419
3955.000000	70.147047
3954.000000	70.166829
3953.000000	70.184089
3952.000000	70.200637
3951.000000	70.218735
3950.000000	70.239685
3949.000000	70.262543
3948.000000	70.284514
3947.000000	70.304129
3946.000000	70.322389
3945.000000	70.341141
3944.000000	70.362636
3943.000000	70.389792
3942.000000	70.423778
3941.000000	70.461020
3940.000000	70.495120
3939.000000	70.522553
3938.000000	70.545945
3937.000000	70.569699
3936.000000	70.593890
3935.000000	70.613679
3934.000000	70.626762
3933.000000	70.638294
3932.000000	70.655728
3931.000000	70.680271
3930.000000	70.706079
3929.000000	70.728773
3928.000000	70.750433
3927.000000	70.775007
3926.000000	70.802694
3925.000000	70.832088
3924.000000	70.863193
3923.000000	70.892688
3922.000000	70.913345
3921.000000	70.923980
3920.000000	70.934138
3919.000000	70.953442
3918.000000	70.981013
3917.000000	71.010284
3916.000000	71.039835
3915.000000	71.071813
3914.000000	71.104674
3913.000000	71.135116
3912.000000	71.164839
3911.000000	71.195784
3910.000000	71.226029
3909.000000	71.250751
3908.000000	71.269415
3907.000000	71.283348
3906.000000	71.291824
3905.000000	71.291898
3904.000000	71.285699
3903.000000	71.281179
3902.000000	71.283293
3901.000000	71.291190
3900.000000	71.305513
3899.000000	71.332320
3898.000000	71.372805
3897.000000	71.416895
3896.000000	71.454383
3895.000000	71.487355
3894.000000	71.525191
3893.000000	71.567773
3892.000000	71.603560
3891.000000	71.624670
3890.000000	71.641769
3889.000000	71.663690
3888.000000	71.682493
3887.000000	71.687571
3886.000000	71.684855
3885.000000	71.693709
3884.000000	71.721886
3883.000000	71.750483
3882.000000	71.765016
3881.000000	71.776857
3880.000000	71.802379
3879.000000	71.841678
3878.000000	71.879866
3877.000000	71.901726
3876.000000	71.908351
3875.000000	71.916064
3874.000000	71.943735
3873.000000	71.993170
3872.000000	72.037368
3871.000000	72.046219
3870.000000	72.027166
3869.000000	72.020763
3868.000000	72.045709
3867.000000	72.071866
3866.000000	72.074192
3865.000000	72.074944
3864.000000	72.108797
3863.000000	72.169955
3862.000000	72.222195
3861.000000	72.247482
3860.000000	72.262217
3859.000000	72.290175
3858.000000	72.346920
3857.000000	72.429026
3856.000000	72.509765
3855.000000	72.543263
3854.000000	72.506856
3853.000000	72.445558
3852.000000	72.419956
3851.000000	72.425395
3850.000000	72.432620
3849.000000	72.445981
3848.000000	72.483666
3847.000000	72.544940
3846.000000	72.611182
3845.000000	72.664976
3844.000000	72.700073
3843.000000	72.720156
3842.000000	72.736692
3841.000000	72.754583
3840.000000	72.768704
3839.000000	72.773784
3838.000000	72.774318
3837.000000	72.778488
3836.000000	72.793300
3835.000000	72.819494
3834.000000	72.854388
3833.000000	72.893813
3832.000000	72.934670
3831.000000	72.977593
3830.000000	73.022037
3829.000000	73.062206
3828.000000	73.092400
3827.000000	73.113072
3826.000000	73.134989
3825.000000	73.167785
3824.000000	73.202563
3823.000000	73.218083
3822.000000	73.211564
3821.000000	73.207794
3820.000000	73.235869
3819.000000	73.286028
3818.000000	73.319503
3817.000000	73.323408
3816.000000	73.323492
3815.000000	73.355984
3814.000000	73.419434
3813.000000	73.472256
3812.000000	73.495782
3811.000000	73.517679
3810.000000	73.564024
3809.000000	73.622440
3808.000000	73.657444
3807.000000	73.658595
3806.000000	73.656668
3805.000000	73.676030
3804.000000	73.699976
3803.000000	73.704478
3802.000000	73.692828
3801.000000	73.691424
3800.000000	73.720753
3799.000000	73.760514
3798.000000	73.785219
3797.000000	73.806128
3796.000000	73.847625
3795.000000	73.914071
3794.000000	73.984076
3793.000000	74.036911
3792.000000	74.074313
3791.000000	74.110927
3790.000000	74.149871
3789.000000	74.182542
3788.000000	74.204042
3787.000000	74.219597
3786.000000	74.235554
3785.000000	74.253690
3784.000000	74.274468
3783.000000	74.298802
3782.000000	74.324241
3781.000000	74.348210
3780.000000	74.374795
3779.000000	74.409704
3778.000000	74.450986
3777.000000	74.486504
3776.000000	74.506585
3775.000000	74.516303
3774.000000	74.532443
3773.000000	74.562990
3772.000000	74.597027
3771.000000	74.619673
3770.000000	74.633556
3769.000000	74.652211
3768.000000	74.677973
3767.000000	74.700727
3766.000000	74.717174
3765.000000	74.736606
3764.000000	74.768108
3763.000000	74.804266
3762.000000	74.826920
3761.000000	74.834001
3760.000000	74.845405
3759.000000	74.872274
3758.000000	74.901475
3757.000000	74.920242
3756.000000	74.936981
3755.000000	74.959633
3754.000000	74.981609
3753.000000	74.996282
3752.000000	75.008568
3751.000000	75.019423
3750.000000	75.014998
3749.000000	74.999039
3748.000000	75.004060
3747.000000	75.041720
3746.000000	75.083368
3745.000000	75.098768
3744.000000	75.103862
3743.000000	75.144344
3742.000000	75.206179
3741.000000	75.241713
3740.000000	75.257780
3739.000000	75.285798
3738.000000	75.326374
3737.000000	75.355137
3736.000000	75.372649
3735.000000	75.407354
3734.000000	75.464807
3733.000000	75.516565
3732.000000	75.548309
3731.000000	75.579421
3730.000000	75.627020
3729.000000	75.681924
3728.000000	75.726652
3727.000000	75.761765
3726.000000	75.802496
3725.000000	75.853145
3724.000000	75.897761
3723.000000	75.927863
3722.000000	75.955601
3721.000000	75.993250
3720.000000	76.038956
3719.000000	76.082415
3718.000000	76.116984
3717.000000	76.146390
3716.000000	76.178780
3715.000000	76.211289
3714.000000	76.233839
3713.000000	76.245583
3712.000000	76.259841
3711.000000	76.288462
3710.000000	76.327031
3709.000000	76.362703
3708.000000	76.390401
3707.000000	76.415658
3706.000000	76.447389
3705.000000	76.488300
3704.000000	76.534913
3703.000000	76.585272
3702.000000	76.639908
3701.000000	76.696003
3700.000000	76.746971
3699.000000	76.786869
3698.000000	76.813106
3697.000000	76.830408
3696.000000	76.848935
3695.000000	76.870627
3694.000000	76.885546
3693.000000	76.891125
3692.000000	76.902581
3691.000000	76.933890
3690.000000	76.977599
3689.000000	77.011907
3688.000000	77.030034
3687.000000	77.047495
3686.000000	77.074592
3685.000000	77.103621
3684.000000	77.129866
3683.000000	77.158945
3682.000000	77.192092
3681.000000	77.219142
3680.000000	77.235401
3679.000000	77.252295
3678.000000	77.271659
3677.000000	77.274787
3676.000000	77.256332
3675.000000	77.248648
3674.000000	77.274089
3673.000000	77.303179
3672.000000	77.302917
3671.000000	77.292134
3670.000000	77.316959
3669.000000	77.392401
3668.000000	77.480516
3667.000000	77.538936
3666.000000	77.570082
3665.000000	77.600930
3664.000000	77.647443
3663.000000	77.704285
3662.000000	77.757125
3661.000000	77.798274
3660.000000	77.829591
3659.000000	77.852256
3658.000000	77.859976
3657.000000	77.848339
3656.000000	77.824841
3655.000000	77.804968
3654.000000	77.788436
3653.000000	77.760469
3652.000000	77.717108
3651.000000	77.675964
3650.000000	77.659621
3649.000000	77.673489
3648.000000	77.702690
3647.000000	77.734556
3646.000000	77.769346
3645.000000	77.805902
3644.000000	77.840470
3643.000000	77.873197
3642.000000	77.908137
3641.000000	77.944779
3640.000000	77.975189
3639.000000	77.991685
3638.000000	77.997433
3637.000000	78.001137
3636.000000	78.003177
3635.000000	77.997744
3634.000000	77.987499
3633.000000	77.983131
3632.000000	77.981109
3631.000000	77.960580
3630.000000	77.913495
3629.000000	77.866539
3628.000000	77.853723
3627.000000	77.867969
3626.000000	77.874440
3625.000000	77.863962
3624.000000	77.855922
3623.000000	77.864711
3622.000000	77.881695
3621.000000	77.887525
3620.000000	77.877497
3619.000000	77.863158
3618.000000	77.850415
3617.000000	77.833133
3616.000000	77.806904
3615.000000	77.777966
3614.000000	77.759299
3613.000000	77.758460
3612.000000	77.767463
3611.000000	77.769122
3610.000000	77.756448
3609.000000	77.743636
3608.000000	77.751810
3607.000000	77.783331
3606.000000	77.818196
3605.000000	77.836890
3604.000000	77.837984
3603.000000	77.832648
3602.000000	77.828768
3601.000000	77.825196
3600.000000	77.818054
3599.000000	77.805169
3598.000000	77.785505
3597.000000	77.764364
3596.000000	77.751416
3595.000000	77.752261
3594.000000	77.762449
3593.000000	77.770543
3592.000000	77.764492
3591.000000	77.739524
3590.000000	77.699901
3589.000000	77.660283
3588.000000	77.641099
3587.000000	77.651025
3586.000000	77.675616
3585.000000	77.693666
3584.000000	77.699227
3583.000000	77.701386
3582.000000	77.708951
3581.000000	77.721720
3580.000000	77.734064
3579.000000	77.741994
3578.000000	77.744483
3577.000000	77.742330
3576.000000	77.737169
3575.000000	77.730200
3574.000000	77.720609
3573.000000	77.705379
3572.000000	77.680844
3571.000000	77.644510
3570.000000	77.596451
3569.000000	77.543185
3568.000000	77.502844
3567.000000	77.494609
3566.000000	77.516723
3565.000000	77.547417
3564.000000	77.569410
3563.000000	77.581899
3562.000000	77.591793
3561.000000	77.602289
3560.000000	77.611183
3559.000000	77.615655
3558.000000	77.615284
3557.000000	77.611137
3556.000000	77.605793
3555.000000	77.602759
3554.000000	77.604474
3553.000000	77.610072
3552.000000	77.615018
3551.000000	77.612474
3550.000000	77.597144
3549.000000	77.570199
3548.000000	77.541863
3547.000000	77.525635
3546.000000	77.526673
3545.000000	77.538287
3544.000000	77.550788
3543.000000	77.559653
3542.000000	77.565026
3541.000000	77.567879
3540.000000	77.569406
3539.000000	77.571084
3538.000000	77.573298
3537.000000	77.574694
3536.000000	77.573215
3535.000000	77.567028
3534.000000	77.554592
3533.000000	77.535972
3532.000000	77.514299
3531.000000	77.494666
3530.000000	77.480003
3529.000000	77.470319
3528.000000	77.465308
3527.000000	77.465731
3526.000000	77.471023
3525.000000	77.478451
3524.000000	77.485590
3523.000000	77.490981
3522.000000	77.492114
3521.000000	77.486152
3520.000000	77.473743
3519.000000	77.459959
3518.000000	77.450301
3517.000000	77.446798
3516.000000	77.447730
3515.000000	77.449663
3514.000000	77.448979
3513.000000	77.442828
3512.000000	77.430445
3511.000000	77.414279
3510.000000	77.397425
3509.000000	77.380087
3508.000000	77.360017
3507.000000	77.336529
3506.000000	77.312677
3505.000000	77.294260
3504.000000	77.286094
3503.000000	77.287623
3502.000000	77.292237
3501.000000	77.292723
3500.000000	77.287014
3499.000000	77.277431
3498.000000	77.265827
3497.000000	77.251748
3496.000000	77.234230
3495.000000	77.212910
3494.000000	77.187468
3493.000000	77.157990
3492.000000	77.126379
3491.000000	77.096290
3490.000000	77.070919
3489.000000	77.051176
3488.000000	77.035658
3487.000000	77.020878
3486.000000	77.001803
3485.000000	76.975045
3484.000000	76.942597
3483.000000	76.910634
3482.000000	76.883109
3481.000000	76.857505
3480.000000	76.827734
3479.000000	76.790407
3478.000000	76.747580
3477.000000	76.704911
3476.000000	76.668097
3475.000000	76.639554
3474.000000	76.617307
3473.000000	76.597390
3472.000000	76.576884
3471.000000	76.553706
3470.000000	76.524601
3469.000000	76.485390
3468.000000	76.433992
3467.000000	76.372314
3466.000000	76.304949
3465.000000	76.237317
3464.000000	76.175147
3463.000000	76.123125
3462.000000	76.081816
3461.000000	76.046490
3460.000000	76.010217
3459.000000	75.968018
3458.000000	75.918234
3457.000000	75.861489
3456.000000	75.799333
3455.000000	75.733322
3454.000000	75.664222
3453.000000	75.592421
3452.000000	75.519518
3451.000000	75.448272
3450.000000	75.380395
3449.000000	75.316061
3448.000000	75.255421
3447.000000	75.198291
3446.000000	75.141528
3445.000000	75.079521
3444.000000	75.009010
3443.000000	74.932017
3442.000000	74.853065
3441.000000	74.774979
3440.000000	74.698225
3439.000000	74.622469
3438.000000	74.546853
3437.000000	74.469205
3436.000000	74.386975
3435.000000	74.299584
3434.000000	74.208962
3433.000000	74.117901
3432.000000	74.027695
3431.000000	73.936324
3430.000000	73.838633
3429.000000	73.729893
3428.000000	73.609696
3427.000000	73.481542
3426.000000	73.349440
3425.000000	73.216427
3424.000000	73.085512
3423.000000	72.959657
3422.000000	72.840069
3421.000000	72.725529
3420.000000	72.613157
3419.000000	72.498687
3418.000000	72.376976
3417.000000	72.244208
3416.000000	72.099981
3415.000000	71.946117
3414.000000	71.783958
3413.000000	71.614855
3412.000000	71.442249
3411.000000	71.270630
3410.000000	71.101758
3409.000000	70.933398
3408.000000	70.762273
3407.000000	70.586483
3406.000000	70.405447
3405.000000	70.219573
3404.000000	70.029691
3403.000000	69.835160
3402.000000	69.632088
3401.000000	69.415276
3400.000000	69.182854
3399.000000	68.938459
3398.000000	68.689145
3397.000000	68.441294
3396.000000	68.197395
3395.000000	67.955680
3394.000000	67.712013
3393.000000	67.462425
3392.000000	67.203835
3391.000000	66.933234
3390.000000	66.648550
3389.000000	66.350424
3388.000000	66.041894
3387.000000	65.725460
3386.000000	65.401847
3385.000000	65.072723
3384.000000	64.741841
3383.000000	64.412273
3382.000000	64.083797
3381.000000	63.754000
3380.000000	63.420507
3379.000000	63.080519
3378.000000	62.730064
3377.000000	62.365721
3376.000000	61.986611
3375.000000	61.594639
3374.000000	61.193655
3373.000000	60.788680
3372.000000	60.384033
3371.000000	59.980240
3370.000000	59.574167
3369.000000	59.162204
3368.000000	58.742364
3367.000000	58.313636
3366.000000	57.875390
3365.000000	57.428619
3364.000000	56.975558
3363.000000	56.517138
3362.000000	56.052604
3361.000000	55.581896
3360.000000	55.106742
3359.000000	54.628627
3358.000000	54.147635
3357.000000	53.664402
3356.000000	53.180709
3355.000000	52.697447
3354.000000	52.213573
3353.000000	51.727580
3352.000000	51.238283
3351.000000	50.743751
3350.000000	50.242031
3349.000000	49.733648
3348.000000	49.221327
3347.000000	48.707074
3346.000000	48.191249
3345.000000	47.674689
3344.000000	47.159336
3343.000000	46.646342
3342.000000	46.135893
3341.000000	45.628640
3340.000000	45.124746
3339.000000	44.621651
3338.000000	44.115529
3337.000000	43.605347
3336.000000	43.093021
3335.000000	42.579925
3334.000000	42.066234
3333.000000	41.553516
3332.000000	41.044683
3331.000000	40.541082
3330.000000	40.042163
3329.000000	39.547939
3328.000000	39.059075
3327.000000	38.574582
3326.000000	38.092488
3325.000000	37.612673
3324.000000	37.136236
3323.000000	36.662746
3322.000000	36.191028
3321.000000	35.722259
3320.000000	35.259267
3319.000000	34.803007
3318.000000	34.353088
3317.000000	33.910593
3316.000000	33.477288
3315.000000	33.052793
3314.000000	32.635425
3313.000000	32.225323
3312.000000	31.823299
3311.000000	31.427811
3310.000000	31.037159
3309.000000	30.653349
3308.000000	30.280913
3307.000000	29.922464
3306.000000	29.578629
3305.000000	29.251288
3304.000000	28.941772
3303.000000	28.647795
3302.000000	28.365578
3301.000000	28.094219
3300.000000	27.835110
3299.000000	27.587812
3298.000000	27.351036
3297.000000	27.126169
3296.000000	26.915345
3295.000000	26.717911
3294.000000	26.532049
3293.000000	26.359284
3292.000000	26.203218
3291.000000	26.063956
3290.000000	25.938780
3289.000000	25.826076
3288.000000	25.725525
3287.000000	25.635455
3286.000000	25.553430
3285.000000	25.479594
3284.000000	25.414934
3283.000000	25.357917
3282.000000	25.306207
3281.000000	25.260143
3280.000000	25.221422
3279.000000	25.189217
3278.000000	25.161481
3277.000000	25.138770
3276.000000	25.122792
3275.000000	25.112630
3274.000000	25.105821
3273.000000	25.102285
3272.000000	25.103897
3271.000000	25.110925
3270.000000	25.122188
3269.000000	25.137261
3268.000000	25.155402
3267.000000	25.174057
3266.000000	25.191420
3265.000000	25.209323
3264.000000	25.230527
3263.000000	25.254617
3262.000000	25.279824
3261.000000	25.306577
3260.000000	25.335936
3259.000000	25.366472
3258.000000	25.396254
3257.000000	25.426454
3256.000000	25.459356
3255.000000	25.494474
3254.000000	25.529856
3253.000000	25.565640
3252.000000	25.602922
3251.000000	25.640647
3250.000000	25.677197
3249.000000	25.713706
3248.000000	25.752566
3247.000000	25.793976
3246.000000	25.836750
3245.000000	25.880920
3244.000000	25.926526
3243.000000	25.971440
3242.000000	26.013661
3241.000000	26.054171
3240.000000	26.094741
3239.000000	26.134632
3238.000000	26.172379
3237.000000	26.208948
3236.000000	26.246265
3235.000000	26.284439
3234.000000	26.323182
3233.000000	26.363961
3232.000000	26.407554
3231.000000	26.451267
3230.000000	26.491726
3229.000000	26.528710
3228.000000	26.563570
3227.000000	26.596062
3226.000000	26.625707
3225.000000	26.654270
3224.000000	26.683546
3223.000000	26.712438
3222.000000	26.739165
3221.000000	26.764529
3220.000000	26.790002
3219.000000	26.814386
3218.000000	26.835532
3217.000000	26.853549
3216.000000	26.869462
3215.000000	26.882702
3214.000000	26.892612
3213.000000	26.900672
3212.000000	26.908261
3211.000000	26.914078
3210.000000	26.916563
3209.000000	26.916755
3208.000000	26.916187
3207.000000	26.913976
3206.000000	26.908692
3205.000000	26.901152
3204.000000	26.892320
3203.000000	26.880669
3202.000000	26.864470
3201.000000	26.844608
3200.000000	26.822527
3199.000000	26.797419
3198.000000	26.768448
3197.000000	26.737537
3196.000000	26.706916
3195.000000	26.676019
3194.000000	26.643412
3193.000000	26.609666
3192.000000	26.575554
3191.000000	26.539551
3190.000000	26.500188
3189.000000	26.458665
3188.000000	26.416445
3187.000000	26.372580
3186.000000	26.326242
3185.000000	26.279607
3184.000000	26.235103
3183.000000	26.192083
3182.000000	26.148999
3181.000000	26.106545
3180.000000	26.065781
3179.000000	26.025487
3178.000000	25.984432
3177.000000	25.944037
3176.000000	25.905937
3175.000000	25.869141
3174.000000	25.832544
3173.000000	25.797872
3172.000000	25.767119
3171.000000	25.739428
3170.000000	25.713365
3169.000000	25.689956
3168.000000	25.670580
3167.000000	25.654037
3166.000000	25.638892
3165.000000	25.626312
3164.000000	25.617702
3163.000000	25.611892
3162.000000	25.607352
3161.000000	25.605076
3160.000000	25.606342
3159.000000	25.609966
3158.000000	25.614690
3157.000000	25.621807
3156.000000	25.632836
3155.000000	25.646924
3154.000000	25.663395
3153.000000	25.684489
3152.000000	25.712258
3151.000000	25.745118
3150.000000	25.780195
3149.000000	25.816919
3148.000000	25.855757
3147.000000	25.895678
3146.000000	25.935929
3145.000000	25.978132
3144.000000	26.023761
3143.000000	26.071785
3142.000000	26.121161
3141.000000	26.173551
3140.000000	26.230920
3139.000000	26.292461
3138.000000	26.356582
3137.000000	26.423376
3136.000000	26.492793
3135.000000	26.562863
3134.000000	26.632222
3133.000000	26.702431
3132.000000	26.775276
3131.000000	26.850322
3130.000000	26.927346
3129.000000	27.008309
3128.000000	27.094471
3127.000000	27.183889
3126.000000	27.274221
3125.000000	27.365550
3124.000000	27.458083
3123.000000	27.549953
3122.000000	27.639983
3121.000000	27.730322
3120.000000	27.823755
3119.000000	27.920466
3118.000000	28.019969
3117.000000	28.123557
3116.000000	28.232121
3115.000000	28.343947
3114.000000	28.456996
3113.000000	28.571343
3112.000000	28.687147
3111.000000	28.802842
3110.000000	28.917780
3109.000000	29.034142
3108.000000	29.153796
3107.000000	29.275386
3106.000000	29.396779
3105.000000	29.518188
3104.000000	29.640661
3103.000000	29.763856
3102.000000	29.887630
3101.000000	30.013682
3100.000000	30.143273
3099.000000	30.275147
3098.000000	30.407834
3097.000000	30.541819
3096.000000	30.677308
3095.000000	30.812270
3094.000000	30.944929
3093.000000	31.076204
3092.000000	31.207748
3091.000000	31.339726
3090.000000	31.472459
3089.000000	31.607823
3088.000000	31.746797
3087.000000	31.887657
3086.000000	32.028569
3085.000000	32.169889
3084.000000	32.311966
3083.000000	32.452966
3082.000000	32.591138
3081.000000	32.727323
3080.000000	32.863288
3079.000000	32.999520
3078.000000	33.136463
3077.000000	33.275665
3076.000000	33.417668
3075.000000	33.560716
3074.000000	33.703310
3073.000000	33.845999
3072.000000	33.989097
3071.000000	34.130846
3070.000000	34.269865
3069.000000	34.407347
3068.000000	34.544942
3067.000000	34.682395
3066.000000	34.819051
3065.000000	34.955650
3064.000000	35.092711
3063.000000	35.229164
3062.000000	35.364403
3061.000000	35.499850
3060.000000	35.636717
3059.000000	35.774110
3058.000000	35.910955
3057.000000	36.047732
3056.000000	36.184554
3055.000000	36.319572
3054.000000	36.451229
3053.000000	36.580338
3052.000000	36.708333
3051.000000	36.835338
3050.000000	36.961607
3049.000000	37.088901
3048.000000	37.218529
3047.000000	37.349655
3046.000000	37.481098
3045.000000	37.612970
3044.000000	37.744997
3043.000000	37.875231
3042.000000	38.002231
3041.000000	38.126834
3040.000000	38.250229
3039.000000	38.372088
3038.000000	38.492175
3037.000000	38.611973
3036.000000	38.733001
3035.000000	38.855095
3034.000000	38.977819
3033.000000	39.101865
3032.000000	39.227384
3031.000000	39.352672
3030.000000	39.476060
3029.000000	39.597557
3028.000000	39.717426
3027.000000	39.834935
3026.000000	39.949948
3025.000000	40.064012
3024.000000	40.178389
3023.000000	40.292639
3022.000000	40.406386
3021.000000	40.520704
3020.000000	40.636373
3019.000000	40.752351
3018.000000	40.867360
3017.000000	40.981398
3016.000000	41.094459
3015.000000	41.205576
3014.000000	41.314488
3013.000000	41.422653
3012.000000	41.531259
3011.000000	41.639878
3010.000000	41.748222
3009.000000	41.857376
3008.000000	41.967983
3007.000000	42.079011
3006.000000	42.189626
3005.000000	42.300542
3004.000000	42.412155
3003.000000	42.522987
3002.000000	42.631383
3001.000000	42.737236
3000.000000	42.840908
2999.000000	42.942146
2998.000000	43.041432
2997.000000	43.140708
2996.000000	43.241249
2995.000000	43.342390
2994.000000	43.443577
2993.000000	43.546048
2992.000000	43.650988
2991.000000	43.757489
2990.000000	43.863749
2989.000000	43.968850
2988.000000	44.072056
2987.000000	44.172036
2986.000000	44.268347
2985.000000	44.362543
2984.000000	44.456453
2983.000000	44.550646
2982.000000	44.645649
2981.000000	44.743007
2980.000000	44.843567
2979.000000	44.945866
2978.000000	45.047634
2977.000000	45.147935
2976.000000	45.246817
2975.000000	45.344153
2974.000000	45.440091
2973.000000	45.535481
2972.000000	45.630728
2971.000000	45.725235
2970.000000	45.818850
2969.000000	45.912583
2968.000000	46.006936
2967.000000	46.100966
2966.000000	46.193994
2965.000000	46.286761
2964.000000	46.379794
2963.000000	46.472115
2962.000000	46.562818
2961.000000	46.652435
2960.000000	46.741557
2959.000000	46.829544
2958.000000	46.915729
2957.000000	47.000523
2956.000000	47.084295
2955.000000	47.166863
2954.000000	47.249258
2953.000000	47.334186
2952.000000	47.423164
2951.000000	47.514420
2950.000000	47.604945
2949.000000	47.693321
2948.000000	47.779504
2947.000000	47.863399
2946.000000	47.945231
2945.000000	48.026235
2944.000000	48.107663
2943.000000	48.189877
2942.000000	48.273238
2941.000000	48.358595
2940.000000	48.445852
2939.000000	48.533315
2938.000000	48.619493
2937.000000	48.704358
2936.000000	48.787880
2935.000000	48.868766
2934.000000	48.946032
2933.000000	49.020669
2932.000000	49.094505
2931.000000	49.168431
2930.000000	49.242722
2929.000000	49.317800
2928.000000	49.393379
2927.000000	49.467991
2926.000000	49.540632
2925.000000	49.611990
2924.000000	49.683209
2923.000000	49.754575
2922.000000	49.826298
2921.000000	49.899119
2920.000000	49.972968
2919.000000	50.046223
2918.000000	50.117410
2917.000000	50.186741
2916.000000	50.255235
2915.000000	50.323551
2914.000000	50.392468
2913.000000	50.463193
2912.000000	50.536113
2911.000000	50.610120
2910.000000	50.683904
2909.000000	50.756974
2908.000000	50.828823
2907.000000	50.898299
2906.000000	50.964805
2905.000000	51.029105
2904.000000	51.092258
2903.000000	51.154838
2902.000000	51.217627
2901.000000	51.282103
2900.000000	51.349132
2899.000000	51.417878
2898.000000	51.487031
2897.000000	51.555474
2896.000000	51.621796
2895.000000	51.684447
2894.000000	51.743509
2893.000000	51.801183
2892.000000	51.859565
2891.000000	51.918837
2890.000000	51.978228
2889.000000	52.037578
2888.000000	52.097044
2887.000000	52.156427
2886.000000	52.215896
2885.000000	52.276500
2884.000000	52.338997
2883.000000	52.402879
2882.000000	52.467223
2881.000000	52.531588
2880.000000	52.595408
2879.000000	52.657732
2878.000000	52.718763
2877.000000	52.780621
2876.000000	52.845041
2875.000000	52.910549
2874.000000	52.973145
2873.000000	53.029861
2872.000000	53.081256
2871.000000	53.130802
2870.000000	53.182336
2869.000000	53.237623
2868.000000	53.295460
2867.000000	53.353072
2866.000000	53.408607
2865.000000	53.462293
2864.000000	53.515598
2863.000000	53.569925
2862.000000	53.625856
2861.000000	53.682555
2860.000000	53.737811
2859.000000	53.789866
2858.000000	53.839517
2857.000000	53.889537
2856.000000	53.941816
2855.000000	53.996062
2854.000000	54.051314
2853.000000	54.107389
2852.000000	54.164503
2851.000000	54.222618
2850.000000	54.281379
2849.000000	54.339641
2848.000000	54.395144
2847.000000	54.446337
2846.000000	54.494922
2845.000000	54.545155
2844.000000	54.600355
2843.000000	54.661212
2842.000000	54.727122
2841.000000	54.796540
2840.000000	54.865314
2839.000000	54.927439
2838.000000	54.979825
2837.000000	55.025267
2836.000000	55.069278
2835.000000	55.115063
2834.000000	55.162726
2833.000000	55.211858
2832.000000	55.262720
2831.000000	55.315321
2830.000000	55.369166
2829.000000	55.424049
2828.000000	55.480060
2827.000000	55.536892
2826.000000	55.594033
2825.000000	55.651437
2824.000000	55.709165
2823.000000	55.766619
2822.000000	55.822887
2821.000000	55.877644
2820.000000	55.931141
2819.000000	55.983702
2818.000000	56.035799
2817.000000	56.088212
2816.000000	56.141524
2815.000000	56.195850
2814.000000	56.251471
2813.000000	56.308958
2812.000000	56.367860
2811.000000	56.425821
2810.000000	56.479983
2809.000000	56.529191
2808.000000	56.574368
2807.000000	56.617257
2806.000000	56.659478
2805.000000	56.702235
2804.000000	56.746051
2803.000000	56.790811
2802.000000	56.836469
2801.000000	56.883292
2800.000000	56.930912
2799.000000	56.977771
2798.000000	57.022359
2797.000000	57.064740
2796.000000	57.106197
2795.000000	57.147711
2794.000000	57.189456
2793.000000	57.231386
2792.000000	57.273475
2791.000000	57.315441
2790.000000	57.356891
2789.000000	57.397797
2788.000000	57.438585
2787.000000	57.480015
2786.000000	57.523208
2785.000000	57.569186
2784.000000	57.617716
2783.000000	57.666833
2782.000000	57.714084
2781.000000	57.758136
2780.000000	57.798993
2779.000000	57.837257
2778.000000	57.873763
2777.000000	57.909382
2776.000000	57.944414
2775.000000	57.978273
2774.000000	58.010298
2773.000000	58.040657
2772.000000	58.069846
2771.000000	58.097628
2770.000000	58.122952
2769.000000	58.144672
2768.000000	58.161891
2767.000000	58.173871
2766.000000	58.180403
2765.000000	58.182226
2764.000000	58.180630
2763.000000	58.176868
2762.000000	58.172133
2761.000000	58.167718
2760.000000	58.164598
2759.000000	58.162965
2758.000000	58.162556
2757.000000	58.162990
2756.000000	58.163333
2755.000000	58.161876
2754.000000	58.157028
2753.000000	58.148295
2752.000000	58.135875
2751.000000	58.119812
2750.000000	58.100162
2749.000000	58.077499
2748.000000	58.052595
2747.000000	58.025642
2746.000000	57.996309
2745.000000	57.964270
2744.000000	57.928972
2743.000000	57.889481
2742.000000	57.845343
2741.000000	57.797442
2740.000000	57.747653
2739.000000	57.697986
2738.000000	57.650652
2737.000000	57.608632
2736.000000	57.575189
2735.000000	57.552922
2734.000000	57.543955
2733.000000	57.550190
2732.000000	57.572870
2731.000000	57.612009
2730.000000	57.666347
2729.000000	57.733899
2728.000000	57.811594
2727.000000	57.895128
2726.000000	57.980426
2725.000000	58.065047
2724.000000	58.148416
2723.000000	58.231017
2722.000000	58.313842
2721.000000	58.398255
2720.000000	58.485205
2719.000000	58.574372
2718.000000	58.664248
2717.000000	58.752670
2716.000000	58.836919
2715.000000	58.913948
2714.000000	58.981259
2713.000000	59.037910
2712.000000	59.084622
2711.000000	59.123053
2710.000000	59.155636
2709.000000	59.185304
2708.000000	59.214331
2707.000000	59.243328
2706.000000	59.271380
2705.000000	59.297303
2704.000000	59.320161
2703.000000	59.339008
2702.000000	59.353165
2701.000000	59.362729
2700.000000	59.368442
2699.000000	59.370952
2698.000000	59.370625
2697.000000	59.368073
2696.000000	59.364074
2695.000000	59.359157
2694.000000	59.353783
2693.000000	59.348853
2692.000000	59.345528
2691.000000	59.344474
2690.000000	59.345686
2689.000000	59.348729
2688.000000	59.352436
2687.000000	59.354482
2686.000000	59.352174
2685.000000	59.344122
2684.000000	59.330963
2683.000000	59.314648
2682.000000	59.297660
2681.000000	59.282721
2680.000000	59.272224
2679.000000	59.267366
2678.000000	59.267965
2677.000000	59.272975
2676.000000	59.280742
2675.000000	59.288873
2674.000000	59.294737
2673.000000	59.296863
2672.000000	59.295885
2671.000000	59.294351
2670.000000	59.295744
2669.000000	59.303234
2668.000000	59.318568
2667.000000	59.341451
2666.000000	59.369949
2665.000000	59.401381
2664.000000	59.432749
2663.000000	59.461063
2662.000000	59.484070
2661.000000	59.500961
2660.000000	59.512292
2659.000000	59.519280
2658.000000	59.523326
2657.000000	59.525931
2656.000000	59.528427
2655.000000	59.531608
2654.000000	59.535952
2653.000000	59.542068
2652.000000	59.550661
2651.000000	59.562298
2650.000000	59.577545
2649.000000	59.597049
2648.000000	59.621181
2647.000000	59.649583
2646.000000	59.681418
2645.000000	59.716153
2644.000000	59.753664
2643.000000	59.794231
2642.000000	59.838726
2641.000000	59.888463
2640.000000	59.944437
2639.000000	60.006367
2638.000000	60.072915
2637.000000	60.142379
2636.000000	60.212507
2635.000000	60.279986
2634.000000	60.341027
2633.000000	60.392982
2632.000000	60.435350
2631.000000	60.469480
2630.000000	60.497698
2629.000000	60.522939
2628.000000	60.548215
2627.000000	60.575614
2626.000000	60.605805
2625.000000	60.638107
2624.000000	60.670874
2623.000000	60.701725
2622.000000	60.728039
2621.000000	60.747962
2620.000000	60.760851
2619.000000	60.767077
2618.000000	60.767680
2617.000000	60.764158
2616.000000	60.758237
2615.000000	60.751159
2614.000000	60.743351
2613.000000	60.734699
2612.000000	60.724677
2611.000000	60.712505
2610.000000	60.697435
2609.000000	60.679215
2608.000000	60.658210
2607.000000	60.635203
2606.000000	60.611536
2605.000000	60.589238
2604.000000	60.570448
2603.000000	60.556684
2602.000000	60.549206
2601.000000	60.549618
2600.000000	60.559654
2599.000000	60.580165
2598.000000	60.610631
2597.000000	60.650118
2596.000000	60.697457
2595.000000	60.750640
2594.000000	60.806673
2593.000000	60.862322
2592.000000	60.915382
2591.000000	60.964947
2590.000000	61.011247
2589.000000	61.055752
2588.000000	61.100968
2587.000000	61.149705
2586.000000	61.204149
2585.000000	61.265470
2584.000000	61.333683
2583.000000	61.407233
2582.000000	61.483035
2581.000000	61.557391
2580.000000	61.627311
2579.000000	61.691317
2578.000000	61.749535
2577.000000	61.803600
2576.000000	61.856314
2575.000000	61.910760
2574.000000	61.969176
2573.000000	62.032341
2572.000000	62.099444
2571.000000	62.168228
2570.000000	62.235467
2569.000000	62.297742
2568.000000	62.352417
2567.000000	62.398083
2566.000000	62.434729
2565.000000	62.463728
2564.000000	62.486917
2563.000000	62.505538
2562.000000	62.519651
2561.000000	62.528695
2560.000000	62.532316
2559.000000	62.530029
2558.000000	62.521250
2557.000000	62.506106
2556.000000	62.486350
2555.000000	62.465311
2554.000000	62.446859
2553.000000	62.434583
2552.000000	62.431321
2551.000000	62.438791
2550.000000	62.457405
2549.000000	62.487009
2548.000000	62.527250
2547.000000	62.577534
2546.000000	62.637179
2545.000000	62.705407
2544.000000	62.781526
2543.000000	62.864012
2542.000000	62.949565
2541.000000	63.033536
2540.000000	63.111094
2539.000000	63.178395
2538.000000	63.233456
2537.000000	63.276937
2536.000000	63.312117
2535.000000	63.343786
2534.000000	63.376580
2533.000000	63.414065
2532.000000	63.458319
2531.000000	63.509085
2530.000000	63.563480
2529.000000	63.617032
2528.000000	63.665616
2527.000000	63.706799
2526.000000	63.740100
2525.000000	63.766974
2524.000000	63.790277
2523.000000	63.813014
2522.000000	63.837229
2521.000000	63.863882
2520.000000	63.893257
2519.000000	63.924868
2518.000000	63.957357
2517.000000	63.989355
2516.000000	64.020495
2515.000000	64.051268
2514.000000	64.082110
2513.000000	64.112971
2512.000000	64.143346
2511.000000	64.172002
2510.000000	64.197041
2509.000000	64.217023
2508.000000	64.232159
2507.000000	64.244262
2506.000000	64.255848
2505.000000	64.269797
2504.000000	64.289131
2503.000000	64.315820
2502.000000	64.349406
2501.000000	64.387035
2500.000000	64.424589
2499.000000	64.457572
2498.000000	64.481913
2497.000000	64.495566
2496.000000	64.499850
2495.000000	64.498929
2494.000000	64.497980
2493.000000	64.501775
2492.000000	64.513951
2491.000000	64.535907
2490.000000	64.565926
2489.000000	64.599873
2488.000000	64.632974
2487.000000	64.661010
2486.000000	64.680878
2485.000000	64.691516
2484.000000	64.694644
2483.000000	64.693910
2482.000000	64.693158
2481.000000	64.695517
2480.000000	64.703241
2479.000000	64.717136
2478.000000	64.735967
2477.000000	64.757204
2476.000000	64.778548
2475.000000	64.798548
2474.000000	64.816295
2473.000000	64.831468
2472.000000	64.844529
2471.000000	64.855999
2470.000000	64.865552
2469.000000	64.872513
2468.000000	64.877000
2467.000000	64.879996
2466.000000	64.882604
2465.000000	64.886099
2464.000000	64.892491
2463.000000	64.903958
2462.000000	64.921389
2461.000000	64.943778
2460.000000	64.968736
2459.000000	64.992902
2458.000000	65.012310
2457.000000	65.023746
2456.000000	65.026346
2455.000000	65.021736
2454.000000	65.013109
2453.000000	65.004769
2452.000000	65.001825
2451.000000	65.008601
2450.000000	65.026563
2449.000000	65.053759
2448.000000	65.085923
2447.000000	65.117647
2446.000000	65.143323
2445.000000	65.158812
2444.000000	65.163112
2443.000000	65.158373
2442.000000	65.148631
2441.000000	65.138880
2440.000000	65.134386
2439.000000	65.139057
2438.000000	65.153719
2437.000000	65.176247
2436.000000	65.203128
2435.000000	65.230484
2434.000000	65.254379
2433.000000	65.271814
2432.000000	65.282140
2431.000000	65.286977
2430.000000	65.288782
2429.000000	65.289960
2428.000000	65.292699
2427.000000	65.298316
2426.000000	65.306616
2425.000000	65.316640
2424.000000	65.328176
2423.000000	65.341962
2422.000000	65.358633
2421.000000	65.378179
2420.000000	65.400194
2419.000000	65.423543
2418.000000	65.445710
2417.000000	65.463486
2416.000000	65.474684
2415.000000	65.478884
2414.000000	65.477065
2413.000000	65.471739
2412.000000	65.467336
2411.000000	65.469116
2410.000000	65.480895
2409.000000	65.503636
2408.000000	65.535479
2407.000000	65.572134
2406.000000	65.607408
2405.000000	65.634970
2404.000000	65.650824
2403.000000	65.654550
2402.000000	65.648931
2401.000000	65.639256
2400.000000	65.632271
2399.000000	65.633988
2398.000000	65.647418
2397.000000	65.672171
2396.000000	65.705437
2395.000000	65.742627
2394.000000	65.777943
2393.000000	65.806202
2392.000000	65.825221
2391.000000	65.836216
2390.000000	65.842336
2389.000000	65.847450
2388.000000	65.855593
2387.000000	65.869738
2386.000000	65.890433
2385.000000	65.916210
2384.000000	65.945369
2383.000000	65.977035
2382.000000	66.010883
2381.000000	66.047116
2380.000000	66.086692
2379.000000	66.130282
2378.000000	66.176837
2377.000000	66.223458
2376.000000	66.266919
2375.000000	66.304941
2374.000000	66.336216
2373.000000	66.361209
2372.000000	66.382769
2371.000000	66.405335
2370.000000	66.433177
2369.000000	66.469129
2368.000000	66.513993
2367.000000	66.566037
2366.000000	66.620785
2365.000000	66.671752
2364.000000	66.713236
2363.000000	66.743717
2362.000000	66.764300
2361.000000	66.777045
2360.000000	66.788219
2359.000000	66.804293
2358.000000	66.828945
2357.000000	66.863552
2356.000000	66.905647
2355.000000	66.953141
2354.000000	67.001365
2353.000000	67.044708
2352.000000	67.080769
2351.000000	67.112223
2350.000000	67.147162
2349.000000	67.184965
2348.000000	67.219565
2347.000000	67.247376
2346.000000	67.271608
2345.000000	67.302866
2344.000000	67.343760
2343.000000	67.390201
2342.000000	67.432586
2341.000000	67.466910
2340.000000	67.498716
2339.000000	67.531021
2338.000000	67.565363
2337.000000	67.599367
2336.000000	67.632647
2335.000000	67.665277
2334.000000	67.697208
2333.000000	67.727388
2332.000000	67.756579
2331.000000	67.786030
2330.000000	67.819259
2329.000000	67.855861
2328.000000	67.896573
2327.000000	67.942121
2326.000000	67.989130
2325.000000	68.036315
2324.000000	68.079438
2323.000000	68.119987
2322.000000	68.155936
2321.000000	68.186070
2320.000000	68.211404
2319.000000	68.234616
2318.000000	68.260214
2317.000000	68.289090
2316.000000	68.323181
2315.000000	68.362369
2314.000000	68.405855
2313.000000	68.450247
2312.000000	68.492379
2311.000000	68.530188
2310.000000	68.562167
2309.000000	68.588840
2308.000000	68.612039
2307.000000	68.635378
2306.000000	68.659878
2305.000000	68.685766
2304.000000	68.712644
2303.000000	68.741571
2302.000000	68.772497
2301.000000	68.804612
2300.000000	68.837025
2299.000000	68.869221
2298.000000	68.899893
2297.000000	68.927903
2296.000000	68.953428
2295.000000	68.978182
2294.000000	69.002783
2293.000000	69.027501
2292.000000	69.052428
2291.000000	69.078452
2290.000000	69.104999
2289.000000	69.131531
2288.000000	69.158214
2287.000000	69.185957
2286.000000	69.214125
2285.000000	69.241419
2284.000000	69.267823
2283.000000	69.294565
2282.000000	69.321924
2281.000000	69.348997
2280.000000	69.375535
2279.000000	69.401961
2278.000000	69.428028
2277.000000	69.452916
2276.000000	69.477172
2275.000000	69.502123
2274.000000	69.528123
2273.000000	69.554467
2272.000000	69.581263
2271.000000	69.609263
2270.000000	69.637884
2269.000000	69.665458
2268.000000	69.691219
2267.000000	69.715567
2266.000000	69.738447
2265.000000	69.759411
2264.000000	69.779306
2263.000000	69.799846
2262.000000	69.821406
2261.000000	69.843131
2260.000000	69.864543
2259.000000	69.885630
2258.000000	69.905084
2257.000000	69.920948
2256.000000	69.933073
2255.000000	69.942973
2254.000000	69.951691
2253.000000	69.959181
2252.000000	69.965835
2251.000000	69.972001
2250.000000	69.976120
2249.000000	69.975246
2248.000000	69.967745
2247.000000	69.953845
2246.000000	69.933897
2245.000000	69.908141
2244.000000	69.877927
2243.000000	69.845293
2242.000000	69.810998
2241.000000	69.774747
2240.000000	69.736599
2239.000000	69.696632
2238.000000	69.653749
2237.000000	69.607232
2236.000000	69.559285
2235.000000	69.514044
2234.000000	69.474409
2233.000000	69.441572
2232.000000	69.416979
2231.000000	69.401999
2230.000000	69.395681
2229.000000	69.394983
2228.000000	69.397411
2227.000000	69.401737
2226.000000	69.406347
2225.000000	69.409344
2224.000000	69.410469
2223.000000	69.410960
2222.000000	69.411361
2221.000000	69.411140
2220.000000	69.410343
2219.000000	69.409563
2218.000000	69.408340
2217.000000	69.405634
2216.000000	69.401982
2215.000000	69.399296
2214.000000	69.398550
2213.000000	69.399456
2212.000000	69.402104
2211.000000	69.406820
2210.000000	69.412399
2209.000000	69.416551
2208.000000	69.418247
2207.000000	69.417999
2206.000000	69.416169
2205.000000	69.413074
2204.000000	69.410515
2203.000000	69.410919
2202.000000	69.414796
2201.000000	69.420813
2200.000000	69.428075
2199.000000	69.436242
2198.000000	69.443731
2197.000000	69.448230
2196.000000	69.449197
2195.000000	69.447871
2194.000000	69.444877
2193.000000	69.439928
2192.000000	69.433735
2191.000000	69.427870
2190.000000	69.422623
2189.000000	69.416991
2188.000000	69.410833
2187.000000	69.404977
2186.000000	69.399314
2185.000000	69.392966
2184.000000	69.386326
2183.000000	69.380830
2182.000000	69.376716
2181.000000	69.373138
2180.000000	69.370412
2179.000000	69.370026
2178.000000	69.372452
2177.000000	69.377128
2176.000000	69.384572
2175.000000	69.396196
2174.000000	69.411856
2173.000000	69.429685
2172.000000	69.448473
2171.000000	69.468201
2170.000000	69.488260
2169.000000	69.507456
2168.000000	69.525944
2167.000000	69.545121
2166.000000	69.565522
2165.000000	69.586856
2164.000000	69.609945
2163.000000	69.636218
2162.000000	69.665153
2161.000000	69.694401
2160.000000	69.722539
2159.000000	69.749572
2158.000000	69.774907
2157.000000	69.797441
2156.000000	69.817906
2155.000000	69.838743
2154.000000	69.861283
2153.000000	69.885030
2152.000000	69.909595
2151.000000	69.935028
2150.000000	69.960301
2149.000000	69.983891
2148.000000	70.006061
2147.000000	70.028357
2146.000000	70.050942
2145.000000	70.072761
2144.000000	70.094100
2143.000000	70.116301
2142.000000	70.139025
2141.000000	70.160525
2140.000000	70.180750
2139.000000	70.201666
2138.000000	70.224523
2137.000000	70.249385
2136.000000	70.277244
2135.000000	70.309655
2134.000000	70.345818
2133.000000	70.382479
2132.000000	70.416968
2131.000000	70.448113
2130.000000	70.474450
2129.000000	70.494654
2128.000000	70.510145
2127.000000	70.524664
2126.000000	70.540944
2125.000000	70.560000
2124.000000	70.583210
2123.000000	70.611893
2122.000000	70.644577
2121.000000	70.677507
2120.000000	70.708155
2119.000000	70.735853
2118.000000	70.759405
2117.000000	70.777511
2116.000000	70.791884
2115.000000	70.806799
2114.000000	70.824970
2113.000000	70.846317
2112.000000	70.870669
2111.000000	70.898517
2110.000000	70.928795
2109.000000	70.958987
2108.000000	70.987894
2107.000000	71.015653
2106.000000	71.040909
2105.000000	71.060995
2104.000000	71.075221
2103.000000	71.085146
2102.000000	71.091334
2101.000000	71.092953
2100.000000	71.090801
2099.000000	71.087560
2098.000000	71.084817
2097.000000	71.082451
2096.000000	71.081043
2095.000000	71.081684
2094.000000	71.083011
2093.000000	71.081742
2092.000000	71.076665
2091.000000	71.069270
2090.000000	71.060317
2089.000000	71.048965
2088.000000	71.035758
2087.000000	71.023545
2086.000000	71.014877
2085.000000	71.011265
2084.000000	71.015188
2083.000000	71.029553
2082.000000	71.054497
2081.000000	71.087073
2080.000000	71.124239
2079.000000	71.163579
2078.000000	71.201157
2077.000000	71.232248
2076.000000	71.255380
2075.000000	71.273169
2074.000000	71.288878
2073.000000	71.305144
2072.000000	71.325837
2071.000000	71.355530
2070.000000	71.395694
2069.000000	71.443590
2068.000000	71.495707
2067.000000	71.550045
2066.000000	71.604962
2065.000000	71.658450
2064.000000	71.709165
2063.000000	71.756045
2062.000000	71.797449
2061.000000	71.833450
2060.000000	71.868480
2059.000000	71.908585
2058.000000	71.955950
2057.000000	72.008775
2056.000000	72.065570
2055.000000	72.125892
2054.000000	72.187383
2053.000000	72.246366
2052.000000	72.301698
2051.000000	72.354617
2050.000000	72.404687
2049.000000	72.449466
2048.000000	72.488459
2047.000000	72.523676
2046.000000	72.555790
2045.000000	72.583758
2044.000000	72.609382
2043.000000	72.638696
2042.000000	72.677907
2041.000000	72.730293
2040.000000	72.796375
2039.000000	72.873307
2038.000000	72.953680
2037.000000	73.028383
2036.000000	73.092016
2035.000000	73.143662
2034.000000	73.183623
2033.000000	73.213777
2032.000000	73.240803
2031.000000	73.274203
2030.000000	73.320133
2029.000000	73.380006
2028.000000	73.453529
2027.000000	73.538422
2026.000000	73.627108
2025.000000	73.709024
2024.000000	73.777511
2023.000000	73.831445
2022.000000	73.871107
2021.000000	73.897382
2020.000000	73.916203
2019.000000	73.938627
2018.000000	73.974501
2017.000000	74.027925
2016.000000	74.097652
2015.000000	74.177981
2014.000000	74.260042
2013.000000	74.336707
2012.000000	74.407193
2011.000000	74.474840
2010.000000	74.541172
2009.000000	74.605593
2008.000000	74.669273
2007.000000	74.734000
2006.000000	74.797403
2005.000000	74.854887
2004.000000	74.906319
2003.000000	74.956331
2002.000000	75.009079
2001.000000	75.067227
2000.000000	75.135564
1999.000000	75.218397
1998.000000	75.312431
1997.000000	75.406246
1996.000000	75.487164
1995.000000	75.547101
1994.000000	75.584022
1993.000000	75.603493
1992.000000	75.618602
1991.000000	75.641752
1990.000000	75.676942
1989.000000	75.725607
1988.000000	75.793404
1987.000000	75.882763
1986.000000	75.983398
1985.000000	76.078300
1984.000000	76.157254
1983.000000	76.218296
1982.000000	76.260279
1981.000000	76.283178
1980.000000	76.294862
1979.000000	76.308249
1978.000000	76.331126
1977.000000	76.364525
1976.000000	76.409071
1975.000000	76.465219
1974.000000	76.527614
1973.000000	76.587178
1972.000000	76.638932
1971.000000	76.681944
1970.000000	76.713695
1969.000000	76.733205
1968.000000	76.749098
1967.000000	76.774855
1966.000000	76.812968
1965.000000	76.852487
1964.000000	76.884874
1963.000000	76.912340
1962.000000	76.939865
1961.000000	76.970059
1960.000000	77.006941
1959.000000	77.054883
1958.000000	77.111511
1957.000000	77.168769
1956.000000	77.221938
1955.000000	77.270268
1954.000000	77.309166
1953.000000	77.331575
1952.000000	77.337959
1951.000000	77.337315
1950.000000	77.337430
1949.000000	77.342438
1948.000000	77.358915
1947.000000	77.392434
1946.000000	77.437972
1945.000000	77.483955
1944.000000	77.526496
1943.000000	77.570685
1942.000000	77.615988
1941.000000	77.649981
1940.000000	77.663873
1939.000000	77.664414
1938.000000	77.663105
1937.000000	77.665973
1936.000000	77.678138
1935.000000	77.706173
1934.000000	77.750853
1933.000000	77.805054
1932.000000	77.861302
1931.000000	77.915101
1930.000000	77.959686
1929.000000	77.987276
1928.000000	77.997818
1927.000000	77.995697
1926.000000	77.981374
1925.000000	77.955586
1924.000000	77.931774
1923.000000	77.931199
1922.000000	77.959775
1921.000000	78.004055
1920.000000	78.054194
1919.000000	78.111655
1918.000000	78.172028
1917.000000	78.219545
1916.000000	78.244781
1915.000000	78.256677
1914.000000	78.266505
1913.000000	78.271836
1912.000000	78.266324
1911.000000	78.253844
1910.000000	78.244890
1909.000000	78.247561
1908.000000	78.266732
1907.000000	78.303781
1906.000000	78.354313
1905.000000	78.409873
1904.000000	78.465720
1903.000000	78.520584
1902.000000	78.567567
1901.000000	78.595878
1900.000000	78.601358
1899.000000	78.587051
1898.000000	78.556702
1897.000000	78.517210
1896.000000	78.487062
1895.000000	78.488111
1894.000000	78.522809
1893.000000	78.573068
1892.000000	78.624156
1891.000000	78.674510
1890.000000	78.721664
1889.000000	78.754272
1888.000000	78.760235
1887.000000	78.738461
1886.000000	78.700262
1885.000000	78.661574
1884.000000	78.638304
1883.000000	78.641176
1882.000000	78.668720
1881.000000	78.711082
1880.000000	78.760556
1879.000000	78.811878
1878.000000	78.855169
1877.000000	78.879218
1876.000000	78.883832
1875.000000	78.878311
1874.000000	78.865860
1873.000000	78.843205
1872.000000	78.814713
1871.000000	78.790721
1870.000000	78.773033
1869.000000	78.760055
1868.000000	78.760921
1867.000000	78.782684
1866.000000	78.818378
1865.000000	78.858361
1864.000000	78.899022
1863.000000	78.939369
1862.000000	78.973651
1861.000000	78.992768
1860.000000	78.993603
1859.000000	78.979466
1858.000000	78.951742
1857.000000	78.911546
1856.000000	78.869784
1855.000000	78.844355
1854.000000	78.845769
1853.000000	78.871397
1852.000000	78.913027
1851.000000	78.959426
1850.000000	78.992725
1849.000000	78.994131
1848.000000	78.963263
1847.000000	78.922185
1846.000000	78.889592
1845.000000	78.864498
1844.000000	78.841403
1843.000000	78.819170
1842.000000	78.798338
1841.000000	78.791615
1840.000000	78.812437
1839.000000	78.851888
1838.000000	78.884237
1837.000000	78.890415
1836.000000	78.871568
1835.000000	78.835759
1834.000000	78.784164
1833.000000	78.719039
1832.000000	78.654009
1831.000000	78.605453
1830.000000	78.580282
1829.000000	78.568637
1828.000000	78.552073
1827.000000	78.531614
1826.000000	78.521509
1825.000000	78.523186
1824.000000	78.529028
1823.000000	78.532941
1822.000000	78.531515
1821.000000	78.520549
1820.000000	78.494941
1819.000000	78.452965
1818.000000	78.394906
1817.000000	78.324047
1816.000000	78.250904
1815.000000	78.184974
1814.000000	78.126424
1813.000000	78.076935
1812.000000	78.050482
1811.000000	78.060264
1810.000000	78.093339
1809.000000	78.117422
1808.000000	78.115392
1807.000000	78.089460
1806.000000	78.038256
1805.000000	77.955705
1804.000000	77.851194
1803.000000	77.752453
1802.000000	77.686656
1801.000000	77.668847
1800.000000	77.696699
1799.000000	77.745845
1798.000000	77.780287
1797.000000	77.780976
1796.000000	77.761388
1795.000000	77.744354
1794.000000	77.727731
1793.000000	77.689662
1792.000000	77.632685
1791.000000	77.583952
1790.000000	77.549305
1789.000000	77.521007
1788.000000	77.503650
1787.000000	77.501709
1786.000000	77.504505
1785.000000	77.493382
1784.000000	77.459733
1783.000000	77.406800
1782.000000	77.339832
1781.000000	77.266578
1780.000000	77.198535
1779.000000	77.139938
1778.000000	77.077391
1777.000000	76.998564
1776.000000	76.914892
1775.000000	76.850116
1774.000000	76.810154
1773.000000	76.775868
1772.000000	76.739870
1771.000000	76.708391
1770.000000	76.674445
1769.000000	76.638326
1768.000000	76.611794
1767.000000	76.588863
1766.000000	76.543347
1765.000000	76.464518
1764.000000	76.372519
1763.000000	76.290545
1762.000000	76.221398
1761.000000	76.151975
1760.000000	76.078089
1759.000000	76.023030
1758.000000	76.008597
1757.000000	76.022694
1756.000000	76.031900
1755.000000	76.008118
1754.000000	75.943587
1753.000000	75.838042
1752.000000	75.689040
1751.000000	75.512640
1750.000000	75.343990
1749.000000	75.211091
1748.000000	75.132194
1747.000000	75.105502
1746.000000	75.097149
1745.000000	75.071948
1744.000000	75.028832
1743.000000	74.991396
1742.000000	74.962838
1741.000000	74.913728
1740.000000	74.822069
1739.000000	74.699420
1738.000000	74.569976
1737.000000	74.459045
1736.000000	74.383094
1735.000000	74.314573
1734.000000	74.204770
1733.000000	74.032408
1732.000000	73.818572
1731.000000	73.632220
1730.000000	73.513266
1729.000000	73.432128
1728.000000	73.350002
1727.000000	73.252265
1726.000000	73.132284
1725.000000	72.976000
1724.000000	72.785400
1723.000000	72.587707
1722.000000	72.401520
1721.000000	72.224451
1720.000000	72.049597
1719.000000	71.862567
1718.000000	71.650550
1717.000000	71.438083
1716.000000	71.261550
1715.000000	71.123538
1714.000000	70.992427
1713.000000	70.822747
1712.000000	70.602552
1711.000000	70.359109
1710.000000	70.113343
1709.000000	69.868017
1708.000000	69.631408
1707.000000	69.417552
1706.000000	69.224858
1705.000000	69.047064
1704.000000	68.898778
1703.000000	68.808408
1702.000000	68.759857
1701.000000	68.634310
1700.000000	68.335963
1699.000000	67.930767
1698.000000	67.541092
1697.000000	67.237517
1696.000000	67.027856
1695.000000	66.861841
1694.000000	66.661474
1693.000000	66.415043
1692.000000	66.165080
1691.000000	65.919649
1690.000000	65.663697
1689.000000	65.402643
1688.000000	65.172286
1687.000000	64.994613
1686.000000	64.833433
1685.000000	64.592464
1684.000000	64.270953
1683.000000	63.973704
1682.000000	63.693644
1681.000000	63.409910
1680.000000	63.160936
1679.000000	62.969915
1678.000000	62.835043
1677.000000	62.719085
1676.000000	62.573929
1675.000000	62.375200
1674.000000	62.128980
1673.000000	61.854313
1672.000000	61.580187
1671.000000	61.316919
1670.000000	61.049046
1669.000000	60.775725
1668.000000	60.514934
1667.000000	60.286147
1666.000000	60.100952
1665.000000	59.945338
1664.000000	59.785802
1663.000000	59.601494
1662.000000	59.392880
1661.000000	59.159186
1660.000000	58.903058
1659.000000	58.643476
1658.000000	58.398911
1657.000000	58.186786
1656.000000	58.022933
1655.000000	57.901504
1654.000000	57.739832
1653.000000	57.507523
1652.000000	57.244098
1651.000000	56.936269
1650.000000	56.653375
1649.000000	56.433104
1648.000000	56.215437
1647.000000	55.991166
1646.000000	55.794347
1645.000000	55.599454
1644.000000	55.372349
1643.000000	55.147057
1642.000000	54.944350
1641.000000	54.748336
1640.000000	54.551114
1639.000000	54.371728
1638.000000	54.223155
1637.000000	54.077464
1636.000000	53.912389
1635.000000	53.754739
1634.000000	53.592184
1633.000000	53.394385
1632.000000	53.189583
1631.000000	53.005074
1630.000000	52.832405
1629.000000	52.649193
1628.000000	52.458031
1627.000000	52.291491
1626.000000	52.166049
1625.000000	52.064167
1624.000000	51.962652
1623.000000	51.862818
1622.000000	51.771838
1621.000000	51.680565
1620.000000	51.591705
1619.000000	51.518264
1618.000000	51.445332
1617.000000	51.340878
1616.000000	51.209362
1615.000000	51.086250
1614.000000	50.995942
1613.000000	50.942934
1612.000000	50.916221
1611.000000	50.904346
1610.000000	50.900501
1609.000000	50.894833
1608.000000	50.880033
1607.000000	50.859205
1606.000000	50.835740
1605.000000	50.803640
1604.000000	50.761196
1603.000000	50.725341
1602.000000	50.714801
1601.000000	50.726803
1600.000000	50.748319
1599.000000	50.776041
1598.000000	50.809667
1597.000000	50.840016
1596.000000	50.860223
1595.000000	50.878421
1594.000000	50.903128
1593.000000	50.927138
1592.000000	50.940668
1591.000000	50.948529
1590.000000	50.959861
1589.000000	50.972397
1588.000000	50.980697
1587.000000	50.990381
1586.000000	51.010181
1585.000000	51.037689
1584.000000	51.066584
1583.000000	51.099324
1582.000000	51.137935
1581.000000	51.169419
1580.000000	51.181621
1579.000000	51.182385
1578.000000	51.181562
1577.000000	51.164624
1576.000000	51.119641
1575.000000	51.060511
1574.000000	51.003328
1573.000000	50.968844
1572.000000	50.972780
1571.000000	51.006103
1570.000000	51.047228
1569.000000	51.076488
1568.000000	51.077345
1567.000000	51.055375
1566.000000	51.035655
1565.000000	51.022428
1564.000000	51.008042
1563.000000	51.014223
1562.000000	51.073745
1561.000000	51.186991
1560.000000	51.274033
1559.000000	51.327001
1558.000000	51.466032
1557.000000	51.586133
1556.000000	51.628109
1555.000000	51.698019
1554.000000	51.810765
1553.000000	51.921006
1552.000000	52.000622
1551.000000	52.085125
1550.000000	52.214458
1549.000000	52.380954
1548.000000	52.545371
1547.000000	52.690909
1546.000000	52.828816
1545.000000	52.967241
1544.000000	53.116356
1543.000000	53.294712
1542.000000	53.510022
1541.000000	53.755330
1540.000000	54.048510
1539.000000	54.362122
1538.000000	54.575297
1537.000000	54.680445
1536.000000	54.781138
1535.000000	54.938344
1534.000000	55.162988
1533.000000	55.431925
1532.000000	55.700039
1531.000000	55.946232
1530.000000	56.194826
1529.000000	56.463718
1528.000000	56.748372
1527.000000	57.048473
1526.000000	57.359580
1525.000000	57.653219
1524.000000	57.915404
1523.000000	58.185181
1522.000000	58.519879
1521.000000	58.914471
1520.000000	59.279115
1519.000000	59.576126
1518.000000	59.876836
1517.000000	60.238265
1516.000000	60.641608
1515.000000	61.033693
1514.000000	61.393184
1513.000000	61.725995
1512.000000	62.020676
1511.000000	62.268544
1510.000000	62.486898
1509.000000	62.713972
1508.000000	63.010610
1507.000000	63.506412
1506.000000	64.202807
1505.000000	64.765034
1504.000000	65.051816
1503.000000	65.256736
1502.000000	65.513581
1501.000000	65.830101
1500.000000	66.164608
1499.000000	66.500099
1498.000000	66.849858
1497.000000	67.215339
1496.000000	67.567736
1495.000000	67.870141
1494.000000	68.113844
1493.000000	68.319092
1492.000000	68.509647
1491.000000	68.709318
1490.000000	68.945388
1489.000000	69.227951
1488.000000	69.536819
1487.000000	69.848248
1486.000000	70.136565
1485.000000	70.369073
1484.000000	70.540477
1483.000000	70.681956
1482.000000	70.818518
1481.000000	70.939642
1480.000000	71.031079
1479.000000	71.102921
1478.000000	71.161429
1477.000000	71.189692
1476.000000	71.186104
1475.000000	71.181951
1474.000000	71.188803
1473.000000	71.177063
1472.000000	71.127126
1471.000000	71.022802
1470.000000	70.829648
1469.000000	70.541325
1468.000000	70.183691
1467.000000	69.771460
1466.000000	69.268105
1465.000000	68.631490
1464.000000	67.918935
1463.000000	67.244795
1462.000000	66.656052
1461.000000	66.140654
1460.000000	65.694408
1459.000000	65.322038
1458.000000	64.977030
1457.000000	64.589906
1456.000000	64.153215
1455.000000	63.673353
1454.000000	63.131037
1453.000000	62.482040
1452.000000	61.708509
1451.000000	60.844024
1450.000000	59.875323
1449.000000	58.725988
1448.000000	57.395919
1447.000000	56.000586
1446.000000	54.600734
1445.000000	53.141223
1444.000000	51.573495
1443.000000	49.896671
1442.000000	48.102056
1441.000000	46.209299
1440.000000	44.303693
1439.000000	42.385291
1438.000000	40.211886
1437.000000	37.552140
1436.000000	34.716808
1435.000000	32.274643
1434.000000	30.296312
1433.000000	28.524788
1432.000000	26.868271
1431.000000	25.412270
1430.000000	24.215843
1429.000000	23.297501
1428.000000	22.752903
1427.000000	22.651397
1426.000000	22.927229
1425.000000	23.509338
1424.000000	24.409097
1423.000000	25.571138
1422.000000	26.837279
1421.000000	28.163871
1420.000000	29.691856
1419.000000	31.455986
1418.000000	33.188354
1417.000000	34.680509
1416.000000	36.034456
1415.000000	37.393426
1414.000000	38.753540
1413.000000	40.072005
1412.000000	41.376465
1411.000000	42.697899
1410.000000	43.992641
1409.000000	45.214434
1408.000000	46.388094
1407.000000	47.559202
1406.000000	48.739457
1405.000000	49.927514
1404.000000	51.111226
1403.000000	52.240317
1402.000000	53.278273
1401.000000	54.268303
1400.000000	55.284091
1399.000000	56.319703
1398.000000	57.297982
1397.000000	58.208458
1396.000000	59.139722
1395.000000	60.150649
1394.000000	61.186045
1393.000000	62.156016
1392.000000	63.040589
1391.000000	63.869605
1390.000000	64.666999
1389.000000	65.450198
1388.000000	66.227484
1387.000000	66.971124
1386.000000	67.635889
1385.000000	68.220293
1384.000000	68.762501
1383.000000	69.276866
1382.000000	69.735910
1381.000000	70.104949
1380.000000	70.358187
1379.000000	70.465011
1378.000000	70.396153
1377.000000	70.134407
1376.000000	69.650969
1375.000000	68.904255
1374.000000	67.902544
1373.000000	66.729320
1372.000000	65.475703
1371.000000	64.205809
1370.000000	63.006360
1369.000000	62.023313
1368.000000	61.413003
1367.000000	61.247715
1366.000000	61.499111
1365.000000	62.106034
1364.000000	63.019730
1363.000000	64.184824
1362.000000	65.496886
1361.000000	66.814482
1360.000000	68.022663
1359.000000	69.061099
1358.000000	69.903147
1357.000000	70.533359
1356.000000	70.935011
1355.000000	71.091522
1354.000000	70.998419
1353.000000	70.660788
1352.000000	70.081974
1351.000000	69.257693
1350.000000	68.187429
1349.000000	66.884606
1348.000000	65.362251
1347.000000	63.627983
1346.000000	61.693955
1345.000000	59.588686
1344.000000	57.360498
1343.000000	55.055580
1342.000000	52.694772
1341.000000	50.293689
1340.000000	47.927662
1339.000000	45.755661
1338.000000	43.933783
1337.000000	42.514890
1336.000000	41.454287
1335.000000	40.661694
1334.000000	40.017263
1333.000000	39.383921
1332.000000	38.638997
1331.000000	37.694077
1330.000000	36.487700
1329.000000	34.980020
1328.000000	33.170908
1327.000000	31.117073
1326.000000	28.918078
1325.000000	26.693642
1324.000000	24.582160
1323.000000	22.724824
1322.000000	21.210529
1321.000000	20.043678
1320.000000	19.175005
1319.000000	18.533112
1318.000000	18.030682
1317.000000	17.585292
1316.000000	17.159196
1315.000000	16.765664
1314.000000	16.422719
1313.000000	16.130414
1312.000000	15.892249
1311.000000	15.721014
1310.000000	15.621334
1309.000000	15.592500
1308.000000	15.658690
1307.000000	15.866309
1306.000000	16.241843
1305.000000	16.782563
1304.000000	17.480998
1303.000000	18.327944
1302.000000	19.291091
1301.000000	20.318338
1300.000000	21.372793
1299.000000	22.438837
1298.000000	23.499103
1297.000000	24.532511
1296.000000	25.531404
1295.000000	26.498731
1294.000000	27.428201
1293.000000	28.305360
1292.000000	29.124576
1291.000000	29.888794
1290.000000	30.590272
1289.000000	31.209481
1288.000000	31.730396
1287.000000	32.140432
1286.000000	32.425528
1285.000000	32.582181
1284.000000	32.641481
1283.000000	32.671420
1282.000000	32.749780
1281.000000	32.938755
1280.000000	33.274812
1279.000000	33.759639
1278.000000	34.356283
1277.000000	35.011148
1276.000000	35.683445
1275.000000	36.351089
1274.000000	36.999494
1273.000000	37.619652
1272.000000	38.214711
1271.000000	38.793427
1270.000000	39.356686
1269.000000	39.898795
1268.000000	40.418377
1267.000000	40.916893
1266.000000	41.391096
1265.000000	41.835776
1264.000000	42.251857
1263.000000	42.646008
1262.000000	43.023553
1261.000000	43.390250
1260.000000	43.756930
1259.000000	44.133323
1258.000000	44.519901
1257.000000	44.910776
1256.000000	45.301311
1255.000000	45.686670
1254.000000	46.057324
1253.000000	46.403753
1252.000000	46.723546
1251.000000	47.020521
1250.000000	47.300353
1249.000000	47.570953
1248.000000	47.843839
1247.000000	48.129364
1246.000000	48.431449
1245.000000	48.748928
1244.000000	49.078297
1243.000000	49.411917
1242.000000	49.736993
1241.000000	50.041083
1240.000000	50.317914
1239.000000	50.566783
1238.000000	50.790712
1237.000000	50.997360
1236.000000	51.198755
1235.000000	51.406880
1234.000000	51.629142
1233.000000	51.868573
1232.000000	52.125080
1231.000000	52.394337
1230.000000	52.667838
1229.000000	52.936107
1228.000000	53.191437
1227.000000	53.428225
1226.000000	53.644093
1225.000000	53.841911
1224.000000	54.028272
1223.000000	54.209922
1222.000000	54.392928
1221.000000	54.583844
1220.000000	54.788680
1219.000000	55.010230
1218.000000	55.248096
1217.000000	55.500303
1216.000000	55.762270
1215.000000	56.024953
1214.000000	56.277160
1213.000000	56.509967
1212.000000	56.717798
1211.000000	56.897801
1210.000000	57.052419
1209.000000	57.191295
1208.000000	57.328601
1207.000000	57.478989
1206.000000	57.655561
1205.000000	57.867298
1204.000000	58.114138
1203.000000	58.384560
1202.000000	58.659796
1201.000000	58.919874
1200.000000	59.146703
1199.000000	59.327149
1198.000000	59.458781
1197.000000	59.552052
1196.000000	59.623747
1195.000000	59.690651
1194.000000	59.766819
1193.000000	59.859127
1192.000000	59.961400
1191.000000	60.053794
1190.000000	60.113487
1189.000000	60.126178
1188.000000	60.089975
1187.000000	60.016387
1186.000000	59.929775
1185.000000	59.860609
1184.000000	59.833496
1183.000000	59.860656
1182.000000	59.944041
1181.000000	60.081006
1180.000000	60.265395
1179.000000	60.487464
1178.000000	60.737768
1177.000000	61.007416
1176.000000	61.285299
1175.000000	61.557735
1174.000000	61.813181
1173.000000	62.044579
1172.000000	62.246147
1171.000000	62.413036
1170.000000	62.547061
1169.000000	62.658862
1168.000000	62.762160
1167.000000	62.870838
1166.000000	63.001053
1165.000000	63.168589
1164.000000	63.379347
1163.000000	63.624654
1162.000000	63.886484
1161.000000	64.142928
1160.000000	64.369289
1159.000000	64.544000
1158.000000	64.660111
1157.000000	64.729068
1156.000000	64.772450
1155.000000	64.814906
1154.000000	64.883175
1153.000000	64.999985
1152.000000	65.172694
1151.000000	65.390191
1150.000000	65.631581
1149.000000	65.873506
1148.000000	66.090772
1147.000000	66.261248
1146.000000	66.377075
1145.000000	66.447130
1144.000000	66.487963
1143.000000	66.517446
1142.000000	66.556128
1141.000000	66.623613
1140.000000	66.728373
1139.000000	66.866241
1138.000000	67.029518
1137.000000	67.210973
1136.000000	67.398573
1135.000000	67.575765
1134.000000	67.730596
1133.000000	67.858597
1132.000000	67.956413
1131.000000	68.021955
1130.000000	68.062637
1129.000000	68.095435
1128.000000	68.135853
1127.000000	68.193743
1126.000000	68.279561
1125.000000	68.404240
1124.000000	68.568762
1123.000000	68.760851
1122.000000	68.963767
1121.000000	69.161035
1120.000000	69.332513
1119.000000	69.457955
1118.000000	69.530522
1117.000000	69.560857
1116.000000	69.567296
1115.000000	69.569661
1114.000000	69.592052
1113.000000	69.658607
1112.000000	69.780126
1111.000000	69.949634
1110.000000	70.151682
1109.000000	70.367870
1108.000000	70.573443
1107.000000	70.741241
1106.000000	70.855902
1105.000000	70.918529
1104.000000	70.938117
1103.000000	70.928433
1102.000000	70.913081
1101.000000	70.921220
1100.000000	70.972859
1099.000000	71.073474
1098.000000	71.221249
1097.000000	71.408739
1096.000000	71.615711
1095.000000	71.812512
1094.000000	71.975869
1093.000000	72.095779
1092.000000	72.168873
1091.000000	72.198432
1090.000000	72.202624
1089.000000	72.210582
1088.000000	72.246006
1087.000000	72.320990
1086.000000	72.442567
1085.000000	72.612157
1084.000000	72.816192
1083.000000	73.028356
1082.000000	73.225335
1081.000000	73.392959
1080.000000	73.519053
1079.000000	73.594145
1078.000000	73.623046
1077.000000	73.621828
1076.000000	73.602358
1075.000000	73.568823
1074.000000	73.526239
1073.000000	73.480548
1072.000000	73.424672
1071.000000	73.337528
1070.000000	73.196911
1069.000000	72.979464
1068.000000	72.655007
1067.000000	72.192055
1066.000000	71.580249
1065.000000	70.842830
1064.000000	70.029757
1063.000000	69.213556
1062.000000	68.485169
1061.000000	67.934445
1060.000000	67.620278
1059.000000	67.560979
1058.000000	67.736902
1057.000000	68.099992
1056.000000	68.580975
1055.000000	69.098997
1054.000000	69.585682
1053.000000	69.995961
1052.000000	70.306535
1051.000000	70.516536
1050.000000	70.653024
1049.000000	70.762401
1048.000000	70.887714
1047.000000	71.055109
1046.000000	71.275316
1045.000000	71.544501
1044.000000	71.839789
1043.000000	72.127202
1042.000000	72.380806
1041.000000	72.590270
1040.000000	72.752862
1039.000000	72.870685
1038.000000	72.957732
1037.000000	73.036726
1036.000000	73.124158
1035.000000	73.227062
1034.000000	73.352423
1033.000000	73.508189
1032.000000	73.693505
1031.000000	73.899315
1030.000000	74.119727
1029.000000	74.352331
1028.000000	74.585406
1027.000000	74.796487
1026.000000	74.966499
1025.000000	75.086787
1024.000000	75.153172
1023.000000	75.168762
1022.000000	75.156207
1021.000000	75.153910
1020.000000	75.196602
1019.000000	75.305616
1018.000000	75.492233
1017.000000	75.752927
1016.000000	76.057537
1015.000000	76.354463
1014.000000	76.594799
1013.000000	76.747938
1012.000000	76.800946
1011.000000	76.761691
1010.000000	76.667451
1009.000000	76.574570
1008.000000	76.531937
1007.000000	76.568168
1006.000000	76.696128
1005.000000	76.911123
1004.000000	77.182151
1003.000000	77.459904
1002.000000	77.700857
1001.000000	77.879465
1000.000000	77.982252
999.000000	78.007473
998.000000	77.973621
997.000000	77.914773
996.000000	77.861553
995.000000	77.834528
994.000000	77.852112
993.000000	77.929300
992.000000	78.065362
991.000000	78.244381
990.000000	78.449033
989.000000	78.663510
988.000000	78.863655
987.000000	79.019171
986.000000	79.110646
985.000000	79.135820
984.000000	79.100960
983.000000	79.019863
982.000000	78.923328
981.000000	78.853471
980.000000	78.843418
979.000000	78.908518
978.000000	79.052980
977.000000	79.267754
976.000000	79.520341
975.000000	79.761282
974.000000	79.948217
973.000000	80.057368
972.000000	80.077486
971.000000	80.011234
970.000000	79.886026
969.000000	79.748821
968.000000	79.643398
967.000000	79.599531
966.000000	79.637486
965.000000	79.765590
964.000000	79.968118
963.000000	80.208270
962.000000	80.445998
961.000000	80.646477
960.000000	80.775741
959.000000	80.808498
958.000000	80.746455
957.000000	80.619160
956.000000	80.465354
955.000000	80.323326
954.000000	80.234837
953.000000	80.236676
952.000000	80.340374
951.000000	80.527369
950.000000	80.764321
949.000000	81.010989
948.000000	81.218344
947.000000	81.340321
946.000000	81.358501
945.000000	81.286546
944.000000	81.153240
943.000000	80.993300
942.000000	80.850250
941.000000	80.766877
940.000000	80.764258
939.000000	80.837834
938.000000	80.971440
937.000000	81.143611
936.000000	81.321887
935.000000	81.470288
934.000000	81.567931
933.000000	81.611371
932.000000	81.598873
931.000000	81.528683
930.000000	81.411867
929.000000	81.272916
928.000000	81.135563
927.000000	81.020038
926.000000	80.951793
925.000000	80.955529
924.000000	81.036261
923.000000	81.175375
922.000000	81.343692
921.000000	81.504764
920.000000	81.609287
919.000000	81.608384
918.000000	81.482773
917.000000	81.250130
916.000000	80.949901
915.000000	80.634315
914.000000	80.367111
913.000000	80.204544
912.000000	80.165861
911.000000	80.227565
910.000000	80.341479
909.000000	80.448080
908.000000	80.481474
907.000000	80.388067
906.000000	80.154176
905.000000	79.807665
904.000000	79.393291
903.000000	78.958241
902.000000	78.549956
901.000000	78.204305
900.000000	77.926120
899.000000	77.691007
898.000000	77.468019
897.000000	77.230286
896.000000	76.951115
895.000000	76.608674
894.000000	76.197362
893.000000	75.723740
892.000000	75.188750
891.000000	74.587358
890.000000	73.922414
889.000000	73.204948
888.000000	72.446405
887.000000	71.660472
886.000000	70.871180
885.000000	70.104135
884.000000	69.366497
883.000000	68.643501
882.000000	67.907405
881.000000	67.121820
880.000000	66.245098
879.000000	65.245039
878.000000	64.118513
877.000000	62.890930
876.000000	61.603493
875.000000	60.306054
874.000000	59.050019
873.000000	57.873418
872.000000	56.788224
871.000000	55.782686
870.000000	54.830680
869.000000	53.899786
868.000000	52.958979
867.000000	51.990457
866.000000	50.996466
865.000000	49.993757
864.000000	49.007710
863.000000	48.067737
862.000000	47.200163
861.000000	46.420591
860.000000	45.731692
859.000000	45.129291
858.000000	44.602466
857.000000	44.131935
856.000000	43.696491
855.000000	43.279766
854.000000	42.873371
853.000000	42.474133
852.000000	42.085643
851.000000	41.722679
850.000000	41.404920
849.000000	41.149322
848.000000	40.969194
847.000000	40.877051
846.000000	40.883559
845.000000	40.988934
844.000000	41.185104
843.000000	41.462515
842.000000	41.809686
841.000000	42.211015
840.000000	42.648730
839.000000	43.114921
838.000000	43.614222
837.000000	44.153959
836.000000	44.741631
835.000000	45.390197
834.000000	46.113769
833.000000	46.903339
832.000000	47.706064
831.000000	48.389704
830.000000	48.688529
829.000000	48.180568
828.000000	46.458806
827.000000	43.512370
826.000000	39.974186
825.000000	36.888003
824.000000	35.107425
823.000000	34.862699
822.000000	35.839160
821.000000	37.559160
820.000000	39.623547
819.000000	41.730803
818.000000	43.672286
817.000000	45.358344
816.000000	46.809875
815.000000	48.071416
814.000000	49.160521
813.000000	50.087036
812.000000	50.877954
811.000000	51.560848
810.000000	52.156669
809.000000	52.698500
808.000000	53.231489
807.000000	53.788517
806.000000	54.377568
805.000000	54.995837
804.000000	55.633894
803.000000	56.262796
802.000000	56.841715
801.000000	57.345404
800.000000	57.773427
799.000000	58.135781
798.000000	58.447462
797.000000	58.737139
796.000000	59.039805
795.000000	59.376570
794.000000	59.751781
793.000000	60.166024
792.000000	60.617189
791.000000	61.090859
790.000000	61.565171
789.000000	62.025179
788.000000	62.461792
787.000000	62.861121
786.000000	63.208890
785.000000	63.502781
784.000000	63.750727
783.000000	63.961806
782.000000	64.151218
781.000000	64.348269
780.000000	64.587263
779.000000	64.890886
778.000000	65.266612
777.000000	65.708165
776.000000	66.187486
775.000000	66.651600
774.000000	67.043449
773.000000	67.327855
772.000000	67.496997
771.000000	67.566079
770.000000	67.576363
769.000000	67.591933
768.000000	67.674724
767.000000	67.859299
766.000000	68.150046
765.000000	68.528629
764.000000	68.952359
763.000000	69.357343
762.000000	69.683852
761.000000	69.903052
760.000000	70.018175
759.000000	70.053040
758.000000	70.048401
757.000000	70.054916
756.000000	70.111744
755.000000	70.231126
754.000000	70.407155
753.000000	70.629090
752.000000	70.880019
751.000000	71.135666
750.000000	71.378773
749.000000	71.608124
748.000000	71.825169
747.000000	72.020314
746.000000	72.181116
745.000000	72.303143
744.000000	72.384435
743.000000	72.421924
742.000000	72.426056
741.000000	72.430192
740.000000	72.474808
739.000000	72.587394
738.000000	72.779851
737.000000	73.048534
736.000000	73.362740
735.000000	73.663167
734.000000	73.887329
733.000000	73.996409
732.000000	73.979035
731.000000	73.849499
730.000000	73.654559
729.000000	73.466751
728.000000	73.352448
727.000000	73.345694
726.000000	73.450415
725.000000	73.649600
724.000000	73.902030
723.000000	74.147193
722.000000	74.333587
721.000000	74.441434
720.000000	74.476364
719.000000	74.456849
718.000000	74.416428
717.000000	74.400445
716.000000	74.443316
715.000000	74.553037
714.000000	74.722710
713.000000	74.943826
712.000000	75.200689
711.000000	75.467412
710.000000	75.724366
709.000000	75.966957
708.000000	76.189991
707.000000	76.377383
706.000000	76.517888
705.000000	76.617122
704.000000	76.684574
703.000000	76.724169
702.000000	76.749041
701.000000	76.790712
700.000000	76.879826
699.000000	77.027808
698.000000	77.232962
697.000000	77.486996
696.000000	77.762789
695.000000	78.013021
694.000000	78.197540
693.000000	78.304325
692.000000	78.338788
691.000000	78.312402
690.000000	78.253983
689.000000	78.213202
688.000000	78.232818
687.000000	78.324229
686.000000	78.480237
685.000000	78.692298
684.000000	78.940204
683.000000	79.184594
682.000000	79.389873
681.000000	79.542384
680.000000	79.638511
679.000000	79.674192
678.000000	79.660638
677.000000	79.630632
676.000000	79.616823
675.000000	79.635715
674.000000	79.700881
673.000000	79.830418
672.000000	80.023626
671.000000	80.254404
670.000000	80.501234
669.000000	80.760022
668.000000	80.991988
667.000000	81.103641
666.000000	81.078450
665.000000	80.996346
664.000000	80.921672
663.000000	80.883944
662.000000	80.903954
661.000000	80.995033
660.000000	81.150949
659.000000	81.345217
658.000000	81.548948
657.000000	81.740831
656.000000	81.901165
655.000000	82.012329
654.000000	82.076351
653.000000	82.116967
652.000000	82.154512
651.000000	82.192930
650.000000	82.234176
649.000000	82.285375
648.000000	82.345016
647.000000	82.403345
646.000000	82.466207
645.000000	82.560267
644.000000	82.702096
643.000000	82.877818
642.000000	83.060146
641.000000	83.227058
640.000000	83.353341
639.000000	83.408401
638.000000	83.382452
637.000000	83.302155
636.000000	83.211345
635.000000	83.151935
634.000000	83.164959
633.000000	83.281556
632.000000	83.496522
631.000000	83.762177
630.000000	84.017546
629.000000	84.214100
628.000000	84.315672
627.000000	84.305104
626.000000	84.210065
625.000000	84.098640
624.000000	84.031591
623.000000	84.033656
622.000000	84.110167
621.000000	84.259716
620.000000	84.456773
619.000000	84.650007
618.000000	84.798323
617.000000	84.896320
616.000000	84.955373
615.000000	84.984968
614.000000	85.003167
613.000000	85.036389
612.000000	85.089668
611.000000	85.136886
610.000000	85.148983
609.000000	85.110496
608.000000	85.005859
607.000000	84.814159
606.000000	84.528554
605.000000	84.140067
604.000000	83.576094
603.000000	82.674929
602.000000	81.209700
601.000000	78.958189
600.000000	75.813301
599.000000	71.938297
598.000000	67.837421
597.000000	64.202840
596.000000	61.642808
595.000000	60.476250
594.000000	60.668477
593.000000	61.912718
592.000000	63.808719
591.000000	65.971772
590.000000	68.086881
589.000000	69.975322
588.000000	71.586768
587.000000	72.940534
586.000000	74.083031
585.000000	75.076524
584.000000	75.972772
583.000000	76.796759
582.000000	77.561860
581.000000	78.284266
580.000000	78.963728
579.000000	79.568142
578.000000	80.076187
577.000000	80.510390
576.000000	80.905771
575.000000	81.269598
574.000000	81.592109
573.000000	81.876452
572.000000	82.124146
571.000000	82.318129
570.000000	82.453110
569.000000	82.561695
568.000000	82.686322
567.000000	82.846833
566.000000	83.051745
565.000000	83.312228
564.000000	83.616482
563.000000	83.914622
562.000000	84.155267
561.000000	84.321124
560.000000	84.413427
559.000000	84.433348
558.000000	84.405670
557.000000	84.387148
556.000000	84.424559
555.000000	84.525575
554.000000	84.682222
553.000000	84.888976
552.000000	85.119374
551.000000	85.319053
550.000000	85.452620
549.000000	85.534527
548.000000	85.593812
547.000000	85.642526
546.000000	85.695263
545.000000	85.777736
544.000000	85.887732
543.000000	85.985420
542.000000	86.044896
541.000000	86.086041
540.000000	86.137377
539.000000	86.206922
538.000000	86.307178
537.000000	86.465931
536.000000	86.682044
535.000000	86.903798
534.000000	87.075518
533.000000	87.178167
532.000000	87.205421
531.000000	87.146626
530.000000	87.027634
529.000000	86.923843
528.000000	86.903343
527.000000	86.985953
526.000000	87.162895
525.000000	87.405651
524.000000	87.640467
523.000000	87.766668
522.000000	87.728945
521.000000	87.542151
520.000000	87.240039
519.000000	86.842306
518.000000	86.389386
517.000000	85.963145
516.000000	85.628280
515.000000	85.392588
514.000000	85.245567
513.000000	85.193477
512.000000	85.226970
511.000000	85.298922
510.000000	85.363697
509.000000	85.404816
508.000000	85.387933
507.000000	85.227956
506.000000	84.835105
505.000000	84.157904
504.000000	83.171920
503.000000	81.913611
502.000000	80.583361
501.000000	79.502729
500.000000	78.894800
499.000000	78.780169
498.000000	79.071728
497.000000	79.646281
496.000000	80.336266
495.000000	80.955386
494.000000	81.383665
493.000000	81.621570
492.000000	81.741951
491.000000	81.832713
490.000000	81.986298
489.000000	82.282927
488.000000	82.735442
487.000000	83.280599
486.000000	83.845076
485.000000	84.391876
484.000000	84.890258
483.000000	85.297758
482.000000	85.615457
481.000000	85.907357
480.000000	86.223016
479.000000	86.546631
478.000000	86.843166
477.000000	87.103946
476.000000	87.314608
475.000000	87.433316
474.000000	87.454699
473.000000	87.454020
472.000000	87.514716
471.000000	87.638946
470.000000	87.795307
469.000000	87.999779
468.000000	88.261149
467.000000	88.514272
466.000000	88.670079
465.000000	88.703717
464.000000	88.631890
463.000000	88.468592
462.000000	88.268978
461.000000	88.141256
460.000000	88.152012
459.000000	88.276050
458.000000	88.465545
457.000000	88.697551
456.000000	88.903898
455.000000	88.980912
454.000000	88.908565
453.000000	88.771364
452.000000	88.649249
451.000000	88.522996
450.000000	88.335541
449.000000	88.091603
448.000000	87.816526
447.000000	87.485416
446.000000	87.059201
445.000000	86.534039
444.000000	85.882715
443.000000	85.012818
442.000000	83.850677
441.000000	82.417915
440.000000	80.761936
439.000000	78.915119
438.000000	76.979645
437.000000	75.204319
436.000000	73.895226
435.000000	73.229959
434.000000	73.187828
433.000000	73.664788
432.000000	74.573951
431.000000	75.780684
430.000000	77.100217
429.000000	78.412826
428.000000	79.661502
427.000000	80.769186
426.000000	81.695410
425.000000	82.534418
424.000000	83.384542
423.000000	84.181428
422.000000	84.813124
421.000000	85.330674
420.000000	85.867357
419.000000	86.461539
418.000000	87.057840
417.000000	87.599104
416.000000	88.073360
415.000000	88.435650
414.000000	88.652294
413.000000	88.812921
412.000000	88.981306
411.000000	89.044204
410.000000	88.926091
409.000000	88.803701
408.000000	88.866251
407.000000	89.075865
406.000000	89.321698
405.000000	89.663062
404.000000	90.121149
403.000000	90.452514
402.000000	90.412384
401.000000	90.063352
400.000000	89.564375
