PE IR       SUBTECH     SPECTRUM    ASCII       PEDS        4.00        
   -1
23MS115_nitrito.asc
24/09/05
17:10:40.00
24/09/05
17:10:40.00
Administrator
Sample 1116 By Administrator Date Thursday, September 05 2024
400.000000
#HDR
-1
-1
#GR
cm-1
%T
1.0
0.0
4000.000000
-1.000000
3601
8
94.765453
4.880177
#DATA
4000.000000	78.382460
3999.000000	78.439842
3998.000000	78.495969
3997.000000	78.552249
3996.000000	78.609505
3995.000000	78.667584
3994.000000	78.726308
3993.000000	78.786593
3992.000000	78.849975
3991.000000	78.916580
3990.000000	78.983883
3989.000000	79.048483
3988.000000	79.109219
3987.000000	79.167798
3986.000000	79.226697
3985.000000	79.286845
3984.000000	79.347417
3983.000000	79.406826
3982.000000	79.463454
3981.000000	79.516293
3980.000000	79.565615
3979.000000	79.613578
3978.000000	79.663552
3977.000000	79.717694
3976.000000	79.775175
3975.000000	79.832803
3974.000000	79.887902
3973.000000	79.940678
3972.000000	79.993462
3971.000000	80.048453
3970.000000	80.105661
3969.000000	80.162715
3968.000000	80.216892
3967.000000	80.266970
3966.000000	80.313773
3965.000000	80.359743
3964.000000	80.407562
3963.000000	80.457898
3962.000000	80.509004
3961.000000	80.558393
3960.000000	80.605515
3959.000000	80.653219
3958.000000	80.704894
3957.000000	80.760917
3956.000000	80.818788
3955.000000	80.875538
3954.000000	80.929834
3953.000000	80.981687
3952.000000	81.031442
3951.000000	81.079763
3950.000000	81.126726
3949.000000	81.170833
3948.000000	81.210570
3947.000000	81.247447
3946.000000	81.287628
3945.000000	81.339815
3944.000000	81.408407
3943.000000	81.486258
3942.000000	81.559388
3941.000000	81.620727
3940.000000	81.674827
3939.000000	81.730325
3938.000000	81.788645
3937.000000	81.842600
3936.000000	81.887014
3935.000000	81.926355
3934.000000	81.972431
3933.000000	82.031933
3932.000000	82.099402
3931.000000	82.163521
3930.000000	82.216925
3929.000000	82.263243
3928.000000	82.312485
3927.000000	82.373366
3926.000000	82.446899
3925.000000	82.522090
3924.000000	82.583654
3923.000000	82.626144
3922.000000	82.656933
3921.000000	82.688105
3920.000000	82.728120
3919.000000	82.779389
3918.000000	82.840018
3917.000000	82.905029
3916.000000	82.968260
3915.000000	83.025492
3914.000000	83.078596
3913.000000	83.133226
3912.000000	83.191433
3911.000000	83.250172
3910.000000	83.304486
3909.000000	83.352702
3908.000000	83.399443
3907.000000	83.448564
3906.000000	83.498406
3905.000000	83.541081
3904.000000	83.569830
3903.000000	83.591459
3902.000000	83.623671
3901.000000	83.679439
3900.000000	83.755128
3899.000000	83.831984
3898.000000	83.893475
3897.000000	83.939408
3896.000000	83.980208
3895.000000	84.028664
3894.000000	84.092876
3893.000000	84.171770
3892.000000	84.251341
3891.000000	84.312611
3890.000000	84.348685
3889.000000	84.367704
3888.000000	84.388913
3887.000000	84.434319
3886.000000	84.505520
3885.000000	84.576282
3884.000000	84.624382
3883.000000	84.658659
3882.000000	84.704012
3881.000000	84.770019
3880.000000	84.838541
3879.000000	84.888846
3878.000000	84.923061
3877.000000	84.958870
3876.000000	85.012482
3875.000000	85.083623
3874.000000	85.150465
3873.000000	85.191942
3872.000000	85.214375
3871.000000	85.244028
3870.000000	85.292033
3869.000000	85.342744
3868.000000	85.381189
3867.000000	85.413685
3866.000000	85.461442
3865.000000	85.533920
3864.000000	85.613897
3863.000000	85.679722
3862.000000	85.727754
3861.000000	85.768596
3860.000000	85.814384
3859.000000	85.871604
3858.000000	85.941030
3857.000000	86.015436
3856.000000	86.084721
3855.000000	86.145958
3854.000000	86.201031
3853.000000	86.248426
3852.000000	86.293944
3851.000000	86.342524
3850.000000	86.387868
3849.000000	86.428901
3848.000000	86.468648
3847.000000	86.511436
3846.000000	86.560243
3845.000000	86.613638
3844.000000	86.667009
3843.000000	86.716531
3842.000000	86.762016
3841.000000	86.810541
3840.000000	86.867779
3839.000000	86.928879
3838.000000	86.987670
3837.000000	87.044600
3836.000000	87.103467
3835.000000	87.163017
3834.000000	87.219409
3833.000000	87.273845
3832.000000	87.329390
3831.000000	87.385743
3830.000000	87.442563
3829.000000	87.501432
3828.000000	87.563560
3827.000000	87.626780
3826.000000	87.681361
3825.000000	87.718744
3824.000000	87.743445
3823.000000	87.776701
3822.000000	87.838626
3821.000000	87.916281
3820.000000	87.980987
3819.000000	88.028506
3818.000000	88.074670
3817.000000	88.136270
3816.000000	88.213810
3815.000000	88.290689
3814.000000	88.356796
3813.000000	88.413558
3812.000000	88.463896
3811.000000	88.510399
3810.000000	88.554707
3809.000000	88.597627
3808.000000	88.641483
3807.000000	88.686698
3806.000000	88.730340
3805.000000	88.773533
3804.000000	88.821140
3803.000000	88.885425
3802.000000	88.967157
3801.000000	89.042555
3800.000000	89.097792
3799.000000	89.144131
3798.000000	89.195304
3797.000000	89.254441
3796.000000	89.314208
3795.000000	89.367394
3794.000000	89.415922
3793.000000	89.465659
3792.000000	89.518616
3791.000000	89.573645
3790.000000	89.628530
3789.000000	89.682092
3788.000000	89.736529
3787.000000	89.795620
3786.000000	89.859924
3785.000000	89.924248
3784.000000	89.981334
3783.000000	90.029611
3782.000000	90.075826
3781.000000	90.129362
3780.000000	90.191988
3779.000000	90.254552
3778.000000	90.307825
3777.000000	90.351693
3776.000000	90.391833
3775.000000	90.433632
3774.000000	90.478770
3773.000000	90.525268
3772.000000	90.572942
3771.000000	90.625234
3770.000000	90.681263
3769.000000	90.735726
3768.000000	90.788504
3767.000000	90.845004
3766.000000	90.909028
3765.000000	90.974052
3764.000000	91.028235
3763.000000	91.068362
3762.000000	91.103495
3761.000000	91.147478
3760.000000	91.202918
3759.000000	91.259907
3758.000000	91.312414
3757.000000	91.362575
3756.000000	91.413225
3755.000000	91.462827
3754.000000	91.511062
3753.000000	91.562780
3752.000000	91.618645
3751.000000	91.670165
3750.000000	91.715530
3749.000000	91.766146
3748.000000	91.825402
3747.000000	91.883625
3746.000000	91.937404
3745.000000	91.989652
3744.000000	92.036634
3743.000000	92.083637
3742.000000	92.137974
3741.000000	92.192577
3740.000000	92.238127
3739.000000	92.272437
3738.000000	92.306567
3737.000000	92.358641
3736.000000	92.436749
3735.000000	92.521462
3734.000000	92.587826
3733.000000	92.637396
3732.000000	92.685790
3731.000000	92.741260
3730.000000	92.798660
3729.000000	92.849623
3728.000000	92.897454
3727.000000	92.951431
3726.000000	93.012060
3725.000000	93.072248
3724.000000	93.131644
3723.000000	93.196494
3722.000000	93.267063
3721.000000	93.339621
3720.000000	93.409449
3719.000000	93.473367
3718.000000	93.531210
3717.000000	93.582461
3716.000000	93.626732
3715.000000	93.663496
3714.000000	93.695026
3713.000000	93.728429
3712.000000	93.768627
3711.000000	93.814974
3710.000000	93.867753
3709.000000	93.928967
3708.000000	93.996814
3707.000000	94.065823
3706.000000	94.129366
3705.000000	94.182804
3704.000000	94.226662
3703.000000	94.264989
3702.000000	94.299739
3701.000000	94.330693
3700.000000	94.360029
3699.000000	94.390589
3698.000000	94.424570
3697.000000	94.461919
3696.000000	94.498845
3695.000000	94.531189
3694.000000	94.559118
3693.000000	94.588898
3692.000000	94.625383
3691.000000	94.662933
3690.000000	94.686498
3689.000000	94.691896
3688.000000	94.696910
3687.000000	94.716233
3686.000000	94.742258
3685.000000	94.760595
3684.000000	94.765453
3683.000000	94.759219
3682.000000	94.748316
3681.000000	94.738621
3680.000000	94.734023
3679.000000	94.727533
3678.000000	94.703177
3677.000000	94.657087
3676.000000	94.602548
3675.000000	94.557762
3674.000000	94.532249
3673.000000	94.515073
3672.000000	94.484910
3671.000000	94.440087
3670.000000	94.387122
3669.000000	94.327353
3668.000000	94.271115
3667.000000	94.225920
3666.000000	94.182864
3665.000000	94.131316
3664.000000	94.066248
3663.000000	93.989681
3662.000000	93.908159
3661.000000	93.825339
3660.000000	93.739483
3659.000000	93.640635
3658.000000	93.516164
3657.000000	93.364274
3656.000000	93.201524
3655.000000	93.053026
3654.000000	92.924301
3653.000000	92.796704
3652.000000	92.650162
3651.000000	92.475097
3650.000000	92.264252
3649.000000	92.021886
3648.000000	91.786651
3647.000000	91.598399
3646.000000	91.455152
3645.000000	91.328466
3644.000000	91.195854
3643.000000	91.049564
3642.000000	90.886794
3641.000000	90.703021
3640.000000	90.498541
3639.000000	90.281790
3638.000000	90.061084
3637.000000	89.836801
3636.000000	89.606362
3635.000000	89.375097
3634.000000	89.153503
3633.000000	88.944295
3632.000000	88.733035
3631.000000	88.495401
3630.000000	88.218077
3629.000000	87.913625
3628.000000	87.620955
3627.000000	87.379009
3626.000000	87.184094
3625.000000	87.004024
3624.000000	86.817120
3623.000000	86.616868
3622.000000	86.398708
3621.000000	86.156663
3620.000000	85.890199
3619.000000	85.611702
3618.000000	85.344639
3617.000000	85.105688
3616.000000	84.890811
3615.000000	84.683580
3614.000000	84.467492
3613.000000	84.234395
3612.000000	83.988105
3611.000000	83.737159
3610.000000	83.487060
3609.000000	83.243612
3608.000000	83.011935
3607.000000	82.793515
3606.000000	82.586375
3605.000000	82.385898
3604.000000	82.187991
3603.000000	81.987599
3602.000000	81.778152
3601.000000	81.557636
3600.000000	81.331669
3599.000000	81.106870
3598.000000	80.884487
3597.000000	80.660971
3596.000000	80.434738
3595.000000	80.207953
3594.000000	79.982368
3593.000000	79.761231
3592.000000	79.547339
3591.000000	79.336972
3590.000000	79.121325
3589.000000	78.897097
3588.000000	78.669961
3587.000000	78.449465
3586.000000	78.244790
3585.000000	78.059921
3584.000000	77.889807
3583.000000	77.723472
3582.000000	77.550196
3581.000000	77.364063
3580.000000	77.165969
3579.000000	76.960038
3578.000000	76.748980
3577.000000	76.534415
3576.000000	76.318449
3575.000000	76.102953
3574.000000	75.887958
3573.000000	75.674033
3572.000000	75.464039
3571.000000	75.257691
3570.000000	75.048663
3569.000000	74.832452
3568.000000	74.612238
3567.000000	74.393704
3566.000000	74.180808
3565.000000	73.978120
3564.000000	73.787566
3563.000000	73.605260
3562.000000	73.422174
3561.000000	73.229737
3560.000000	73.025504
3559.000000	72.812926
3558.000000	72.597484
3557.000000	72.384414
3556.000000	72.177787
3555.000000	71.977576
3554.000000	71.778963
3553.000000	71.576742
3552.000000	71.370648
3551.000000	71.163274
3550.000000	70.954087
3549.000000	70.741123
3548.000000	70.526105
3547.000000	70.313477
3546.000000	70.104865
3545.000000	69.899782
3544.000000	69.699827
3543.000000	69.507078
3542.000000	69.319924
3541.000000	69.134887
3540.000000	68.951391
3539.000000	68.771163
3538.000000	68.595274
3537.000000	68.423169
3536.000000	68.253735
3535.000000	68.084931
3534.000000	67.914151
3533.000000	67.741865
3532.000000	67.571449
3531.000000	67.404290
3530.000000	67.236431
3529.000000	67.064271
3528.000000	66.890659
3527.000000	66.722192
3526.000000	66.563316
3525.000000	66.415812
3524.000000	66.279528
3523.000000	66.149847
3522.000000	66.018791
3521.000000	65.882502
3520.000000	65.744610
3519.000000	65.608852
3518.000000	65.472961
3517.000000	65.333106
3516.000000	65.190509
3515.000000	65.049139
3514.000000	64.909100
3513.000000	64.767224
3512.000000	64.621894
3511.000000	64.473543
3510.000000	64.322450
3509.000000	64.170467
3508.000000	64.022020
3507.000000	63.879760
3506.000000	63.741505
3505.000000	63.604579
3504.000000	63.469537
3503.000000	63.336500
3502.000000	63.201533
3501.000000	63.060817
3500.000000	62.915841
3499.000000	62.770341
3498.000000	62.625072
3497.000000	62.478474
3496.000000	62.330465
3495.000000	62.182330
3494.000000	62.034654
3493.000000	61.888226
3492.000000	61.744965
3491.000000	61.605108
3490.000000	61.465709
3489.000000	61.324865
3488.000000	61.184542
3487.000000	61.046401
3486.000000	60.907841
3485.000000	60.764876
3484.000000	60.616376
3483.000000	60.463471
3482.000000	60.307708
3481.000000	60.152815
3480.000000	60.004037
3479.000000	59.862328
3478.000000	59.722415
3477.000000	59.579647
3476.000000	59.435395
3475.000000	59.292672
3474.000000	59.150597
3473.000000	59.006819
3472.000000	58.862389
3471.000000	58.720222
3470.000000	58.580778
3469.000000	58.442547
3468.000000	58.304341
3467.000000	58.164228
3466.000000	58.019135
3465.000000	57.868383
3464.000000	57.715660
3463.000000	57.565264
3462.000000	57.418692
3461.000000	57.276477
3460.000000	57.139486
3459.000000	57.006125
3458.000000	56.871778
3457.000000	56.733612
3456.000000	56.593492
3455.000000	56.453682
3454.000000	56.313157
3453.000000	56.170611
3452.000000	56.027377
3451.000000	55.884984
3450.000000	55.742446
3449.000000	55.598676
3448.000000	55.454753
3447.000000	55.311390
3446.000000	55.167403
3445.000000	55.022951
3444.000000	54.880531
3443.000000	54.740497
3442.000000	54.599009
3441.000000	54.453120
3440.000000	54.304979
3439.000000	54.158266
3438.000000	54.013365
3437.000000	53.868476
3436.000000	53.722676
3435.000000	53.574699
3434.000000	53.421640
3433.000000	53.262453
3432.000000	53.100280
3431.000000	52.939067
3430.000000	52.779341
3429.000000	52.619483
3428.000000	52.458827
3427.000000	52.296923
3426.000000	52.132261
3425.000000	51.963991
3424.000000	51.793076
3423.000000	51.619894
3422.000000	51.442797
3421.000000	51.260854
3420.000000	51.075538
3419.000000	50.887778
3418.000000	50.696129
3417.000000	50.499750
3416.000000	50.300578
3415.000000	50.100657
3414.000000	49.899491
3413.000000	49.695857
3412.000000	49.489470
3411.000000	49.279476
3410.000000	49.063895
3409.000000	48.841991
3408.000000	48.614680
3407.000000	48.381126
3406.000000	48.138376
3405.000000	47.885914
3404.000000	47.627543
3403.000000	47.367303
3402.000000	47.106016
3401.000000	46.842679
3400.000000	46.575590
3399.000000	46.300920
3398.000000	46.014455
3397.000000	45.716594
3396.000000	45.411994
3395.000000	45.103231
3394.000000	44.788360
3393.000000	44.465891
3392.000000	44.137293
3391.000000	43.802323
3390.000000	43.457225
3389.000000	43.099627
3388.000000	42.731669
3387.000000	42.355971
3386.000000	41.972179
3385.000000	41.580047
3384.000000	41.181309
3383.000000	40.776704
3382.000000	40.364500
3381.000000	39.943749
3380.000000	39.515651
3379.000000	39.079896
3378.000000	38.633819
3377.000000	38.176850
3376.000000	37.711382
3375.000000	37.238101
3374.000000	36.754439
3373.000000	36.259514
3372.000000	35.756682
3371.000000	35.248717
3370.000000	34.735224
3369.000000	34.215758
3368.000000	33.691379
3367.000000	33.161572
3366.000000	32.623572
3365.000000	32.076843
3364.000000	31.524122
3363.000000	30.967083
3362.000000	30.405247
3361.000000	29.839566
3360.000000	29.272592
3359.000000	28.703927
3358.000000	28.130136
3357.000000	27.550570
3356.000000	26.968151
3355.000000	26.384079
3354.000000	25.797057
3353.000000	25.208824
3352.000000	24.625120
3351.000000	24.049354
3350.000000	23.479761
3349.000000	22.913900
3348.000000	22.351313
3347.000000	21.790765
3346.000000	21.230403
3345.000000	20.671960
3344.000000	20.120001
3343.000000	19.575952
3342.000000	19.037271
3341.000000	18.503604
3340.000000	17.978748
3339.000000	17.465576
3338.000000	16.963859
3337.000000	16.473401
3336.000000	15.994929
3335.000000	15.527082
3334.000000	15.067219
3333.000000	14.616217
3332.000000	14.177339
3331.000000	13.750688
3330.000000	13.333177
3329.000000	12.923797
3328.000000	12.525044
3327.000000	12.138550
3326.000000	11.764560
3325.000000	11.405047
3324.000000	11.061897
3323.000000	10.732966
3322.000000	10.414098
3321.000000	10.104851
3320.000000	9.807857
3319.000000	9.522794
3318.000000	9.247324
3317.000000	8.982039
3316.000000	8.729389
3315.000000	8.488485
3314.000000	8.255718
3313.000000	8.030356
3312.000000	7.813976
3311.000000	7.605482
3310.000000	7.402761
3309.000000	7.207800
3308.000000	7.025438
3307.000000	6.857471
3306.000000	6.702855
3305.000000	6.562470
3304.000000	6.436834
3303.000000	6.321189
3302.000000	6.208566
3301.000000	6.097044
3300.000000	5.989270
3299.000000	5.885959
3298.000000	5.786013
3297.000000	5.691470
3296.000000	5.605667
3295.000000	5.527771
3294.000000	5.454632
3293.000000	5.387279
3292.000000	5.329600
3291.000000	5.280938
3290.000000	5.236619
3289.000000	5.194579
3288.000000	5.156141
3287.000000	5.121135
3286.000000	5.087704
3285.000000	5.056746
3284.000000	5.030624
3283.000000	5.008384
3282.000000	4.987278
3281.000000	4.967788
3280.000000	4.952173
3279.000000	4.939104
3278.000000	4.925427
3277.000000	4.912036
3276.000000	4.902287
3275.000000	4.895738
3274.000000	4.889037
3273.000000	4.882477
3272.000000	4.880177
3271.000000	4.884200
3270.000000	4.893435
3269.000000	4.907109
3268.000000	4.924376
3267.000000	4.941656
3266.000000	4.955431
3265.000000	4.966969
3264.000000	4.979862
3263.000000	4.994120
3262.000000	5.007458
3261.000000	5.020377
3260.000000	5.034868
3259.000000	5.049862
3258.000000	5.063271
3257.000000	5.077153
3256.000000	5.095359
3255.000000	5.117457
3254.000000	5.139950
3253.000000	5.162045
3252.000000	5.184896
3251.000000	5.206804
3250.000000	5.224913
3249.000000	5.240805
3248.000000	5.259164
3247.000000	5.281542
3246.000000	5.306018
3245.000000	5.331648
3244.000000	5.358521
3243.000000	5.384684
3242.000000	5.408016
3241.000000	5.430084
3240.000000	5.453718
3239.000000	5.477951
3238.000000	5.499748
3237.000000	5.519110
3236.000000	5.538243
3235.000000	5.557514
3234.000000	5.576743
3233.000000	5.598441
3232.000000	5.624731
3231.000000	5.652736
3230.000000	5.677824
3229.000000	5.699777
3228.000000	5.721197
3227.000000	5.741997
3226.000000	5.760427
3225.000000	5.777659
3224.000000	5.796059
3223.000000	5.814493
3222.000000	5.830235
3221.000000	5.844051
3220.000000	5.858598
3219.000000	5.873298
3218.000000	5.885663
3217.000000	5.896137
3216.000000	5.906850
3215.000000	5.917112
3214.000000	5.924730
3213.000000	5.930418
3212.000000	5.936240
3211.000000	5.941273
3210.000000	5.943309
3209.000000	5.943193
3208.000000	5.943179
3207.000000	5.942618
3206.000000	5.939584
3205.000000	5.935089
3204.000000	5.931194
3203.000000	5.926787
3202.000000	5.919534
3201.000000	5.910189
3200.000000	5.900781
3199.000000	5.890319
3198.000000	5.876688
3197.000000	5.860933
3196.000000	5.845371
3195.000000	5.829403
3194.000000	5.811313
3193.000000	5.792188
3192.000000	5.773955
3191.000000	5.755585
3190.000000	5.735436
3189.000000	5.715062
3188.000000	5.696511
3187.000000	5.678137
3186.000000	5.657339
3185.000000	5.635209
3184.000000	5.614203
3183.000000	5.593625
3182.000000	5.571730
3181.000000	5.549880
3180.000000	5.530188
3179.000000	5.511432
3178.000000	5.491637
3177.000000	5.472345
3176.000000	5.455906
3175.000000	5.440943
3174.000000	5.424948
3173.000000	5.408933
3172.000000	5.395100
3171.000000	5.382386
3170.000000	5.368747
3169.000000	5.355481
3168.000000	5.344873
3167.000000	5.335831
3166.000000	5.326305
3165.000000	5.317632
3164.000000	5.312111
3163.000000	5.308707
3162.000000	5.305386
3161.000000	5.303389
3160.000000	5.304792
3159.000000	5.308173
3158.000000	5.310879
3157.000000	5.313125
3156.000000	5.316096
3155.000000	5.318864
3154.000000	5.321528
3153.000000	5.328519
3152.000000	5.343818
3151.000000	5.365292
3150.000000	5.387930
3149.000000	5.410253
3148.000000	5.433434
3147.000000	5.456981
3146.000000	5.480068
3145.000000	5.504592
3144.000000	5.532169
3143.000000	5.560456
3142.000000	5.586800
3141.000000	5.613506
3140.000000	5.645190
3139.000000	5.682870
3138.000000	5.724672
3137.000000	5.769775
3136.000000	5.817569
3135.000000	5.865382
3134.000000	5.911181
3133.000000	5.956857
3132.000000	6.005154
3131.000000	6.055826
3130.000000	6.108143
3129.000000	6.164010
3128.000000	6.224810
3127.000000	6.287843
3126.000000	6.349779
3125.000000	6.410974
3124.000000	6.472778
3123.000000	6.533988
3122.000000	6.593973
3121.000000	6.656072
3120.000000	6.723649
3119.000000	6.795477
3118.000000	6.869337
3117.000000	6.947070
3116.000000	7.031554
3115.000000	7.121325
3114.000000	7.212283
3113.000000	7.302532
3112.000000	7.391864
3111.000000	7.479542
3110.000000	7.566642
3109.000000	7.657571
3108.000000	7.755029
3107.000000	7.855890
3106.000000	7.955692
3105.000000	8.054426
3104.000000	8.154220
3103.000000	8.254801
3102.000000	8.355586
3101.000000	8.459184
3100.000000	8.568419
3099.000000	8.681960
3098.000000	8.796982
3097.000000	8.913511
3096.000000	9.032167
3095.000000	9.150534
3094.000000	9.266063
3093.000000	9.380426
3092.000000	9.497178
3091.000000	9.617142
3090.000000	9.739433
3089.000000	9.864248
3088.000000	9.991182
3087.000000	10.117690
3086.000000	10.242908
3085.000000	10.370411
3084.000000	10.503334
3083.000000	10.639470
3082.000000	10.775068
3081.000000	10.910657
3080.000000	11.049384
3079.000000	11.192031
3078.000000	11.337548
3077.000000	11.485934
3076.000000	11.636590
3075.000000	11.786295
3074.000000	11.932662
3073.000000	12.077467
3072.000000	12.223200
3071.000000	12.368897
3070.000000	12.513140
3069.000000	12.658569
3068.000000	12.809215
3067.000000	12.965280
3066.000000	13.124081
3065.000000	13.284215
3064.000000	13.445242
3063.000000	13.605318
3062.000000	13.762853
3061.000000	13.918875
3060.000000	14.074829
3059.000000	14.230044
3058.000000	14.384182
3057.000000	14.539751
3056.000000	14.698810
3055.000000	14.859325
3054.000000	15.018273
3053.000000	15.176466
3052.000000	15.337098
3051.000000	15.501176
3050.000000	15.667205
3049.000000	15.833588
3048.000000	15.998648
3047.000000	16.160295
3046.000000	16.318435
3045.000000	16.476010
3044.000000	16.635492
3043.000000	16.796470
3042.000000	16.958576
3041.000000	17.123606
3040.000000	17.291849
3039.000000	17.459266
3038.000000	17.621854
3037.000000	17.780714
3036.000000	17.939984
3035.000000	18.101945
3034.000000	18.266837
3033.000000	18.434905
3032.000000	18.605189
3031.000000	18.774303
3030.000000	18.939540
3029.000000	19.101565
3028.000000	19.261914
3027.000000	19.420359
3026.000000	19.577281
3025.000000	19.735772
3024.000000	19.898048
3023.000000	20.062027
3022.000000	20.224505
3021.000000	20.385645
3020.000000	20.547370
3019.000000	20.709417
3018.000000	20.870180
3017.000000	21.029644
3016.000000	21.188671
3015.000000	21.347109
3014.000000	21.505347
3013.000000	21.665932
3012.000000	21.830761
3011.000000	21.998185
3010.000000	22.165166
3009.000000	22.330661
3008.000000	22.494798
3007.000000	22.656967
3006.000000	22.817248
3005.000000	22.977750
3004.000000	23.139968
3003.000000	23.302258
3002.000000	23.462091
3001.000000	23.619149
3000.000000	23.774567
2999.000000	23.929151
2998.000000	24.084099
2997.000000	24.241009
2996.000000	24.399204
2995.000000	24.555628
2994.000000	24.709675
2993.000000	24.865440
2992.000000	25.026562
2991.000000	25.191358
2990.000000	25.355693
2989.000000	25.518135
2988.000000	25.679278
2987.000000	25.838398
2986.000000	25.994161
2985.000000	26.147081
2984.000000	26.298389
2983.000000	26.448047
2982.000000	26.596499
2981.000000	26.746464
2980.000000	26.900057
2979.000000	27.055563
2978.000000	27.209930
2977.000000	27.363095
2976.000000	27.517326
2975.000000	27.673639
2974.000000	27.831361
2973.000000	27.989777
2972.000000	28.147785
2971.000000	28.303262
2970.000000	28.455218
2969.000000	28.605470
2968.000000	28.755987
2967.000000	28.906080
2966.000000	29.054267
2965.000000	29.201330
2964.000000	29.349244
2963.000000	29.498615
2962.000000	29.649398
2961.000000	29.802275
2960.000000	29.957014
2959.000000	30.111183
2958.000000	30.262683
2957.000000	30.411901
2956.000000	30.559463
2955.000000	30.704267
2954.000000	30.845993
2953.000000	30.986843
2952.000000	31.127955
2951.000000	31.266439
2950.000000	31.399268
2949.000000	31.528202
2948.000000	31.657822
2947.000000	31.790477
2946.000000	31.926120
2945.000000	32.065295
2944.000000	32.208553
2943.000000	32.353808
2942.000000	32.497517
2941.000000	32.638161
2940.000000	32.776165
2939.000000	32.911409
2938.000000	33.043407
2937.000000	33.173124
2936.000000	33.302083
2935.000000	33.430244
2934.000000	33.557173
2933.000000	33.684471
2932.000000	33.814740
2931.000000	33.948682
2930.000000	34.085158
2929.000000	34.223175
2928.000000	34.361813
2927.000000	34.499432
2926.000000	34.635128
2925.000000	34.769879
2924.000000	34.904286
2923.000000	35.036511
2922.000000	35.164649
2921.000000	35.289696
2920.000000	35.413862
2919.000000	35.537372
2918.000000	35.659268
2917.000000	35.780134
2916.000000	35.901381
2915.000000	36.022560
2914.000000	36.141690
2913.000000	36.257676
2912.000000	36.370744
2911.000000	36.481197
2910.000000	36.589530
2909.000000	36.696986
2908.000000	36.804276
2907.000000	36.910403
2906.000000	37.014201
2905.000000	37.116091
2904.000000	37.217054
2903.000000	37.316563
2902.000000	37.414375
2901.000000	37.511983
2900.000000	37.611735
2899.000000	37.714763
2898.000000	37.820574
2897.000000	37.928101
2896.000000	38.035266
2895.000000	38.138966
2894.000000	38.237318
2893.000000	38.331342
2892.000000	38.422925
2891.000000	38.512078
2890.000000	38.597640
2889.000000	38.679504
2888.000000	38.758428
2887.000000	38.834589
2886.000000	38.908073
2885.000000	38.979958
2884.000000	39.051192
2883.000000	39.121113
2882.000000	39.188524
2881.000000	39.253369
2880.000000	39.315847
2879.000000	39.375013
2878.000000	39.430162
2877.000000	39.482832
2876.000000	39.535619
2875.000000	39.589487
2874.000000	39.643936
2873.000000	39.699239
2872.000000	39.757130
2871.000000	39.820187
2870.000000	39.891864
2869.000000	39.976270
2868.000000	40.075898
2867.000000	40.189944
2866.000000	40.316038
2865.000000	40.452607
2864.000000	40.598318
2863.000000	40.750603
2862.000000	40.906557
2861.000000	41.064405
2860.000000	41.222695
2859.000000	41.379067
2858.000000	41.531784
2857.000000	41.681624
2856.000000	41.830460
2855.000000	41.978816
2854.000000	42.126308
2853.000000	42.273408
2852.000000	42.420851
2851.000000	42.568009
2850.000000	42.713551
2849.000000	42.856898
2848.000000	42.997381
2847.000000	43.132973
2846.000000	43.261842
2845.000000	43.384623
2844.000000	43.503415
2843.000000	43.619200
2842.000000	43.732091
2841.000000	43.843322
2840.000000	43.954631
2839.000000	44.065915
2838.000000	44.175613
2837.000000	44.283575
2836.000000	44.391736
2835.000000	44.501740
2834.000000	44.613456
2833.000000	44.725901
2832.000000	44.838087
2831.000000	44.948685
2830.000000	45.056262
2829.000000	45.160248
2828.000000	45.260772
2827.000000	45.357783
2826.000000	45.451520
2825.000000	45.543592
2824.000000	45.636218
2823.000000	45.730416
2822.000000	45.826124
2821.000000	45.923797
2820.000000	46.024267
2819.000000	46.127075
2818.000000	46.230460
2817.000000	46.333152
2816.000000	46.434900
2815.000000	46.535254
2814.000000	46.633406
2813.000000	46.729453
2812.000000	46.824452
2811.000000	46.918870
2810.000000	47.012175
2809.000000	47.104288
2808.000000	47.196314
2807.000000	47.289527
2806.000000	47.384612
2805.000000	47.481889
2804.000000	47.581094
2803.000000	47.680785
2802.000000	47.779200
2801.000000	47.875961
2800.000000	47.971935
2799.000000	48.067284
2798.000000	48.160818
2797.000000	48.251531
2796.000000	48.339692
2795.000000	48.426169
2794.000000	48.511765
2793.000000	48.597467
2792.000000	48.684224
2791.000000	48.772076
2790.000000	48.860273
2789.000000	48.948315
2788.000000	49.036016
2787.000000	49.122689
2786.000000	49.207502
2785.000000	49.290687
2784.000000	49.373207
2783.000000	49.455147
2782.000000	49.535644
2781.000000	49.614517
2780.000000	49.692563
2779.000000	49.770045
2778.000000	49.846393
2777.000000	49.921677
2776.000000	49.996945
2775.000000	50.072490
2774.000000	50.147173
2773.000000	50.220232
2772.000000	50.292543
2771.000000	50.365390
2770.000000	50.439004
2769.000000	50.512978
2768.000000	50.587110
2767.000000	50.661096
2766.000000	50.734203
2765.000000	50.805912
2764.000000	50.876276
2763.000000	50.945386
2762.000000	51.013330
2761.000000	51.080940
2760.000000	51.149538
2759.000000	51.219526
2758.000000	51.290176
2757.000000	51.361024
2756.000000	51.432323
2755.000000	51.503697
2754.000000	51.573569
2753.000000	51.640557
2752.000000	51.704440
2751.000000	51.765400
2750.000000	51.823541
2749.000000	51.879675
2748.000000	51.935360
2747.000000	51.991407
2746.000000	52.047444
2745.000000	52.103606
2744.000000	52.161382
2743.000000	52.221985
2742.000000	52.284867
2741.000000	52.348552
2740.000000	52.411828
2739.000000	52.473352
2738.000000	52.531310
2737.000000	52.584613
2736.000000	52.633894
2735.000000	52.680671
2734.000000	52.726213
2733.000000	52.771709
2732.000000	52.818415
2731.000000	52.866861
2730.000000	52.916851
2729.000000	52.968814
2728.000000	53.023920
2727.000000	53.082012
2726.000000	53.140556
2725.000000	53.196692
2724.000000	53.249491
2723.000000	53.299442
2722.000000	53.346823
2721.000000	53.391751
2720.000000	53.435084
2719.000000	53.478091
2718.000000	53.521660
2717.000000	53.566461
2716.000000	53.613121
2715.000000	53.661547
2714.000000	53.710814
2713.000000	53.760309
2712.000000	53.810146
2711.000000	53.859875
2710.000000	53.907867
2709.000000	53.952714
2708.000000	53.994356
2707.000000	54.033110
2706.000000	54.068596
2705.000000	54.100559
2704.000000	54.129569
2703.000000	54.155962
2702.000000	54.179169
2701.000000	54.198934
2700.000000	54.216383
2699.000000	54.232853
2698.000000	54.248527
2697.000000	54.263233
2696.000000	54.277445
2695.000000	54.291545
2694.000000	54.304927
2693.000000	54.316798
2692.000000	54.327110
2691.000000	54.335666
2690.000000	54.341282
2689.000000	54.342770
2688.000000	54.339948
2687.000000	54.333103
2686.000000	54.322460
2685.000000	54.309219
2684.000000	54.296084
2683.000000	54.285467
2682.000000	54.277963
2681.000000	54.273317
2680.000000	54.271744
2679.000000	54.273231
2678.000000	54.276504
2677.000000	54.279907
2676.000000	54.282706
2675.000000	54.284664
2674.000000	54.285252
2673.000000	54.284531
2672.000000	54.284091
2671.000000	54.286373
2670.000000	54.293645
2669.000000	54.308230
2668.000000	54.332923
2667.000000	54.369722
2666.000000	54.418948
2665.000000	54.480098
2664.000000	54.552302
2663.000000	54.633722
2662.000000	54.721162
2661.000000	54.811616
2660.000000	54.903617
2659.000000	54.996093
2658.000000	55.087488
2657.000000	55.176964
2656.000000	55.265556
2655.000000	55.354941
2654.000000	55.445568
2653.000000	55.537053
2652.000000	55.629394
2651.000000	55.722479
2650.000000	55.815130
2649.000000	55.905915
2648.000000	55.994305
2647.000000	56.080052
2646.000000	56.162210
2645.000000	56.239860
2644.000000	56.313243
2643.000000	56.382849
2642.000000	56.448330
2641.000000	56.509457
2640.000000	56.567020
2639.000000	56.621737
2638.000000	56.672886
2637.000000	56.719530
2636.000000	56.762386
2635.000000	56.802892
2634.000000	56.841471
2633.000000	56.877987
2632.000000	56.913204
2631.000000	56.948382
2630.000000	56.983757
2629.000000	57.018859
2628.000000	57.053447
2627.000000	57.086834
2626.000000	57.117168
2625.000000	57.142726
2624.000000	57.163535
2623.000000	57.180422
2622.000000	57.193395
2621.000000	57.202552
2620.000000	57.209596
2619.000000	57.216931
2618.000000	57.225803
2617.000000	57.236592
2616.000000	57.250083
2615.000000	57.266606
2614.000000	57.284476
2613.000000	57.300866
2612.000000	57.313724
2611.000000	57.321699
2610.000000	57.322855
2609.000000	57.315408
2608.000000	57.299506
2607.000000	57.276732
2606.000000	57.248578
2605.000000	57.216254
2604.000000	57.181360
2603.000000	57.145315
2602.000000	57.108238
2601.000000	57.069841
2600.000000	57.030520
2599.000000	56.990478
2598.000000	56.948850
2597.000000	56.905204
2596.000000	56.861404
2595.000000	56.820791
2594.000000	56.786287
2593.000000	56.760401
2592.000000	56.746550
2591.000000	56.748082
2590.000000	56.766693
2589.000000	56.802987
2588.000000	56.857246
2587.000000	56.929228
2586.000000	57.016790
2585.000000	57.116565
2584.000000	57.225989
2583.000000	57.342886
2582.000000	57.464842
2581.000000	57.589835
2580.000000	57.717359
2579.000000	57.847843
2578.000000	57.980819
2577.000000	58.115345
2576.000000	58.251268
2575.000000	58.388578
2574.000000	58.526005
2573.000000	58.661658
2572.000000	58.794859
2571.000000	58.925986
2570.000000	59.055038
2569.000000	59.181847
2568.000000	59.307310
2567.000000	59.432694
2566.000000	59.558005
2565.000000	59.682459
2564.000000	59.805966
2563.000000	59.928708
2562.000000	60.049561
2561.000000	60.166606
2560.000000	60.278898
2559.000000	60.386108
2558.000000	60.487445
2557.000000	60.582571
2556.000000	60.673198
2555.000000	60.762085
2554.000000	60.850574
2553.000000	60.938920
2552.000000	61.028063
2551.000000	61.118941
2550.000000	61.210538
2549.000000	61.300303
2548.000000	61.386384
2547.000000	61.467656
2546.000000	61.542242
2545.000000	61.608432
2544.000000	61.666465
2543.000000	61.717936
2542.000000	61.763793
2541.000000	61.804538
2540.000000	61.841972
2539.000000	61.877938
2538.000000	61.911983
2537.000000	61.941869
2536.000000	61.965353
2535.000000	61.980152
2534.000000	61.982435
2533.000000	61.968415
2532.000000	61.937304
2531.000000	61.890440
2530.000000	61.829320
2529.000000	61.756020
2528.000000	61.675184
2527.000000	61.593157
2526.000000	61.514999
2525.000000	61.444539
2524.000000	61.386115
2523.000000	61.343707
2522.000000	61.318446
2521.000000	61.309454
2520.000000	61.315928
2519.000000	61.337204
2518.000000	61.371559
2517.000000	61.416814
2516.000000	61.473016
2515.000000	61.541320
2514.000000	61.621414
2513.000000	61.711964
2512.000000	61.812160
2511.000000	61.921449
2510.000000	62.037270
2509.000000	62.155760
2508.000000	62.274572
2507.000000	62.392513
2506.000000	62.507354
2505.000000	62.616286
2504.000000	62.718490
2503.000000	62.814968
2502.000000	62.906199
2501.000000	62.992062
2500.000000	63.073856
2499.000000	63.153824
2498.000000	63.232427
2497.000000	63.308553
2496.000000	63.381782
2495.000000	63.452406
2494.000000	63.519706
2493.000000	63.582474
2492.000000	63.641412
2491.000000	63.698449
2490.000000	63.754071
2489.000000	63.807503
2488.000000	63.858801
2487.000000	63.908651
2486.000000	63.956327
2485.000000	64.000367
2484.000000	64.040891
2483.000000	64.078660
2482.000000	64.112804
2481.000000	64.142015
2480.000000	64.167621
2479.000000	64.192946
2478.000000	64.219905
2477.000000	64.248849
2476.000000	64.280892
2475.000000	64.317420
2474.000000	64.357571
2473.000000	64.398812
2472.000000	64.439641
2471.000000	64.479105
2470.000000	64.514289
2469.000000	64.541596
2468.000000	64.560419
2467.000000	64.573169
2466.000000	64.582074
2465.000000	64.588735
2464.000000	64.596415
2463.000000	64.609360
2462.000000	64.629632
2461.000000	64.656938
2460.000000	64.691135
2459.000000	64.731933
2458.000000	64.776407
2457.000000	64.819627
2456.000000	64.857952
2455.000000	64.889549
2454.000000	64.912459
2453.000000	64.925357
2452.000000	64.930242
2451.000000	64.931630
2450.000000	64.932991
2449.000000	64.936413
2448.000000	64.944941
2447.000000	64.961962
2446.000000	64.988181
2445.000000	65.021712
2444.000000	65.060678
2443.000000	65.103285
2442.000000	65.145912
2441.000000	65.184242
2440.000000	65.216393
2439.000000	65.242442
2438.000000	65.261533
2437.000000	65.272451
2436.000000	65.276809
2435.000000	65.278388
2434.000000	65.279631
2433.000000	65.281361
2432.000000	65.285312
2431.000000	65.293865
2430.000000	65.307675
2429.000000	65.326650
2428.000000	65.352897
2427.000000	65.389441
2426.000000	65.435622
2425.000000	65.486767
2424.000000	65.537927
2423.000000	65.585334
2422.000000	65.625001
2421.000000	65.653729
2420.000000	65.672186
2419.000000	65.684221
2418.000000	65.693172
2417.000000	65.701421
2416.000000	65.712864
2415.000000	65.732029
2414.000000	65.760436
2413.000000	65.796558
2412.000000	65.839208
2411.000000	65.887723
2410.000000	65.939054
2409.000000	65.988049
2408.000000	66.031119
2407.000000	66.067089
2406.000000	66.094781
2405.000000	66.113047
2404.000000	66.123389
2403.000000	66.129690
2402.000000	66.135150
2401.000000	66.142220
2400.000000	66.154899
2399.000000	66.177697
2398.000000	66.211894
2397.000000	66.255522
2396.000000	66.306495
2395.000000	66.362914
2394.000000	66.420838
2393.000000	66.475171
2392.000000	66.523334
2391.000000	66.565293
2390.000000	66.600503
2389.000000	66.628129
2388.000000	66.650094
2387.000000	66.670649
2386.000000	66.692811
2385.000000	66.718001
2384.000000	66.748890
2383.000000	66.788696
2382.000000	66.837998
2381.000000	66.895148
2380.000000	66.959733
2379.000000	67.032877
2378.000000	67.113008
2377.000000	67.195485
2376.000000	67.276672
2375.000000	67.354686
2374.000000	67.426369
2373.000000	67.486884
2372.000000	67.534336
2371.000000	67.571157
2370.000000	67.600004
2369.000000	67.622299
2368.000000	67.643044
2367.000000	67.670848
2366.000000	67.710295
2365.000000	67.760412
2364.000000	67.822438
2363.000000	67.899983
2362.000000	67.990354
2361.000000	68.087293
2360.000000	68.186928
2359.000000	68.288383
2358.000000	68.389952
2357.000000	68.485060
2356.000000	68.572781
2355.000000	68.654611
2354.000000	68.725346
2353.000000	68.780874
2352.000000	68.832263
2351.000000	68.901611
2350.000000	68.990869
2349.000000	69.083887
2348.000000	69.168352
2347.000000	69.242105
2346.000000	69.314741
2345.000000	69.394463
2344.000000	69.484739
2343.000000	69.573099
2342.000000	69.642678
2341.000000	69.692762
2340.000000	69.731354
2339.000000	69.770379
2338.000000	69.815126
2337.000000	69.870646
2336.000000	69.943382
2335.000000	70.038539
2334.000000	70.149584
2333.000000	70.264910
2332.000000	70.376499
2331.000000	70.486205
2330.000000	70.590263
2329.000000	70.683322
2328.000000	70.766421
2327.000000	70.842667
2326.000000	70.915218
2325.000000	70.980089
2324.000000	71.042480
2323.000000	71.110695
2322.000000	71.189467
2321.000000	71.278403
2320.000000	71.374336
2319.000000	71.476789
2318.000000	71.578298
2317.000000	71.671016
2316.000000	71.749290
2315.000000	71.814490
2314.000000	71.867575
2313.000000	71.910673
2312.000000	71.949314
2311.000000	71.990542
2310.000000	72.037207
2309.000000	72.088255
2308.000000	72.145516
2307.000000	72.211622
2306.000000	72.285327
2305.000000	72.360974
2304.000000	72.435365
2303.000000	72.508400
2302.000000	72.578772
2301.000000	72.644628
2300.000000	72.707512
2299.000000	72.770768
2298.000000	72.834181
2297.000000	72.894714
2296.000000	72.952870
2295.000000	73.011361
2294.000000	73.070348
2293.000000	73.126667
2292.000000	73.180787
2291.000000	73.235783
2290.000000	73.292655
2289.000000	73.349524
2288.000000	73.407641
2287.000000	73.470744
2286.000000	73.539416
2285.000000	73.610248
2284.000000	73.680877
2283.000000	73.750406
2282.000000	73.815223
2281.000000	73.870319
2280.000000	73.914721
2279.000000	73.951352
2278.000000	73.981521
2277.000000	74.005708
2276.000000	74.028484
2275.000000	74.057502
2274.000000	74.096799
2273.000000	74.146267
2272.000000	74.206664
2271.000000	74.278751
2270.000000	74.357711
2269.000000	74.434112
2268.000000	74.501147
2267.000000	74.555900
2266.000000	74.594688
2265.000000	74.613885
2264.000000	74.616087
2263.000000	74.609513
2262.000000	74.601479
2261.000000	74.597006
2260.000000	74.603068
2259.000000	74.626908
2258.000000	74.669464
2257.000000	74.725687
2256.000000	74.790409
2255.000000	74.858663
2254.000000	74.920698
2253.000000	74.964714
2252.000000	74.985008
2251.000000	74.983317
2250.000000	74.961786
2249.000000	74.923042
2248.000000	74.874806
2247.000000	74.828093
2246.000000	74.790770
2245.000000	74.765704
2244.000000	74.756006
2243.000000	74.763952
2242.000000	74.785120
2241.000000	74.809536
2240.000000	74.829461
2239.000000	74.840752
2238.000000	74.837677
2237.000000	74.813570
2236.000000	74.767690
2235.000000	74.705560
2234.000000	74.632459
2233.000000	74.552304
2232.000000	74.472073
2231.000000	74.400434
2230.000000	74.340907
2229.000000	74.291982
2228.000000	74.253362
2227.000000	74.226114
2226.000000	74.206846
2225.000000	74.188263
2224.000000	74.166082
2223.000000	74.139837
2222.000000	74.107245
2221.000000	74.064168
2220.000000	74.010565
2219.000000	73.950332
2218.000000	73.885211
2217.000000	73.814737
2216.000000	73.742248
2215.000000	73.674470
2214.000000	73.615045
2213.000000	73.564085
2212.000000	73.523830
2211.000000	73.498435
2210.000000	73.487757
2209.000000	73.487208
2208.000000	73.493572
2207.000000	73.505313
2206.000000	73.517212
2205.000000	73.521319
2204.000000	73.513810
2203.000000	73.495606
2202.000000	73.466875
2201.000000	73.427397
2200.000000	73.382262
2199.000000	73.340639
2198.000000	73.308502
2197.000000	73.288052
2196.000000	73.283506
2195.000000	73.300142
2194.000000	73.336978
2193.000000	73.386348
2192.000000	73.441008
2191.000000	73.495700
2190.000000	73.542388
2189.000000	73.571416
2188.000000	73.578941
2187.000000	73.567777
2186.000000	73.540870
2185.000000	73.500556
2184.000000	73.454024
2183.000000	73.412462
2182.000000	73.383347
2181.000000	73.368920
2180.000000	73.371379
2179.000000	73.392681
2178.000000	73.428686
2177.000000	73.469804
2176.000000	73.508366
2175.000000	73.540038
2174.000000	73.558576
2173.000000	73.556752
2172.000000	73.533735
2171.000000	73.495382
2170.000000	73.447187
2169.000000	73.392781
2168.000000	73.339056
2167.000000	73.295495
2166.000000	73.267474
2165.000000	73.255465
2164.000000	73.260319
2163.000000	73.282816
2162.000000	73.317813
2161.000000	73.355539
2160.000000	73.389298
2159.000000	73.416367
2158.000000	73.432024
2157.000000	73.430472
2156.000000	73.412141
2155.000000	73.383363
2154.000000	73.348527
2153.000000	73.309252
2152.000000	73.270668
2151.000000	73.241078
2150.000000	73.224620
2149.000000	73.220316
2148.000000	73.228344
2147.000000	73.250196
2146.000000	73.281626
2145.000000	73.312855
2144.000000	73.337372
2143.000000	73.353512
2142.000000	73.357971
2141.000000	73.345816
2140.000000	73.318133
2139.000000	73.282387
2138.000000	73.244088
2137.000000	73.204834
2136.000000	73.168930
2135.000000	73.144042
2134.000000	73.133665
2133.000000	73.135712
2132.000000	73.148820
2131.000000	73.173199
2130.000000	73.204490
2129.000000	73.233906
2128.000000	73.255921
2127.000000	73.269977
2126.000000	73.274361
2125.000000	73.265597
2124.000000	73.245342
2123.000000	73.220682
2122.000000	73.196190
2121.000000	73.172360
2120.000000	73.152532
2119.000000	73.143870
2118.000000	73.150132
2117.000000	73.169643
2116.000000	73.200783
2115.000000	73.242765
2114.000000	73.290381
2113.000000	73.335096
2112.000000	73.373024
2111.000000	73.405873
2110.000000	73.433981
2109.000000	73.455643
2108.000000	73.473543
2107.000000	73.494135
2106.000000	73.520297
2105.000000	73.551339
2104.000000	73.589926
2103.000000	73.642099
2102.000000	73.708601
2101.000000	73.784792
2100.000000	73.868531
2099.000000	73.961009
2098.000000	74.060175
2097.000000	74.158561
2096.000000	74.250156
2095.000000	74.333524
2094.000000	74.408038
2093.000000	74.473755
2092.000000	74.535117
2091.000000	74.597717
2090.000000	74.661266
2089.000000	74.722139
2088.000000	74.782029
2087.000000	74.846780
2086.000000	74.917195
2085.000000	74.989139
2084.000000	75.061465
2083.000000	75.135911
2082.000000	75.208364
2081.000000	75.269531
2080.000000	75.314235
2079.000000	75.342244
2078.000000	75.352807
2077.000000	75.343495
2076.000000	75.318156
2075.000000	75.285797
2074.000000	75.250953
2073.000000	75.215767
2072.000000	75.185634
2071.000000	75.164619
2070.000000	75.148506
2069.000000	75.133206
2068.000000	75.126988
2067.000000	75.141296
2066.000000	75.170633
2065.000000	75.195272
2064.000000	75.203545
2063.000000	75.198703
2062.000000	75.185192
2061.000000	75.162447
2060.000000	75.135203
2059.000000	75.116504
2058.000000	75.116077
2057.000000	75.134630
2056.000000	75.173200
2055.000000	75.235817
2054.000000	75.319272
2053.000000	75.412674
2052.000000	75.508293
2051.000000	75.602784
2050.000000	75.689616
2049.000000	75.761753
2048.000000	75.819513
2047.000000	75.868202
2046.000000	75.910985
2045.000000	75.953381
2044.000000	76.011442
2043.000000	76.102477
2042.000000	76.227889
2041.000000	76.375692
2040.000000	76.537807
2039.000000	76.713560
2038.000000	76.898000
2037.000000	77.079841
2036.000000	77.253134
2035.000000	77.419986
2034.000000	77.580313
2033.000000	77.728588
2032.000000	77.866013
2031.000000	78.000845
2030.000000	78.137892
2029.000000	78.275852
2028.000000	78.416701
2027.000000	78.567753
2026.000000	78.729425
2025.000000	78.897247
2024.000000	79.067989
2023.000000	79.235885
2022.000000	79.389472
2021.000000	79.525895
2020.000000	79.665083
2019.000000	79.831731
2018.000000	80.023693
2017.000000	80.214715
2016.000000	80.386284
2015.000000	80.538481
2014.000000	80.673750
2013.000000	80.789100
2012.000000	80.888770
2011.000000	80.986804
2010.000000	81.093373
2009.000000	81.207691
2008.000000	81.328855
2007.000000	81.462799
2006.000000	81.607152
2005.000000	81.752746
2004.000000	81.892194
2003.000000	82.025866
2002.000000	82.151879
2001.000000	82.258708
2000.000000	82.346442
1999.000000	82.421295
1998.000000	82.469166
1997.000000	82.466228
1996.000000	82.424352
1995.000000	82.398065
1994.000000	82.430951
1993.000000	82.513975
1992.000000	82.618550
1991.000000	82.741256
1990.000000	82.889496
1989.000000	83.052122
1988.000000	83.204513
1987.000000	83.331854
1986.000000	83.429831
1985.000000	83.496889
1984.000000	83.533769
1983.000000	83.550933
1982.000000	83.559703
1981.000000	83.561156
1980.000000	83.563679
1979.000000	83.584489
1978.000000	83.630380
1977.000000	83.691874
1976.000000	83.764459
1975.000000	83.854366
1974.000000	83.953427
1973.000000	84.029408
1972.000000	84.056089
1971.000000	84.041049
1970.000000	84.018060
1969.000000	84.019443
1968.000000	84.053670
1967.000000	84.105227
1966.000000	84.151368
1965.000000	84.180587
1964.000000	84.202778
1963.000000	84.236406
1962.000000	84.283591
1961.000000	84.331847
1960.000000	84.376267
1959.000000	84.421969
1958.000000	84.471630
1957.000000	84.520410
1956.000000	84.568427
1955.000000	84.617234
1954.000000	84.658465
1953.000000	84.683364
1952.000000	84.685723
1951.000000	84.667969
1950.000000	84.639676
1949.000000	84.604118
1948.000000	84.555298
1947.000000	84.487983
1946.000000	84.418536
1945.000000	84.393753
1944.000000	84.449284
1943.000000	84.561840
1942.000000	84.677217
1941.000000	84.766886
1940.000000	84.838183
1939.000000	84.901517
1938.000000	84.944083
1937.000000	84.950077
1936.000000	84.934735
1935.000000	84.921427
1934.000000	84.909344
1933.000000	84.892526
1932.000000	84.867313
1931.000000	84.848614
1930.000000	84.844739
1929.000000	84.835303
1928.000000	84.791753
1927.000000	84.699711
1926.000000	84.604713
1925.000000	84.580722
1924.000000	84.640329
1923.000000	84.726036
1922.000000	84.784115
1921.000000	84.817367
1920.000000	84.858897
1919.000000	84.891408
1918.000000	84.867392
1917.000000	84.793813
1916.000000	84.719908
1915.000000	84.664253
1914.000000	84.599414
1913.000000	84.512144
1912.000000	84.435353
1911.000000	84.418783
1910.000000	84.457916
1909.000000	84.506303
1908.000000	84.541818
1907.000000	84.559435
1906.000000	84.562795
1905.000000	84.550398
1904.000000	84.517526
1903.000000	84.480077
1902.000000	84.447452
1901.000000	84.404198
1900.000000	84.337560
1899.000000	84.252149
1898.000000	84.182345
1897.000000	84.167469
1896.000000	84.202944
1895.000000	84.238171
1894.000000	84.224875
1893.000000	84.167847
1892.000000	84.133042
1891.000000	84.167263
1890.000000	84.227541
1889.000000	84.251591
1888.000000	84.241705
1887.000000	84.238610
1886.000000	84.259433
1885.000000	84.282916
1884.000000	84.286746
1883.000000	84.282957
1882.000000	84.286270
1881.000000	84.287069
1880.000000	84.284937
1879.000000	84.289037
1878.000000	84.295044
1877.000000	84.295747
1876.000000	84.287916
1875.000000	84.261282
1874.000000	84.188751
1873.000000	84.042195
1872.000000	83.842877
1871.000000	83.681636
1870.000000	83.626318
1869.000000	83.652412
1868.000000	83.718154
1867.000000	83.807284
1866.000000	83.893379
1865.000000	83.941114
1864.000000	83.940495
1863.000000	83.914364
1862.000000	83.884886
1861.000000	83.854781
1860.000000	83.824303
1859.000000	83.802653
1858.000000	83.784084
1857.000000	83.753428
1856.000000	83.706321
1855.000000	83.662223
1854.000000	83.626823
1853.000000	83.558641
1852.000000	83.451413
1851.000000	83.347822
1850.000000	83.279250
1849.000000	83.242066
1848.000000	83.236069
1847.000000	83.294861
1846.000000	83.409534
1845.000000	83.448326
1844.000000	83.318079
1843.000000	83.115270
1842.000000	82.947609
1841.000000	82.827741
1840.000000	82.736576
1839.000000	82.663790
1838.000000	82.623509
1837.000000	82.614494
1836.000000	82.600915
1835.000000	82.546995
1834.000000	82.421707
1833.000000	82.237310
1832.000000	82.115555
1831.000000	82.108521
1830.000000	82.093101
1829.000000	81.983378
1828.000000	81.836515
1827.000000	81.749728
1826.000000	81.715769
1825.000000	81.654678
1824.000000	81.566854
1823.000000	81.510656
1822.000000	81.483060
1821.000000	81.437905
1820.000000	81.369510
1819.000000	81.302622
1818.000000	81.249454
1817.000000	81.177367
1816.000000	81.050718
1815.000000	80.876519
1814.000000	80.680804
1813.000000	80.515698
1812.000000	80.411486
1811.000000	80.341486
1810.000000	80.277383
1809.000000	80.210123
1808.000000	80.141781
1807.000000	80.062518
1806.000000	79.953838
1805.000000	79.798563
1804.000000	79.618007
1803.000000	79.483367
1802.000000	79.419679
1801.000000	79.390405
1800.000000	79.347072
1799.000000	79.273815
1798.000000	79.193646
1797.000000	79.119150
1796.000000	79.047421
1795.000000	78.987857
1794.000000	78.946575
1793.000000	78.881410
1792.000000	78.755694
1791.000000	78.626108
1790.000000	78.550867
1789.000000	78.515809
1788.000000	78.491804
1787.000000	78.456136
1786.000000	78.388598
1785.000000	78.250829
1784.000000	78.051795
1783.000000	77.895924
1782.000000	77.827580
1781.000000	77.781155
1780.000000	77.680649
1779.000000	77.541414
1778.000000	77.413031
1777.000000	77.283317
1776.000000	77.141104
1775.000000	77.058049
1774.000000	77.105638
1773.000000	77.171999
1772.000000	77.128317
1771.000000	77.022881
1770.000000	76.946262
1769.000000	76.898377
1768.000000	76.818499
1767.000000	76.691928
1766.000000	76.547083
1765.000000	76.404936
1764.000000	76.297380
1763.000000	76.200677
1762.000000	76.022299
1761.000000	75.768560
1760.000000	75.529547
1759.000000	75.412584
1758.000000	75.414707
1757.000000	75.393885
1756.000000	75.300620
1755.000000	75.189595
1754.000000	75.056849
1753.000000	74.826888
1752.000000	74.464939
1751.000000	74.066462
1750.000000	73.793653
1749.000000	73.645606
1748.000000	73.514475
1747.000000	73.368310
1746.000000	73.227929
1745.000000	73.126505
1744.000000	73.077238
1743.000000	73.063430
1742.000000	73.068769
1741.000000	73.069392
1740.000000	73.009473
1739.000000	72.907718
1738.000000	72.821919
1737.000000	72.755221
1736.000000	72.721838
1735.000000	72.524142
1734.000000	71.972765
1733.000000	71.327882
1732.000000	70.868644
1731.000000	70.638993
1730.000000	70.524025
1729.000000	70.350920
1728.000000	70.092737
1727.000000	69.813187
1726.000000	69.538556
1725.000000	69.277024
1724.000000	69.038205
1723.000000	68.825520
1722.000000	68.602088
1721.000000	68.297631
1720.000000	67.962998
1719.000000	67.664914
1718.000000	67.303705
1717.000000	66.856065
1716.000000	66.427413
1715.000000	66.043346
1714.000000	65.671880
1713.000000	65.294218
1712.000000	64.920993
1711.000000	64.570569
1710.000000	64.211428
1709.000000	63.795991
1708.000000	63.383977
1707.000000	63.081546
1706.000000	62.870459
1705.000000	62.713382
1704.000000	62.640638
1703.000000	62.649693
1702.000000	62.588869
1701.000000	62.075926
1700.000000	61.111244
1699.000000	60.248617
1698.000000	59.845579
1697.000000	59.704183
1696.000000	59.323820
1695.000000	58.649318
1694.000000	57.966034
1693.000000	57.386042
1692.000000	56.890953
1691.000000	56.444996
1690.000000	56.037863
1689.000000	55.661707
1688.000000	55.316708
1687.000000	54.971210
1686.000000	54.699514
1685.000000	54.305637
1684.000000	53.513134
1683.000000	52.668950
1682.000000	52.074439
1681.000000	51.673191
1680.000000	51.363279
1679.000000	51.085537
1678.000000	50.831748
1677.000000	50.525504
1676.000000	50.036853
1675.000000	49.374311
1674.000000	48.705334
1673.000000	48.135364
1672.000000	47.683817
1671.000000	47.316863
1670.000000	46.905570
1669.000000	46.369615
1668.000000	45.802378
1667.000000	45.306509
1666.000000	44.877976
1665.000000	44.472845
1664.000000	44.045767
1663.000000	43.573311
1662.000000	43.081441
1661.000000	42.596799
1660.000000	42.149310
1659.000000	41.773481
1658.000000	41.473492
1657.000000	41.201188
1656.000000	40.937913
1655.000000	40.872774
1654.000000	40.702882
1653.000000	39.961330
1652.000000	39.053531
1651.000000	38.329769
1650.000000	37.787333
1649.000000	37.458247
1648.000000	37.269158
1647.000000	37.025622
1646.000000	36.653922
1645.000000	36.243699
1644.000000	35.840545
1643.000000	35.485751
1642.000000	35.169868
1641.000000	34.842984
1640.000000	34.501726
1639.000000	34.195790
1638.000000	34.013802
1637.000000	33.920087
1636.000000	33.703159
1635.000000	33.334133
1634.000000	32.968056
1633.000000	32.658048
1632.000000	32.390146
1631.000000	32.157139
1630.000000	31.962386
1629.000000	31.790674
1628.000000	31.612579
1627.000000	31.434546
1626.000000	31.271621
1625.000000	31.129607
1624.000000	30.993301
1623.000000	30.854634
1622.000000	30.733612
1621.000000	30.633989
1620.000000	30.559793
1619.000000	30.550158
1618.000000	30.611235
1617.000000	30.640440
1616.000000	30.579036
1615.000000	30.491970
1614.000000	30.435977
1613.000000	30.407193
1612.000000	30.382630
1611.000000	30.374377
1610.000000	30.406949
1609.000000	30.466062
1608.000000	30.521573
1607.000000	30.578333
1606.000000	30.646799
1605.000000	30.716587
1604.000000	30.793032
1603.000000	30.899361
1602.000000	31.038549
1601.000000	31.178592
1600.000000	31.297386
1599.000000	31.406560
1598.000000	31.519871
1597.000000	31.635816
1596.000000	31.753724
1595.000000	31.881628
1594.000000	32.015593
1593.000000	32.135870
1592.000000	32.238061
1591.000000	32.344661
1590.000000	32.467841
1589.000000	32.592851
1588.000000	32.708060
1587.000000	32.826898
1586.000000	32.963943
1585.000000	33.100839
1584.000000	33.224661
1583.000000	33.352781
1582.000000	33.488608
1581.000000	33.603286
1580.000000	33.686149
1579.000000	33.782423
1578.000000	33.962863
1577.000000	34.184972
1576.000000	34.318639
1575.000000	34.360948
1574.000000	34.372917
1573.000000	34.382827
1572.000000	34.427228
1571.000000	34.555871
1570.000000	34.748560
1569.000000	34.908216
1568.000000	35.004530
1567.000000	35.095519
1566.000000	35.240411
1565.000000	35.448001
1564.000000	35.683437
1563.000000	35.929321
1562.000000	36.049731
1561.000000	36.097299
1560.000000	36.361143
1559.000000	36.645537
1558.000000	36.780229
1557.000000	36.835305
1556.000000	36.883154
1555.000000	37.019278
1554.000000	37.167635
1553.000000	37.284489
1552.000000	37.417006
1551.000000	37.650059
1550.000000	37.975532
1549.000000	38.295510
1548.000000	38.526002
1547.000000	38.676809
1546.000000	38.834834
1545.000000	39.061429
1544.000000	39.339911
1543.000000	39.619531
1542.000000	40.030700
1541.000000	40.713584
1540.000000	41.444519
1539.000000	41.987567
1538.000000	42.317915
1537.000000	42.507670
1536.000000	42.704039
1535.000000	43.065984
1534.000000	43.610661
1533.000000	44.184596
1532.000000	44.670308
1531.000000	45.058313
1530.000000	45.408456
1529.000000	45.783256
1528.000000	46.226993
1527.000000	46.753612
1526.000000	47.311640
1525.000000	47.818817
1524.000000	48.296761
1523.000000	48.909826
1522.000000	49.669826
1521.000000	50.342603
1520.000000	50.783212
1519.000000	51.122783
1518.000000	51.607852
1517.000000	52.265441
1516.000000	52.924702
1515.000000	53.482434
1514.000000	53.912280
1513.000000	54.231187
1512.000000	54.453357
1511.000000	54.604477
1510.000000	54.705561
1509.000000	55.052546
1508.000000	56.055022
1507.000000	57.345883
1506.000000	58.337523
1505.000000	58.895868
1504.000000	59.178163
1503.000000	59.476308
1502.000000	59.901105
1501.000000	60.398637
1500.000000	60.912242
1499.000000	61.468545
1498.000000	62.086030
1497.000000	62.683699
1496.000000	63.163840
1495.000000	63.515744
1494.000000	63.752463
1493.000000	63.870720
1492.000000	63.963754
1491.000000	64.223279
1490.000000	64.712165
1489.000000	65.318989
1488.000000	65.907680
1487.000000	66.394992
1486.000000	66.749654
1485.000000	66.930174
1484.000000	66.977407
1483.000000	67.002791
1482.000000	67.036656
1481.000000	67.013301
1480.000000	66.887127
1479.000000	66.675517
1478.000000	66.372283
1477.000000	65.951049
1476.000000	65.409142
1475.000000	64.805047
1474.000000	64.106009
1473.000000	63.054081
1472.000000	61.560341
1471.000000	59.874825
1470.000000	58.129376
1469.000000	56.238374
1468.000000	54.097962
1467.000000	51.607272
1466.000000	48.572811
1465.000000	44.864818
1464.000000	40.846397
1463.000000	37.081863
1462.000000	33.723616
1461.000000	30.629122
1460.000000	27.711038
1459.000000	24.948046
1458.000000	22.129582
1457.000000	19.229063
1456.000000	16.886630
1455.000000	15.487369
1454.000000	14.718326
1453.000000	14.274263
1452.000000	14.109292
1451.000000	14.262804
1450.000000	14.722102
1449.000000	15.494750
1448.000000	16.624734
1447.000000	18.049100
1446.000000	19.603306
1445.000000	21.210303
1444.000000	22.918682
1443.000000	24.748363
1442.000000	26.627943
1441.000000	28.468861
1440.000000	30.238341
1439.000000	31.973513
1438.000000	33.790992
1437.000000	35.767818
1436.000000	37.730679
1435.000000	39.396522
1434.000000	40.735390
1433.000000	41.922494
1432.000000	43.071039
1431.000000	44.167727
1430.000000	45.136539
1429.000000	45.912188
1428.000000	46.443353
1427.000000	46.737926
1426.000000	46.894393
1425.000000	47.030497
1424.000000	47.200208
1423.000000	47.376698
1422.000000	47.506191
1421.000000	47.578106
1420.000000	47.677704
1419.000000	47.884290
1418.000000	48.215061
1417.000000	48.683369
1416.000000	49.286325
1415.000000	49.989401
1414.000000	50.753528
1413.000000	51.581456
1412.000000	52.491735
1411.000000	53.452071
1410.000000	54.387679
1409.000000	55.252411
1408.000000	56.031181
1407.000000	56.747077
1406.000000	57.465672
1405.000000	58.218426
1404.000000	58.954062
1403.000000	59.580161
1402.000000	60.073051
1401.000000	60.508268
1400.000000	60.961931
1399.000000	61.420270
1398.000000	61.850285
1397.000000	62.289206
1396.000000	62.763072
1395.000000	63.200277
1394.000000	63.500789
1393.000000	63.645266
1392.000000	63.658714
1391.000000	63.532393
1390.000000	63.227195
1389.000000	62.690019
1388.000000	61.850682
1387.000000	60.734593
1386.000000	59.631227
1385.000000	58.959629
1384.000000	58.985298
1383.000000	59.694316
1382.000000	60.822099
1381.000000	61.997040
1380.000000	62.919176
1379.000000	63.459837
1378.000000	63.656282
1377.000000	63.643821
1376.000000	63.575517
1375.000000	63.554663
1374.000000	63.584098
1373.000000	63.607988
1372.000000	63.572767
1371.000000	63.471304
1370.000000	63.350975
1369.000000	63.239750
1368.000000	63.107736
1367.000000	62.895872
1366.000000	62.574867
1365.000000	62.175662
1364.000000	61.763431
1363.000000	61.364721
1362.000000	60.958458
1361.000000	60.519961
1360.000000	60.030945
1359.000000	59.497509
1358.000000	58.972493
1357.000000	58.532753
1356.000000	58.241327
1355.000000	58.127689
1354.000000	58.183131
1353.000000	58.364204
1352.000000	58.592136
1351.000000	58.784432
1350.000000	58.878445
1349.000000	58.809215
1348.000000	58.510984
1347.000000	57.940991
1346.000000	57.091412
1345.000000	55.961123
1344.000000	54.548710
1343.000000	52.870661
1342.000000	50.980163
1341.000000	48.943987
1340.000000	46.810179
1339.000000	44.617744
1338.000000	42.394479
1337.000000	40.125546
1336.000000	37.765955
1335.000000	35.294706
1334.000000	32.733599
1333.000000	30.119946
1332.000000	27.500984
1331.000000	24.953940
1330.000000	22.569677
1329.000000	20.408095
1328.000000	18.493891
1327.000000	16.836101
1326.000000	15.418717
1325.000000	14.192244
1324.000000	13.104588
1323.000000	12.134574
1322.000000	11.275285
1321.000000	10.510856
1320.000000	9.843321
1319.000000	9.312163
1318.000000	8.968168
1317.000000	8.840149
1316.000000	8.941907
1315.000000	9.291901
1314.000000	9.889478
1313.000000	10.697411
1312.000000	11.665930
1311.000000	12.756501
1310.000000	13.940469
1309.000000	15.187073
1308.000000	16.469252
1307.000000	17.768719
1306.000000	19.064231
1305.000000	20.328609
1304.000000	21.543276
1303.000000	22.705121
1302.000000	23.816666
1301.000000	24.878248
1300.000000	25.892112
1299.000000	26.864306
1298.000000	27.796354
1297.000000	28.681717
1296.000000	29.519370
1295.000000	30.327870
1294.000000	31.142237
1293.000000	32.000846
1292.000000	32.936268
1291.000000	33.970877
1290.000000	35.114620
1289.000000	36.362506
1288.000000	37.692853
1287.000000	39.070004
1286.000000	40.451162
1285.000000	41.794061
1284.000000	43.060556
1283.000000	44.218644
1282.000000	45.245910
1281.000000	46.130895
1280.000000	46.867237
1279.000000	47.456298
1278.000000	47.916687
1277.000000	48.279758
1276.000000	48.580815
1275.000000	48.860615
1274.000000	49.170177
1273.000000	49.562653
1272.000000	50.074855
1271.000000	50.719906
1270.000000	51.495195
1269.000000	52.387154
1268.000000	53.368374
1267.000000	54.404707
1266.000000	55.465806
1265.000000	56.525981
1264.000000	57.558878
1263.000000	58.544063
1262.000000	59.481009
1261.000000	60.379598
1260.000000	61.234041
1259.000000	62.022730
1258.000000	62.734488
1257.000000	63.373219
1256.000000	63.938932
1255.000000	64.424675
1254.000000	64.830559
1253.000000	65.166691
1252.000000	65.434250
1251.000000	65.624962
1250.000000	65.738852
1249.000000	65.781117
1248.000000	65.748370
1247.000000	65.631230
1246.000000	65.431225
1245.000000	65.160492
1244.000000	64.822019
1243.000000	64.412212
1242.000000	63.936255
1241.000000	63.406615
1240.000000	62.830393
1239.000000	62.209787
1238.000000	61.556315
1237.000000	60.888393
1236.000000	60.218416
1235.000000	59.555424
1234.000000	58.916148
1233.000000	58.321126
1232.000000	57.784087
1231.000000	57.314861
1230.000000	56.926018
1229.000000	56.631396
1228.000000	56.436526
1227.000000	56.340431
1226.000000	56.344206
1225.000000	56.444663
1224.000000	56.628644
1223.000000	56.877337
1222.000000	57.177661
1221.000000	57.524593
1220.000000	57.910533
1219.000000	58.326596
1218.000000	58.769759
1217.000000	59.240442
1216.000000	59.735240
1215.000000	60.248737
1214.000000	60.783336
1213.000000	61.344826
1212.000000	61.928066
1211.000000	62.517537
1210.000000	63.101861
1209.000000	63.677239
1208.000000	64.236953
1207.000000	64.770982
1206.000000	65.278135
1205.000000	65.767182
1204.000000	66.243650
1203.000000	66.708144
1202.000000	67.168402
1201.000000	67.637889
1200.000000	68.121066
1199.000000	68.612163
1198.000000	69.108042
1197.000000	69.609293
1196.000000	70.107417
1195.000000	70.586613
1194.000000	71.040198
1193.000000	71.471042
1192.000000	71.876886
1191.000000	72.250097
1190.000000	72.594549
1189.000000	72.925714
1188.000000	73.251860
1187.000000	73.571819
1186.000000	73.890849
1185.000000	74.222098
1184.000000	74.566528
1183.000000	74.904063
1182.000000	75.210596
1181.000000	75.473870
1180.000000	75.695618
1179.000000	75.892153
1178.000000	76.089982
1177.000000	76.306082
1176.000000	76.530231
1175.000000	76.738476
1174.000000	76.920104
1173.000000	77.076587
1172.000000	77.203747
1171.000000	77.294109
1170.000000	77.355063
1169.000000	77.405549
1168.000000	77.455430
1167.000000	77.506512
1166.000000	77.569232
1165.000000	77.658280
1164.000000	77.772492
1163.000000	77.896178
1162.000000	78.019092
1161.000000	78.136823
1160.000000	78.234502
1159.000000	78.292223
1158.000000	78.306356
1157.000000	78.288891
1156.000000	78.248263
1155.000000	78.190147
1154.000000	78.133653
1153.000000	78.103939
1152.000000	78.109296
1151.000000	78.143513
1150.000000	78.208072
1149.000000	78.310357
1148.000000	78.441553
1147.000000	78.576301
1146.000000	78.695389
1145.000000	78.790842
1144.000000	78.851052
1143.000000	78.862879
1142.000000	78.830289
1141.000000	78.772189
1140.000000	78.701279
1139.000000	78.623937
1138.000000	78.556341
1137.000000	78.519754
1136.000000	78.518965
1135.000000	78.542622
1134.000000	78.583199
1133.000000	78.638586
1132.000000	78.695674
1131.000000	78.732604
1130.000000	78.738287
1129.000000	78.713385
1128.000000	78.652960
1127.000000	78.546929
1126.000000	78.397808
1125.000000	78.216981
1124.000000	78.007035
1123.000000	77.764407
1122.000000	77.497174
1121.000000	77.222741
1120.000000	76.947416
1119.000000	76.667237
1118.000000	76.384821
1117.000000	76.106174
1116.000000	75.823189
1115.000000	75.514506
1114.000000	75.163974
1113.000000	74.761422
1112.000000	74.286353
1111.000000	73.715287
1110.000000	73.039615
1109.000000	72.264286
1108.000000	71.393603
1107.000000	70.428396
1106.000000	69.381279
1105.000000	68.269280
1104.000000	67.097395
1103.000000	65.860183
1102.000000	64.549032
1101.000000	63.151741
1100.000000	61.642166
1099.000000	59.988871
1098.000000	58.171118
1097.000000	56.174866
1096.000000	53.990979
1095.000000	51.618168
1094.000000	49.066432
1093.000000	46.356472
1092.000000	43.512705
1091.000000	40.570644
1090.000000	37.574942
1089.000000	34.571842
1088.000000	31.611107
1087.000000	28.750038
1086.000000	26.041297
1085.000000	23.522843
1084.000000	21.226663
1083.000000	19.174027
1082.000000	17.368444
1081.000000	15.791801
1080.000000	14.422934
1079.000000	13.250587
1078.000000	12.250254
1077.000000	11.389133
1076.000000	10.644386
1075.000000	10.004319
1074.000000	9.454217
1073.000000	8.970210
1072.000000	8.542276
1071.000000	8.174633
1070.000000	7.862468
1069.000000	7.591984
1068.000000	7.358677
1067.000000	7.170908
1066.000000	7.029698
1065.000000	6.925370
1064.000000	6.859293
1063.000000	6.842553
1062.000000	6.875926
1061.000000	6.949593
1060.000000	7.062896
1059.000000	7.226656
1058.000000	7.440858
1057.000000	7.694690
1056.000000	7.988325
1055.000000	8.332503
1054.000000	8.729616
1053.000000	9.170797
1052.000000	9.655490
1051.000000	10.193498
1050.000000	10.783207
1049.000000	11.412967
1048.000000	12.080047
1047.000000	12.791742
1046.000000	13.548944
1045.000000	14.344506
1044.000000	15.181283
1043.000000	16.070106
1042.000000	17.013156
1041.000000	18.005649
1040.000000	19.047905
1039.000000	20.145655
1038.000000	21.296204
1037.000000	22.488879
1036.000000	23.718731
1035.000000	24.983010
1034.000000	26.270171
1033.000000	27.562446
1032.000000	28.849058
1031.000000	30.128034
1030.000000	31.396566
1029.000000	32.649708
1028.000000	33.886729
1027.000000	35.111603
1026.000000	36.327125
1025.000000	37.534923
1024.000000	38.738072
1023.000000	39.938871
1022.000000	41.135040
1021.000000	42.318989
1020.000000	43.481294
1019.000000	44.612006
1018.000000	45.701581
1017.000000	46.743836
1016.000000	47.735256
1015.000000	48.676121
1014.000000	49.572105
1013.000000	50.433336
1012.000000	51.271898
1011.000000	52.098894
1010.000000	52.925267
1009.000000	53.759292
1008.000000	54.600737
1007.000000	55.441431
1006.000000	56.270452
1005.000000	57.076680
1004.000000	57.847061
1003.000000	58.569319
1002.000000	59.240684
1001.000000	59.867145
1000.000000	60.456232
999.000000	61.016188
998.000000	61.560121
997.000000	62.103880
996.000000	62.656284
995.000000	63.218271
994.000000	63.790160
993.000000	64.370443
992.000000	64.948853
991.000000	65.509102
990.000000	66.040808
989.000000	66.542105
988.000000	67.010758
987.000000	67.444984
986.000000	67.851601
985.000000	68.243600
984.000000	68.628981
983.000000	69.009321
982.000000	69.389135
981.000000	69.774508
980.000000	70.163320
979.000000	70.548170
978.000000	70.927791
977.000000	71.305763
976.000000	71.679113
975.000000	72.039967
974.000000	72.388425
973.000000	72.729920
972.000000	73.061520
971.000000	73.372794
970.000000	73.659689
969.000000	73.925673
968.000000	74.168651
967.000000	74.382836
966.000000	74.574006
965.000000	74.759653
964.000000	74.953913
963.000000	75.163750
962.000000	75.398124
961.000000	75.665774
960.000000	75.961557
959.000000	76.267227
958.000000	76.565361
957.000000	76.841363
956.000000	77.074615
955.000000	77.243573
954.000000	77.344342
953.000000	77.390991
952.000000	77.400434
951.000000	77.390603
950.000000	77.389785
949.000000	77.431019
948.000000	77.533576
947.000000	77.699482
946.000000	77.924030
945.000000	78.194702
944.000000	78.480251
943.000000	78.737977
942.000000	78.935797
941.000000	79.058596
940.000000	79.096777
939.000000	79.049434
938.000000	78.938113
937.000000	78.800967
936.000000	78.672168
935.000000	78.576460
934.000000	78.538139
933.000000	78.575300
932.000000	78.683368
931.000000	78.837032
930.000000	79.008580
929.000000	79.171856
928.000000	79.293816
927.000000	79.341833
926.000000	79.304446
925.000000	79.190922
924.000000	79.013989
923.000000	78.787315
922.000000	78.535217
921.000000	78.288232
920.000000	78.064865
919.000000	77.870514
918.000000	77.710334
917.000000	77.587279
916.000000	77.489090
915.000000	77.392422
914.000000	77.280209
913.000000	77.143297
912.000000	76.967188
911.000000	76.734881
910.000000	76.441484
909.000000	76.092164
908.000000	75.688193
907.000000	75.226911
906.000000	74.716570
905.000000	74.173992
904.000000	73.609830
903.000000	73.030708
902.000000	72.450814
901.000000	71.887642
900.000000	71.345611
899.000000	70.814734
898.000000	70.283035
897.000000	69.736974
896.000000	69.152443
895.000000	68.499785
894.000000	67.758448
893.000000	66.920974
892.000000	65.982796
891.000000	64.944507
890.000000	63.821710
889.000000	62.639959
888.000000	61.423892
887.000000	60.193411
886.000000	58.966420
885.000000	57.753091
884.000000	56.546845
883.000000	55.328906
882.000000	54.077714
881.000000	52.771528
880.000000	51.388637
879.000000	49.912907
878.000000	48.342416
877.000000	46.687601
876.000000	44.965732
875.000000	43.199885
874.000000	41.416153
873.000000	39.639331
872.000000	37.889545
871.000000	36.181403
870.000000	34.521487
869.000000	32.909083
868.000000	31.340509
867.000000	29.811341
866.000000	28.314432
865.000000	26.841038
864.000000	25.390000
863.000000	23.967831
862.000000	22.580328
861.000000	21.232300
860.000000	19.934399
859.000000	18.706644
858.000000	17.569781
857.000000	16.543629
856.000000	15.656096
855.000000	14.934417
854.000000	14.392232
853.000000	14.024016
852.000000	13.810914
851.000000	13.723846
850.000000	13.717325
849.000000	13.743902
848.000000	13.772745
847.000000	13.791089
846.000000	13.795210
845.000000	13.788501
844.000000	13.788055
843.000000	13.817292
842.000000	13.891380
841.000000	14.019178
840.000000	14.212066
839.000000	14.481248
838.000000	14.827707
837.000000	15.244057
836.000000	15.725963
835.000000	16.267974
834.000000	16.854547
833.000000	17.465345
832.000000	18.089132
831.000000	18.729127
830.000000	19.396288
829.000000	20.105196
828.000000	20.869612
827.000000	21.692309
826.000000	22.564554
825.000000	23.479541
824.000000	24.441992
823.000000	25.458325
822.000000	26.522349
821.000000	27.618185
820.000000	28.728036
819.000000	29.832881
818.000000	30.912701
817.000000	31.952813
816.000000	32.946830
815.000000	33.892381
814.000000	34.789374
813.000000	35.642922
812.000000	36.464017
811.000000	37.264491
810.000000	38.056194
809.000000	38.853289
808.000000	39.668591
807.000000	40.506684
806.000000	41.363465
805.000000	42.231970
804.000000	43.104184
803.000000	43.969317
802.000000	44.816804
801.000000	45.640419
800.000000	46.436499
799.000000	47.201783
798.000000	47.936819
797.000000	48.649245
796.000000	49.349193
795.000000	50.045112
794.000000	50.745925
793.000000	51.460654
792.000000	52.191737
791.000000	52.932372
790.000000	53.672550
789.000000	54.402343
788.000000	55.107819
787.000000	55.772753
786.000000	56.388712
785.000000	56.957118
784.000000	57.480385
783.000000	57.958851
782.000000	58.400247
781.000000	58.823104
780.000000	59.247253
779.000000	59.687133
778.000000	60.153746
777.000000	60.653187
776.000000	61.178866
775.000000	61.712428
774.000000	62.235356
773.000000	62.733324
772.000000	63.190576
771.000000	63.592527
770.000000	63.937170
769.000000	64.236418
768.000000	64.504143
767.000000	64.752326
766.000000	64.997946
765.000000	65.261168
764.000000	65.553817
763.000000	65.877300
762.000000	66.231690
761.000000	66.615115
760.000000	67.012551
759.000000	67.396972
758.000000	67.745419
757.000000	68.045602
756.000000	68.288741
755.000000	68.469320
754.000000	68.595584
753.000000	68.687905
752.000000	68.764757
751.000000	68.839519
750.000000	68.928554
749.000000	69.048599
748.000000	69.203287
747.000000	69.383886
746.000000	69.583294
745.000000	69.796799
744.000000	70.008288
743.000000	70.191030
742.000000	70.326203
741.000000	70.410278
740.000000	70.443320
739.000000	70.425091
738.000000	70.366190
737.000000	70.289398
736.000000	70.215580
735.000000	70.158004
734.000000	70.132448
733.000000	70.158868
732.000000	70.249107
731.000000	70.401713
730.000000	70.610989
729.000000	70.870022
728.000000	71.162283
727.000000	71.462561
726.000000	71.750932
725.000000	72.016371
724.000000	72.246595
723.000000	72.429913
722.000000	72.570066
721.000000	72.687682
720.000000	72.804184
719.000000	72.934363
718.000000	73.094282
717.000000	73.302585
716.000000	73.569317
715.000000	73.893066
714.000000	74.268614
713.000000	74.684176
712.000000	75.110546
711.000000	75.507785
710.000000	75.846782
709.000000	76.114101
708.000000	76.301292
707.000000	76.407062
706.000000	76.450812
705.000000	76.467788
704.000000	76.488099
703.000000	76.531898
702.000000	76.621123
701.000000	76.778452
700.000000	77.012525
699.000000	77.314673
698.000000	77.668887
697.000000	78.050547
696.000000	78.417409
695.000000	78.724114
694.000000	78.946238
693.000000	79.078712
692.000000	79.121068
691.000000	79.082456
690.000000	78.998176
689.000000	78.920329
688.000000	78.886921
687.000000	78.913421
686.000000	79.008925
685.000000	79.180025
684.000000	79.418024
683.000000	79.698697
682.000000	79.996067
681.000000	80.282627
680.000000	80.523052
679.000000	80.688039
678.000000	80.772719
677.000000	80.789009
676.000000	80.751333
675.000000	80.676277
674.000000	80.590542
673.000000	80.525955
672.000000	80.507150
671.000000	80.555951
670.000000	80.702464
669.000000	80.961305
668.000000	81.304414
667.000000	81.615810
666.000000	81.764896
665.000000	81.811959
664.000000	81.866553
663.000000	81.932089
662.000000	81.971490
661.000000	81.975448
660.000000	81.962542
659.000000	81.942614
658.000000	81.919410
657.000000	81.905127
656.000000	81.911012
655.000000	81.934494
654.000000	81.974751
653.000000	82.045310
652.000000	82.153453
651.000000	82.287165
650.000000	82.432830
649.000000	82.586032
648.000000	82.731669
647.000000	82.839771
646.000000	82.897851
645.000000	82.920983
644.000000	82.917240
643.000000	82.872486
642.000000	82.782957
641.000000	82.675300
640.000000	82.578851
639.000000	82.502655
638.000000	82.452734
637.000000	82.447150
636.000000	82.497184
635.000000	82.592563
634.000000	82.714770
633.000000	82.846068
632.000000	82.959706
631.000000	83.021459
630.000000	83.013188
629.000000	82.939927
628.000000	82.810743
627.000000	82.638073
626.000000	82.458799
625.000000	82.321635
624.000000	82.244566
623.000000	82.212392
622.000000	82.219107
621.000000	82.277510
620.000000	82.382237
619.000000	82.497213
618.000000	82.591514
617.000000	82.661486
616.000000	82.702892
615.000000	82.693081
614.000000	82.619945
613.000000	82.502127
612.000000	82.367651
611.000000	82.237009
610.000000	82.135474
609.000000	82.093749
608.000000	82.118552
607.000000	82.184907
606.000000	82.267339
605.000000	82.352943
604.000000	82.416167
603.000000	82.413218
602.000000	82.320552
601.000000	82.154576
600.000000	81.933712
599.000000	81.650272
598.000000	81.298626
597.000000	80.902841
596.000000	80.506378
595.000000	80.160039
594.000000	79.931292
593.000000	79.891742
592.000000	80.068235
591.000000	80.406591
590.000000	80.800414
589.000000	81.154575
588.000000	81.412942
587.000000	81.562309
586.000000	81.632805
585.000000	81.673920
584.000000	81.710799
583.000000	81.743945
582.000000	81.790397
581.000000	81.886757
580.000000	82.035511
579.000000	82.187462
578.000000	82.305074
577.000000	82.404427
576.000000	82.513582
575.000000	82.614227
574.000000	82.658173
573.000000	82.623871
572.000000	82.526028
571.000000	82.396198
570.000000	82.275128
569.000000	82.200313
568.000000	82.180968
567.000000	82.193756
566.000000	82.208108
565.000000	82.207258
564.000000	82.179499
563.000000	82.113787
562.000000	82.012727
561.000000	81.892606
560.000000	81.764705
559.000000	81.630342
558.000000	81.495934
557.000000	81.374495
556.000000	81.270699
555.000000	81.176697
554.000000	81.084614
553.000000	80.989212
552.000000	80.880831
551.000000	80.752692
550.000000	80.615196
549.000000	80.489213
548.000000	80.390789
547.000000	80.337675
546.000000	80.358661
545.000000	80.468648
544.000000	80.641955
543.000000	80.832603
542.000000	81.014224
541.000000	81.181505
540.000000	81.316537
539.000000	81.385635
538.000000	81.374648
537.000000	81.305166
536.000000	81.209560
535.000000	81.113111
534.000000	81.043184
533.000000	81.034414
532.000000	81.111474
531.000000	81.275522
530.000000	81.507807
529.000000	81.775243
528.000000	82.035984
527.000000	82.261971
526.000000	82.454999
525.000000	82.604928
524.000000	82.657327
523.000000	82.555682
522.000000	82.303251
521.000000	81.967382
520.000000	81.634743
519.000000	81.380602
518.000000	81.268299
517.000000	81.325279
516.000000	81.501042
515.000000	81.684048
514.000000	81.775770
513.000000	81.731800
512.000000	81.535371
511.000000	81.172113
510.000000	80.647881
509.000000	80.005730
508.000000	79.302648
507.000000	78.590608
506.000000	77.910615
505.000000	77.279988
504.000000	76.696865
503.000000	76.185150
502.000000	75.807428
501.000000	75.591419
500.000000	75.482350
499.000000	75.406049
498.000000	75.350634
497.000000	75.353518
496.000000	75.436986
495.000000	75.590629
494.000000	75.815688
493.000000	76.151633
492.000000	76.622597
491.000000	77.191261
490.000000	77.785377
489.000000	78.342181
488.000000	78.819179
487.000000	79.200896
486.000000	79.519276
485.000000	79.833044
484.000000	80.162852
483.000000	80.470725
482.000000	80.725212
481.000000	80.939122
480.000000	81.124907
479.000000	81.271421
478.000000	81.374925
477.000000	81.445503
476.000000	81.465406
475.000000	81.388420
474.000000	81.222783
473.000000	81.086413
472.000000	81.086976
471.000000	81.191884
470.000000	81.334713
469.000000	81.537491
468.000000	81.871811
467.000000	82.352058
466.000000	82.899524
465.000000	83.420408
464.000000	83.854823
463.000000	84.170779
462.000000	84.368305
461.000000	84.462126
460.000000	84.421187
459.000000	84.197205
458.000000	83.871839
457.000000	83.623709
456.000000	83.517806
455.000000	83.516059
454.000000	83.616378
453.000000	83.879727
452.000000	84.324351
451.000000	84.821730
450.000000	85.198028
449.000000	85.391096
448.000000	85.454121
447.000000	85.446200
446.000000	85.375789
445.000000	85.246656
444.000000	85.105489
443.000000	85.045505
442.000000	85.153956
441.000000	85.433608
440.000000	85.792539
439.000000	86.114150
438.000000	86.343226
437.000000	86.525650
436.000000	86.727164
435.000000	86.934284
434.000000	87.092791
433.000000	87.199730
432.000000	87.284786
431.000000	87.361565
430.000000	87.439371
429.000000	87.522931
428.000000	87.570390
427.000000	87.517502
426.000000	87.375760
425.000000	87.242381
424.000000	87.204065
423.000000	87.266603
422.000000	87.365789
421.000000	87.357690
420.000000	87.109044
419.000000	86.883720
418.000000	87.033888
417.000000	87.431764
416.000000	87.859915
415.000000	88.194886
414.000000	88.357135
413.000000	88.386228
412.000000	88.357970
411.000000	88.265487
410.000000	88.109919
409.000000	87.993969
408.000000	87.982722
407.000000	88.040538
406.000000	88.177257
405.000000	88.420926
404.000000	88.782707
403.000000	89.047024
402.000000	89.002465
401.000000	88.632937
400.000000	88.053357
