PE IR       SUBTECH     SPECTRUM    ASCII       PEDS        4.00        
   -1
23ms234.asc
24/09/02
17:24:22.00
24/09/02
17:24:22.00
Administrator
Sample 1088 By Administrator Date Monday, September 02 2024
400.000000
#HDR
-1
-1
#GR
cm-1
%T
1.0
0.0
4000.000000
-1.000000
3601
8
90.787247
10.597387
#DATA
4000.000000	78.870679
3999.000000	78.916458
3998.000000	78.960632
3997.000000	79.002096
3996.000000	79.040279
3995.000000	79.075886
3994.000000	79.110939
3993.000000	79.147422
3992.000000	79.185777
3991.000000	79.225016
3990.000000	79.264185
3989.000000	79.303198
3988.000000	79.342293
3987.000000	79.381382
3986.000000	79.420455
3985.000000	79.459941
3984.000000	79.500229
3983.000000	79.540995
3982.000000	79.581399
3981.000000	79.620842
3980.000000	79.659238
3979.000000	79.696620
3978.000000	79.732712
3977.000000	79.767180
3976.000000	79.800425
3975.000000	79.833488
3974.000000	79.867271
3973.000000	79.902152
3972.000000	79.937734
3971.000000	79.972966
3970.000000	80.006335
3969.000000	80.036952
3968.000000	80.065446
3967.000000	80.093743
3966.000000	80.124181
3965.000000	80.158327
3964.000000	80.196229
3963.000000	80.236208
3962.000000	80.275613
3961.000000	80.312353
3960.000000	80.345469
3959.000000	80.374892
3958.000000	80.400962
3957.000000	80.425270
3956.000000	80.450673
3955.000000	80.479731
3954.000000	80.513798
3953.000000	80.552370
3952.000000	80.593338
3951.000000	80.633481
3950.000000	80.669515
3949.000000	80.699445
3948.000000	80.723987
3947.000000	80.747986
3946.000000	80.778313
3945.000000	80.818301
3944.000000	80.864593
3943.000000	80.910565
3942.000000	80.952978
3941.000000	80.993078
3940.000000	81.031143
3939.000000	81.064730
3938.000000	81.091886
3937.000000	81.115540
3936.000000	81.142535
3935.000000	81.177092
3934.000000	81.218320
3933.000000	81.262211
3932.000000	81.305523
3931.000000	81.345972
3930.000000	81.380801
3929.000000	81.410121
3928.000000	81.438321
3927.000000	81.470412
3926.000000	81.505435
3925.000000	81.538258
3924.000000	81.569226
3923.000000	81.603778
3922.000000	81.642753
3921.000000	81.681645
3920.000000	81.718524
3919.000000	81.756475
3918.000000	81.795303
3917.000000	81.829165
3916.000000	81.855368
3915.000000	81.878995
3914.000000	81.905465
3913.000000	81.935497
3912.000000	81.967052
3911.000000	82.000255
3910.000000	82.034699
3909.000000	82.069514
3908.000000	82.105885
3907.000000	82.145335
3906.000000	82.185907
3905.000000	82.220243
3904.000000	82.246133
3903.000000	82.273201
3902.000000	82.310967
3901.000000	82.355932
3900.000000	82.395240
3899.000000	82.422903
3898.000000	82.445121
3897.000000	82.468946
3896.000000	82.494788
3895.000000	82.524214
3894.000000	82.560969
3893.000000	82.604729
3892.000000	82.642801
3891.000000	82.663948
3890.000000	82.677066
3889.000000	82.701857
3888.000000	82.745637
3887.000000	82.794774
3886.000000	82.830000
3885.000000	82.852709
3884.000000	82.881186
3883.000000	82.922575
3882.000000	82.964418
3881.000000	82.992336
3880.000000	83.007073
3879.000000	83.023535
3878.000000	83.053995
3877.000000	83.096983
3876.000000	83.139931
3875.000000	83.169627
3874.000000	83.187392
3873.000000	83.211293
3872.000000	83.251937
3871.000000	83.292034
3870.000000	83.309282
3869.000000	83.315916
3868.000000	83.341776
3867.000000	83.390308
3866.000000	83.436717
3865.000000	83.465996
3864.000000	83.490803
3863.000000	83.525044
3862.000000	83.559357
3861.000000	83.582226
3860.000000	83.595730
3859.000000	83.610097
3858.000000	83.634104
3857.000000	83.673809
3856.000000	83.730822
3855.000000	83.788724
3854.000000	83.824411
3853.000000	83.847271
3852.000000	83.881636
3851.000000	83.923369
3850.000000	83.952254
3849.000000	83.964275
3848.000000	83.973850
3847.000000	83.997128
3846.000000	84.035248
3845.000000	84.079419
3844.000000	84.120678
3843.000000	84.155318
3842.000000	84.187061
3841.000000	84.223012
3840.000000	84.260514
3839.000000	84.293315
3838.000000	84.322685
3837.000000	84.353564
3836.000000	84.387751
3835.000000	84.423424
3834.000000	84.459406
3833.000000	84.493924
3832.000000	84.523648
3831.000000	84.550959
3830.000000	84.583106
3829.000000	84.623473
3828.000000	84.665465
3827.000000	84.697485
3826.000000	84.716690
3825.000000	84.738160
3824.000000	84.776870
3823.000000	84.827789
3822.000000	84.868409
3821.000000	84.887772
3820.000000	84.907498
3819.000000	84.950044
3818.000000	85.007593
3817.000000	85.051783
3816.000000	85.070514
3815.000000	85.086927
3814.000000	85.124459
3813.000000	85.170802
3812.000000	85.201730
3811.000000	85.219135
3810.000000	85.246199
3809.000000	85.294186
3808.000000	85.344262
3807.000000	85.372576
3806.000000	85.386417
3805.000000	85.412685
3804.000000	85.458283
3803.000000	85.505956
3802.000000	85.534199
3801.000000	85.551031
3800.000000	85.586658
3799.000000	85.644414
3798.000000	85.698717
3797.000000	85.730204
3796.000000	85.746645
3795.000000	85.768798
3794.000000	85.804632
3793.000000	85.843856
3792.000000	85.877613
3791.000000	85.910086
3790.000000	85.948102
3789.000000	85.990758
3788.000000	86.033505
3787.000000	86.073975
3786.000000	86.110087
3785.000000	86.138274
3784.000000	86.159499
3783.000000	86.183351
3782.000000	86.217317
3781.000000	86.257942
3780.000000	86.295929
3779.000000	86.329614
3778.000000	86.365334
3777.000000	86.405538
3776.000000	86.441803
3775.000000	86.465846
3774.000000	86.482668
3773.000000	86.506352
3772.000000	86.542055
3771.000000	86.580403
3770.000000	86.614392
3769.000000	86.651705
3768.000000	86.699982
3767.000000	86.751698
3766.000000	86.791495
3765.000000	86.814306
3764.000000	86.832733
3763.000000	86.861541
3762.000000	86.898871
3761.000000	86.933623
3760.000000	86.964130
3759.000000	86.999317
3758.000000	87.037818
3757.000000	87.069444
3756.000000	87.094324
3755.000000	87.119982
3754.000000	87.147847
3753.000000	87.173161
3752.000000	87.199735
3751.000000	87.237675
3750.000000	87.280291
3749.000000	87.314599
3748.000000	87.350590
3747.000000	87.407392
3746.000000	87.476229
3745.000000	87.519271
3744.000000	87.533850
3743.000000	87.564525
3742.000000	87.621792
3741.000000	87.671998
3740.000000	87.696165
3739.000000	87.714013
3738.000000	87.749130
3737.000000	87.794621
3736.000000	87.833788
3735.000000	87.869652
3734.000000	87.913778
3733.000000	87.959014
3732.000000	87.991841
3731.000000	88.017652
3730.000000	88.050578
3729.000000	88.092808
3728.000000	88.133701
3727.000000	88.163744
3726.000000	88.189580
3725.000000	88.224283
3724.000000	88.268079
3723.000000	88.310904
3722.000000	88.348137
3721.000000	88.383764
3720.000000	88.419360
3719.000000	88.452400
3718.000000	88.477863
3717.000000	88.496196
3716.000000	88.516897
3715.000000	88.545960
3714.000000	88.579217
3713.000000	88.610689
3712.000000	88.644039
3711.000000	88.687470
3710.000000	88.738721
3709.000000	88.787285
3708.000000	88.825321
3707.000000	88.852776
3706.000000	88.876891
3705.000000	88.905607
3704.000000	88.941876
3703.000000	88.982401
3702.000000	89.021789
3701.000000	89.057995
3700.000000	89.092494
3699.000000	89.126184
3698.000000	89.154058
3697.000000	89.170140
3696.000000	89.179677
3695.000000	89.195025
3694.000000	89.219560
3693.000000	89.248614
3692.000000	89.281582
3691.000000	89.322132
3690.000000	89.365446
3689.000000	89.399348
3688.000000	89.421738
3687.000000	89.442736
3686.000000	89.468028
3685.000000	89.490557
3684.000000	89.503433
3683.000000	89.512901
3682.000000	89.529557
3681.000000	89.548994
3680.000000	89.559207
3679.000000	89.562091
3678.000000	89.572302
3677.000000	89.587150
3676.000000	89.585951
3675.000000	89.575679
3674.000000	89.585642
3673.000000	89.619383
3672.000000	89.650392
3671.000000	89.655700
3670.000000	89.643616
3669.000000	89.643499
3668.000000	89.663657
3667.000000	89.684527
3666.000000	89.689543
3665.000000	89.680608
3664.000000	89.668657
3663.000000	89.660640
3662.000000	89.653257
3661.000000	89.638599
3660.000000	89.617097
3659.000000	89.594147
3658.000000	89.570419
3657.000000	89.538380
3656.000000	89.498420
3655.000000	89.466207
3654.000000	89.450878
3653.000000	89.440445
3652.000000	89.413762
3651.000000	89.362620
3650.000000	89.302535
3649.000000	89.255354
3648.000000	89.223295
3647.000000	89.195447
3646.000000	89.165256
3645.000000	89.131447
3644.000000	89.092142
3643.000000	89.046063
3642.000000	88.994234
3641.000000	88.940206
3640.000000	88.886588
3639.000000	88.831782
3638.000000	88.775388
3637.000000	88.720792
3636.000000	88.670016
3635.000000	88.617615
3634.000000	88.558216
3633.000000	88.497295
3632.000000	88.442521
3631.000000	88.387427
3630.000000	88.314291
3629.000000	88.225935
3628.000000	88.155387
3627.000000	88.118494
3626.000000	88.091051
3625.000000	88.046279
3624.000000	87.983530
3623.000000	87.918506
3622.000000	87.858918
3621.000000	87.795078
3620.000000	87.716950
3619.000000	87.632022
3618.000000	87.555492
3617.000000	87.491574
3616.000000	87.433729
3615.000000	87.372663
3614.000000	87.303423
3613.000000	87.230596
3612.000000	87.164060
3611.000000	87.106699
3610.000000	87.051196
3609.000000	86.991217
3608.000000	86.929785
3607.000000	86.872874
3606.000000	86.818122
3605.000000	86.757225
3604.000000	86.687335
3603.000000	86.612309
3602.000000	86.536212
3601.000000	86.459235
3600.000000	86.382386
3599.000000	86.307973
3598.000000	86.235619
3597.000000	86.163429
3596.000000	86.093735
3595.000000	86.029214
3594.000000	85.969411
3593.000000	85.912819
3592.000000	85.858670
3591.000000	85.806926
3590.000000	85.755984
3589.000000	85.703263
3588.000000	85.648984
3587.000000	85.595761
3586.000000	85.542724
3585.000000	85.485010
3584.000000	85.420104
3583.000000	85.350584
3582.000000	85.280590
3581.000000	85.212055
3580.000000	85.145681
3579.000000	85.081342
3578.000000	85.016871
3577.000000	84.949492
3576.000000	84.878744
3575.000000	84.806816
3574.000000	84.735336
3573.000000	84.665289
3572.000000	84.597685
3571.000000	84.532763
3570.000000	84.468278
3569.000000	84.400788
3568.000000	84.330851
3567.000000	84.263919
3566.000000	84.202272
3565.000000	84.140503
3564.000000	84.072261
3563.000000	83.996630
3562.000000	83.916730
3561.000000	83.836232
3560.000000	83.757657
3559.000000	83.681866
3558.000000	83.607084
3557.000000	83.530295
3556.000000	83.449954
3555.000000	83.366139
3554.000000	83.278245
3553.000000	83.185795
3552.000000	83.091943
3551.000000	83.002137
3550.000000	82.918845
3549.000000	82.840503
3548.000000	82.764898
3547.000000	82.690433
3546.000000	82.613213
3545.000000	82.528113
3544.000000	82.433733
3543.000000	82.333239
3542.000000	82.230551
3541.000000	82.129568
3540.000000	82.035530
3539.000000	81.952194
3538.000000	81.877352
3537.000000	81.804103
3536.000000	81.728110
3535.000000	81.649424
3534.000000	81.569038
3533.000000	81.486952
3532.000000	81.404646
3531.000000	81.325726
3530.000000	81.252716
3529.000000	81.186401
3528.000000	81.128207
3527.000000	81.079649
3526.000000	81.037975
3525.000000	80.995779
3524.000000	80.946620
3523.000000	80.889375
3522.000000	80.826778
3521.000000	80.762458
3520.000000	80.699914
3519.000000	80.641613
3518.000000	80.588528
3517.000000	80.540933
3516.000000	80.498680
3515.000000	80.458800
3514.000000	80.415300
3513.000000	80.363453
3512.000000	80.303271
3511.000000	80.237668
3510.000000	80.169051
3509.000000	80.099534
3508.000000	80.032795
3507.000000	79.972589
3506.000000	79.919456
3505.000000	79.870722
3504.000000	79.822562
3503.000000	79.770235
3502.000000	79.708431
3501.000000	79.635043
3500.000000	79.553701
3499.000000	79.470087
3498.000000	79.387286
3497.000000	79.306811
3496.000000	79.231577
3495.000000	79.163470
3494.000000	79.099112
3493.000000	79.031886
3492.000000	78.957548
3491.000000	78.875498
3490.000000	78.786384
3489.000000	78.691874
3488.000000	78.595916
3487.000000	78.502805
3486.000000	78.413997
3485.000000	78.328995
3484.000000	78.248247
3483.000000	78.171669
3482.000000	78.094998
3481.000000	78.011113
3480.000000	77.915556
3479.000000	77.809397
3478.000000	77.697499
3477.000000	77.586353
3476.000000	77.482151
3475.000000	77.387615
3474.000000	77.300504
3473.000000	77.216455
3472.000000	77.132078
3471.000000	77.043857
3470.000000	76.946813
3469.000000	76.837756
3468.000000	76.718802
3467.000000	76.595655
3466.000000	76.473507
3465.000000	76.355972
3464.000000	76.245605
3463.000000	76.141924
3462.000000	76.039816
3461.000000	75.932685
3460.000000	75.817206
3459.000000	75.694103
3458.000000	75.566207
3457.000000	75.437607
3456.000000	75.312792
3455.000000	75.193410
3454.000000	75.076863
3453.000000	74.959318
3452.000000	74.839424
3451.000000	74.717435
3450.000000	74.592029
3449.000000	74.461003
3448.000000	74.324526
3447.000000	74.185409
3446.000000	74.046157
3445.000000	73.907479
3444.000000	73.769113
3443.000000	73.630354
3442.000000	73.490301
3441.000000	73.349261
3440.000000	73.208796
3439.000000	73.068790
3438.000000	72.925920
3437.000000	72.776442
3436.000000	72.619616
3435.000000	72.456932
3434.000000	72.289815
3433.000000	72.119580
3432.000000	71.947828
3431.000000	71.774704
3430.000000	71.597700
3429.000000	71.414635
3428.000000	71.226507
3427.000000	71.035246
3426.000000	70.840557
3425.000000	70.641375
3424.000000	70.438449
3423.000000	70.232786
3422.000000	70.023120
3421.000000	69.807983
3420.000000	69.588827
3419.000000	69.368161
3418.000000	69.146308
3417.000000	68.922141
3416.000000	68.695071
3415.000000	68.463496
3414.000000	68.223124
3413.000000	67.970645
3412.000000	67.707574
3411.000000	67.437965
3410.000000	67.163714
3409.000000	66.884501
3408.000000	66.600876
3407.000000	66.313780
3406.000000	66.022379
3405.000000	65.725114
3404.000000	65.421311
3403.000000	65.109505
3402.000000	64.786014
3401.000000	64.448247
3400.000000	64.098397
3399.000000	63.741359
3398.000000	63.380719
3397.000000	63.018133
3396.000000	62.653519
3395.000000	62.283366
3394.000000	61.900762
3393.000000	61.500688
3392.000000	61.084274
3391.000000	60.656111
3390.000000	60.220116
3389.000000	59.778802
3388.000000	59.333669
3387.000000	58.883278
3386.000000	58.423120
3385.000000	57.950396
3384.000000	57.466262
3383.000000	56.972369
3382.000000	56.468312
3381.000000	55.954197
3380.000000	55.432770
3379.000000	54.905909
3378.000000	54.371980
3377.000000	53.828931
3376.000000	53.276782
3375.000000	52.715678
3374.000000	52.144112
3373.000000	51.561383
3372.000000	50.969295
3371.000000	50.369027
3370.000000	49.759796
3369.000000	49.141568
3368.000000	48.516106
3367.000000	47.884158
3366.000000	47.244400
3365.000000	46.596872
3364.000000	45.943659
3363.000000	45.285137
3362.000000	44.619644
3361.000000	43.947745
3360.000000	43.273246
3359.000000	42.598214
3358.000000	41.920643
3357.000000	41.238768
3356.000000	40.553368
3355.000000	39.864831
3354.000000	39.171952
3353.000000	38.475221
3352.000000	37.777927
3351.000000	37.082487
3350.000000	36.389071
3349.000000	35.698344
3348.000000	35.011501
3347.000000	34.326893
3346.000000	33.640982
3345.000000	32.953618
3344.000000	32.268660
3343.000000	31.588946
3342.000000	30.914635
3341.000000	30.246774
3340.000000	29.587726
3339.000000	28.937567
3338.000000	28.294528
3337.000000	27.658997
3336.000000	27.032962
3335.000000	26.415536
3334.000000	25.803944
3333.000000	25.199354
3332.000000	24.606224
3331.000000	24.026128
3330.000000	23.456709
3329.000000	22.896498
3328.000000	22.346633
3327.000000	21.807385
3326.000000	21.278492
3325.000000	20.762694
3324.000000	20.263489
3323.000000	19.780340
3322.000000	19.309982
3321.000000	18.852257
3320.000000	18.409858
3319.000000	17.982370
3318.000000	17.566972
3317.000000	17.163430
3316.000000	16.773534
3315.000000	16.396603
3314.000000	16.030024
3313.000000	15.674371
3312.000000	15.332144
3311.000000	15.002435
3310.000000	14.682828
3309.000000	14.374832
3308.000000	14.083138
3307.000000	13.809824
3306.000000	13.554254
3305.000000	13.317682
3304.000000	13.100827
3303.000000	12.899213
3302.000000	12.706206
3301.000000	12.519753
3300.000000	12.341764
3299.000000	12.171762
3298.000000	12.007734
3297.000000	11.851656
3296.000000	11.707552
3295.000000	11.575656
3294.000000	11.453505
3293.000000	11.342209
3292.000000	11.245523
3291.000000	11.162665
3290.000000	11.088696
3289.000000	11.020571
3288.000000	10.958214
3287.000000	10.900719
3286.000000	10.846518
3285.000000	10.797296
3284.000000	10.755872
3283.000000	10.721408
3282.000000	10.691284
3281.000000	10.665993
3280.000000	10.647549
3279.000000	10.634119
3278.000000	10.621874
3277.000000	10.610927
3276.000000	10.604001
3275.000000	10.600692
3274.000000	10.598249
3273.000000	10.597387
3272.000000	10.602293
3271.000000	10.615218
3270.000000	10.635506
3269.000000	10.662354
3268.000000	10.694027
3267.000000	10.726129
3266.000000	10.755155
3265.000000	10.782769
3264.000000	10.812530
3263.000000	10.844151
3262.000000	10.875552
3261.000000	10.907830
3260.000000	10.943146
3259.000000	10.979728
3258.000000	11.014236
3257.000000	11.047654
3256.000000	11.083656
3255.000000	11.122861
3254.000000	11.163360
3253.000000	11.205127
3252.000000	11.248857
3251.000000	11.292000
3250.000000	11.331144
3249.000000	11.367322
3248.000000	11.404540
3247.000000	11.444392
3246.000000	11.486180
3245.000000	11.530381
3244.000000	11.577425
3243.000000	11.624743
3242.000000	11.669554
3241.000000	11.712952
3240.000000	11.757164
3239.000000	11.800684
3238.000000	11.840343
3237.000000	11.876180
3236.000000	11.910332
3235.000000	11.943546
3234.000000	11.976896
3233.000000	12.014214
3232.000000	12.057763
3231.000000	12.103593
3230.000000	12.145866
3229.000000	12.183661
3228.000000	12.219296
3227.000000	12.252717
3226.000000	12.282539
3225.000000	12.310334
3224.000000	12.338638
3223.000000	12.366550
3222.000000	12.391876
3221.000000	12.415697
3220.000000	12.440174
3219.000000	12.463712
3218.000000	12.483163
3217.000000	12.498860
3216.000000	12.513044
3215.000000	12.525453
3214.000000	12.534782
3213.000000	12.542509
3212.000000	12.550541
3211.000000	12.557039
3210.000000	12.559096
3209.000000	12.557349
3208.000000	12.553903
3207.000000	12.547931
3206.000000	12.537763
3205.000000	12.525264
3204.000000	12.513322
3203.000000	12.501126
3202.000000	12.486193
3201.000000	12.468872
3200.000000	12.450625
3199.000000	12.430000
3198.000000	12.404921
3197.000000	12.376909
3196.000000	12.348652
3195.000000	12.319602
3194.000000	12.287979
3193.000000	12.254829
3192.000000	12.221876
3191.000000	12.187709
3190.000000	12.150547
3189.000000	12.112363
3188.000000	12.075973
3187.000000	12.040409
3186.000000	12.003397
3185.000000	11.966012
3184.000000	11.930439
3183.000000	11.895596
3182.000000	11.859356
3181.000000	11.822760
3180.000000	11.787788
3179.000000	11.753379
3178.000000	11.717873
3177.000000	11.682975
3176.000000	11.651116
3175.000000	11.621311
3174.000000	11.591793
3173.000000	11.564063
3172.000000	11.540082
3171.000000	11.518180
3170.000000	11.495904
3169.000000	11.474449
3168.000000	11.456216
3167.000000	11.440507
3166.000000	11.425925
3165.000000	11.414102
3164.000000	11.406846
3163.000000	11.402389
3162.000000	11.398456
3161.000000	11.396470
3160.000000	11.398471
3159.000000	11.402778
3158.000000	11.406952
3157.000000	11.412012
3156.000000	11.419878
3155.000000	11.429718
3154.000000	11.441204
3153.000000	11.458290
3152.000000	11.484679
3151.000000	11.518313
3150.000000	11.554621
3149.000000	11.592570
3148.000000	11.633464
3147.000000	11.676537
3146.000000	11.720600
3145.000000	11.767377
3144.000000	11.818560
3143.000000	11.872083
3142.000000	11.925384
3141.000000	11.980380
3140.000000	12.041094
3139.000000	12.108374
3138.000000	12.180898
3137.000000	12.258521
3136.000000	12.340885
3135.000000	12.425246
3134.000000	12.509442
3133.000000	12.595164
3132.000000	12.684796
3131.000000	12.777833
3130.000000	12.873614
3129.000000	12.974052
3128.000000	13.080266
3127.000000	13.189451
3126.000000	13.298798
3125.000000	13.409364
3124.000000	13.522399
3123.000000	13.635701
3122.000000	13.747666
3121.000000	13.861661
3120.000000	13.982016
3119.000000	14.108302
3118.000000	14.238008
3117.000000	14.371799
3116.000000	14.511682
3115.000000	14.656564
3114.000000	14.803584
3113.000000	14.951807
3112.000000	15.100978
3111.000000	15.249356
3110.000000	15.396685
3109.000000	15.546582
3108.000000	15.702355
3107.000000	15.862648
3106.000000	16.024359
3105.000000	16.187182
3104.000000	16.351822
3103.000000	16.516896
3102.000000	16.681346
3101.000000	16.847326
3100.000000	17.017224
3099.000000	17.189957
3098.000000	17.363620
3097.000000	17.539032
3096.000000	17.717165
3095.000000	17.895921
3094.000000	18.072984
3093.000000	18.249558
3092.000000	18.428023
3091.000000	18.608273
3090.000000	18.789509
3089.000000	18.972871
3088.000000	19.159016
3087.000000	19.345768
3086.000000	19.531458
3085.000000	19.718165
3084.000000	19.908199
3083.000000	20.099935
3082.000000	20.290568
3081.000000	20.480597
3080.000000	20.672373
3079.000000	20.866412
3078.000000	21.062318
3077.000000	21.260953
3076.000000	21.462333
3075.000000	21.663623
3074.000000	21.862318
3073.000000	22.059324
3072.000000	22.256157
3071.000000	22.451530
3070.000000	22.643890
3069.000000	22.835122
3068.000000	23.028519
3067.000000	23.224942
3066.000000	23.423630
3065.000000	23.624644
3064.000000	23.827567
3063.000000	24.029859
3062.000000	24.229391
3061.000000	24.426890
3060.000000	24.623597
3059.000000	24.818766
3058.000000	25.011947
3057.000000	25.205294
3056.000000	25.400774
3055.000000	25.597079
3054.000000	25.792039
3053.000000	25.986061
3052.000000	26.180608
3051.000000	26.375354
3050.000000	26.569296
3049.000000	26.762644
3048.000000	26.955234
3047.000000	27.145249
3046.000000	27.332099
3045.000000	27.518448
3044.000000	27.706989
3043.000000	27.897342
3042.000000	28.088285
3041.000000	28.280435
3040.000000	28.473882
3039.000000	28.665627
3038.000000	28.852551
3037.000000	29.035228
3036.000000	29.216428
3035.000000	29.397718
3034.000000	29.579804
3033.000000	29.763922
3032.000000	29.949928
3031.000000	30.134979
3030.000000	30.316780
3029.000000	30.496345
3028.000000	30.675452
3027.000000	30.853711
3026.000000	31.030674
3025.000000	31.208342
3024.000000	31.388453
3023.000000	31.569255
3022.000000	31.747840
3021.000000	31.923988
3020.000000	32.099052
3019.000000	32.272795
3018.000000	32.444285
3017.000000	32.614387
3016.000000	32.784629
3015.000000	32.954931
3014.000000	33.124869
3013.000000	33.295737
3012.000000	33.468817
3011.000000	33.642975
3010.000000	33.816321
3009.000000	33.988807
3008.000000	34.160962
3007.000000	34.331763
3006.000000	34.500129
3005.000000	34.667071
3004.000000	34.833951
3003.000000	34.999840
3002.000000	35.162935
3001.000000	35.323396
3000.000000	35.482874
2999.000000	35.642466
2998.000000	35.802939
2997.000000	35.965272
2996.000000	36.128785
2995.000000	36.290465
2994.000000	36.448468
2993.000000	36.604811
2992.000000	36.762399
2991.000000	36.921018
2990.000000	37.078696
2989.000000	37.235390
2988.000000	37.392562
2987.000000	37.550322
2986.000000	37.707532
2985.000000	37.863768
2984.000000	38.018779
2983.000000	38.171111
2982.000000	38.319744
2981.000000	38.466244
2980.000000	38.613171
2979.000000	38.761221
2978.000000	38.909949
2977.000000	39.060087
2976.000000	39.212668
2975.000000	39.366645
2974.000000	39.519609
2973.000000	39.670137
2972.000000	39.817702
2971.000000	39.961417
2970.000000	40.101273
2969.000000	40.239854
2968.000000	40.380488
2967.000000	40.524229
2966.000000	40.670202
2965.000000	40.817766
2964.000000	40.966121
2963.000000	41.112805
2962.000000	41.255182
2961.000000	41.392950
2960.000000	41.527540
2959.000000	41.660099
2958.000000	41.791846
2957.000000	41.925062
2956.000000	42.061109
2955.000000	42.198284
2954.000000	42.333745
2953.000000	42.466542
2952.000000	42.596793
2951.000000	42.723238
2950.000000	42.844498
2949.000000	42.962154
2948.000000	43.080097
2947.000000	43.201131
2946.000000	43.325935
2945.000000	43.454418
2944.000000	43.585635
2943.000000	43.716763
2942.000000	43.844497
2941.000000	43.967671
2940.000000	44.087201
2939.000000	44.204268
2938.000000	44.320234
2937.000000	44.437443
2936.000000	44.557806
2935.000000	44.680772
2934.000000	44.804285
2933.000000	44.926931
2932.000000	45.047488
2931.000000	45.163716
2930.000000	45.274310
2929.000000	45.381667
2928.000000	45.490270
2927.000000	45.602455
2926.000000	45.717543
2925.000000	45.834221
2924.000000	45.951358
2923.000000	46.067046
2922.000000	46.179567
2921.000000	46.289365
2920.000000	46.398140
2919.000000	46.506412
2918.000000	46.613808
2917.000000	46.721004
2916.000000	46.828726
2915.000000	46.935000
2914.000000	47.035864
2913.000000	47.129294
2912.000000	47.216850
2911.000000	47.301547
2910.000000	47.386085
2909.000000	47.473019
2908.000000	47.564304
2907.000000	47.659602
2906.000000	47.756217
2905.000000	47.851397
2904.000000	47.943639
2903.000000	48.032513
2902.000000	48.118534
2901.000000	48.203533
2900.000000	48.290164
2899.000000	48.379756
2898.000000	48.471436
2897.000000	48.562760
2896.000000	48.650691
2895.000000	48.732741
2894.000000	48.808638
2893.000000	48.880786
2892.000000	48.952063
2891.000000	49.023543
2890.000000	49.095089
2889.000000	49.167064
2888.000000	49.239731
2887.000000	49.311360
2886.000000	49.378623
2885.000000	49.438775
2884.000000	49.490281
2883.000000	49.532128
2882.000000	49.564371
2881.000000	49.589211
2880.000000	49.609880
2879.000000	49.628482
2878.000000	49.646121
2877.000000	49.664375
2876.000000	49.684470
2875.000000	49.705109
2874.000000	49.723775
2873.000000	49.740972
2872.000000	49.762083
2871.000000	49.794720
2870.000000	49.845170
2869.000000	49.916999
2868.000000	50.010503
2867.000000	50.122487
2866.000000	50.247753
2865.000000	50.381653
2864.000000	50.521081
2863.000000	50.663747
2862.000000	50.807982
2861.000000	50.953309
2860.000000	51.100100
2859.000000	51.248188
2858.000000	51.396645
2857.000000	51.544615
2856.000000	51.691026
2855.000000	51.833771
2854.000000	51.970540
2853.000000	52.100802
2852.000000	52.226054
2851.000000	52.348068
2850.000000	52.467879
2849.000000	52.586225
2848.000000	52.703496
2847.000000	52.818982
2846.000000	52.931194
2845.000000	53.039169
2844.000000	53.142864
2843.000000	53.242656
2842.000000	53.339569
2841.000000	53.435726
2840.000000	53.533134
2839.000000	53.631850
2838.000000	53.730277
2837.000000	53.827106
2836.000000	53.921773
2835.000000	54.013403
2834.000000	54.101132
2833.000000	54.185810
2832.000000	54.269953
2831.000000	54.355565
2830.000000	54.443066
2829.000000	54.532277
2828.000000	54.622844
2827.000000	54.713261
2826.000000	54.800991
2825.000000	54.884437
2824.000000	54.964058
2823.000000	55.041420
2822.000000	55.118290
2821.000000	55.196798
2820.000000	55.278774
2819.000000	55.364013
2818.000000	55.449986
2817.000000	55.533782
2816.000000	55.613654
2815.000000	55.688893
2814.000000	55.759937
2813.000000	55.829307
2812.000000	55.901042
2811.000000	55.978174
2810.000000	56.061139
2809.000000	56.148538
2808.000000	56.237984
2807.000000	56.325936
2806.000000	56.408543
2805.000000	56.484088
2804.000000	56.554178
2803.000000	56.622228
2802.000000	56.691668
2801.000000	56.765505
2800.000000	56.845557
2799.000000	56.930765
2798.000000	57.017049
2797.000000	57.099730
2796.000000	57.175853
2795.000000	57.244482
2794.000000	57.306632
2793.000000	57.365858
2792.000000	57.427432
2791.000000	57.495421
2790.000000	57.570686
2789.000000	57.651537
2788.000000	57.734784
2787.000000	57.815716
2786.000000	57.889148
2785.000000	57.952460
2784.000000	58.007375
2783.000000	58.058379
2782.000000	58.110196
2781.000000	58.166851
2780.000000	58.230933
2779.000000	58.301874
2778.000000	58.375575
2777.000000	58.446858
2776.000000	58.512196
2775.000000	58.570197
2774.000000	58.621292
2773.000000	58.668342
2772.000000	58.716341
2771.000000	58.769846
2770.000000	58.830627
2769.000000	58.897843
2768.000000	58.969096
2767.000000	59.040537
2766.000000	59.107543
2765.000000	59.167099
2764.000000	59.219526
2763.000000	59.267528
2762.000000	59.314427
2761.000000	59.363628
2760.000000	59.417963
2759.000000	59.477852
2758.000000	59.540721
2757.000000	59.603127
2756.000000	59.662944
2755.000000	59.719182
2754.000000	59.771234
2753.000000	59.819664
2752.000000	59.866758
2751.000000	59.915082
2750.000000	59.965934
2749.000000	60.019600
2748.000000	60.075810
2747.000000	60.133013
2746.000000	60.188505
2745.000000	60.240629
2744.000000	60.290006
2743.000000	60.337836
2742.000000	60.384124
2741.000000	60.428585
2740.000000	60.471984
2739.000000	60.515225
2738.000000	60.558161
2737.000000	60.600504
2736.000000	60.642947
2735.000000	60.686268
2734.000000	60.730219
2733.000000	60.774345
2732.000000	60.818716
2731.000000	60.862696
2730.000000	60.904176
2729.000000	60.941490
2728.000000	60.975315
2727.000000	61.007677
2726.000000	61.040158
2725.000000	61.074200
2724.000000	61.111660
2723.000000	61.153220
2722.000000	61.196893
2721.000000	61.239436
2720.000000	61.278638
2719.000000	61.313396
2718.000000	61.343115
2717.000000	61.368953
2716.000000	61.394841
2715.000000	61.425422
2714.000000	61.463069
2713.000000	61.507406
2712.000000	61.556284
2711.000000	61.605688
2710.000000	61.649994
2709.000000	61.684575
2708.000000	61.708551
2707.000000	61.724539
2706.000000	61.736721
2705.000000	61.750060
2704.000000	61.769425
2703.000000	61.796887
2702.000000	61.829748
2701.000000	61.862117
2700.000000	61.888208
2699.000000	61.903782
2698.000000	61.906579
2697.000000	61.898009
2696.000000	61.883866
2695.000000	61.871548
2694.000000	61.866169
2693.000000	61.869297
2692.000000	61.879603
2691.000000	61.892788
2690.000000	61.902085
2689.000000	61.901310
2688.000000	61.888089
2687.000000	61.864211
2686.000000	61.834058
2685.000000	61.803672
2684.000000	61.779467
2683.000000	61.765106
2682.000000	61.759265
2681.000000	61.756942
2680.000000	61.752344
2679.000000	61.740340
2678.000000	61.717454
2677.000000	61.684189
2676.000000	61.646047
2675.000000	61.610649
2674.000000	61.583742
2673.000000	61.568097
2672.000000	61.564190
2671.000000	61.570036
2670.000000	61.581223
2669.000000	61.593166
2668.000000	61.604025
2667.000000	61.614937
2666.000000	61.628910
2665.000000	61.650516
2664.000000	61.684804
2663.000000	61.734598
2662.000000	61.798342
2661.000000	61.871495
2660.000000	61.949397
2659.000000	62.027904
2658.000000	62.103397
2657.000000	62.174256
2656.000000	62.242189
2655.000000	62.310831
2654.000000	62.382934
2653.000000	62.459611
2652.000000	62.540808
2651.000000	62.624715
2650.000000	62.707442
2649.000000	62.785062
2648.000000	62.855996
2647.000000	62.920833
2646.000000	62.980814
2645.000000	63.037653
2644.000000	63.093757
2643.000000	63.150570
2642.000000	63.207095
2641.000000	63.261110
2640.000000	63.311003
2639.000000	63.355782
2638.000000	63.394602
2637.000000	63.428100
2636.000000	63.459356
2635.000000	63.491577
2634.000000	63.525460
2633.000000	63.559699
2632.000000	63.592917
2631.000000	63.623676
2630.000000	63.649751
2629.000000	63.669799
2628.000000	63.685245
2627.000000	63.699031
2626.000000	63.713112
2625.000000	63.728144
2624.000000	63.744407
2623.000000	63.761051
2622.000000	63.775239
2621.000000	63.784118
2620.000000	63.787294
2619.000000	63.786487
2618.000000	63.783768
2617.000000	63.781486
2616.000000	63.782564
2615.000000	63.788512
2614.000000	63.797503
2613.000000	63.805739
2612.000000	63.809972
2611.000000	63.807878
2610.000000	63.797503
2609.000000	63.778711
2608.000000	63.754496
2607.000000	63.728706
2606.000000	63.702974
2605.000000	63.676538
2604.000000	63.647769
2603.000000	63.614184
2602.000000	63.571899
2601.000000	63.518017
2600.000000	63.453293
2599.000000	63.381493
2598.000000	63.307103
2597.000000	63.234629
2596.000000	63.168668
2595.000000	63.112242
2594.000000	63.065397
2593.000000	63.026800
2592.000000	62.996468
2591.000000	62.975633
2590.000000	62.965638
2589.000000	62.968745
2588.000000	62.988296
2587.000000	63.026911
2586.000000	63.083930
2585.000000	63.156064
2584.000000	63.239819
2583.000000	63.331272
2582.000000	63.425847
2581.000000	63.520092
2580.000000	63.613803
2579.000000	63.709197
2578.000000	63.807950
2577.000000	63.910623
2576.000000	64.017396
2575.000000	64.127324
2574.000000	64.237485
2573.000000	64.344609
2572.000000	64.447561
2571.000000	64.547184
2570.000000	64.644814
2569.000000	64.742510
2568.000000	64.843410
2567.000000	64.949426
2566.000000	65.058733
2565.000000	65.167063
2564.000000	65.270819
2563.000000	65.367851
2562.000000	65.456751
2561.000000	65.538059
2560.000000	65.615719
2559.000000	65.694904
2558.000000	65.778434
2557.000000	65.866151
2556.000000	65.956249
2555.000000	66.045190
2554.000000	66.127261
2553.000000	66.197549
2552.000000	66.255693
2551.000000	66.305465
2550.000000	66.351854
2549.000000	66.399813
2548.000000	66.454037
2547.000000	66.516223
2546.000000	66.582204
2545.000000	66.644206
2544.000000	66.695602
2543.000000	66.732989
2542.000000	66.755578
2541.000000	66.765707
2540.000000	66.769782
2539.000000	66.775051
2538.000000	66.784859
2537.000000	66.797612
2536.000000	66.808651
2535.000000	66.811584
2534.000000	66.798615
2533.000000	66.763726
2532.000000	66.706692
2531.000000	66.632732
2530.000000	66.549734
2529.000000	66.466609
2528.000000	66.392231
2527.000000	66.332257
2526.000000	66.286412
2525.000000	66.250637
2524.000000	66.221514
2523.000000	66.197641
2522.000000	66.178571
2521.000000	66.166300
2520.000000	66.166482
2519.000000	66.186126
2518.000000	66.229351
2517.000000	66.295422
2516.000000	66.380339
2515.000000	66.476986
2514.000000	66.575744
2513.000000	66.668330
2512.000000	66.751496
2511.000000	66.826865
2510.000000	66.897879
2509.000000	66.968875
2508.000000	67.045138
2507.000000	67.130087
2506.000000	67.221915
2505.000000	67.314740
2504.000000	67.402640
2503.000000	67.481287
2502.000000	67.547778
2501.000000	67.602167
2500.000000	67.649126
2499.000000	67.695441
2498.000000	67.745334
2497.000000	67.799699
2496.000000	67.857953
2495.000000	67.918028
2494.000000	67.975541
2493.000000	68.026019
2492.000000	68.068390
2491.000000	68.104380
2490.000000	68.135645
2489.000000	68.163804
2488.000000	68.191914
2487.000000	68.222857
2486.000000	68.256293
2485.000000	68.289555
2484.000000	68.321155
2483.000000	68.350969
2482.000000	68.378197
2481.000000	68.401940
2480.000000	68.423410
2479.000000	68.444924
2478.000000	68.466906
2477.000000	68.488205
2476.000000	68.508642
2475.000000	68.528913
2474.000000	68.548746
2473.000000	68.567607
2472.000000	68.586649
2471.000000	68.607463
2470.000000	68.629453
2469.000000	68.650712
2468.000000	68.670559
2467.000000	68.688938
2466.000000	68.704374
2465.000000	68.715397
2464.000000	68.723534
2463.000000	68.732319
2462.000000	68.744026
2461.000000	68.759417
2460.000000	68.779326
2459.000000	68.803397
2458.000000	68.827931
2457.000000	68.847956
2456.000000	68.861373
2455.000000	68.869205
2454.000000	68.873134
2453.000000	68.875652
2452.000000	68.881419
2451.000000	68.894886
2450.000000	68.916330
2449.000000	68.942189
2448.000000	68.968402
2447.000000	68.991313
2446.000000	69.006930
2445.000000	69.013038
2444.000000	69.012175
2443.000000	69.010148
2442.000000	69.011993
2441.000000	69.020912
2440.000000	69.039134
2439.000000	69.066173
2438.000000	69.096688
2437.000000	69.123206
2436.000000	69.141199
2435.000000	69.150027
2434.000000	69.150939
2433.000000	69.147277
2432.000000	69.145455
2431.000000	69.151859
2430.000000	69.168323
2429.000000	69.192266
2428.000000	69.219993
2427.000000	69.247419
2426.000000	69.269358
2425.000000	69.282115
2424.000000	69.286954
2423.000000	69.288750
2422.000000	69.291986
2421.000000	69.299982
2420.000000	69.315945
2419.000000	69.340823
2418.000000	69.370539
2417.000000	69.398378
2416.000000	69.420001
2415.000000	69.434255
2414.000000	69.441075
2413.000000	69.442186
2412.000000	69.442894
2411.000000	69.449352
2410.000000	69.463846
2409.000000	69.484565
2408.000000	69.508689
2407.000000	69.532871
2406.000000	69.552408
2405.000000	69.563901
2404.000000	69.568856
2403.000000	69.572091
2402.000000	69.577417
2401.000000	69.587090
2400.000000	69.603451
2399.000000	69.627195
2398.000000	69.654582
2397.000000	69.679724
2396.000000	69.699535
2395.000000	69.714394
2394.000000	69.725659
2393.000000	69.735760
2392.000000	69.749428
2391.000000	69.770977
2390.000000	69.800435
2389.000000	69.834605
2388.000000	69.870979
2387.000000	69.907678
2386.000000	69.941758
2385.000000	69.971818
2384.000000	70.001268
2383.000000	70.036466
2382.000000	70.081135
2381.000000	70.135315
2380.000000	70.198024
2379.000000	70.266147
2378.000000	70.332834
2377.000000	70.390499
2376.000000	70.436251
2375.000000	70.472039
2374.000000	70.501444
2373.000000	70.529326
2372.000000	70.563353
2371.000000	70.609782
2370.000000	70.667308
2369.000000	70.729438
2368.000000	70.790810
2367.000000	70.847261
2366.000000	70.893580
2365.000000	70.928225
2364.000000	70.959357
2363.000000	70.994745
2362.000000	71.037567
2361.000000	71.090176
2360.000000	71.152163
2359.000000	71.221888
2358.000000	71.289209
2357.000000	71.342482
2356.000000	71.380884
2355.000000	71.405431
2354.000000	71.423469
2353.000000	71.444558
2352.000000	71.486477
2351.000000	71.555286
2350.000000	71.632994
2349.000000	71.702194
2348.000000	71.758781
2347.000000	71.816055
2346.000000	71.878332
2345.000000	71.931065
2344.000000	71.966127
2343.000000	71.984841
2342.000000	72.007320
2341.000000	72.044007
2340.000000	72.098379
2339.000000	72.168208
2338.000000	72.244679
2337.000000	72.318353
2336.000000	72.380932
2335.000000	72.432835
2334.000000	72.473536
2333.000000	72.508088
2332.000000	72.541749
2331.000000	72.588392
2330.000000	72.645764
2329.000000	72.717331
2328.000000	72.792290
2327.000000	72.869487
2326.000000	72.937341
2325.000000	72.989034
2324.000000	73.025385
2323.000000	73.052059
2322.000000	73.077917
2321.000000	73.107452
2320.000000	73.147268
2319.000000	73.202447
2318.000000	73.268021
2317.000000	73.336420
2316.000000	73.396293
2315.000000	73.447237
2314.000000	73.483928
2313.000000	73.510804
2312.000000	73.530563
2311.000000	73.556648
2310.000000	73.591763
2309.000000	73.639029
2308.000000	73.693307
2307.000000	73.752927
2306.000000	73.808321
2305.000000	73.853649
2304.000000	73.886133
2303.000000	73.912559
2302.000000	73.936920
2301.000000	73.964565
2300.000000	73.997942
2299.000000	74.041616
2298.000000	74.091698
2297.000000	74.143692
2296.000000	74.192590
2295.000000	74.238839
2294.000000	74.280056
2293.000000	74.315331
2292.000000	74.346821
2291.000000	74.380030
2290.000000	74.416475
2289.000000	74.453907
2288.000000	74.491493
2287.000000	74.530350
2286.000000	74.570218
2285.000000	74.609123
2284.000000	74.648420
2283.000000	74.690915
2282.000000	74.736306
2281.000000	74.780573
2280.000000	74.821603
2279.000000	74.859350
2278.000000	74.892500
2277.000000	74.919541
2276.000000	74.943549
2275.000000	74.971206
2274.000000	75.005919
2273.000000	75.046951
2272.000000	75.092927
2271.000000	75.141997
2270.000000	75.187939
2269.000000	75.222764
2268.000000	75.243864
2267.000000	75.255368
2266.000000	75.262872
2265.000000	75.272060
2264.000000	75.290425
2263.000000	75.324214
2262.000000	75.371550
2261.000000	75.422843
2260.000000	75.468267
2259.000000	75.500813
2258.000000	75.515306
2257.000000	75.510601
2256.000000	75.494623
2255.000000	75.481360
2254.000000	75.481624
2253.000000	75.499427
2252.000000	75.533984
2251.000000	75.579673
2250.000000	75.623257
2249.000000	75.649057
2248.000000	75.648668
2247.000000	75.624494
2246.000000	75.585197
2245.000000	75.543014
2244.000000	75.512918
2243.000000	75.506473
2242.000000	75.523391
2241.000000	75.552052
2240.000000	75.577559
2239.000000	75.586512
2238.000000	75.567868
2237.000000	75.517879
2236.000000	75.446091
2235.000000	75.371347
2234.000000	75.310510
2233.000000	75.272745
2232.000000	75.260195
2231.000000	75.266668
2230.000000	75.275724
2229.000000	75.267556
2228.000000	75.230786
2227.000000	75.166152
2226.000000	75.081828
2225.000000	74.991095
2224.000000	74.911972
2223.000000	74.860004
2222.000000	74.837855
2221.000000	74.834631
2220.000000	74.834621
2219.000000	74.823376
2218.000000	74.789000
2217.000000	74.726846
2216.000000	74.645518
2215.000000	74.563361
2214.000000	74.497254
2213.000000	74.456378
2212.000000	74.442827
2211.000000	74.450796
2210.000000	74.465116
2209.000000	74.467619
2208.000000	74.447968
2207.000000	74.407016
2206.000000	74.352270
2205.000000	74.295546
2204.000000	74.252554
2203.000000	74.236110
2202.000000	74.246867
2201.000000	74.273580
2200.000000	74.302033
2199.000000	74.320430
2198.000000	74.319755
2197.000000	74.297430
2196.000000	74.262379
2195.000000	74.230917
2194.000000	74.216031
2193.000000	74.222525
2192.000000	74.249311
2191.000000	74.289276
2190.000000	74.327837
2189.000000	74.349179
2188.000000	74.347070
2187.000000	74.326899
2186.000000	74.298874
2185.000000	74.274081
2184.000000	74.264259
2183.000000	74.276633
2182.000000	74.306577
2181.000000	74.339746
2180.000000	74.362235
2179.000000	74.365922
2178.000000	74.347408
2177.000000	74.309690
2176.000000	74.265520
2175.000000	74.232075
2174.000000	74.219718
2173.000000	74.228031
2172.000000	74.250347
2171.000000	74.276091
2170.000000	74.290667
2169.000000	74.281665
2168.000000	74.248551
2167.000000	74.202660
2166.000000	74.158215
2165.000000	74.126978
2164.000000	74.118182
2163.000000	74.134618
2162.000000	74.166987
2161.000000	74.197566
2160.000000	74.211628
2159.000000	74.203182
2158.000000	74.172999
2157.000000	74.128445
2156.000000	74.084962
2155.000000	74.059684
2154.000000	74.060389
2153.000000	74.082642
2152.000000	74.115892
2151.000000	74.147116
2150.000000	74.161474
2149.000000	74.148403
2148.000000	74.110374
2147.000000	74.061449
2146.000000	74.017110
2145.000000	73.988253
2144.000000	73.981575
2143.000000	73.996789
2142.000000	74.022510
2141.000000	74.041113
2140.000000	74.040368
2139.000000	74.017788
2138.000000	73.976934
2137.000000	73.926252
2136.000000	73.880363
2135.000000	73.853927
2134.000000	73.851294
2133.000000	73.865345
2132.000000	73.885115
2131.000000	73.900140
2130.000000	73.900140
2129.000000	73.879162
2128.000000	73.842255
2127.000000	73.802857
2126.000000	73.772726
2125.000000	73.757531
2124.000000	73.759267
2123.000000	73.775040
2122.000000	73.793736
2121.000000	73.801202
2120.000000	73.791095
2119.000000	73.767106
2118.000000	73.736563
2117.000000	73.707703
2116.000000	73.691141
2115.000000	73.695047
2114.000000	73.716937
2113.000000	73.745028
2112.000000	73.768546
2111.000000	73.782532
2110.000000	73.785417
2109.000000	73.779877
2108.000000	73.776547
2107.000000	73.789502
2106.000000	73.825832
2105.000000	73.882912
2104.000000	73.954008
2103.000000	74.030299
2102.000000	74.099515
2101.000000	74.151555
2100.000000	74.188278
2099.000000	74.222645
2098.000000	74.268288
2097.000000	74.333791
2096.000000	74.424182
2095.000000	74.537976
2094.000000	74.661786
2093.000000	74.775164
2092.000000	74.864241
2091.000000	74.927126
2090.000000	74.969093
2089.000000	75.000366
2088.000000	75.037708
2087.000000	75.097767
2086.000000	75.184858
2085.000000	75.288597
2084.000000	75.392361
2083.000000	75.479298
2082.000000	75.533073
2081.000000	75.544538
2080.000000	75.521465
2079.000000	75.485801
2078.000000	75.459486
2077.000000	75.455882
2076.000000	75.480542
2075.000000	75.529275
2074.000000	75.583819
2073.000000	75.618601
2072.000000	75.616359
2071.000000	75.574920
2070.000000	75.502823
2069.000000	75.416457
2068.000000	75.339673
2067.000000	75.295423
2066.000000	75.292611
2065.000000	75.322791
2064.000000	75.367992
2063.000000	75.407428
2062.000000	75.420820
2061.000000	75.396813
2060.000000	75.342880
2059.000000	75.281797
2058.000000	75.236804
2057.000000	75.223267
2056.000000	75.249273
2055.000000	75.312804
2054.000000	75.396793
2053.000000	75.475750
2052.000000	75.530970
2051.000000	75.557370
2050.000000	75.559346
2049.000000	75.549362
2048.000000	75.548947
2047.000000	75.579892
2046.000000	75.650265
2045.000000	75.751985
2044.000000	75.870697
2043.000000	75.991664
2042.000000	76.099116
2041.000000	76.181516
2040.000000	76.241265
2039.000000	76.293379
2038.000000	76.353855
2037.000000	76.433860
2036.000000	76.541554
2035.000000	76.678750
2034.000000	76.834394
2033.000000	76.989346
2032.000000	77.129919
2031.000000	77.252451
2030.000000	77.357401
2029.000000	77.448813
2028.000000	77.538944
2027.000000	77.643188
2026.000000	77.767080
2025.000000	77.905119
2024.000000	78.050119
2023.000000	78.195598
2022.000000	78.331236
2021.000000	78.447365
2020.000000	78.545905
2019.000000	78.639084
2018.000000	78.737095
2017.000000	78.842922
2016.000000	78.957101
2015.000000	79.078529
2014.000000	79.199894
2013.000000	79.311223
2012.000000	79.410214
2011.000000	79.502169
2010.000000	79.590418
2009.000000	79.675290
2008.000000	79.760764
2007.000000	79.852140
2006.000000	79.945985
2005.000000	80.032785
2004.000000	80.109000
2003.000000	80.178226
2002.000000	80.242007
2001.000000	80.299288
2000.000000	80.356548
1999.000000	80.424757
1998.000000	80.504126
1997.000000	80.582483
1996.000000	80.650395
1995.000000	80.707313
1994.000000	80.754035
1993.000000	80.792057
1992.000000	80.829170
1991.000000	80.873800
1990.000000	80.926094
1989.000000	80.983247
1988.000000	81.048569
1987.000000	81.124620
1986.000000	81.200853
1985.000000	81.260153
1984.000000	81.296638
1983.000000	81.317402
1982.000000	81.329987
1981.000000	81.339601
1980.000000	81.357888
1979.000000	81.397689
1978.000000	81.457950
1977.000000	81.525068
1976.000000	81.588695
1975.000000	81.644360
1974.000000	81.683877
1973.000000	81.699087
1972.000000	81.696318
1971.000000	81.693652
1970.000000	81.702184
1969.000000	81.722140
1968.000000	81.756665
1967.000000	81.811117
1966.000000	81.876088
1965.000000	81.930575
1964.000000	81.963436
1963.000000	81.977606
1962.000000	81.977356
1961.000000	81.966946
1960.000000	81.959443
1959.000000	81.970706
1958.000000	82.002798
1957.000000	82.044802
1956.000000	82.089210
1955.000000	82.133859
1954.000000	82.169981
1953.000000	82.186348
1952.000000	82.184816
1951.000000	82.179887
1950.000000	82.181255
1949.000000	82.187301
1948.000000	82.196085
1947.000000	82.209542
1946.000000	82.225811
1945.000000	82.239120
1944.000000	82.250130
1943.000000	82.266911
1942.000000	82.287631
1941.000000	82.298770
1940.000000	82.298353
1939.000000	82.298974
1938.000000	82.307325
1937.000000	82.319525
1936.000000	82.334524
1935.000000	82.355147
1934.000000	82.376155
1933.000000	82.387517
1932.000000	82.387953
1931.000000	82.385317
1930.000000	82.381991
1929.000000	82.373169
1928.000000	82.361673
1927.000000	82.355965
1926.000000	82.357057
1925.000000	82.353903
1924.000000	82.340425
1923.000000	82.323486
1922.000000	82.305590
1921.000000	82.285302
1920.000000	82.272191
1919.000000	82.275692
1918.000000	82.288893
1917.000000	82.293732
1916.000000	82.284278
1915.000000	82.271466
1914.000000	82.261847
1913.000000	82.250213
1912.000000	82.232867
1911.000000	82.214013
1910.000000	82.195776
1909.000000	82.174933
1908.000000	82.153533
1907.000000	82.136044
1906.000000	82.119661
1905.000000	82.096158
1904.000000	82.066877
1903.000000	82.043917
1902.000000	82.032851
1901.000000	82.028371
1900.000000	82.029745
1899.000000	82.041360
1898.000000	82.058798
1897.000000	82.068489
1896.000000	82.065286
1895.000000	82.055015
1894.000000	82.038178
1893.000000	82.012990
1892.000000	81.990354
1891.000000	81.987619
1890.000000	82.011969
1889.000000	82.052336
1888.000000	82.091855
1887.000000	82.123811
1886.000000	82.143610
1885.000000	82.143454
1884.000000	82.124847
1883.000000	82.101135
1882.000000	82.080614
1881.000000	82.062231
1880.000000	82.051610
1879.000000	82.059523
1878.000000	82.083344
1877.000000	82.107891
1876.000000	82.122018
1875.000000	82.119616
1874.000000	82.090120
1873.000000	82.031539
1872.000000	81.972128
1871.000000	81.944490
1870.000000	81.943358
1869.000000	81.949259
1868.000000	81.959960
1867.000000	81.977308
1866.000000	81.992094
1865.000000	81.989307
1864.000000	81.963620
1863.000000	81.922627
1862.000000	81.873750
1861.000000	81.820191
1860.000000	81.772565
1859.000000	81.747542
1858.000000	81.748462
1857.000000	81.761652
1856.000000	81.774010
1855.000000	81.779834
1854.000000	81.769314
1853.000000	81.727402
1852.000000	81.658523
1851.000000	81.585087
1850.000000	81.521309
1849.000000	81.467157
1848.000000	81.425793
1847.000000	81.411477
1846.000000	81.428035
1845.000000	81.446255
1844.000000	81.435347
1843.000000	81.395849
1842.000000	81.338692
1841.000000	81.269557
1840.000000	81.198788
1839.000000	81.138660
1838.000000	81.094429
1837.000000	81.061580
1836.000000	81.032920
1835.000000	81.001012
1834.000000	80.957020
1833.000000	80.904247
1832.000000	80.852821
1831.000000	80.791739
1830.000000	80.706940
1829.000000	80.596098
1828.000000	80.483100
1827.000000	80.411190
1826.000000	80.390808
1825.000000	80.391328
1824.000000	80.380849
1823.000000	80.347732
1822.000000	80.288859
1821.000000	80.203765
1820.000000	80.107526
1819.000000	80.024750
1818.000000	79.966262
1817.000000	79.922002
1816.000000	79.880195
1815.000000	79.839115
1814.000000	79.792728
1813.000000	79.729665
1812.000000	79.650094
1811.000000	79.569035
1810.000000	79.494475
1809.000000	79.420493
1808.000000	79.344828
1807.000000	79.268710
1806.000000	79.183266
1805.000000	79.080404
1804.000000	78.975153
1803.000000	78.896666
1802.000000	78.852446
1801.000000	78.828838
1800.000000	78.810821
1799.000000	78.788501
1798.000000	78.751184
1797.000000	78.688531
1796.000000	78.602548
1795.000000	78.512533
1794.000000	78.425316
1793.000000	78.329438
1792.000000	78.240801
1791.000000	78.184860
1790.000000	78.144048
1789.000000	78.082893
1788.000000	77.999468
1787.000000	77.921037
1786.000000	77.860671
1785.000000	77.805098
1784.000000	77.744790
1783.000000	77.688810
1782.000000	77.637312
1781.000000	77.584888
1780.000000	77.535923
1779.000000	77.504184
1778.000000	77.501277
1777.000000	77.521784
1776.000000	77.544494
1775.000000	77.543049
1774.000000	77.472701
1773.000000	77.299852
1772.000000	77.081466
1771.000000	76.901823
1770.000000	76.785126
1769.000000	76.713375
1768.000000	76.663147
1767.000000	76.614419
1766.000000	76.541208
1765.000000	76.434474
1764.000000	76.323346
1763.000000	76.238019
1762.000000	76.169700
1761.000000	76.089406
1760.000000	75.991144
1759.000000	75.903528
1758.000000	75.844540
1757.000000	75.800316
1756.000000	75.757166
1755.000000	75.707224
1754.000000	75.633552
1753.000000	75.528262
1752.000000	75.405815
1751.000000	75.291431
1750.000000	75.196326
1749.000000	75.101608
1748.000000	74.994708
1747.000000	74.881938
1746.000000	74.760742
1745.000000	74.622772
1744.000000	74.480966
1743.000000	74.365080
1742.000000	74.282734
1741.000000	74.207083
1740.000000	74.117507
1739.000000	74.041324
1738.000000	73.993997
1737.000000	73.953608
1736.000000	73.906732
1735.000000	73.777447
1734.000000	73.503892
1733.000000	73.147498
1732.000000	72.822907
1731.000000	72.589808
1730.000000	72.421973
1729.000000	72.251792
1728.000000	72.060260
1727.000000	71.827610
1726.000000	71.613665
1725.000000	71.392713
1724.000000	71.164824
1723.000000	70.962468
1722.000000	70.775630
1721.000000	70.565077
1720.000000	70.305441
1719.000000	70.013517
1718.000000	69.715438
1717.000000	69.426087
1716.000000	69.151288
1715.000000	68.923114
1714.000000	68.712493
1713.000000	68.596092
1712.000000	68.389451
1711.000000	68.148208
1710.000000	67.904696
1709.000000	67.623741
1708.000000	67.325976
1707.000000	67.015648
1706.000000	66.695741
1705.000000	66.382331
1704.000000	66.083563
1703.000000	65.822979
1702.000000	65.695879
1701.000000	65.633380
1700.000000	65.491607
1699.000000	65.287226
1698.000000	65.000498
1697.000000	64.563038
1696.000000	64.001263
1695.000000	63.434129
1694.000000	62.980980
1693.000000	62.641385
1692.000000	62.342988
1691.000000	62.053403
1690.000000	61.799630
1689.000000	61.608985
1688.000000	61.440710
1687.000000	61.215737
1686.000000	60.848887
1685.000000	60.263944
1684.000000	59.607129
1683.000000	59.082636
1682.000000	58.693908
1681.000000	58.334477
1680.000000	57.949659
1679.000000	57.556631
1678.000000	57.178717
1677.000000	56.815468
1676.000000	56.441990
1675.000000	56.052147
1674.000000	55.675147
1673.000000	55.323560
1672.000000	54.984801
1671.000000	54.631977
1670.000000	54.238305
1669.000000	53.805355
1668.000000	53.370164
1667.000000	52.988443
1666.000000	52.647084
1665.000000	52.340443
1664.000000	51.911574
1663.000000	51.524565
1662.000000	51.188530
1661.000000	50.843287
1660.000000	50.494123
1659.000000	50.144431
1658.000000	49.808800
1657.000000	49.473568
1656.000000	49.133048
1655.000000	48.793247
1654.000000	48.454161
1653.000000	48.101455
1652.000000	47.783643
1651.000000	47.493424
1650.000000	47.245521
1649.000000	46.887477
1648.000000	46.869224
1647.000000	46.611074
1646.000000	46.232150
1645.000000	45.920211
1644.000000	45.603117
1643.000000	45.339016
1642.000000	45.082965
1641.000000	44.827113
1640.000000	44.586504
1639.000000	44.388798
1638.000000	44.206183
1637.000000	43.968093
1636.000000	43.684711
1635.000000	43.420543
1634.000000	43.190958
1633.000000	42.970173
1632.000000	42.742953
1631.000000	42.520388
1630.000000	42.309926
1629.000000	42.099209
1628.000000	41.893802
1627.000000	41.725916
1626.000000	41.608594
1625.000000	41.515947
1624.000000	41.414947
1623.000000	41.308081
1622.000000	41.216915
1621.000000	41.155999
1620.000000	41.127137
1619.000000	41.104465
1618.000000	41.033566
1617.000000	40.890080
1616.000000	40.724947
1615.000000	40.609074
1614.000000	40.555322
1613.000000	40.524128
1612.000000	40.485202
1611.000000	40.442292
1610.000000	40.402733
1609.000000	40.362673
1608.000000	40.333732
1607.000000	40.344244
1606.000000	40.398676
1605.000000	40.469632
1604.000000	40.534544
1603.000000	40.591628
1602.000000	40.638028
1601.000000	40.662935
1600.000000	40.673073
1599.000000	40.695986
1598.000000	40.747788
1597.000000	40.820168
1596.000000	40.904592
1595.000000	41.003546
1594.000000	41.107834
1593.000000	41.191871
1592.000000	41.244588
1591.000000	41.281185
1590.000000	41.317759
1589.000000	41.357374
1588.000000	41.406848
1587.000000	41.480694
1586.000000	41.577691
1585.000000	41.676166
1584.000000	41.760395
1583.000000	41.833400
1582.000000	41.909158
1581.000000	42.010668
1580.000000	42.161266
1579.000000	42.349537
1578.000000	42.508922
1577.000000	42.575421
1576.000000	42.564601
1575.000000	42.533274
1574.000000	42.514976
1573.000000	42.511959
1572.000000	42.526861
1571.000000	42.566623
1570.000000	42.633148
1569.000000	42.713712
1568.000000	42.792950
1567.000000	42.884901
1566.000000	43.010529
1565.000000	43.169394
1564.000000	43.339676
1563.000000	43.478387
1562.000000	43.564857
1561.000000	43.690729
1560.000000	43.773687
1559.000000	43.878626
1558.000000	44.051187
1557.000000	44.167011
1556.000000	44.241602
1555.000000	44.326176
1554.000000	44.413853
1553.000000	44.479741
1552.000000	44.538379
1551.000000	44.637584
1550.000000	44.805227
1549.000000	45.016242
1548.000000	45.234904
1547.000000	45.478435
1546.000000	45.778191
1545.000000	46.124196
1544.000000	46.498957
1543.000000	46.908203
1542.000000	47.313050
1541.000000	47.628886
1540.000000	47.901459
1539.000000	48.153531
1538.000000	48.345269
1537.000000	48.513372
1536.000000	48.725963
1535.000000	49.027930
1534.000000	49.412406
1533.000000	49.818798
1532.000000	50.173757
1531.000000	50.476216
1530.000000	50.792454
1529.000000	51.171782
1528.000000	51.627809
1527.000000	52.163123
1526.000000	52.750360
1525.000000	53.317415
1524.000000	53.806849
1523.000000	54.213129
1522.000000	54.581613
1521.000000	54.941416
1520.000000	55.279627
1519.000000	55.633838
1518.000000	56.060067
1517.000000	56.562402
1516.000000	57.081826
1515.000000	57.541877
1514.000000	57.924084
1513.000000	58.261755
1512.000000	58.603146
1511.000000	59.007662
1510.000000	59.512324
1509.000000	60.084708
1508.000000	60.614421
1507.000000	61.230151
1506.000000	61.886868
1505.000000	62.291982
1504.000000	62.479412
1503.000000	62.637624
1502.000000	62.857215
1501.000000	63.169215
1500.000000	63.587568
1499.000000	64.098750
1498.000000	64.640351
1497.000000	65.134647
1496.000000	65.526820
1495.000000	65.808414
1494.000000	66.003268
1493.000000	66.156278
1492.000000	66.342047
1491.000000	66.612995
1490.000000	66.965328
1489.000000	67.350180
1488.000000	67.722676
1487.000000	68.074279
1486.000000	68.377225
1485.000000	68.578004
1484.000000	68.681676
1483.000000	68.747767
1482.000000	68.801477
1481.000000	68.814913
1480.000000	68.781497
1479.000000	68.744175
1478.000000	68.716599
1477.000000	68.643974
1476.000000	68.468785
1475.000000	68.163614
1474.000000	67.643042
1473.000000	66.818078
1472.000000	65.782135
1471.000000	64.706402
1470.000000	63.590869
1469.000000	62.317961
1468.000000	60.808413
1467.000000	58.977266
1466.000000	56.625318
1465.000000	53.621688
1464.000000	50.223177
1463.000000	46.861724
1462.000000	43.691333
1461.000000	40.642387
1460.000000	37.641768
1459.000000	34.555770
1458.000000	31.126882
1457.000000	27.468788
1456.000000	24.387890
1455.000000	22.385973
1454.000000	21.160613
1453.000000	20.357549
1452.000000	19.929268
1451.000000	19.932559
1450.000000	20.355567
1449.000000	21.183250
1448.000000	22.433381
1447.000000	24.001574
1446.000000	25.677548
1445.000000	27.364678
1444.000000	29.112128
1443.000000	30.946800
1442.000000	32.799773
1441.000000	34.584343
1440.000000	36.274441
1439.000000	37.940868
1438.000000	39.751681
1437.000000	41.813347
1436.000000	43.920262
1435.000000	45.720097
1434.000000	47.156959
1433.000000	48.436919
1432.000000	49.727569
1431.000000	51.047509
1430.000000	52.334887
1429.000000	53.534427
1428.000000	54.588433
1427.000000	55.461155
1426.000000	56.191689
1425.000000	56.857023
1424.000000	57.484475
1423.000000	58.032821
1422.000000	58.491065
1421.000000	58.953067
1420.000000	59.517463
1419.000000	60.175176
1418.000000	60.852347
1417.000000	61.509070
1416.000000	62.147621
1415.000000	62.774136
1414.000000	63.406549
1413.000000	64.078138
1412.000000	64.802558
1411.000000	65.558314
1410.000000	66.316318
1409.000000	67.057600
1408.000000	67.755061
1407.000000	68.385057
1406.000000	68.964511
1405.000000	69.531504
1404.000000	70.070245
1403.000000	70.524233
1402.000000	70.906791
1401.000000	71.304913
1400.000000	71.758840
1399.000000	72.211180
1398.000000	72.594166
1397.000000	72.905826
1396.000000	73.176010
1395.000000	73.427214
1394.000000	73.672637
1393.000000	73.910995
1392.000000	74.122187
1391.000000	74.286855
1390.000000	74.411322
1389.000000	74.501863
1388.000000	74.517139
1387.000000	74.412833
1386.000000	74.234392
1385.000000	74.092120
1384.000000	74.062230
1383.000000	74.155182
1382.000000	74.340549
1381.000000	74.559269
1380.000000	74.729270
1379.000000	74.783731
1378.000000	74.714362
1377.000000	74.557230
1376.000000	74.342738
1375.000000	74.106216
1374.000000	73.925281
1373.000000	73.858611
1372.000000	73.874247
1371.000000	73.906476
1370.000000	73.923684
1369.000000	73.904847
1368.000000	73.802414
1367.000000	73.571802
1366.000000	73.225701
1365.000000	72.813555
1364.000000	72.362084
1363.000000	71.888153
1362.000000	71.430408
1361.000000	71.000039
1360.000000	70.548247
1359.000000	70.029050
1358.000000	69.461402
1357.000000	68.915531
1356.000000	68.469369
1355.000000	68.197759
1354.000000	68.166745
1353.000000	68.395386
1352.000000	68.822928
1351.000000	69.340116
1350.000000	69.836410
1349.000000	70.206328
1348.000000	70.349572
1347.000000	70.204565
1346.000000	69.774733
1345.000000	69.103834
1344.000000	68.238194
1343.000000	67.212391
1342.000000	66.044658
1341.000000	64.715323
1340.000000	63.177151
1339.000000	61.409548
1338.000000	59.420390
1337.000000	57.201370
1336.000000	54.723011
1335.000000	51.980293
1334.000000	49.015044
1333.000000	45.881438
1332.000000	42.636449
1331.000000	39.374916
1330.000000	36.229358
1329.000000	33.320504
1328.000000	30.726278
1327.000000	28.478255
1326.000000	26.546542
1325.000000	24.842288
1324.000000	23.270680
1323.000000	21.787642
1322.000000	20.386330
1321.000000	19.060806
1320.000000	17.829330
1319.000000	16.764940
1318.000000	15.972397
1317.000000	15.534097
1316.000000	15.495103
1315.000000	15.881264
1314.000000	16.678301
1313.000000	17.817985
1312.000000	19.208252
1311.000000	20.764903
1310.000000	22.420622
1309.000000	24.114144
1308.000000	25.795729
1307.000000	27.437024
1306.000000	29.022034
1305.000000	30.538728
1304.000000	31.982804
1303.000000	33.359997
1302.000000	34.675450
1301.000000	35.923645
1300.000000	37.088007
1299.000000	38.148899
1298.000000	39.086823
1297.000000	39.885524
1296.000000	40.551853
1295.000000	41.135890
1294.000000	41.725825
1293.000000	42.415677
1292.000000	43.271366
1291.000000	44.313962
1290.000000	45.520846
1289.000000	46.837321
1288.000000	48.196555
1287.000000	49.545277
1286.000000	50.858597
1285.000000	52.132702
1284.000000	53.365788
1283.000000	54.548155
1282.000000	55.661781
1281.000000	56.679470
1280.000000	57.564698
1279.000000	58.290231
1278.000000	58.864004
1277.000000	59.326717
1276.000000	59.732588
1275.000000	60.138600
1274.000000	60.599719
1273.000000	61.151928
1272.000000	61.792092
1271.000000	62.485262
1270.000000	63.191007
1269.000000	63.877033
1268.000000	64.520116
1267.000000	65.117294
1266.000000	65.697281
1265.000000	66.302472
1264.000000	66.955339
1263.000000	67.649290
1262.000000	68.361069
1261.000000	69.053200
1260.000000	69.670437
1259.000000	70.162933
1258.000000	70.524138
1257.000000	70.789259
1256.000000	71.003868
1255.000000	71.210321
1254.000000	71.447279
1253.000000	71.732642
1252.000000	72.039732
1251.000000	72.310301
1250.000000	72.493293
1249.000000	72.560896
1248.000000	72.505115
1247.000000	72.343101
1246.000000	72.124977
1245.000000	71.911205
1244.000000	71.732972
1243.000000	71.584943
1242.000000	71.442396
1241.000000	71.268359
1240.000000	71.016641
1239.000000	70.655678
1238.000000	70.198609
1237.000000	69.696337
1236.000000	69.205820
1235.000000	68.775260
1234.000000	68.442338
1233.000000	68.219570
1232.000000	68.081697
1231.000000	67.983126
1230.000000	67.889237
1229.000000	67.789700
1228.000000	67.690755
1227.000000	67.615728
1226.000000	67.608255
1225.000000	67.709319
1224.000000	67.929288
1223.000000	68.245013
1222.000000	68.618492
1221.000000	69.008583
1220.000000	69.373041
1219.000000	69.687389
1218.000000	69.965062
1217.000000	70.246853
1216.000000	70.570738
1215.000000	70.956818
1214.000000	71.410009
1213.000000	71.914053
1212.000000	72.423288
1211.000000	72.881864
1210.000000	73.260414
1209.000000	73.567036
1208.000000	73.830134
1207.000000	74.088750
1206.000000	74.390017
1205.000000	74.767434
1204.000000	75.212544
1203.000000	75.679125
1202.000000	76.115129
1201.000000	76.481561
1200.000000	76.755101
1199.000000	76.940876
1198.000000	77.085967
1197.000000	77.258617
1196.000000	77.505308
1195.000000	77.834441
1194.000000	78.227152
1193.000000	78.640640
1192.000000	79.008400
1191.000000	79.267829
1190.000000	79.402355
1189.000000	79.447733
1188.000000	79.462880
1187.000000	79.510289
1186.000000	79.647681
1185.000000	79.903405
1184.000000	80.247897
1183.000000	80.601736
1182.000000	80.878600
1181.000000	81.019390
1180.000000	81.007050
1179.000000	80.880287
1178.000000	80.729739
1177.000000	80.652927
1176.000000	80.701676
1175.000000	80.872404
1174.000000	81.125396
1173.000000	81.392412
1172.000000	81.583907
1171.000000	81.627126
1170.000000	81.512772
1169.000000	81.295783
1168.000000	81.056009
1167.000000	80.871495
1166.000000	80.807297
1165.000000	80.889210
1164.000000	81.077175
1163.000000	81.281347
1162.000000	81.413052
1161.000000	81.418000
1160.000000	81.281181
1159.000000	81.035029
1158.000000	80.762678
1157.000000	80.562372
1156.000000	80.494682
1155.000000	80.564357
1154.000000	80.734576
1153.000000	80.935885
1152.000000	81.074768
1151.000000	81.073150
1150.000000	80.917576
1149.000000	80.661716
1148.000000	80.385704
1147.000000	80.166387
1146.000000	80.065800
1145.000000	80.107219
1144.000000	80.251306
1143.000000	80.412383
1142.000000	80.506538
1141.000000	80.482518
1140.000000	80.325650
1139.000000	80.064640
1138.000000	79.773818
1137.000000	79.540418
1136.000000	79.416388
1135.000000	79.402026
1134.000000	79.461479
1133.000000	79.534068
1132.000000	79.543138
1131.000000	79.429535
1130.000000	79.189477
1129.000000	78.870771
1128.000000	78.535623
1127.000000	78.238563
1126.000000	78.022149
1125.000000	77.898724
1124.000000	77.831871
1123.000000	77.752641
1122.000000	77.599952
1121.000000	77.342016
1120.000000	76.972325
1119.000000	76.513187
1118.000000	76.019075
1117.000000	75.549929
1116.000000	75.134041
1115.000000	74.758655
1114.000000	74.388837
1113.000000	73.979388
1112.000000	73.478147
1111.000000	72.849609
1110.000000	72.097939
1109.000000	71.259381
1108.000000	70.374025
1107.000000	69.468918
1106.000000	68.557852
1105.000000	67.627906
1104.000000	66.632896
1103.000000	65.517341
1102.000000	64.243806
1101.000000	62.803977
1100.000000	61.207297
1099.000000	59.477087
1098.000000	57.648562
1097.000000	55.743354
1096.000000	53.757657
1095.000000	51.667597
1094.000000	49.443731
1093.000000	47.065125
1092.000000	44.528546
1091.000000	41.863353
1090.000000	39.126252
1089.000000	36.382235
1088.000000	33.694653
1087.000000	31.121941
1086.000000	28.703075
1085.000000	26.452034
1084.000000	24.377282
1083.000000	22.488640
1082.000000	20.792876
1081.000000	19.285601
1080.000000	17.964147
1079.000000	16.834988
1078.000000	15.885463
1077.000000	15.085129
1076.000000	14.406218
1075.000000	13.829655
1074.000000	13.334221
1073.000000	12.891327
1072.000000	12.490786
1071.000000	12.143200
1070.000000	11.854536
1069.000000	11.623110
1068.000000	11.454589
1067.000000	11.364188
1066.000000	11.354291
1065.000000	11.410367
1064.000000	11.527331
1063.000000	11.711637
1062.000000	11.963135
1061.000000	12.274357
1060.000000	12.648638
1059.000000	13.102021
1058.000000	13.637113
1057.000000	14.239845
1056.000000	14.900358
1055.000000	15.614592
1054.000000	16.369913
1053.000000	17.145370
1052.000000	17.934217
1051.000000	18.748787
1050.000000	19.599441
1049.000000	20.489881
1048.000000	21.426932
1047.000000	22.416237
1046.000000	23.446578
1045.000000	24.492489
1044.000000	25.536192
1043.000000	26.573612
1042.000000	27.605426
1041.000000	28.637959
1040.000000	29.689888
1039.000000	30.785412
1038.000000	31.934733
1037.000000	33.126995
1036.000000	34.339353
1035.000000	35.543313
1034.000000	36.708098
1033.000000	37.812629
1032.000000	38.860369
1031.000000	39.878331
1030.000000	40.901273
1029.000000	41.955161
1028.000000	43.048132
1027.000000	44.166537
1026.000000	45.275239
1025.000000	46.330345
1024.000000	47.297297
1023.000000	48.166330
1022.000000	48.958708
1021.000000	49.717044
1020.000000	50.488756
1019.000000	51.308023
1018.000000	52.182539
1017.000000	53.089377
1016.000000	53.979904
1015.000000	54.799662
1014.000000	55.513532
1013.000000	56.120083
1012.000000	56.650808
1011.000000	57.159391
1010.000000	57.705874
1009.000000	58.331734
1008.000000	59.037809
1007.000000	59.784792
1006.000000	60.512014
1005.000000	61.160023
1004.000000	61.689344
1003.000000	62.097891
1002.000000	62.429130
1001.000000	62.754115
1000.000000	63.138669
999.000000	63.619685
998.000000	64.196399
997.000000	64.829330
996.000000	65.447483
995.000000	65.976483
994.000000	66.376246
993.000000	66.655672
992.000000	66.861316
991.000000	67.061007
990.000000	67.326752
989.000000	67.706233
988.000000	68.195730
987.000000	68.742576
986.000000	69.272937
985.000000	69.719716
984.000000	70.041074
983.000000	70.237313
982.000000	70.358891
981.000000	70.484828
980.000000	70.683215
979.000000	70.987834
978.000000	71.395482
977.000000	71.866241
976.000000	72.328167
975.000000	72.705525
974.000000	72.959529
973.000000	73.102127
972.000000	73.179731
971.000000	73.254870
970.000000	73.391501
969.000000	73.630429
968.000000	73.965230
967.000000	74.346877
966.000000	74.713313
965.000000	75.012812
964.000000	75.213699
963.000000	75.316839
962.000000	75.364526
961.000000	75.420287
960.000000	75.531606
959.000000	75.714716
958.000000	75.961333
957.000000	76.241711
956.000000	76.506110
955.000000	76.706829
954.000000	76.829481
953.000000	76.895668
952.000000	76.939434
951.000000	76.992764
950.000000	77.084323
949.000000	77.228290
948.000000	77.407987
947.000000	77.584960
946.000000	77.729430
945.000000	77.833016
944.000000	77.899627
943.000000	77.943160
942.000000	77.991732
941.000000	78.072921
940.000000	78.188706
939.000000	78.315370
938.000000	78.425562
937.000000	78.500154
936.000000	78.526857
935.000000	78.508852
934.000000	78.476904
933.000000	78.474158
932.000000	78.523330
931.000000	78.617281
930.000000	78.732616
929.000000	78.835905
928.000000	78.883570
927.000000	78.842188
926.000000	78.718988
925.000000	78.560394
924.000000	78.421046
923.000000	78.342054
922.000000	78.345750
921.000000	78.424735
920.000000	78.529687
919.000000	78.586697
918.000000	78.538495
917.000000	78.367279
916.000000	78.091766
915.000000	77.763847
914.000000	77.462013
913.000000	77.257620
912.000000	77.171962
911.000000	77.169167
910.000000	77.180777
909.000000	77.128717
908.000000	76.942534
907.000000	76.588239
906.000000	76.096845
905.000000	75.552305
904.000000	75.045067
903.000000	74.637991
902.000000	74.354110
901.000000	74.167211
900.000000	73.997771
899.000000	73.741472
898.000000	73.322054
897.000000	72.720034
896.000000	71.969818
895.000000	71.147064
894.000000	70.347209
893.000000	69.646321
892.000000	69.061827
891.000000	68.548386
890.000000	68.024018
889.000000	67.398084
888.000000	66.597806
887.000000	65.597214
886.000000	64.435307
885.000000	63.196209
884.000000	61.963828
883.000000	60.793821
882.000000	59.701722
881.000000	58.655766
880.000000	57.583444
879.000000	56.402221
878.000000	55.061399
877.000000	53.560022
876.000000	51.939455
875.000000	50.266894
874.000000	48.612109
873.000000	47.022440
872.000000	45.506559
871.000000	44.037167
870.000000	42.567386
869.000000	41.050958
868.000000	39.462871
867.000000	37.811474
866.000000	36.133391
865.000000	34.475542
864.000000	32.880311
863.000000	31.373996
862.000000	29.957874
861.000000	28.613181
860.000000	27.317869
859.000000	26.065012
858.000000	24.866689
857.000000	23.755889
856.000000	22.788990
855.000000	22.023905
854.000000	21.493343
853.000000	21.189754
852.000000	21.071669
851.000000	21.076885
850.000000	21.128694
849.000000	21.160339
848.000000	21.140344
847.000000	21.075102
846.000000	20.992989
845.000000	20.929148
844.000000	20.922007
843.000000	21.002366
842.000000	21.178526
841.000000	21.440147
840.000000	21.772342
839.000000	22.163467
838.000000	22.604601
837.000000	23.094216
836.000000	23.646251
835.000000	24.279348
834.000000	25.000896
833.000000	25.804102
832.000000	26.673538
831.000000	27.587400
830.000000	28.516804
829.000000	29.437600
828.000000	30.344801
827.000000	31.251950
826.000000	32.180932
825.000000	33.153409
824.000000	34.183616
823.000000	35.267994
822.000000	36.381090
821.000000	37.484092
820.000000	38.537813
819.000000	39.513829
818.000000	40.405143
817.000000	41.231661
816.000000	42.030334
815.000000	42.837127
814.000000	43.673404
813.000000	44.539479
812.000000	45.414107
811.000000	46.261008
810.000000	47.046386
809.000000	47.755526
808.000000	48.395994
807.000000	48.994822
806.000000	49.593961
805.000000	50.236693
804.000000	50.945169
803.000000	51.708396
802.000000	52.492696
801.000000	53.258080
800.000000	53.967432
799.000000	54.597339
798.000000	55.153619
797.000000	55.672568
796.000000	56.199129
795.000000	56.764521
794.000000	57.380097
793.000000	58.036553
792.000000	58.702429
791.000000	59.334284
790.000000	59.900498
789.000000	60.395263
788.000000	60.832380
787.000000	61.238254
786.000000	61.649397
785.000000	62.097764
784.000000	62.588226
783.000000	63.095705
782.000000	63.587269
781.000000	64.039360
780.000000	64.437172
779.000000	64.777695
778.000000	65.081187
777.000000	65.385579
776.000000	65.719260
775.000000	66.084541
774.000000	66.466990
773.000000	66.846630
772.000000	67.198821
771.000000	67.502749
770.000000	67.760344
769.000000	67.998756
768.000000	68.249407
767.000000	68.532183
766.000000	68.855589
765.000000	69.212577
764.000000	69.570865
763.000000	69.883752
762.000000	70.122104
761.000000	70.290628
760.000000	70.415720
759.000000	70.534058
758.000000	70.690857
757.000000	70.922954
756.000000	71.228916
755.000000	71.563866
754.000000	71.868828
753.000000	72.097704
752.000000	72.223893
751.000000	72.249008
750.000000	72.216974
749.000000	72.201945
748.000000	72.266973
747.000000	72.435046
746.000000	72.691153
745.000000	72.989073
744.000000	73.254056
743.000000	73.407325
742.000000	73.410839
741.000000	73.287756
740.000000	73.102866
739.000000	72.937321
738.000000	72.872650
737.000000	72.962392
736.000000	73.196148
735.000000	73.498570
734.000000	73.772906
733.000000	73.942960
732.000000	73.968059
731.000000	73.855639
730.000000	73.676426
729.000000	73.544437
728.000000	73.560119
727.000000	73.767696
726.000000	74.151828
725.000000	74.646928
724.000000	75.144893
723.000000	75.527554
722.000000	75.723430
721.000000	75.740254
720.000000	75.651438
719.000000	75.566473
718.000000	75.601725
717.000000	75.836777
716.000000	76.268627
715.000000	76.809945
714.000000	77.338006
713.000000	77.743247
712.000000	77.951481
711.000000	77.948028
710.000000	77.803545
709.000000	77.652637
708.000000	77.624105
707.000000	77.786776
706.000000	78.142526
705.000000	78.633088
704.000000	79.143009
703.000000	79.534217
702.000000	79.717460
701.000000	79.694608
700.000000	79.538880
699.000000	79.359430
698.000000	79.276356
697.000000	79.382012
696.000000	79.690097
695.000000	80.126147
694.000000	80.576983
693.000000	80.938532
692.000000	81.130452
691.000000	81.119610
690.000000	80.955780
689.000000	80.762054
688.000000	80.663627
687.000000	80.725321
686.000000	80.952330
685.000000	81.306383
684.000000	81.698667
683.000000	82.010457
682.000000	82.161448
681.000000	82.149954
680.000000	82.027702
679.000000	81.867484
678.000000	81.759419
677.000000	81.783965
676.000000	81.957014
675.000000	82.223745
674.000000	82.508086
673.000000	82.752119
672.000000	82.921905
671.000000	83.011458
670.000000	83.044094
669.000000	83.046532
668.000000	83.017386
667.000000	82.989192
666.000000	83.033989
665.000000	83.158101
664.000000	83.317381
663.000000	83.456845
662.000000	83.533462
661.000000	83.543815
660.000000	83.516633
659.000000	83.492649
658.000000	83.513580
657.000000	83.601013
656.000000	83.738982
655.000000	83.891121
654.000000	84.022483
653.000000	84.109043
652.000000	84.144839
651.000000	84.148427
650.000000	84.158001
649.000000	84.205828
648.000000	84.295674
647.000000	84.406575
646.000000	84.512095
645.000000	84.591133
644.000000	84.626076
643.000000	84.610914
642.000000	84.569424
641.000000	84.548067
640.000000	84.581502
639.000000	84.671501
638.000000	84.794640
637.000000	84.916985
636.000000	85.001389
635.000000	85.018130
634.000000	84.965249
633.000000	84.874029
632.000000	84.790432
631.000000	84.757408
630.000000	84.804611
629.000000	84.931505
628.000000	85.095960
627.000000	85.232684
626.000000	85.292569
625.000000	85.264078
624.000000	85.163873
623.000000	85.029857
622.000000	84.923877
621.000000	84.909244
620.000000	85.007363
619.000000	85.183732
618.000000	85.375747
617.000000	85.523418
616.000000	85.580399
615.000000	85.529952
614.000000	85.407987
613.000000	85.292381
612.000000	85.254504
611.000000	85.324599
610.000000	85.494036
609.000000	85.722385
608.000000	85.937855
607.000000	86.060715
606.000000	86.052402
605.000000	85.937946
604.000000	85.779630
603.000000	85.647094
602.000000	85.605918
601.000000	85.692020
600.000000	85.873549
599.000000	86.053460
598.000000	86.129397
597.000000	86.049155
596.000000	85.819528
595.000000	85.503584
594.000000	85.219044
593.000000	85.095222
592.000000	85.198129
591.000000	85.492893
590.000000	85.871056
589.000000	86.204406
588.000000	86.384371
587.000000	86.359062
586.000000	86.170863
585.000000	85.942007
584.000000	85.799844
583.000000	85.821296
582.000000	86.029118
581.000000	86.386106
580.000000	86.776760
579.000000	87.038789
578.000000	87.059541
577.000000	86.840464
576.000000	86.477898
575.000000	86.116533
574.000000	85.905262
573.000000	85.941024
572.000000	86.220976
571.000000	86.635408
570.000000	87.012491
569.000000	87.187335
568.000000	87.057350
567.000000	86.629973
566.000000	86.049568
565.000000	85.538055
564.000000	85.277652
563.000000	85.342405
562.000000	85.695034
561.000000	86.201643
560.000000	86.658029
559.000000	86.858866
558.000000	86.704028
557.000000	86.253225
556.000000	85.682776
555.000000	85.211317
554.000000	85.036129
553.000000	85.256343
552.000000	85.814208
551.000000	86.508838
550.000000	87.088031
549.000000	87.354984
548.000000	87.224438
547.000000	86.749739
546.000000	86.135823
545.000000	85.663338
544.000000	85.543077
543.000000	85.829036
542.000000	86.424792
541.000000	87.123670
540.000000	87.662752
539.000000	87.818174
538.000000	87.525234
537.000000	86.916634
536.000000	86.238521
535.000000	85.743841
534.000000	85.621361
533.000000	85.933586
532.000000	86.575688
531.000000	87.302152
530.000000	87.839044
529.000000	88.006476
528.000000	87.765457
527.000000	87.218525
526.000000	86.604674
525.000000	86.204356
524.000000	86.170692
523.000000	86.467972
522.000000	86.953478
521.000000	87.451686
520.000000	87.770854
519.000000	87.749796
518.000000	87.359461
517.000000	86.741777
516.000000	86.113174
515.000000	85.644819
514.000000	85.417483
513.000000	85.414189
512.000000	85.519440
511.000000	85.556384
510.000000	85.376643
509.000000	84.922485
508.000000	84.216998
507.000000	83.350980
506.000000	82.478733
505.000000	81.749190
504.000000	81.226252
503.000000	80.891438
502.000000	80.689750
501.000000	80.549886
500.000000	80.395432
499.000000	80.190728
498.000000	79.992392
497.000000	79.912607
496.000000	80.024169
495.000000	80.316862
494.000000	80.731337
493.000000	81.199281
492.000000	81.647664
491.000000	82.020248
490.000000	82.319297
489.000000	82.600337
488.000000	82.918039
487.000000	83.293598
486.000000	83.720814
485.000000	84.156058
484.000000	84.503570
483.000000	84.666145
482.000000	84.641236
481.000000	84.531774
480.000000	84.456088
479.000000	84.487446
478.000000	84.664830
477.000000	84.986649
476.000000	85.368507
475.000000	85.661406
474.000000	85.752566
473.000000	85.631821
472.000000	85.387199
471.000000	85.164075
470.000000	85.111717
469.000000	85.343544
468.000000	85.880234
467.000000	86.590780
466.000000	87.234646
465.000000	87.597527
464.000000	87.579676
463.000000	87.212793
462.000000	86.675147
461.000000	86.221858
460.000000	86.052124
459.000000	86.275282
458.000000	86.900664
457.000000	87.746868
456.000000	88.452595
455.000000	88.705649
454.000000	88.446979
453.000000	87.860259
452.000000	87.233572
451.000000	86.812467
450.000000	86.743086
449.000000	87.088097
448.000000	87.783823
447.000000	88.584042
446.000000	89.168286
445.000000	89.334959
444.000000	89.052985
443.000000	88.437848
442.000000	87.772986
441.000000	87.404689
440.000000	87.509636
439.000000	88.019245
438.000000	88.741810
437.000000	89.458847
436.000000	89.919999
435.000000	89.912554
434.000000	89.449194
433.000000	88.785301
432.000000	88.230623
431.000000	88.007410
430.000000	88.222888
429.000000	88.845383
428.000000	89.648879
427.000000	90.258610
426.000000	90.381919
425.000000	90.009413
424.000000	89.348699
423.000000	88.653817
422.000000	88.141428
421.000000	87.975127
420.000000	88.282963
419.000000	89.014172
418.000000	89.816552
417.000000	90.326109
416.000000	90.372921
415.000000	89.941333
414.000000	89.231022
413.000000	88.651339
412.000000	88.513756
411.000000	88.820163
410.000000	89.400569
409.000000	90.082259
408.000000	90.639731
407.000000	90.787247
406.000000	90.427634
405.000000	89.794562
404.000000	89.182647
403.000000	88.749578
402.000000	88.601778
401.000000	88.855295
400.000000	89.405303
