PE IR       SUBTECH     SPECTRUM    ASCII       PEDS        4.00        
   -1
23ms075nitro.asc
24/09/12
15:40:50.00
24/09/12
15:40:50.00
Administrator
Sample 1169 By Administrator Date Thursday, September 12 2024
400.000000
#HDR
-1
-1
#GR
cm-1
%T
1.0
0.0
4000.000000
-1.000000
3601
8
84.662808
10.773929
#DATA
4000.000000	47.776020
3999.000000	47.805421
3998.000000	47.835435
3997.000000	47.865523
3996.000000	47.894577
3995.000000	47.921965
3994.000000	47.948620
3993.000000	47.976354
3992.000000	48.005919
3991.000000	48.036095
3990.000000	48.065067
3989.000000	48.092485
3988.000000	48.119527
3987.000000	48.147199
3986.000000	48.175408
3985.000000	48.203543
3984.000000	48.231326
3983.000000	48.258764
3982.000000	48.285753
3981.000000	48.312184
3980.000000	48.338242
3979.000000	48.364538
3978.000000	48.391503
3977.000000	48.418676
3976.000000	48.445110
3975.000000	48.470220
3974.000000	48.494217
3973.000000	48.518021
3972.000000	48.542503
3971.000000	48.567878
3970.000000	48.593355
3969.000000	48.617910
3968.000000	48.641394
3967.000000	48.664424
3966.000000	48.687951
3965.000000	48.712676
3964.000000	48.738468
3963.000000	48.764062
3962.000000	48.787987
3961.000000	48.810118
3960.000000	48.832106
3959.000000	48.855912
3958.000000	48.881540
3957.000000	48.907767
3956.000000	48.934293
3955.000000	48.961424
3954.000000	48.989322
3953.000000	49.017438
3952.000000	49.045239
3951.000000	49.072524
3950.000000	49.098533
3949.000000	49.121981
3948.000000	49.142251
3947.000000	49.162018
3946.000000	49.186837
3945.000000	49.219652
3944.000000	49.256057
3943.000000	49.287021
3942.000000	49.309198
3941.000000	49.328879
3940.000000	49.352768
3939.000000	49.380078
3938.000000	49.404481
3937.000000	49.423265
3936.000000	49.442297
3935.000000	49.468477
3934.000000	49.502278
3933.000000	49.537324
3932.000000	49.567967
3931.000000	49.594023
3930.000000	49.617114
3929.000000	49.639903
3928.000000	49.665721
3927.000000	49.697192
3926.000000	49.731396
3925.000000	49.759021
3924.000000	49.776779
3923.000000	49.792896
3922.000000	49.814791
3921.000000	49.840649
3920.000000	49.865851
3919.000000	49.891752
3918.000000	49.921309
3917.000000	49.951147
3916.000000	49.976570
3915.000000	49.999124
3914.000000	50.023686
3913.000000	50.050474
3912.000000	50.074745
3911.000000	50.095535
3910.000000	50.116699
3909.000000	50.142777
3908.000000	50.177781
3907.000000	50.220231
3906.000000	50.263239
3905.000000	50.295202
3904.000000	50.311213
3903.000000	50.324193
3902.000000	50.350838
3901.000000	50.391052
3900.000000	50.426457
3899.000000	50.441472
3898.000000	50.442670
3897.000000	50.448028
3896.000000	50.465289
3895.000000	50.493384
3894.000000	50.529696
3893.000000	50.570551
3892.000000	50.603659
3891.000000	50.616053
3890.000000	50.617915
3889.000000	50.635008
3888.000000	50.679969
3887.000000	50.735382
3886.000000	50.767374
3885.000000	50.768881
3884.000000	50.773454
3883.000000	50.809356
3882.000000	50.862953
3881.000000	50.897557
3880.000000	50.896327
3879.000000	50.882111
3878.000000	50.889978
3877.000000	50.929231
3876.000000	50.980220
3875.000000	51.015442
3874.000000	51.027389
3873.000000	51.039949
3872.000000	51.080000
3871.000000	51.135243
3870.000000	51.162735
3869.000000	51.155252
3868.000000	51.155850
3867.000000	51.193049
3866.000000	51.245422
3865.000000	51.275260
3864.000000	51.279953
3863.000000	51.289593
3862.000000	51.316768
3861.000000	51.349454
3860.000000	51.378989
3859.000000	51.409997
3858.000000	51.453817
3857.000000	51.514989
3856.000000	51.588499
3855.000000	51.647305
3854.000000	51.651543
3853.000000	51.611884
3852.000000	51.593148
3851.000000	51.621811
3850.000000	51.664947
3849.000000	51.690890
3848.000000	51.698073
3847.000000	51.707566
3846.000000	51.733995
3845.000000	51.772680
3844.000000	51.811225
3843.000000	51.842535
3842.000000	51.870951
3841.000000	51.908618
3840.000000	51.953438
3839.000000	51.987756
3838.000000	52.005901
3837.000000	52.019536
3836.000000	52.042130
3835.000000	52.073322
3834.000000	52.104197
3833.000000	52.127838
3832.000000	52.140386
3831.000000	52.147232
3830.000000	52.163561
3829.000000	52.197961
3828.000000	52.241814
3827.000000	52.277215
3826.000000	52.294923
3825.000000	52.311137
3824.000000	52.350760
3823.000000	52.414143
3822.000000	52.467731
3821.000000	52.478072
3820.000000	52.466826
3819.000000	52.484512
3818.000000	52.540095
3817.000000	52.592646
3816.000000	52.601814
3815.000000	52.585268
3814.000000	52.597187
3813.000000	52.648082
3812.000000	52.698787
3811.000000	52.724381
3810.000000	52.741261
3809.000000	52.774756
3808.000000	52.819009
3807.000000	52.843784
3806.000000	52.846654
3805.000000	52.864801
3804.000000	52.917876
3803.000000	52.983942
3802.000000	53.016344
3801.000000	53.001106
3800.000000	52.991182
3799.000000	53.029807
3798.000000	53.095006
3797.000000	53.140064
3796.000000	53.149984
3795.000000	53.151609
3794.000000	53.174747
3793.000000	53.217421
3792.000000	53.257519
3791.000000	53.285465
3790.000000	53.308671
3789.000000	53.334915
3788.000000	53.365614
3787.000000	53.399705
3786.000000	53.434869
3785.000000	53.466146
3784.000000	53.490716
3783.000000	53.516180
3782.000000	53.552508
3781.000000	53.596756
3780.000000	53.633689
3779.000000	53.655539
3778.000000	53.673279
3777.000000	53.701099
3776.000000	53.736765
3775.000000	53.766947
3774.000000	53.788576
3773.000000	53.814042
3772.000000	53.853582
3771.000000	53.898033
3770.000000	53.929639
3769.000000	53.950561
3768.000000	53.980179
3767.000000	54.024090
3766.000000	54.065972
3765.000000	54.088219
3764.000000	54.097936
3763.000000	54.119992
3762.000000	54.162643
3761.000000	54.209210
3760.000000	54.241567
3759.000000	54.265330
3758.000000	54.294772
3757.000000	54.327653
3756.000000	54.358192
3755.000000	54.387813
3754.000000	54.419288
3753.000000	54.449545
3752.000000	54.475948
3751.000000	54.506809
3750.000000	54.545408
3749.000000	54.583457
3748.000000	54.623511
3747.000000	54.680077
3746.000000	54.751357
3745.000000	54.792139
3744.000000	54.773125
3743.000000	54.756201
3742.000000	54.796653
3741.000000	54.861920
3740.000000	54.900103
3739.000000	54.909770
3738.000000	54.931220
3737.000000	54.985565
3736.000000	55.056992
3735.000000	55.122931
3734.000000	55.179940
3733.000000	55.226743
3732.000000	55.249396
3731.000000	55.250193
3730.000000	55.253028
3729.000000	55.276106
3728.000000	55.316067
3727.000000	55.354418
3726.000000	55.384709
3725.000000	55.421265
3724.000000	55.473197
3723.000000	55.527319
3722.000000	55.566828
3721.000000	55.595628
3720.000000	55.625426
3719.000000	55.659609
3718.000000	55.691896
3717.000000	55.715872
3716.000000	55.738918
3715.000000	55.771405
3714.000000	55.812670
3713.000000	55.853935
3712.000000	55.891505
3711.000000	55.933388
3710.000000	55.985463
3709.000000	56.040833
3708.000000	56.087236
3707.000000	56.118602
3706.000000	56.141640
3705.000000	56.168770
3704.000000	56.206496
3703.000000	56.250359
3702.000000	56.290863
3701.000000	56.325694
3700.000000	56.361335
3699.000000	56.403882
3698.000000	56.450527
3697.000000	56.490055
3696.000000	56.517831
3695.000000	56.544247
3694.000000	56.579045
3693.000000	56.620621
3692.000000	56.663960
3691.000000	56.710664
3690.000000	56.762179
3689.000000	56.810477
3688.000000	56.849446
3687.000000	56.885943
3686.000000	56.928414
3685.000000	56.970837
3684.000000	56.999511
3683.000000	57.014598
3682.000000	57.034035
3681.000000	57.067333
3680.000000	57.104950
3679.000000	57.137951
3678.000000	57.179041
3677.000000	57.241911
3676.000000	57.301765
3675.000000	57.333296
3674.000000	57.362018
3673.000000	57.418820
3672.000000	57.491211
3671.000000	57.546328
3670.000000	57.570076
3669.000000	57.590235
3668.000000	57.641051
3667.000000	57.711218
3666.000000	57.766493
3665.000000	57.797042
3664.000000	57.818937
3663.000000	57.851712
3662.000000	57.899085
3661.000000	57.948990
3660.000000	57.995226
3659.000000	58.041513
3658.000000	58.090794
3657.000000	58.134187
3656.000000	58.161354
3655.000000	58.184537
3654.000000	58.222587
3653.000000	58.273817
3652.000000	58.320778
3651.000000	58.352568
3650.000000	58.381198
3649.000000	58.432741
3648.000000	58.512377
3647.000000	58.593553
3646.000000	58.651487
3645.000000	58.686768
3644.000000	58.712310
3643.000000	58.737315
3642.000000	58.764166
3641.000000	58.795498
3640.000000	58.836912
3639.000000	58.886227
3638.000000	58.934523
3637.000000	58.978341
3636.000000	59.023188
3635.000000	59.070175
3634.000000	59.109943
3633.000000	59.140952
3632.000000	59.176296
3631.000000	59.227444
3630.000000	59.285182
3629.000000	59.327878
3628.000000	59.363377
3627.000000	59.423263
3626.000000	59.501071
3625.000000	59.559898
3624.000000	59.585832
3623.000000	59.599504
3622.000000	59.629725
3621.000000	59.682152
3620.000000	59.736970
3619.000000	59.777235
3618.000000	59.808729
3617.000000	59.844788
3616.000000	59.888289
3615.000000	59.931768
3614.000000	59.965906
3613.000000	59.990902
3612.000000	60.019628
3611.000000	60.064224
3610.000000	60.123212
3609.000000	60.185907
3608.000000	60.244132
3607.000000	60.299414
3606.000000	60.354625
3605.000000	60.404363
3604.000000	60.443242
3603.000000	60.474254
3602.000000	60.507141
3601.000000	60.548479
3600.000000	60.596907
3599.000000	60.648063
3598.000000	60.698749
3597.000000	60.746433
3596.000000	60.792326
3595.000000	60.838303
3594.000000	60.882304
3593.000000	60.922747
3592.000000	60.959022
3591.000000	60.992921
3590.000000	61.030946
3589.000000	61.081555
3588.000000	61.147306
3587.000000	61.222464
3586.000000	61.298894
3585.000000	61.368484
3584.000000	61.423388
3583.000000	61.461400
3582.000000	61.489449
3581.000000	61.517456
3580.000000	61.551078
3579.000000	61.590509
3578.000000	61.633652
3577.000000	61.679330
3576.000000	61.727059
3575.000000	61.777130
3574.000000	61.828512
3573.000000	61.879112
3572.000000	61.927131
3571.000000	61.972005
3570.000000	62.016552
3569.000000	62.066137
3568.000000	62.124484
3567.000000	62.190632
3566.000000	62.260509
3565.000000	62.328367
3564.000000	62.387600
3563.000000	62.435443
3562.000000	62.475677
3561.000000	62.515613
3560.000000	62.560198
3559.000000	62.609808
3558.000000	62.661795
3557.000000	62.713069
3556.000000	62.762551
3555.000000	62.812234
3554.000000	62.864456
3553.000000	62.917500
3552.000000	62.967296
3551.000000	63.012603
3550.000000	63.056462
3549.000000	63.103595
3548.000000	63.157998
3547.000000	63.222551
3546.000000	63.296028
3545.000000	63.371439
3544.000000	63.439924
3543.000000	63.496310
3542.000000	63.540350
3541.000000	63.575961
3540.000000	63.610438
3539.000000	63.651335
3538.000000	63.701648
3537.000000	63.756677
3536.000000	63.809320
3535.000000	63.856593
3534.000000	63.900707
3533.000000	63.944847
3532.000000	63.990244
3531.000000	64.037687
3530.000000	64.087475
3529.000000	64.138727
3528.000000	64.190495
3527.000000	64.244297
3526.000000	64.302830
3525.000000	64.364881
3524.000000	64.423784
3523.000000	64.473169
3522.000000	64.513359
3521.000000	64.550694
3520.000000	64.591332
3519.000000	64.636347
3518.000000	64.683569
3517.000000	64.731816
3516.000000	64.781624
3515.000000	64.831495
3514.000000	64.876719
3513.000000	64.914161
3512.000000	64.946043
3511.000000	64.977543
3510.000000	65.011801
3509.000000	65.048472
3508.000000	65.086418
3507.000000	65.126154
3506.000000	65.168824
3505.000000	65.214616
3504.000000	65.262470
3503.000000	65.310006
3502.000000	65.353437
3501.000000	65.389543
3500.000000	65.418435
3499.000000	65.442956
3498.000000	65.465523
3497.000000	65.486752
3496.000000	65.507374
3495.000000	65.528852
3494.000000	65.551242
3493.000000	65.572698
3492.000000	65.592214
3491.000000	65.611304
3490.000000	65.632046
3489.000000	65.654461
3488.000000	65.676038
3487.000000	65.693326
3486.000000	65.703835
3485.000000	65.707387
3484.000000	65.707487
3483.000000	65.710142
3482.000000	65.719378
3481.000000	65.733735
3480.000000	65.747051
3479.000000	65.753080
3478.000000	65.749365
3477.000000	65.738180
3476.000000	65.724530
3475.000000	65.712547
3474.000000	65.703593
3473.000000	65.697233
3472.000000	65.693147
3471.000000	65.690557
3470.000000	65.686255
3469.000000	65.675463
3468.000000	65.654639
3467.000000	65.623213
3466.000000	65.583646
3465.000000	65.540617
3464.000000	65.499760
3463.000000	65.464906
3462.000000	65.435429
3461.000000	65.406630
3460.000000	65.372790
3459.000000	65.330330
3458.000000	65.278877
3457.000000	65.220742
3456.000000	65.159890
3455.000000	65.099430
3454.000000	65.040027
3453.000000	64.980412
3452.000000	64.919556
3451.000000	64.858347
3450.000000	64.797744
3449.000000	64.736678
3448.000000	64.672875
3447.000000	64.605168
3446.000000	64.533824
3445.000000	64.458391
3444.000000	64.376736
3443.000000	64.287380
3442.000000	64.192166
3441.000000	64.096141
3440.000000	64.004409
3439.000000	63.918361
3438.000000	63.834662
3437.000000	63.747387
3436.000000	63.651563
3435.000000	63.544648
3434.000000	63.426601
3433.000000	63.299827
3432.000000	63.168120
3431.000000	63.034184
3430.000000	62.896488
3429.000000	62.750738
3428.000000	62.595280
3427.000000	62.433149
3426.000000	62.268783
3425.000000	62.104686
3424.000000	61.941742
3423.000000	61.779833
3422.000000	61.616550
3421.000000	61.447712
3420.000000	61.270729
3419.000000	61.085815
3418.000000	60.893690
3417.000000	60.694249
3416.000000	60.488319
3415.000000	60.278035
3414.000000	60.063808
3413.000000	59.843577
3412.000000	59.616074
3411.000000	59.382764
3410.000000	59.145088
3409.000000	58.901710
3408.000000	58.650536
3407.000000	58.391594
3406.000000	58.126806
3405.000000	57.858483
3404.000000	57.588595
3403.000000	57.317127
3402.000000	57.039742
3401.000000	56.749053
3400.000000	56.440055
3399.000000	56.113878
3398.000000	55.776589
3397.000000	55.435559
3396.000000	55.096072
3395.000000	54.759065
3394.000000	54.420451
3393.000000	54.073741
3392.000000	53.713868
3391.000000	53.338584
3390.000000	52.948424
3389.000000	52.546525
3388.000000	52.138004
3387.000000	51.727018
3386.000000	51.314123
3385.000000	50.897970
3384.000000	50.478273
3383.000000	50.055619
3382.000000	49.629360
3381.000000	49.197719
3380.000000	48.759890
3379.000000	48.316178
3378.000000	47.866633
3377.000000	47.411203
3376.000000	46.950525
3375.000000	46.485791
3374.000000	46.018331
3373.000000	45.550016
3372.000000	45.082644
3371.000000	44.615348
3370.000000	44.144238
3369.000000	43.665699
3368.000000	43.179195
3367.000000	42.686484
3366.000000	42.189851
3365.000000	41.692352
3364.000000	41.197579
3363.000000	40.707268
3362.000000	40.220074
3361.000000	39.733651
3360.000000	39.246902
3359.000000	38.759606
3358.000000	38.271684
3357.000000	37.784101
3356.000000	37.299132
3355.000000	36.818686
3354.000000	36.343533
3353.000000	35.874426
3352.000000	35.411888
3351.000000	34.954451
3350.000000	34.499153
3349.000000	34.044948
3348.000000	33.594054
3347.000000	33.148936
3346.000000	32.710102
3345.000000	32.277118
3344.000000	31.849783
3343.000000	31.427791
3342.000000	31.010953
3341.000000	30.600817
3340.000000	30.199790
3339.000000	29.808003
3338.000000	29.423245
3337.000000	29.044111
3336.000000	28.671515
3335.000000	28.306530
3334.000000	27.948870
3333.000000	27.598347
3332.000000	27.255160
3331.000000	26.918609
3330.000000	26.587512
3329.000000	26.262276
3328.000000	25.945066
3327.000000	25.637035
3326.000000	25.337597
3325.000000	25.046440
3324.000000	24.763844
3323.000000	24.489313
3322.000000	24.221521
3321.000000	23.960112
3320.000000	23.705641
3319.000000	23.457482
3318.000000	23.214578
3317.000000	22.977602
3316.000000	22.748286
3315.000000	22.526920
3314.000000	22.312390
3313.000000	22.104962
3312.000000	21.906179
3311.000000	21.716072
3310.000000	21.533194
3309.000000	21.357006
3308.000000	21.188555
3307.000000	21.028437
3306.000000	20.876066
3305.000000	20.731163
3304.000000	20.593386
3303.000000	20.461486
3302.000000	20.334620
3301.000000	20.214042
3300.000000	20.101857
3299.000000	19.998214
3298.000000	19.902039
3297.000000	19.813436
3296.000000	19.732774
3295.000000	19.658732
3294.000000	19.589317
3293.000000	19.524535
3292.000000	19.465576
3291.000000	19.411717
3290.000000	19.361260
3289.000000	19.314359
3288.000000	19.272695
3287.000000	19.236787
3286.000000	19.205614
3285.000000	19.178770
3284.000000	19.156219
3283.000000	19.136741
3282.000000	19.118855
3281.000000	19.102663
3280.000000	19.088957
3279.000000	19.077065
3278.000000	19.065958
3277.000000	19.056470
3276.000000	19.049893
3275.000000	19.045442
3274.000000	19.041539
3273.000000	19.038829
3272.000000	19.039243
3271.000000	19.042617
3270.000000	19.046883
3269.000000	19.051028
3268.000000	19.055419
3267.000000	19.059838
3266.000000	19.063572
3265.000000	19.067144
3264.000000	19.071721
3263.000000	19.077194
3262.000000	19.082842
3261.000000	19.089163
3260.000000	19.096975
3259.000000	19.105536
3258.000000	19.113756
3257.000000	19.122342
3256.000000	19.132388
3255.000000	19.142876
3254.000000	19.151953
3253.000000	19.159847
3252.000000	19.168218
3251.000000	19.177456
3250.000000	19.187072
3249.000000	19.197848
3248.000000	19.210870
3247.000000	19.224963
3246.000000	19.237591
3245.000000	19.247996
3244.000000	19.257383
3243.000000	19.266492
3242.000000	19.275159
3241.000000	19.283772
3240.000000	19.292929
3239.000000	19.302105
3238.000000	19.310604
3237.000000	19.319232
3236.000000	19.329223
3235.000000	19.340184
3234.000000	19.350815
3233.000000	19.360758
3232.000000	19.370024
3231.000000	19.377668
3230.000000	19.382955
3229.000000	19.386916
3228.000000	19.390937
3227.000000	19.394763
3226.000000	19.397641
3225.000000	19.400240
3224.000000	19.403482
3223.000000	19.406708
3222.000000	19.408836
3221.000000	19.410223
3220.000000	19.411437
3219.000000	19.411459
3218.000000	19.409222
3217.000000	19.405556
3216.000000	19.401567
3215.000000	19.396489
3214.000000	19.389258
3213.000000	19.380869
3212.000000	19.372820
3211.000000	19.364490
3210.000000	19.354367
3209.000000	19.342670
3208.000000	19.330609
3207.000000	19.318075
3206.000000	19.304166
3205.000000	19.289048
3204.000000	19.273178
3203.000000	19.255816
3202.000000	19.236255
3201.000000	19.215400
3200.000000	19.194304
3199.000000	19.172285
3198.000000	19.148517
3197.000000	19.124089
3196.000000	19.100391
3195.000000	19.076759
3194.000000	19.051677
3193.000000	19.025080
3192.000000	18.997578
3191.000000	18.968680
3190.000000	18.937907
3189.000000	18.906334
3188.000000	18.875001
3187.000000	18.843131
3186.000000	18.809740
3185.000000	18.775765
3184.000000	18.742558
3183.000000	18.709732
3182.000000	18.676459
3181.000000	18.643288
3180.000000	18.610742
3179.000000	18.577646
3178.000000	18.542953
3177.000000	18.507837
3176.000000	18.473918
3175.000000	18.440810
3174.000000	18.407360
3173.000000	18.373801
3172.000000	18.340766
3171.000000	18.307710
3170.000000	18.274321
3169.000000	18.242002
3168.000000	18.211937
3167.000000	18.183122
3166.000000	18.154225
3165.000000	18.125776
3164.000000	18.098604
3163.000000	18.071856
3162.000000	18.044595
3161.000000	18.017762
3160.000000	17.992532
3159.000000	17.968288
3158.000000	17.944194
3157.000000	17.921123
3156.000000	17.900183
3155.000000	17.880884
3154.000000	17.862602
3153.000000	17.846182
3152.000000	17.832081
3151.000000	17.818673
3150.000000	17.804347
3149.000000	17.789727
3148.000000	17.776111
3147.000000	17.763375
3146.000000	17.751249
3145.000000	17.740816
3144.000000	17.732754
3143.000000	17.725962
3142.000000	17.719738
3141.000000	17.715560
3140.000000	17.714621
3139.000000	17.715356
3138.000000	17.715664
3137.000000	17.715850
3136.000000	17.717234
3135.000000	17.719502
3134.000000	17.721652
3133.000000	17.724233
3132.000000	17.728482
3131.000000	17.734488
3130.000000	17.741953
3129.000000	17.751279
3128.000000	17.762420
3127.000000	17.774152
3126.000000	17.786005
3125.000000	17.799236
3124.000000	17.814497
3123.000000	17.830554
3122.000000	17.846636
3121.000000	17.864003
3120.000000	17.883719
3119.000000	17.904830
3118.000000	17.926441
3117.000000	17.949455
3116.000000	17.974441
3115.000000	17.999930
3114.000000	18.024650
3113.000000	18.049552
3112.000000	18.075901
3111.000000	18.103316
3110.000000	18.131410
3109.000000	18.161211
3108.000000	18.193307
3107.000000	18.226550
3106.000000	18.260175
3105.000000	18.295341
3104.000000	18.332896
3103.000000	18.371720
3102.000000	18.410694
3101.000000	18.450309
3100.000000	18.490917
3099.000000	18.531301
3098.000000	18.570714
3097.000000	18.610440
3096.000000	18.651734
3095.000000	18.694243
3094.000000	18.737896
3093.000000	18.784237
3092.000000	18.834162
3091.000000	18.886124
3090.000000	18.938205
3089.000000	18.990121
3088.000000	19.041882
3087.000000	19.092593
3086.000000	19.142129
3085.000000	19.192115
3084.000000	19.243638
3083.000000	19.295873
3082.000000	19.348392
3081.000000	19.402712
3080.000000	19.460091
3079.000000	19.519622
3078.000000	19.580024
3077.000000	19.641289
3076.000000	19.703116
3075.000000	19.763908
3074.000000	19.822917
3073.000000	19.881428
3072.000000	19.940465
3071.000000	19.999356
3070.000000	20.057942
3069.000000	20.117998
3068.000000	20.180771
3067.000000	20.245118
3066.000000	20.309663
3065.000000	20.374892
3064.000000	20.441467
3063.000000	20.508402
3062.000000	20.574539
3061.000000	20.640119
3060.000000	20.705450
3059.000000	20.769804
3058.000000	20.833083
3057.000000	20.896779
3056.000000	20.961887
3055.000000	21.027656
3054.000000	21.093767
3053.000000	21.161719
3052.000000	21.232403
3051.000000	21.304144
3050.000000	21.374726
3049.000000	21.443846
3048.000000	21.512169
3047.000000	21.579641
3046.000000	21.646283
3045.000000	21.713117
3044.000000	21.780821
3043.000000	21.848913
3042.000000	21.917328
3041.000000	21.987148
3040.000000	22.058547
3039.000000	22.129830
3038.000000	22.199868
3037.000000	22.269694
3036.000000	22.340439
3035.000000	22.411364
3034.000000	22.481305
3033.000000	22.550406
3032.000000	22.619106
3031.000000	22.687117
3030.000000	22.754752
3029.000000	22.823611
3028.000000	22.894614
3027.000000	22.966845
3026.000000	23.039264
3025.000000	23.111835
3024.000000	23.184082
3023.000000	23.254558
3022.000000	23.322952
3021.000000	23.390908
3020.000000	23.459642
3019.000000	23.528573
3018.000000	23.597345
3017.000000	23.667213
3016.000000	23.739159
3015.000000	23.812401
3014.000000	23.885995
3013.000000	23.960098
3012.000000	24.034398
3011.000000	24.107159
3010.000000	24.177226
3009.000000	24.245495
3008.000000	24.313233
3007.000000	24.380568
3006.000000	24.447679
3005.000000	24.515756
3004.000000	24.585564
3003.000000	24.656459
3002.000000	24.727859
3001.000000	24.800188
3000.000000	24.873442
2999.000000	24.946339
2998.000000	25.017755
2997.000000	25.087584
2996.000000	25.155571
2995.000000	25.221192
2994.000000	25.285593
2993.000000	25.351625
2992.000000	25.420806
2991.000000	25.491934
2990.000000	25.563624
2989.000000	25.636261
2988.000000	25.710243
2987.000000	25.784187
2986.000000	25.856359
2985.000000	25.926471
2984.000000	25.994875
2983.000000	26.061571
2982.000000	26.127174
2981.000000	26.193318
2980.000000	26.260871
2979.000000	26.329101
2978.000000	26.397605
2977.000000	26.467558
2976.000000	26.539921
2975.000000	26.613820
2974.000000	26.687741
2973.000000	26.760973
2972.000000	26.833047
2971.000000	26.903259
2970.000000	26.971779
2969.000000	27.039897
2968.000000	27.108280
2967.000000	27.176411
2966.000000	27.244478
2965.000000	27.314098
2964.000000	27.386183
2963.000000	27.459620
2962.000000	27.532973
2961.000000	27.605788
2960.000000	27.677390
2959.000000	27.746275
2958.000000	27.811793
2957.000000	27.874925
2956.000000	27.936670
2955.000000	27.997493
2954.000000	28.058918
2953.000000	28.123286
2952.000000	28.190798
2951.000000	28.258848
2950.000000	28.325493
2949.000000	28.391572
2948.000000	28.458374
2947.000000	28.525355
2946.000000	28.591573
2945.000000	28.657446
2944.000000	28.723540
2943.000000	28.789281
2942.000000	28.854385
2941.000000	28.920173
2940.000000	28.988093
2939.000000	29.058141
2938.000000	29.129744
2937.000000	29.202723
2936.000000	29.276204
2935.000000	29.348030
2934.000000	29.416663
2933.000000	29.482676
2932.000000	29.547447
2931.000000	29.611671
2930.000000	29.676058
2929.000000	29.742056
2928.000000	29.810726
2927.000000	29.881986
2926.000000	29.955671
2925.000000	30.031884
2924.000000	30.109450
2923.000000	30.185410
2922.000000	30.256872
2921.000000	30.322317
2920.000000	30.380828
2919.000000	30.431835
2918.000000	30.476241
2917.000000	30.516385
2916.000000	30.554376
2915.000000	30.591640
2914.000000	30.630049
2913.000000	30.671553
2912.000000	30.716418
2911.000000	30.763434
2910.000000	30.812043
2909.000000	30.862552
2908.000000	30.914105
2907.000000	30.964547
2906.000000	31.012783
2905.000000	31.059680
2904.000000	31.105967
2903.000000	31.151716
2902.000000	31.198032
2901.000000	31.247181
2900.000000	31.300659
2899.000000	31.357859
2898.000000	31.417558
2897.000000	31.478590
2896.000000	31.538790
2895.000000	31.595334
2894.000000	31.647145
2893.000000	31.695519
2892.000000	31.741848
2891.000000	31.786453
2890.000000	31.830120
2889.000000	31.874868
2888.000000	31.922225
2887.000000	31.972261
2886.000000	32.024933
2885.000000	32.080738
2884.000000	32.139217
2883.000000	32.198283
2882.000000	32.255854
2881.000000	32.310953
2880.000000	32.362970
2879.000000	32.411634
2878.000000	32.458505
2877.000000	32.506856
2876.000000	32.558832
2875.000000	32.613581
2874.000000	32.668688
2873.000000	32.722406
2872.000000	32.774245
2871.000000	32.824836
2870.000000	32.875737
2869.000000	32.928127
2868.000000	32.981099
2867.000000	33.032368
2866.000000	33.080956
2865.000000	33.128116
2864.000000	33.175740
2863.000000	33.225254
2862.000000	33.277933
2861.000000	33.334283
2860.000000	33.392752
2859.000000	33.450926
2858.000000	33.508450
2857.000000	33.567122
2856.000000	33.627800
2855.000000	33.689081
2854.000000	33.749404
2853.000000	33.808558
2852.000000	33.866506
2851.000000	33.922297
2850.000000	33.974697
2849.000000	34.022531
2848.000000	34.064354
2847.000000	34.099736
2846.000000	34.131139
2845.000000	34.162769
2844.000000	34.197283
2843.000000	34.235034
2842.000000	34.276118
2841.000000	34.320653
2840.000000	34.366661
2839.000000	34.410455
2838.000000	34.450550
2837.000000	34.489460
2836.000000	34.530726
2835.000000	34.575771
2834.000000	34.624244
2833.000000	34.675411
2832.000000	34.727922
2831.000000	34.779661
2830.000000	34.829262
2829.000000	34.876984
2828.000000	34.923493
2827.000000	34.968955
2826.000000	35.013952
2825.000000	35.060002
2824.000000	35.108393
2823.000000	35.159465
2822.000000	35.213429
2821.000000	35.270474
2820.000000	35.329395
2819.000000	35.387373
2818.000000	35.441933
2817.000000	35.492305
2816.000000	35.538683
2815.000000	35.581584
2814.000000	35.622568
2813.000000	35.664142
2812.000000	35.708012
2811.000000	35.754179
2810.000000	35.802171
2809.000000	35.851998
2808.000000	35.903393
2807.000000	35.955172
2806.000000	36.005914
2805.000000	36.054370
2804.000000	36.099022
2803.000000	36.138573
2802.000000	36.173487
2801.000000	36.206096
2800.000000	36.238688
2799.000000	36.272391
2798.000000	36.308098
2797.000000	36.347055
2796.000000	36.389892
2795.000000	36.436106
2794.000000	36.484824
2793.000000	36.534986
2792.000000	36.584441
2791.000000	36.630214
2790.000000	36.670478
2789.000000	36.705665
2788.000000	36.737529
2787.000000	36.768206
2786.000000	36.800334
2785.000000	36.836544
2784.000000	36.877988
2783.000000	36.923974
2782.000000	36.973195
2781.000000	37.024250
2780.000000	37.074883
2779.000000	37.122226
2778.000000	37.164412
2777.000000	37.201062
2776.000000	37.232134
2775.000000	37.257528
2774.000000	37.278330
2773.000000	37.297147
2772.000000	37.316353
2771.000000	37.336792
2770.000000	37.358315
2769.000000	37.380280
2768.000000	37.401085
2767.000000	37.418282
2766.000000	37.429964
2765.000000	37.435444
2764.000000	37.434593
2763.000000	37.427855
2762.000000	37.417163
2761.000000	37.405641
2760.000000	37.395798
2759.000000	37.388756
2758.000000	37.385302
2757.000000	37.386119
2756.000000	37.390397
2755.000000	37.395542
2754.000000	37.398922
2753.000000	37.398995
2752.000000	37.394382
2751.000000	37.383395
2750.000000	37.365378
2749.000000	37.341446
2748.000000	37.313258
2747.000000	37.281819
2746.000000	37.247973
2745.000000	37.212898
2744.000000	37.177088
2743.000000	37.139797
2742.000000	37.100137
2741.000000	37.057957
2740.000000	37.013458
2739.000000	36.967089
2738.000000	36.920665
2737.000000	36.877993
2736.000000	36.843704
2735.000000	36.821983
2734.000000	36.816571
2733.000000	36.830113
2732.000000	36.862907
2731.000000	36.912985
2730.000000	36.977434
2729.000000	37.053256
2728.000000	37.136499
2727.000000	37.222171
2726.000000	37.306256
2725.000000	37.386994
2724.000000	37.464473
2723.000000	37.539864
2722.000000	37.615192
2721.000000	37.692701
2720.000000	37.773454
2719.000000	37.856893
2718.000000	37.941663
2717.000000	38.025852
2716.000000	38.106393
2715.000000	38.179663
2714.000000	38.243110
2713.000000	38.295834
2712.000000	38.337750
2711.000000	38.369254
2710.000000	38.392394
2709.000000	38.410949
2708.000000	38.428552
2707.000000	38.447294
2706.000000	38.467863
2705.000000	38.490182
2704.000000	38.513212
2703.000000	38.534925
2702.000000	38.553233
2701.000000	38.566480
2700.000000	38.573345
2699.000000	38.573255
2698.000000	38.567348
2697.000000	38.558408
2696.000000	38.549363
2695.000000	38.542402
2694.000000	38.539277
2693.000000	38.541146
2692.000000	38.547601
2691.000000	38.556600
2690.000000	38.565714
2689.000000	38.572906
2688.000000	38.576273
2687.000000	38.574336
2686.000000	38.567147
2685.000000	38.556449
2684.000000	38.544419
2683.000000	38.532845
2682.000000	38.523515
2681.000000	38.518207
2680.000000	38.517713
2679.000000	38.521482
2678.000000	38.528429
2677.000000	38.537330
2676.000000	38.546527
2675.000000	38.554243
2674.000000	38.559685
2673.000000	38.563425
2672.000000	38.566701
2671.000000	38.571198
2670.000000	38.579324
2669.000000	38.593408
2668.000000	38.614227
2667.000000	38.640725
2666.000000	38.671083
2665.000000	38.703127
2664.000000	38.733796
2663.000000	38.759676
2662.000000	38.778664
2661.000000	38.790546
2660.000000	38.796126
2659.000000	38.796826
2658.000000	38.795078
2657.000000	38.793970
2656.000000	38.795884
2655.000000	38.801838
2654.000000	38.812064
2653.000000	38.826222
2652.000000	38.843033
2651.000000	38.860764
2650.000000	38.878461
2649.000000	38.896124
2648.000000	38.914186
2647.000000	38.933751
2646.000000	38.957253
2645.000000	38.987847
2644.000000	39.027564
2643.000000	39.076950
2642.000000	39.135829
2641.000000	39.203055
2640.000000	39.275801
2639.000000	39.350118
2638.000000	39.422761
2637.000000	39.491667
2636.000000	39.554949
2635.000000	39.610888
2634.000000	39.659208
2633.000000	39.701283
2632.000000	39.738901
2631.000000	39.773687
2630.000000	39.807300
2629.000000	39.841137
2628.000000	39.875249
2627.000000	39.908317
2626.000000	39.938983
2625.000000	39.966202
2624.000000	39.988757
2623.000000	40.005524
2622.000000	40.016543
2621.000000	40.023152
2620.000000	40.026685
2619.000000	40.028021
2618.000000	40.028221
2617.000000	40.028374
2616.000000	40.028601
2615.000000	40.027761
2614.000000	40.024410
2613.000000	40.017311
2612.000000	40.004984
2611.000000	39.986136
2610.000000	39.960738
2609.000000	39.930255
2608.000000	39.896935
2607.000000	39.863599
2606.000000	39.833930
2605.000000	39.811689
2604.000000	39.799221
2603.000000	39.797391
2602.000000	39.806899
2601.000000	39.827914
2600.000000	39.858762
2599.000000	39.896224
2598.000000	39.937394
2597.000000	39.980933
2596.000000	40.026127
2595.000000	40.072424
2594.000000	40.120144
2593.000000	40.170234
2592.000000	40.223176
2591.000000	40.278644
2590.000000	40.336401
2589.000000	40.396437
2588.000000	40.457881
2587.000000	40.518924
2586.000000	40.578149
2585.000000	40.635239
2584.000000	40.690364
2583.000000	40.743835
2582.000000	40.796724
2581.000000	40.850925
2580.000000	40.908200
2579.000000	40.969624
2578.000000	41.035755
2577.000000	41.106441
2576.000000	41.180157
2575.000000	41.254319
2574.000000	41.326548
2573.000000	41.395187
2572.000000	41.458891
2571.000000	41.516807
2570.000000	41.569462
2569.000000	41.618662
2568.000000	41.666350
2567.000000	41.713765
2566.000000	41.761553
2565.000000	41.809848
2564.000000	41.857620
2563.000000	41.902678
2562.000000	41.942097
2561.000000	41.972398
2560.000000	41.989853
2559.000000	41.991232
2558.000000	41.975491
2557.000000	41.944116
2556.000000	41.900337
2555.000000	41.849027
2554.000000	41.796737
2553.000000	41.751152
2552.000000	41.719367
2551.000000	41.706479
2550.000000	41.714901
2549.000000	41.744214
2548.000000	41.790917
2547.000000	41.849551
2546.000000	41.914900
2545.000000	41.982690
2544.000000	42.049947
2543.000000	42.115292
2542.000000	42.179221
2541.000000	42.243416
2540.000000	42.309059
2539.000000	42.376367
2538.000000	42.445127
2537.000000	42.514715
2536.000000	42.583445
2535.000000	42.648761
2534.000000	42.708368
2533.000000	42.761080
2532.000000	42.806871
2531.000000	42.846644
2530.000000	42.882257
2529.000000	42.915986
2528.000000	42.949824
2527.000000	42.985373
2526.000000	43.023862
2525.000000	43.065739
2524.000000	43.110150
2523.000000	43.155301
2522.000000	43.199315
2521.000000	43.240419
2520.000000	43.276947
2519.000000	43.308056
2518.000000	43.334503
2517.000000	43.358263
2516.000000	43.381247
2515.000000	43.404928
2514.000000	43.430727
2513.000000	43.459823
2512.000000	43.492310
2511.000000	43.527002
2510.000000	43.562173
2509.000000	43.596159
2508.000000	43.627455
2507.000000	43.655001
2506.000000	43.678628
2505.000000	43.699033
2504.000000	43.717329
2503.000000	43.734838
2502.000000	43.753145
2501.000000	43.773658
2500.000000	43.796985
2499.000000	43.822876
2498.000000	43.850583
2497.000000	43.878898
2496.000000	43.906155
2495.000000	43.930819
2494.000000	43.952149
2493.000000	43.970045
2492.000000	43.984674
2491.000000	43.996776
2490.000000	44.008143
2489.000000	44.021046
2488.000000	44.036917
2487.000000	44.055886
2486.000000	44.077320
2485.000000	44.100234
2484.000000	44.123316
2483.000000	44.145183
2482.000000	44.164868
2481.000000	44.181810
2480.000000	44.195601
2479.000000	44.206299
2478.000000	44.214925
2477.000000	44.223238
2476.000000	44.232880
2475.000000	44.244883
2474.000000	44.259713
2473.000000	44.277173
2472.000000	44.296267
2471.000000	44.315640
2470.000000	44.334177
2469.000000	44.351006
2468.000000	44.365323
2467.000000	44.376832
2466.000000	44.386250
2465.000000	44.394822
2464.000000	44.403438
2463.000000	44.412643
2462.000000	44.423241
2461.000000	44.436127
2460.000000	44.451445
2459.000000	44.468452
2458.000000	44.486208
2457.000000	44.503813
2456.000000	44.520081
2455.000000	44.533793
2454.000000	44.544622
2453.000000	44.553471
2452.000000	44.561735
2451.000000	44.570585
2450.000000	44.580891
2449.000000	44.593238
2448.000000	44.607681
2447.000000	44.623735
2446.000000	44.640697
2445.000000	44.657777
2444.000000	44.674022
2443.000000	44.688629
2442.000000	44.701412
2441.000000	44.712704
2440.000000	44.722888
2439.000000	44.732472
2438.000000	44.742510
2437.000000	44.754318
2436.000000	44.768530
2435.000000	44.784754
2434.000000	44.802168
2433.000000	44.820006
2432.000000	44.837470
2431.000000	44.853697
2430.000000	44.868127
2429.000000	44.880667
2428.000000	44.891470
2427.000000	44.900944
2426.000000	44.910061
2425.000000	44.920171
2424.000000	44.932307
2423.000000	44.946838
2422.000000	44.963733
2421.000000	44.982589
2420.000000	45.002252
2419.000000	45.020979
2418.000000	45.037394
2417.000000	45.051144
2416.000000	45.062567
2415.000000	45.072205
2414.000000	45.080950
2413.000000	45.090275
2412.000000	45.101797
2411.000000	45.116519
2410.000000	45.134537
2409.000000	45.155177
2408.000000	45.177147
2407.000000	45.198852
2406.000000	45.218908
2405.000000	45.236510
2404.000000	45.251415
2403.000000	45.263880
2402.000000	45.274768
2401.000000	45.285461
2400.000000	45.297421
2399.000000	45.311891
2398.000000	45.329845
2397.000000	45.351690
2396.000000	45.376679
2395.000000	45.402946
2394.000000	45.428547
2393.000000	45.452377
2392.000000	45.473988
2391.000000	45.493096
2390.000000	45.509963
2389.000000	45.525872
2388.000000	45.543159
2387.000000	45.564216
2386.000000	45.590982
2385.000000	45.625175
2384.000000	45.667166
2383.000000	45.715730
2382.000000	45.767802
2381.000000	45.819664
2380.000000	45.868475
2379.000000	45.911732
2378.000000	45.948067
2377.000000	45.977622
2376.000000	46.002017
2375.000000	46.023786
2374.000000	46.046651
2373.000000	46.075117
2372.000000	46.112311
2371.000000	46.157826
2370.000000	46.208075
2369.000000	46.260110
2368.000000	46.311610
2367.000000	46.359045
2366.000000	46.399227
2365.000000	46.432315
2364.000000	46.462649
2363.000000	46.490539
2362.000000	46.515845
2361.000000	46.543289
2360.000000	46.575041
2359.000000	46.612646
2358.000000	46.654187
2357.000000	46.697062
2356.000000	46.741277
2355.000000	46.781079
2354.000000	46.817711
2353.000000	46.853630
2352.000000	46.895977
2351.000000	46.943371
2350.000000	46.982179
2349.000000	47.006656
2348.000000	47.024432
2347.000000	47.057164
2346.000000	47.111844
2345.000000	47.171671
2344.000000	47.222469
2343.000000	47.258941
2342.000000	47.294385
2341.000000	47.332305
2340.000000	47.369775
2339.000000	47.402879
2338.000000	47.431525
2337.000000	47.459389
2336.000000	47.487051
2335.000000	47.518248
2334.000000	47.555034
2333.000000	47.600473
2332.000000	47.649238
2331.000000	47.702092
2330.000000	47.752169
2329.000000	47.804815
2328.000000	47.851834
2327.000000	47.896301
2326.000000	47.935575
2325.000000	47.971533
2324.000000	48.004439
2323.000000	48.033282
2322.000000	48.061034
2321.000000	48.088823
2320.000000	48.119537
2319.000000	48.156729
2318.000000	48.200914
2317.000000	48.253019
2316.000000	48.306686
2315.000000	48.361459
2314.000000	48.410633
2313.000000	48.454761
2312.000000	48.489031
2311.000000	48.519561
2310.000000	48.547694
2309.000000	48.579520
2308.000000	48.613460
2307.000000	48.652713
2306.000000	48.695732
2305.000000	48.742836
2304.000000	48.789776
2303.000000	48.836103
2302.000000	48.879084
2301.000000	48.918683
2300.000000	48.952079
2299.000000	48.981757
2298.000000	49.008575
2297.000000	49.036119
2296.000000	49.064639
2295.000000	49.097195
2294.000000	49.134407
2293.000000	49.176449
2292.000000	49.220475
2291.000000	49.264222
2290.000000	49.305223
2289.000000	49.341291
2288.000000	49.371464
2287.000000	49.396870
2286.000000	49.420284
2285.000000	49.443639
2284.000000	49.468999
2283.000000	49.498435
2282.000000	49.533914
2281.000000	49.574996
2280.000000	49.619864
2279.000000	49.666304
2278.000000	49.712135
2277.000000	49.754585
2276.000000	49.791337
2275.000000	49.822281
2274.000000	49.848740
2273.000000	49.872517
2272.000000	49.895424
2271.000000	49.920122
2270.000000	49.948987
2269.000000	49.982927
2268.000000	50.021417
2267.000000	50.063330
2266.000000	50.106472
2265.000000	50.147647
2264.000000	50.183946
2263.000000	50.214387
2262.000000	50.239212
2261.000000	50.258794
2260.000000	50.274533
2259.000000	50.289176
2258.000000	50.305739
2257.000000	50.325347
2256.000000	50.347828
2255.000000	50.372658
2254.000000	50.398498
2253.000000	50.422618
2252.000000	50.441677
2251.000000	50.453569
2250.000000	50.456907
2249.000000	50.450915
2248.000000	50.436092
2247.000000	50.414974
2246.000000	50.390433
2245.000000	50.363959
2244.000000	50.336104
2243.000000	50.307565
2242.000000	50.278327
2241.000000	50.246645
2240.000000	50.210048
2239.000000	50.167341
2238.000000	50.118941
2237.000000	50.066203
2236.000000	50.011755
2235.000000	49.959711
2234.000000	49.914509
2233.000000	49.879280
2232.000000	49.855933
2231.000000	49.845481
2230.000000	49.847167
2229.000000	49.857715
2228.000000	49.872664
2227.000000	49.888359
2226.000000	49.901858
2225.000000	49.910329
2224.000000	49.912054
2223.000000	49.907935
2222.000000	49.900768
2221.000000	49.893416
2220.000000	49.888420
2219.000000	49.888418
2218.000000	49.895146
2217.000000	49.908027
2216.000000	49.924646
2215.000000	49.942367
2214.000000	49.958740
2213.000000	49.971211
2212.000000	49.977909
2211.000000	49.978696
2210.000000	49.974800
2209.000000	49.967995
2208.000000	49.960913
2207.000000	49.957200
2206.000000	49.959935
2205.000000	49.969913
2204.000000	49.986046
2203.000000	50.006518
2202.000000	50.028594
2201.000000	50.048244
2200.000000	50.061776
2199.000000	50.067732
2198.000000	50.066593
2197.000000	50.059464
2196.000000	50.048258
2195.000000	50.036403
2194.000000	50.027695
2193.000000	50.024391
2192.000000	50.026880
2191.000000	50.034446
2190.000000	50.045124
2189.000000	50.055413
2188.000000	50.061535
2187.000000	50.061094
2186.000000	50.053106
2185.000000	50.037579
2184.000000	50.016327
2183.000000	49.993656
2182.000000	49.974798
2181.000000	49.963761
2180.000000	49.962925
2179.000000	49.973632
2178.000000	49.995577
2177.000000	50.025941
2176.000000	50.060410
2175.000000	50.095023
2174.000000	50.126665
2173.000000	50.152873
2172.000000	50.172893
2171.000000	50.188517
2170.000000	50.203018
2169.000000	50.219533
2168.000000	50.240988
2167.000000	50.270262
2166.000000	50.308809
2165.000000	50.355291
2164.000000	50.406501
2163.000000	50.459020
2162.000000	50.509310
2161.000000	50.553568
2160.000000	50.589323
2159.000000	50.616943
2158.000000	50.638688
2157.000000	50.657199
2156.000000	50.675803
2155.000000	50.698841
2154.000000	50.729757
2153.000000	50.769051
2152.000000	50.814811
2151.000000	50.864311
2150.000000	50.914175
2149.000000	50.960188
2148.000000	50.998793
2147.000000	51.028805
2146.000000	51.050947
2145.000000	51.066917
2144.000000	51.080096
2143.000000	51.095513
2142.000000	51.117448
2141.000000	51.147580
2140.000000	51.186097
2139.000000	51.232883
2138.000000	51.286244
2137.000000	51.341864
2136.000000	51.394912
2135.000000	51.442509
2134.000000	51.483266
2133.000000	51.516189
2132.000000	51.541921
2131.000000	51.563878
2130.000000	51.586292
2129.000000	51.611771
2128.000000	51.641626
2127.000000	51.677018
2126.000000	51.717907
2125.000000	51.761776
2124.000000	51.805155
2123.000000	51.845712
2122.000000	51.881840
2121.000000	51.911846
2120.000000	51.935355
2119.000000	51.954580
2118.000000	51.972805
2117.000000	51.992579
2116.000000	52.016215
2115.000000	52.046281
2114.000000	52.083724
2113.000000	52.126562
2112.000000	52.171746
2111.000000	52.217167
2110.000000	52.260786
2109.000000	52.299789
2108.000000	52.332415
2107.000000	52.359274
2106.000000	52.381655
2105.000000	52.400129
2104.000000	52.415895
2103.000000	52.431826
2102.000000	52.449771
2101.000000	52.468505
2100.000000	52.485742
2099.000000	52.500185
2098.000000	52.510984
2097.000000	52.515976
2096.000000	52.513069
2095.000000	52.502467
2094.000000	52.486017
2093.000000	52.465694
2092.000000	52.444139
2091.000000	52.425040
2090.000000	52.411106
2089.000000	52.402483
2088.000000	52.398377
2087.000000	52.399117
2086.000000	52.404969
2085.000000	52.414608
2084.000000	52.426536
2083.000000	52.440966
2082.000000	52.458706
2081.000000	52.479565
2080.000000	52.503530
2079.000000	52.531853
2078.000000	52.566002
2077.000000	52.605451
2076.000000	52.648931
2075.000000	52.696285
2074.000000	52.746660
2073.000000	52.797935
2072.000000	52.848183
2071.000000	52.896838
2070.000000	52.943342
2069.000000	52.987138
2068.000000	53.030500
2067.000000	53.078770
2066.000000	53.135608
2065.000000	53.199876
2064.000000	53.268693
2063.000000	53.341073
2062.000000	53.416653
2061.000000	53.493137
2060.000000	53.567734
2059.000000	53.639540
2058.000000	53.708469
2057.000000	53.773550
2056.000000	53.834777
2055.000000	53.894875
2054.000000	53.956196
2053.000000	54.018847
2052.000000	54.082935
2051.000000	54.149686
2050.000000	54.218873
2049.000000	54.288017
2048.000000	54.354518
2047.000000	54.417049
2046.000000	54.474282
2045.000000	54.525068
2044.000000	54.571164
2043.000000	54.617162
2042.000000	54.666366
2041.000000	54.718967
2040.000000	54.775152
2039.000000	54.837051
2038.000000	54.905845
2037.000000	54.979560
2036.000000	55.055420
2035.000000	55.132153
2034.000000	55.208316
2033.000000	55.280612
2032.000000	55.347018
2031.000000	55.409074
2030.000000	55.469260
2029.000000	55.529179
2028.000000	55.590274
2027.000000	55.655766
2026.000000	55.726777
2025.000000	55.802307
2024.000000	55.881076
2023.000000	55.961291
2022.000000	56.038543
2021.000000	56.107842
2020.000000	56.169367
2019.000000	56.228554
2018.000000	56.289045
2017.000000	56.349435
2016.000000	56.408244
2015.000000	56.467831
2014.000000	56.531619
2013.000000	56.600923
2012.000000	56.676164
2011.000000	56.758315
2010.000000	56.846679
2009.000000	56.937535
2008.000000	57.026591
2007.000000	57.112772
2006.000000	57.194690
2005.000000	57.270541
2004.000000	57.340663
2003.000000	57.408758
2002.000000	57.479960
2001.000000	57.554566
2000.000000	57.634194
1999.000000	57.722626
1998.000000	57.818535
1997.000000	57.912959
1996.000000	57.999240
1995.000000	58.079776
1994.000000	58.159421
1993.000000	58.236249
1992.000000	58.305804
1991.000000	58.369320
1990.000000	58.431193
1989.000000	58.494095
1988.000000	58.559364
1987.000000	58.628831
1986.000000	58.702672
1985.000000	58.778665
1984.000000	58.855171
1983.000000	58.931964
1982.000000	59.007986
1981.000000	59.077438
1980.000000	59.138356
1979.000000	59.193688
1978.000000	59.245089
1977.000000	59.290696
1976.000000	59.332616
1975.000000	59.378361
1974.000000	59.431918
1973.000000	59.489275
1972.000000	59.545278
1971.000000	59.599047
1970.000000	59.651848
1969.000000	59.705784
1968.000000	59.763433
1967.000000	59.824318
1966.000000	59.881639
1965.000000	59.927865
1964.000000	59.964467
1963.000000	60.000806
1962.000000	60.042184
1961.000000	60.086887
1960.000000	60.134286
1959.000000	60.186769
1958.000000	60.243964
1957.000000	60.301787
1956.000000	60.358845
1955.000000	60.416644
1954.000000	60.471211
1953.000000	60.517514
1952.000000	60.553678
1951.000000	60.582876
1950.000000	60.610289
1949.000000	60.639491
1948.000000	60.673370
1947.000000	60.712355
1946.000000	60.752533
1945.000000	60.792891
1944.000000	60.839536
1943.000000	60.896588
1942.000000	60.957246
1941.000000	61.008945
1940.000000	61.047130
1939.000000	61.077733
1938.000000	61.104260
1937.000000	61.125005
1936.000000	61.143650
1935.000000	61.169068
1934.000000	61.203085
1933.000000	61.243796
1932.000000	61.287892
1931.000000	61.336926
1930.000000	61.393188
1929.000000	61.448973
1928.000000	61.496771
1927.000000	61.527032
1926.000000	61.542522
1925.000000	61.558053
1924.000000	61.585968
1923.000000	61.624577
1922.000000	61.662694
1921.000000	61.692749
1920.000000	61.722213
1919.000000	61.759047
1918.000000	61.802500
1917.000000	61.844449
1916.000000	61.879075
1915.000000	61.910006
1914.000000	61.938904
1913.000000	61.961646
1912.000000	61.978248
1911.000000	61.999934
1910.000000	62.034057
1909.000000	62.071977
1908.000000	62.109012
1907.000000	62.143703
1906.000000	62.179918
1905.000000	62.217843
1904.000000	62.253134
1903.000000	62.288640
1902.000000	62.329694
1901.000000	62.370440
1900.000000	62.404216
1899.000000	62.428284
1898.000000	62.448090
1897.000000	62.472100
1896.000000	62.504367
1895.000000	62.542893
1894.000000	62.578737
1893.000000	62.600536
1892.000000	62.609860
1891.000000	62.620991
1890.000000	62.640016
1889.000000	62.659483
1888.000000	62.671596
1887.000000	62.680137
1886.000000	62.694120
1885.000000	62.714460
1884.000000	62.734968
1883.000000	62.756491
1882.000000	62.782989
1881.000000	62.809102
1880.000000	62.831430
1879.000000	62.853135
1878.000000	62.874533
1877.000000	62.894391
1876.000000	62.914499
1875.000000	62.938330
1874.000000	62.963766
1873.000000	62.980190
1872.000000	62.981407
1871.000000	62.978937
1870.000000	62.992263
1869.000000	63.026399
1868.000000	63.069993
1867.000000	63.110063
1866.000000	63.140461
1865.000000	63.157107
1864.000000	63.157914
1863.000000	63.149073
1862.000000	63.140273
1861.000000	63.134330
1860.000000	63.131110
1859.000000	63.135421
1858.000000	63.151126
1857.000000	63.173729
1856.000000	63.196774
1855.000000	63.220855
1854.000000	63.251921
1853.000000	63.273510
1852.000000	63.276879
1851.000000	63.272586
1850.000000	63.268232
1849.000000	63.253045
1848.000000	63.222354
1847.000000	63.201502
1846.000000	63.213533
1845.000000	63.247390
1844.000000	63.283692
1843.000000	63.310347
1842.000000	63.313372
1841.000000	63.295737
1840.000000	63.276516
1839.000000	63.262279
1838.000000	63.253342
1837.000000	63.246580
1836.000000	63.236987
1835.000000	63.223162
1834.000000	63.200514
1833.000000	63.158044
1832.000000	63.115893
1831.000000	63.105644
1830.000000	63.125019
1829.000000	63.144092
1828.000000	63.139515
1827.000000	63.118993
1826.000000	63.093923
1825.000000	63.063730
1824.000000	63.029671
1823.000000	62.994498
1822.000000	62.954286
1821.000000	62.903034
1820.000000	62.847120
1819.000000	62.795928
1818.000000	62.757439
1817.000000	62.731692
1816.000000	62.709385
1815.000000	62.684128
1814.000000	62.648145
1813.000000	62.607617
1812.000000	62.573756
1811.000000	62.544594
1810.000000	62.515677
1809.000000	62.486318
1808.000000	62.459372
1807.000000	62.439199
1806.000000	62.425806
1805.000000	62.412357
1804.000000	62.389227
1803.000000	62.368733
1802.000000	62.358310
1801.000000	62.355781
1800.000000	62.351399
1799.000000	62.338737
1798.000000	62.317227
1797.000000	62.286400
1796.000000	62.251228
1795.000000	62.231898
1794.000000	62.233703
1793.000000	62.246883
1792.000000	62.260951
1791.000000	62.268920
1790.000000	62.260305
1789.000000	62.232647
1788.000000	62.191467
1787.000000	62.143240
1786.000000	62.093771
1785.000000	62.039702
1784.000000	61.963983
1783.000000	61.882673
1782.000000	61.810749
1781.000000	61.751945
1780.000000	61.705535
1779.000000	61.669341
1778.000000	61.624415
1777.000000	61.536795
1776.000000	61.417890
1775.000000	61.337178
1774.000000	61.336143
1773.000000	61.367023
1772.000000	61.364755
1771.000000	61.301887
1770.000000	61.194044
1769.000000	61.093246
1768.000000	61.032955
1767.000000	61.006748
1766.000000	60.977207
1765.000000	60.930047
1764.000000	60.882400
1763.000000	60.852872
1762.000000	60.825697
1761.000000	60.779984
1760.000000	60.697925
1759.000000	60.602857
1758.000000	60.525089
1757.000000	60.449688
1756.000000	60.359438
1755.000000	60.255196
1754.000000	60.158574
1753.000000	60.086424
1752.000000	60.040500
1751.000000	60.010898
1750.000000	59.982880
1749.000000	59.925184
1748.000000	59.832431
1747.000000	59.733524
1746.000000	59.631598
1745.000000	59.523257
1744.000000	59.421135
1743.000000	59.336348
1742.000000	59.262052
1741.000000	59.195634
1740.000000	59.126981
1739.000000	59.024804
1738.000000	58.850231
1737.000000	58.638486
1736.000000	58.467104
1735.000000	58.352498
1734.000000	58.286935
1733.000000	58.230000
1732.000000	58.095992
1731.000000	57.904590
1730.000000	57.720828
1729.000000	57.552131
1728.000000	57.389078
1727.000000	57.238145
1726.000000	57.087438
1725.000000	56.934276
1724.000000	56.789765
1723.000000	56.645061
1722.000000	56.453039
1721.000000	56.176698
1720.000000	55.861311
1719.000000	55.595929
1718.000000	55.419078
1717.000000	55.301855
1716.000000	55.169873
1715.000000	54.980502
1714.000000	54.760820
1713.000000	54.540851
1712.000000	54.324598
1711.000000	54.120374
1710.000000	53.932949
1709.000000	53.732674
1708.000000	53.505183
1707.000000	53.273079
1706.000000	53.048821
1705.000000	52.813897
1704.000000	52.573799
1703.000000	52.393344
1702.000000	52.237255
1701.000000	51.960420
1700.000000	51.568246
1699.000000	51.159563
1698.000000	50.833164
1697.000000	50.654853
1696.000000	50.538284
1695.000000	50.398731
1694.000000	50.185057
1693.000000	49.900970
1692.000000	49.610273
1691.000000	49.336023
1690.000000	49.047078
1689.000000	48.708019
1688.000000	48.374069
1687.000000	48.147557
1686.000000	48.054695
1685.000000	47.973088
1684.000000	47.788710
1683.000000	47.551237
1682.000000	47.296462
1681.000000	47.051414
1680.000000	46.838611
1679.000000	46.659113
1678.000000	46.503894
1677.000000	46.339747
1676.000000	46.126211
1675.000000	45.889552
1674.000000	45.655268
1673.000000	45.414667
1672.000000	45.178461
1671.000000	44.961118
1670.000000	44.746037
1669.000000	44.517814
1668.000000	44.289320
1667.000000	44.078523
1666.000000	43.883299
1665.000000	43.689729
1664.000000	43.476731
1663.000000	43.250238
1662.000000	43.025774
1661.000000	42.798057
1660.000000	42.577256
1659.000000	42.374745
1658.000000	42.149860
1657.000000	41.863864
1656.000000	41.579058
1655.000000	41.397157
1654.000000	41.256951
1653.000000	41.115942
1652.000000	41.029376
1651.000000	40.876389
1650.000000	40.621142
1649.000000	40.356666
1648.000000	40.135976
1647.000000	39.937896
1646.000000	39.758376
1645.000000	39.584604
1644.000000	39.381147
1643.000000	39.171795
1642.000000	38.989178
1641.000000	38.812268
1640.000000	38.614424
1639.000000	38.412363
1638.000000	38.257894
1637.000000	38.137906
1636.000000	37.981032
1635.000000	37.792263
1634.000000	37.603315
1633.000000	37.410373
1632.000000	37.226262
1631.000000	37.066197
1630.000000	36.921146
1629.000000	36.772560
1628.000000	36.613791
1627.000000	36.463134
1626.000000	36.327095
1625.000000	36.190904
1624.000000	36.042899
1623.000000	35.894318
1622.000000	35.747602
1621.000000	35.574649
1620.000000	35.386973
1619.000000	35.249442
1618.000000	35.195092
1617.000000	35.173579
1616.000000	35.129636
1615.000000	35.053080
1614.000000	34.958960
1613.000000	34.866917
1612.000000	34.780155
1611.000000	34.700583
1610.000000	34.634204
1609.000000	34.577244
1608.000000	34.518813
1607.000000	34.465930
1606.000000	34.424732
1605.000000	34.383736
1604.000000	34.340456
1603.000000	34.307865
1602.000000	34.290616
1601.000000	34.274781
1600.000000	34.251824
1599.000000	34.230783
1598.000000	34.216977
1597.000000	34.203586
1596.000000	34.187551
1595.000000	34.177714
1594.000000	34.177265
1593.000000	34.175539
1592.000000	34.166829
1591.000000	34.161182
1590.000000	34.165085
1589.000000	34.168844
1588.000000	34.165114
1587.000000	34.160261
1586.000000	34.164959
1585.000000	34.166532
1584.000000	34.156636
1583.000000	34.150817
1582.000000	34.149220
1581.000000	34.110528
1580.000000	34.012152
1579.000000	33.906192
1578.000000	33.871211
1577.000000	33.911737
1576.000000	33.963758
1575.000000	33.987313
1574.000000	33.968846
1573.000000	33.927416
1572.000000	33.895967
1571.000000	33.877713
1570.000000	33.857700
1569.000000	33.818459
1568.000000	33.766121
1567.000000	33.722326
1566.000000	33.702927
1565.000000	33.681853
1564.000000	33.638673
1563.000000	33.610544
1562.000000	33.665050
1561.000000	33.765553
1560.000000	33.878120
1559.000000	33.961659
1558.000000	34.037489
1557.000000	34.080045
1556.000000	34.100305
1555.000000	34.175270
1554.000000	34.299522
1553.000000	34.414541
1552.000000	34.504030
1551.000000	34.602491
1550.000000	34.734535
1549.000000	34.882081
1548.000000	35.019959
1547.000000	35.149689
1546.000000	35.288371
1545.000000	35.432946
1544.000000	35.564305
1543.000000	35.667497
1542.000000	35.785672
1541.000000	35.991219
1540.000000	36.272247
1539.000000	36.578047
1538.000000	36.829043
1537.000000	36.987348
1536.000000	37.110119
1535.000000	37.271126
1534.000000	37.484739
1533.000000	37.718231
1532.000000	37.945138
1531.000000	38.167591
1530.000000	38.401868
1529.000000	38.655227
1528.000000	38.931289
1527.000000	39.236953
1526.000000	39.549107
1525.000000	39.817623
1524.000000	40.048935
1523.000000	40.339212
1522.000000	40.755864
1521.000000	41.232939
1520.000000	41.638313
1519.000000	41.944141
1518.000000	42.253470
1517.000000	42.632973
1516.000000	43.039945
1515.000000	43.426565
1514.000000	43.797781
1513.000000	44.173550
1512.000000	44.525910
1511.000000	44.803004
1510.000000	44.999260
1509.000000	45.218911
1508.000000	45.631706
1507.000000	46.216428
1506.000000	46.862042
1505.000000	47.408758
1504.000000	47.770495
1503.000000	48.058039
1502.000000	48.386900
1501.000000	48.753481
1500.000000	49.097357
1499.000000	49.417249
1498.000000	49.773751
1497.000000	50.207075
1496.000000	50.675137
1495.000000	51.101536
1494.000000	51.450791
1493.000000	51.738562
1492.000000	51.998432
1491.000000	52.281706
1490.000000	52.618966
1489.000000	52.979024
1488.000000	53.311551
1487.000000	53.604226
1486.000000	53.878988
1485.000000	54.119809
1484.000000	54.313874
1483.000000	54.493969
1482.000000	54.692926
1481.000000	54.898160
1480.000000	55.077956
1479.000000	55.227554
1478.000000	55.343455
1477.000000	55.411067
1476.000000	55.426405
1475.000000	55.434873
1474.000000	55.476940
1473.000000	55.513413
1472.000000	55.490183
1471.000000	55.401879
1470.000000	55.247939
1469.000000	55.026994
1468.000000	54.745365
1467.000000	54.412202
1466.000000	54.009677
1465.000000	53.495366
1464.000000	52.908950
1463.000000	52.336776
1462.000000	51.784550
1461.000000	51.192323
1460.000000	50.544298
1459.000000	49.879442
1458.000000	49.140197
1457.000000	48.227758
1456.000000	47.252650
1455.000000	46.339454
1454.000000	45.428994
1453.000000	44.432960
1452.000000	43.342861
1451.000000	42.203168
1450.000000	40.999637
1449.000000	39.662304
1448.000000	38.193232
1447.000000	36.709473
1446.000000	35.275059
1445.000000	33.844171
1444.000000	32.393268
1443.000000	30.943056
1442.000000	29.494299
1441.000000	28.054260
1440.000000	26.690669
1439.000000	25.420073
1438.000000	24.091962
1437.000000	22.572922
1436.000000	21.059252
1435.000000	19.853619
1434.000000	18.945313
1433.000000	18.161438
1432.000000	17.445183
1431.000000	16.832456
1430.000000	16.318778
1429.000000	15.878678
1428.000000	15.559470
1427.000000	15.413444
1426.000000	15.402822
1425.000000	15.473718
1424.000000	15.652283
1423.000000	15.966642
1422.000000	16.367510
1421.000000	16.815917
1420.000000	17.372343
1419.000000	18.081063
1418.000000	18.830430
1417.000000	19.519562
1416.000000	20.210644
1415.000000	20.979655
1414.000000	21.799423
1413.000000	22.628208
1412.000000	23.497051
1411.000000	24.439472
1410.000000	25.412922
1409.000000	26.373510
1408.000000	27.344371
1407.000000	28.364286
1406.000000	29.431258
1405.000000	30.527475
1404.000000	31.646329
1403.000000	32.756863
1402.000000	33.823402
1401.000000	34.874309
1400.000000	35.980467
1399.000000	37.138686
1398.000000	38.261644
1397.000000	39.330734
1396.000000	40.433829
1395.000000	41.622672
1394.000000	42.829643
1393.000000	43.971196
1392.000000	45.046019
1391.000000	46.088906
1390.000000	47.119792
1389.000000	48.168012
1388.000000	49.266638
1387.000000	50.380809
1386.000000	51.410430
1385.000000	52.298246
1384.000000	53.062677
1383.000000	53.716162
1382.000000	54.239084
1381.000000	54.620422
1380.000000	54.858596
1379.000000	54.925850
1378.000000	54.774237
1377.000000	54.366900
1376.000000	53.664646
1375.000000	52.620073
1374.000000	51.236791
1373.000000	49.631605
1372.000000	47.971417
1371.000000	46.391334
1370.000000	45.020250
1369.000000	44.023548
1368.000000	43.560725
1367.000000	43.685966
1366.000000	44.337556
1365.000000	45.422990
1364.000000	46.866174
1363.000000	48.557194
1362.000000	50.306592
1361.000000	51.922766
1360.000000	53.303723
1359.000000	54.421047
1358.000000	55.264661
1357.000000	55.823549
1356.000000	56.081484
1355.000000	56.018602
1354.000000	55.621932
1353.000000	54.895788
1352.000000	53.852436
1351.000000	52.504162
1350.000000	50.871052
1349.000000	48.989964
1348.000000	46.906891
1347.000000	44.667611
1346.000000	42.318527
1345.000000	39.912727
1344.000000	37.514308
1343.000000	35.182187
1342.000000	32.951272
1341.000000	30.847982
1340.000000	28.929880
1339.000000	27.289529
1338.000000	26.000042
1337.000000	25.062515
1336.000000	24.417525
1335.000000	23.975982
1334.000000	23.620926
1333.000000	23.219111
1332.000000	22.656979
1331.000000	21.872294
1330.000000	20.861719
1329.000000	19.672134
1328.000000	18.387193
1327.000000	17.103804
1326.000000	15.898880
1325.000000	14.815925
1324.000000	13.883843
1323.000000	13.128879
1322.000000	12.557758
1321.000000	12.151014
1320.000000	11.884210
1319.000000	11.732525
1318.000000	11.656367
1317.000000	11.607356
1316.000000	11.554798
1315.000000	11.492250
1314.000000	11.414825
1313.000000	11.314049
1312.000000	11.195789
1311.000000	11.079056
1310.000000	10.974089
1309.000000	10.880451
1308.000000	10.807291
1307.000000	10.773929
1306.000000	10.787926
1305.000000	10.843116
1304.000000	10.938988
1303.000000	11.081586
1302.000000	11.265354
1301.000000	11.473478
1300.000000	11.699252
1299.000000	11.946793
1298.000000	12.212590
1297.000000	12.486497
1296.000000	12.768690
1295.000000	13.068213
1294.000000	13.384522
1293.000000	13.708584
1292.000000	14.040248
1291.000000	14.386136
1290.000000	14.741504
1289.000000	15.090335
1288.000000	15.419369
1287.000000	15.714272
1286.000000	15.946733
1285.000000	16.084238
1284.000000	16.117656
1283.000000	16.070318
1282.000000	15.983504
1281.000000	15.905432
1280.000000	15.886278
1279.000000	15.961181
1278.000000	16.131566
1277.000000	16.374304
1276.000000	16.667342
1275.000000	16.996696
1274.000000	17.346475
1273.000000	17.700652
1272.000000	18.055354
1271.000000	18.413496
1270.000000	18.770379
1269.000000	19.117619
1268.000000	19.456618
1267.000000	19.794673
1266.000000	20.130743
1265.000000	20.458174
1264.000000	20.777940
1263.000000	21.096568
1262.000000	21.413798
1261.000000	21.724988
1260.000000	22.032321
1259.000000	22.341250
1258.000000	22.649735
1257.000000	22.952354
1256.000000	23.251003
1255.000000	23.550725
1254.000000	23.849620
1253.000000	24.142936
1252.000000	24.432466
1251.000000	24.722442
1250.000000	25.010635
1249.000000	25.292469
1248.000000	25.569952
1247.000000	25.847818
1246.000000	26.124985
1245.000000	26.398325
1244.000000	26.670323
1243.000000	26.944848
1242.000000	27.219339
1241.000000	27.489100
1240.000000	27.755122
1239.000000	28.020159
1238.000000	28.281694
1237.000000	28.535829
1236.000000	28.784089
1235.000000	29.029862
1234.000000	29.272048
1233.000000	29.508922
1232.000000	29.744001
1231.000000	29.981782
1230.000000	30.221651
1229.000000	30.461421
1228.000000	30.702850
1227.000000	30.948013
1226.000000	31.194361
1225.000000	31.438555
1224.000000	31.681081
1223.000000	31.922586
1222.000000	32.160116
1221.000000	32.391509
1220.000000	32.619582
1219.000000	32.847810
1218.000000	33.076100
1217.000000	33.304467
1216.000000	33.536073
1215.000000	33.772932
1214.000000	34.012668
1213.000000	34.252914
1212.000000	34.494510
1211.000000	34.737168
1210.000000	34.976876
1209.000000	35.210629
1208.000000	35.439536
1207.000000	35.664964
1206.000000	35.886253
1205.000000	36.104677
1204.000000	36.324739
1203.000000	36.549292
1202.000000	36.777678
1201.000000	37.009622
1200.000000	37.246190
1199.000000	37.485036
1198.000000	37.719206
1197.000000	37.942518
1196.000000	38.150701
1195.000000	38.337687
1194.000000	38.494810
1193.000000	38.614159
1192.000000	38.689684
1191.000000	38.713615
1190.000000	38.680747
1189.000000	38.598273
1188.000000	38.488724
1187.000000	38.383887
1186.000000	38.315980
1185.000000	38.310880
1184.000000	38.381320
1183.000000	38.522312
1182.000000	38.714487
1181.000000	38.936966
1180.000000	39.175106
1179.000000	39.419026
1178.000000	39.663176
1177.000000	39.906825
1176.000000	40.151606
1175.000000	40.396422
1174.000000	40.637845
1173.000000	40.874765
1172.000000	41.108138
1171.000000	41.336958
1170.000000	41.558840
1169.000000	41.773870
1168.000000	41.983341
1167.000000	42.186710
1166.000000	42.383781
1165.000000	42.578282
1164.000000	42.775019
1163.000000	42.974867
1162.000000	43.177042
1161.000000	43.383433
1160.000000	43.595755
1159.000000	43.810913
1158.000000	44.023636
1157.000000	44.231679
1156.000000	44.434118
1155.000000	44.627887
1154.000000	44.811214
1153.000000	44.987053
1152.000000	45.159177
1151.000000	45.328200
1150.000000	45.495469
1149.000000	45.666621
1148.000000	45.845804
1147.000000	46.030430
1146.000000	46.216063
1145.000000	46.401833
1144.000000	46.586642
1143.000000	46.765025
1142.000000	46.932653
1141.000000	47.091652
1140.000000	47.245506
1139.000000	47.393978
1138.000000	47.537355
1137.000000	47.680500
1136.000000	47.827688
1135.000000	47.978155
1134.000000	48.131399
1133.000000	48.290768
1132.000000	48.456819
1131.000000	48.623061
1130.000000	48.783560
1129.000000	48.939444
1128.000000	49.093232
1127.000000	49.243232
1126.000000	49.388822
1125.000000	49.534509
1124.000000	49.683589
1123.000000	49.834120
1122.000000	49.985938
1121.000000	50.144298
1120.000000	50.310691
1119.000000	50.477473
1118.000000	50.637124
1117.000000	50.789824
1116.000000	50.936856
1115.000000	51.074738
1114.000000	51.202566
1113.000000	51.327552
1112.000000	51.456406
1111.000000	51.588927
1110.000000	51.724777
1109.000000	51.868310
1108.000000	52.020785
1107.000000	52.174764
1106.000000	52.322831
1105.000000	52.463906
1104.000000	52.596057
1103.000000	52.712405
1102.000000	52.810335
1101.000000	52.897345
1100.000000	52.981696
1099.000000	53.065762
1098.000000	53.153313
1097.000000	53.253012
1096.000000	53.368782
1095.000000	53.494880
1094.000000	53.625547
1093.000000	53.760500
1092.000000	53.896348
1091.000000	54.023159
1090.000000	54.135971
1089.000000	54.240721
1088.000000	54.343587
1087.000000	54.444515
1086.000000	54.545986
1085.000000	54.657211
1084.000000	54.783051
1083.000000	54.917911
1082.000000	55.055579
1081.000000	55.195254
1080.000000	55.333022
1079.000000	55.458476
1078.000000	55.566629
1077.000000	55.662864
1076.000000	55.751533
1075.000000	55.830260
1074.000000	55.899767
1073.000000	55.968271
1072.000000	56.039040
1071.000000	56.104437
1070.000000	56.156243
1069.000000	56.189608
1068.000000	56.193968
1067.000000	56.150720
1066.000000	56.048984
1065.000000	55.896021
1064.000000	55.709268
1063.000000	55.511561
1062.000000	55.336710
1061.000000	55.224667
1060.000000	55.200589
1059.000000	55.265612
1058.000000	55.407194
1057.000000	55.610248
1056.000000	55.854226
1055.000000	56.111554
1054.000000	56.361722
1053.000000	56.597354
1052.000000	56.814067
1051.000000	57.005292
1050.000000	57.172603
1049.000000	57.329041
1048.000000	57.484811
1047.000000	57.640441
1046.000000	57.797715
1045.000000	57.964241
1044.000000	58.140685
1043.000000	58.315990
1042.000000	58.480471
1041.000000	58.632802
1040.000000	58.770496
1039.000000	58.886326
1038.000000	58.980916
1037.000000	59.067198
1036.000000	59.156416
1035.000000	59.251034
1034.000000	59.354773
1033.000000	59.476423
1032.000000	59.617596
1031.000000	59.768059
1030.000000	59.918418
1029.000000	60.066100
1028.000000	60.205209
1027.000000	60.324146
1026.000000	60.419741
1025.000000	60.502097
1024.000000	60.580756
1023.000000	60.658232
1022.000000	60.740888
1021.000000	60.841490
1020.000000	60.964696
1019.000000	61.101706
1018.000000	61.243790
1017.000000	61.388669
1016.000000	61.529469
1015.000000	61.652133
1014.000000	61.750255
1013.000000	61.830801
1012.000000	61.900980
1011.000000	61.962813
1010.000000	62.024387
1009.000000	62.101628
1008.000000	62.202569
1007.000000	62.321514
1006.000000	62.452480
1005.000000	62.594936
1004.000000	62.742285
1003.000000	62.878750
1002.000000	62.994148
1001.000000	63.090360
1000.000000	63.170056
999.000000	63.232433
998.000000	63.284615
997.000000	63.343487
996.000000	63.420385
995.000000	63.514757
994.000000	63.625628
993.000000	63.755650
992.000000	63.899243
991.000000	64.040481
990.000000	64.168263
989.000000	64.282082
988.000000	64.379617
987.000000	64.453728
986.000000	64.506694
985.000000	64.554008
984.000000	64.608620
983.000000	64.673550
982.000000	64.753032
981.000000	64.855766
980.000000	64.981352
979.000000	65.116436
978.000000	65.249345
977.000000	65.376102
976.000000	65.489255
975.000000	65.576392
974.000000	65.636088
973.000000	65.681385
972.000000	65.723350
971.000000	65.764300
970.000000	65.810399
969.000000	65.875034
968.000000	65.963441
967.000000	66.067364
966.000000	66.179355
965.000000	66.298598
964.000000	66.418189
963.000000	66.522454
962.000000	66.603378
961.000000	66.666725
960.000000	66.717449
959.000000	66.754397
958.000000	66.783488
957.000000	66.820434
956.000000	66.874104
955.000000	66.940593
954.000000	67.017904
953.000000	67.110905
952.000000	67.216675
951.000000	67.320174
950.000000	67.410772
949.000000	67.489120
948.000000	67.553688
947.000000	67.596731
946.000000	67.619675
945.000000	67.636750
944.000000	67.658150
943.000000	67.683558
942.000000	67.716127
941.000000	67.766570
940.000000	67.837063
939.000000	67.915971
938.000000	67.993484
937.000000	68.068213
936.000000	68.134293
935.000000	68.178554
934.000000	68.196904
933.000000	68.198855
932.000000	68.191157
931.000000	68.173050
930.000000	68.151059
929.000000	68.141472
928.000000	68.151862
927.000000	68.174594
926.000000	68.203159
925.000000	68.238027
924.000000	68.272125
923.000000	68.287494
922.000000	68.273032
921.000000	68.231667
920.000000	68.165471
919.000000	68.070941
918.000000	67.953908
917.000000	67.831563
916.000000	67.714991
915.000000	67.603199
914.000000	67.497228
913.000000	67.403033
912.000000	67.314334
911.000000	67.210623
910.000000	67.076940
909.000000	66.911323
908.000000	66.709964
907.000000	66.462084
906.000000	66.167449
905.000000	65.841232
904.000000	65.496050
903.000000	65.135236
902.000000	64.765015
901.000000	64.397192
900.000000	64.032265
899.000000	63.654018
898.000000	63.247486
897.000000	62.805750
896.000000	62.318554
895.000000	61.770401
894.000000	61.155737
893.000000	60.484661
892.000000	59.766648
891.000000	59.004922
890.000000	58.208295
889.000000	57.391600
888.000000	56.561298
887.000000	55.709269
886.000000	54.825769
885.000000	53.906384
884.000000	52.942366
883.000000	51.920308
882.000000	50.834457
881.000000	49.691652
880.000000	48.501475
879.000000	47.270665
878.000000	46.011546
877.000000	44.743645
876.000000	43.483565
875.000000	42.239680
874.000000	41.018660
873.000000	39.828735
872.000000	38.674499
871.000000	37.555238
870.000000	36.470620
869.000000	35.426164
868.000000	34.427846
867.000000	33.478097
866.000000	32.579779
865.000000	31.737990
864.000000	30.957953
863.000000	30.239074
862.000000	29.576382
861.000000	28.966066
860.000000	28.403329
859.000000	27.880616
858.000000	27.389092
857.000000	26.923725
856.000000	26.484647
855.000000	26.072000
854.000000	25.687244
853.000000	25.336300
852.000000	25.027821
851.000000	24.768853
850.000000	24.562152
849.000000	24.410590
848.000000	24.317195
847.000000	24.280757
846.000000	24.297676
845.000000	24.365222
844.000000	24.484284
843.000000	24.657299
842.000000	24.886968
841.000000	25.179678
840.000000	25.541718
839.000000	25.976931
838.000000	26.487198
837.000000	27.074100
836.000000	27.737128
835.000000	28.469965
834.000000	29.259252
833.000000	30.077513
832.000000	30.859111
831.000000	31.446827
830.000000	31.554382
829.000000	30.809180
828.000000	28.953777
827.000000	26.138870
826.000000	23.026324
825.000000	20.510405
824.000000	19.215503
823.000000	19.191164
822.000000	20.041875
821.000000	21.296594
820.000000	22.641936
819.000000	23.931269
818.000000	25.118473
817.000000	26.207042
816.000000	27.221081
815.000000	28.174169
814.000000	29.069718
813.000000	29.920656
812.000000	30.744461
811.000000	31.543129
810.000000	32.306336
809.000000	33.030956
808.000000	33.717330
807.000000	34.357814
806.000000	34.946291
805.000000	35.494240
804.000000	36.018854
803.000000	36.522560
802.000000	37.003514
801.000000	37.474456
800.000000	37.952913
799.000000	38.441435
798.000000	38.934575
797.000000	39.435670
796.000000	39.947914
795.000000	40.459371
794.000000	40.954848
793.000000	41.433071
792.000000	41.897041
791.000000	42.339920
790.000000	42.757559
789.000000	43.163190
788.000000	43.573436
787.000000	43.991197
786.000000	44.415907
785.000000	44.856270
784.000000	45.316588
783.000000	45.782666
782.000000	46.236630
781.000000	46.673850
780.000000	47.092108
779.000000	47.479841
778.000000	47.831386
777.000000	48.160789
776.000000	48.485435
775.000000	48.809065
774.000000	49.133763
773.000000	49.471683
772.000000	49.829119
771.000000	50.192985
770.000000	50.547588
769.000000	50.891050
768.000000	51.221720
767.000000	51.525751
766.000000	51.794486
765.000000	52.039115
764.000000	52.274055
763.000000	52.501207
762.000000	52.724208
761.000000	52.960037
760.000000	53.220144
759.000000	53.495407
758.000000	53.773329
757.000000	54.053203
756.000000	54.330643
755.000000	54.586245
754.000000	54.806873
753.000000	55.002125
752.000000	55.186224
751.000000	55.362237
750.000000	55.537628
749.000000	55.734482
748.000000	55.966839
747.000000	56.225248
746.000000	56.497531
745.000000	56.784494
744.000000	57.079557
743.000000	57.354888
742.000000	57.586498
741.000000	57.775624
740.000000	57.931021
739.000000	58.052409
738.000000	58.148117
737.000000	58.246308
736.000000	58.369500
735.000000	58.515653
734.000000	58.678327
733.000000	58.861845
732.000000	59.059366
731.000000	59.239405
730.000000	59.373497
729.000000	59.457243
728.000000	59.492078
727.000000	59.472013
726.000000	59.406268
725.000000	59.333061
724.000000	59.290647
723.000000	59.292719
722.000000	59.346487
721.000000	59.469481
720.000000	59.666895
719.000000	59.914160
718.000000	60.182024
717.000000	60.457750
716.000000	60.725695
715.000000	60.956141
714.000000	61.135982
713.000000	61.286906
712.000000	61.434725
711.000000	61.585452
710.000000	61.749123
709.000000	61.955285
708.000000	62.221468
707.000000	62.530918
706.000000	62.858842
705.000000	63.195342
704.000000	63.523596
703.000000	63.804773
702.000000	64.014085
701.000000	64.166692
700.000000	64.285861
699.000000	64.377752
698.000000	64.455989
697.000000	64.559330
696.000000	64.716168
695.000000	64.915156
694.000000	65.138512
693.000000	65.390123
692.000000	65.662792
691.000000	65.917031
690.000000	66.121219
689.000000	66.284587
688.000000	66.422187
687.000000	66.522117
686.000000	66.585518
685.000000	66.655675
684.000000	66.768891
683.000000	66.916461
682.000000	67.087149
681.000000	67.300672
680.000000	67.560541
679.000000	67.820554
678.000000	68.042483
677.000000	68.231128
676.000000	68.390222
675.000000	68.507140
674.000000	68.591686
673.000000	68.692073
672.000000	68.850428
671.000000	69.070441
670.000000	69.342888
669.000000	69.648362
668.000000	69.888423
667.000000	70.015100
666.000000	70.116143
665.000000	70.227977
664.000000	70.341398
663.000000	70.450343
662.000000	70.550315
661.000000	70.650127
660.000000	70.758524
659.000000	70.880104
658.000000	71.024879
657.000000	71.200341
656.000000	71.398396
655.000000	71.609857
654.000000	71.824926
653.000000	72.026439
652.000000	72.199628
651.000000	72.339830
650.000000	72.450689
649.000000	72.538583
648.000000	72.614205
647.000000	72.695051
646.000000	72.799840
645.000000	72.941114
644.000000	73.116901
643.000000	73.311090
642.000000	73.507999
641.000000	73.699197
640.000000	73.874862
639.000000	74.021122
638.000000	74.131656
637.000000	74.216007
636.000000	74.291261
635.000000	74.371043
634.000000	74.469542
633.000000	74.602942
632.000000	74.776011
631.000000	74.977447
630.000000	75.194074
629.000000	75.416443
628.000000	75.627390
627.000000	75.802225
626.000000	75.931071
625.000000	76.029439
624.000000	76.114313
623.000000	76.189647
622.000000	76.266338
621.000000	76.371086
620.000000	76.519761
619.000000	76.701645
618.000000	76.902534
617.000000	77.121887
616.000000	77.351454
615.000000	77.561240
614.000000	77.725009
613.000000	77.840565
612.000000	77.909192
611.000000	77.920970
610.000000	77.875074
609.000000	77.785156
608.000000	77.649197
607.000000	77.424636
606.000000	77.046224
605.000000	76.428323
604.000000	75.422045
603.000000	73.798857
602.000000	71.283894
601.000000	67.654389
600.000000	62.894859
599.000000	57.375405
598.000000	51.874531
597.000000	47.322976
596.000000	44.442096
595.000000	43.503804
594.000000	44.292220
593.000000	46.267509
592.000000	48.850945
591.000000	51.589339
590.000000	54.195539
589.000000	56.559361
588.000000	58.680940
587.000000	60.584706
586.000000	62.284372
585.000000	63.796450
584.000000	65.140274
583.000000	66.333604
582.000000	67.406003
581.000000	68.401120
580.000000	69.340470
579.000000	70.197701
578.000000	70.946747
577.000000	71.601499
576.000000	72.184144
575.000000	72.688904
574.000000	73.106919
573.000000	73.462160
572.000000	73.784886
571.000000	74.083409
570.000000	74.370507
569.000000	74.679051
568.000000	75.022262
567.000000	75.368828
566.000000	75.685640
565.000000	75.974178
564.000000	76.235347
563.000000	76.442435
562.000000	76.582690
561.000000	76.689219
560.000000	76.800237
559.000000	76.922061
558.000000	77.060662
557.000000	77.245003
556.000000	77.486348
555.000000	77.751059
554.000000	78.004618
553.000000	78.244238
552.000000	78.460496
551.000000	78.612543
550.000000	78.680498
549.000000	78.700337
548.000000	78.714756
547.000000	78.735772
546.000000	78.781907
545.000000	78.897779
544.000000	79.100741
543.000000	79.354493
542.000000	79.622145
541.000000	79.900191
540.000000	80.170948
539.000000	80.376114
538.000000	80.477870
537.000000	80.501554
536.000000	80.483194
535.000000	80.427832
534.000000	80.356506
533.000000	80.336172
532.000000	80.417229
531.000000	80.587240
530.000000	80.817561
529.000000	81.101524
528.000000	81.411109
527.000000	81.669373
526.000000	81.812283
525.000000	81.836702
524.000000	81.749919
523.000000	81.526694
522.000000	81.161873
521.000000	80.703721
520.000000	80.195880
519.000000	79.636770
518.000000	79.039288
517.000000	78.484937
516.000000	78.067822
515.000000	77.828541
514.000000	77.772276
513.000000	77.888491
512.000000	78.104933
511.000000	78.280532
510.000000	78.297586
509.000000	78.120090
508.000000	77.726032
507.000000	77.063107
506.000000	76.107446
505.000000	74.890626
504.000000	73.444426
503.000000	71.828418
502.000000	70.266227
501.000000	69.112438
500.000000	68.601679
499.000000	68.717941
498.000000	69.307460
497.000000	70.184589
496.000000	71.141900
495.000000	71.979544
494.000000	72.592030
493.000000	73.018057
492.000000	73.372152
491.000000	73.762315
490.000000	74.274895
489.000000	74.961719
488.000000	75.784899
487.000000	76.624590
486.000000	77.383439
485.000000	78.049795
484.000000	78.637254
483.000000	79.130396
482.000000	79.541411
481.000000	79.941288
480.000000	80.376559
479.000000	80.817576
478.000000	81.228268
477.000000	81.624552
476.000000	82.013039
475.000000	82.335430
474.000000	82.542854
473.000000	82.669635
472.000000	82.760779
471.000000	82.794666
470.000000	82.766690
469.000000	82.753577
468.000000	82.820904
467.000000	82.946226
466.000000	83.080466
465.000000	83.223034
464.000000	83.362027
463.000000	83.432208
462.000000	83.414877
461.000000	83.390414
460.000000	83.408599
459.000000	83.397073
458.000000	83.299326
457.000000	83.201523
456.000000	83.184995
455.000000	83.197204
454.000000	83.170900
453.000000	83.128162
452.000000	83.096039
451.000000	83.003434
450.000000	82.762753
449.000000	82.379327
448.000000	81.885765
447.000000	81.250575
446.000000	80.437819
445.000000	79.459001
444.000000	78.275412
443.000000	76.751379
442.000000	74.793268
441.000000	72.469172
440.000000	69.910871
439.000000	67.217716
438.000000	64.534695
437.000000	62.157518
436.000000	60.440952
435.000000	59.591882
434.000000	59.600840
433.000000	60.366579
432.000000	61.783772
431.000000	63.654198
430.000000	65.719416
429.000000	67.823861
428.000000	69.886292
427.000000	71.763593
426.000000	73.336447
425.000000	74.664637
424.000000	75.844032
423.000000	76.821578
422.000000	77.553402
421.000000	78.200251
420.000000	78.934689
419.000000	79.729090
418.000000	80.449218
417.000000	81.078877
416.000000	81.681725
415.000000	82.181219
414.000000	82.489539
413.000000	82.707040
412.000000	82.930981
411.000000	83.044539
410.000000	82.972884
409.000000	82.930093
408.000000	83.120336
407.000000	83.412246
406.000000	83.648051
405.000000	83.939553
404.000000	84.366985
403.000000	84.662808
402.000000	84.563472
401.000000	84.213374
400.000000	83.842731
