PE IR       SUBTECH     SPECTRUM    ASCII       PEDS        4.00        
   -1
23MS101_nitro.asc
24/09/12
16:05:51.00
24/09/12
16:05:51.00
Administrator
Sample 1174 By Administrator Date Thursday, September 12 2024
400.000000
#HDR
-1
-1
#GR
cm-1
%T
1.0
0.0
4000.000000
-1.000000
3601
8
85.539336
12.645652
#DATA
4000.000000	51.460546
3999.000000	51.489599
3998.000000	51.518634
3997.000000	51.547477
3996.000000	51.575570
3995.000000	51.602539
3994.000000	51.628717
3993.000000	51.654804
3992.000000	51.681100
3991.000000	51.707301
3990.000000	51.733079
3989.000000	51.758722
3988.000000	51.784961
3987.000000	51.812313
3986.000000	51.840803
3985.000000	51.869937
3984.000000	51.898772
3983.000000	51.926185
3982.000000	51.951563
3981.000000	51.975352
3980.000000	51.998745
3979.000000	52.022832
3978.000000	52.047782
3977.000000	52.072695
3976.000000	52.096459
3975.000000	52.118544
3974.000000	52.139383
3973.000000	52.160284
3972.000000	52.182590
3971.000000	52.206943
3970.000000	52.232824
3969.000000	52.259220
3968.000000	52.285345
3967.000000	52.310736
3966.000000	52.335180
3965.000000	52.358644
3964.000000	52.381198
3963.000000	52.402662
3962.000000	52.422899
3961.000000	52.442339
3960.000000	52.462054
3959.000000	52.483390
3958.000000	52.506878
3957.000000	52.532485
3956.000000	52.559894
3955.000000	52.588249
3954.000000	52.616429
3953.000000	52.643019
3952.000000	52.666801
3951.000000	52.687095
3950.000000	52.704181
3949.000000	52.719342
3948.000000	52.734351
3947.000000	52.751634
3946.000000	52.773756
3945.000000	52.801444
3944.000000	52.832117
3943.000000	52.861451
3942.000000	52.888174
3941.000000	52.914843
3940.000000	52.943324
3939.000000	52.972718
3938.000000	52.999939
3937.000000	53.023253
3936.000000	53.044295
3935.000000	53.065265
3934.000000	53.087162
3933.000000	53.109231
3932.000000	53.131371
3931.000000	53.154181
3930.000000	53.176962
3929.000000	53.200173
3928.000000	53.226158
3927.000000	53.257197
3926.000000	53.290438
3925.000000	53.318573
3924.000000	53.338785
3923.000000	53.354783
3922.000000	53.369724
3921.000000	53.383805
3920.000000	53.398172
3919.000000	53.417062
3918.000000	53.442618
3917.000000	53.471935
3916.000000	53.501493
3915.000000	53.530878
3914.000000	53.561380
3913.000000	53.593407
3912.000000	53.625831
3911.000000	53.658501
3910.000000	53.690100
3909.000000	53.719310
3908.000000	53.746521
3907.000000	53.770880
3906.000000	53.788345
3905.000000	53.792012
3904.000000	53.782626
3903.000000	53.773487
3902.000000	53.778119
3901.000000	53.798892
3900.000000	53.827654
3899.000000	53.856363
3898.000000	53.884599
3897.000000	53.914967
3896.000000	53.947216
3895.000000	53.981912
3894.000000	54.019822
3893.000000	54.059671
3892.000000	54.093051
3891.000000	54.112275
3890.000000	54.120767
3889.000000	54.130350
3888.000000	54.151144
3887.000000	54.181623
3886.000000	54.209487
3885.000000	54.228726
3884.000000	54.245474
3883.000000	54.266050
3882.000000	54.288142
3881.000000	54.305733
3880.000000	54.319060
3879.000000	54.335687
3878.000000	54.361779
3877.000000	54.397382
3876.000000	54.436243
3875.000000	54.467326
3874.000000	54.484864
3873.000000	54.497566
3872.000000	54.517458
3871.000000	54.540471
3870.000000	54.553043
3869.000000	54.558326
3868.000000	54.571734
3867.000000	54.598605
3866.000000	54.628958
3865.000000	54.652729
3864.000000	54.674302
3863.000000	54.703574
3862.000000	54.738670
3861.000000	54.773804
3860.000000	54.807184
3859.000000	54.842367
3858.000000	54.885327
3857.000000	54.939033
3856.000000	54.995982
3855.000000	55.028894
3854.000000	55.017767
3853.000000	54.993585
3852.000000	54.994451
3851.000000	55.014831
3850.000000	55.035366
3849.000000	55.053317
3848.000000	55.076448
3847.000000	55.112280
3846.000000	55.158296
3845.000000	55.205003
3844.000000	55.242390
3843.000000	55.265387
3842.000000	55.278713
3841.000000	55.293825
3840.000000	55.312222
3839.000000	55.328925
3838.000000	55.345702
3837.000000	55.367118
3836.000000	55.392334
3835.000000	55.416619
3834.000000	55.439881
3833.000000	55.465621
3832.000000	55.494267
3831.000000	55.525525
3830.000000	55.560764
3829.000000	55.600614
3828.000000	55.641345
3827.000000	55.675376
3826.000000	55.697266
3825.000000	55.713815
3824.000000	55.736676
3823.000000	55.768437
3822.000000	55.796870
3821.000000	55.809909
3820.000000	55.816278
3819.000000	55.832156
3818.000000	55.861491
3817.000000	55.893656
3816.000000	55.919933
3815.000000	55.949291
3814.000000	55.993523
3813.000000	56.043602
3812.000000	56.081259
3811.000000	56.104402
3810.000000	56.127926
3809.000000	56.163159
3808.000000	56.201795
3807.000000	56.226732
3806.000000	56.236446
3805.000000	56.246910
3804.000000	56.268684
3803.000000	56.298744
3802.000000	56.320784
3801.000000	56.331393
3800.000000	56.347387
3799.000000	56.375914
3798.000000	56.408658
3797.000000	56.436649
3796.000000	56.462534
3795.000000	56.496383
3794.000000	56.542104
3793.000000	56.591184
3792.000000	56.634185
3791.000000	56.671102
3790.000000	56.706134
3789.000000	56.740057
3788.000000	56.771833
3787.000000	56.802184
3786.000000	56.831950
3785.000000	56.858781
3784.000000	56.880229
3783.000000	56.899782
3782.000000	56.923019
3781.000000	56.950400
3780.000000	56.976702
3779.000000	57.000070
3778.000000	57.025057
3777.000000	57.055867
3776.000000	57.089303
3775.000000	57.119470
3774.000000	57.146172
3773.000000	57.174948
3772.000000	57.208040
3771.000000	57.239404
3770.000000	57.262712
3769.000000	57.281085
3768.000000	57.302003
3767.000000	57.328195
3766.000000	57.356198
3765.000000	57.380657
3764.000000	57.403044
3763.000000	57.430704
3762.000000	57.465030
3761.000000	57.499416
3760.000000	57.528532
3759.000000	57.556627
3758.000000	57.586006
3757.000000	57.611888
3756.000000	57.633109
3755.000000	57.653545
3754.000000	57.674917
3753.000000	57.692464
3752.000000	57.704073
3751.000000	57.718362
3750.000000	57.739088
3749.000000	57.757076
3748.000000	57.771243
3747.000000	57.795952
3746.000000	57.835715
3745.000000	57.872530
3744.000000	57.901955
3743.000000	57.941822
3742.000000	57.991165
3741.000000	58.031270
3740.000000	58.054748
3739.000000	58.076330
3738.000000	58.113323
3737.000000	58.161322
3736.000000	58.203920
3735.000000	58.234860
3734.000000	58.264975
3733.000000	58.302864
3732.000000	58.344312
3731.000000	58.383827
3730.000000	58.422051
3729.000000	58.463267
3728.000000	58.508321
3727.000000	58.551599
3726.000000	58.591294
3725.000000	58.631838
3724.000000	58.674684
3723.000000	58.714921
3722.000000	58.749911
3721.000000	58.784693
3720.000000	58.823199
3719.000000	58.865073
3718.000000	58.904395
3717.000000	58.936421
3716.000000	58.964578
3715.000000	58.993150
3714.000000	59.021734
3713.000000	59.046691
3712.000000	59.068819
3711.000000	59.095933
3710.000000	59.133995
3709.000000	59.181651
3708.000000	59.231386
3707.000000	59.276456
3706.000000	59.317094
3705.000000	59.357781
3704.000000	59.400984
3703.000000	59.444555
3702.000000	59.485823
3701.000000	59.525985
3700.000000	59.567302
3699.000000	59.611210
3698.000000	59.656690
3697.000000	59.699407
3696.000000	59.736994
3695.000000	59.770665
3694.000000	59.800667
3693.000000	59.826985
3692.000000	59.851800
3691.000000	59.878070
3690.000000	59.906384
3689.000000	59.938205
3688.000000	59.975246
3687.000000	60.014743
3686.000000	60.054509
3685.000000	60.093547
3684.000000	60.129887
3683.000000	60.165904
3682.000000	60.207807
3681.000000	60.252591
3680.000000	60.288704
3679.000000	60.310440
3678.000000	60.327542
3677.000000	60.347503
3676.000000	60.364136
3675.000000	60.380835
3674.000000	60.407453
3673.000000	60.443993
3672.000000	60.483932
3671.000000	60.522414
3670.000000	60.563557
3669.000000	60.621395
3668.000000	60.697767
3667.000000	60.774943
3666.000000	60.837830
3665.000000	60.888585
3664.000000	60.938633
3663.000000	60.996253
3662.000000	61.057971
3661.000000	61.112311
3660.000000	61.154514
3659.000000	61.187842
3658.000000	61.217581
3657.000000	61.243800
3656.000000	61.266465
3655.000000	61.289987
3654.000000	61.315878
3653.000000	61.341061
3652.000000	61.361070
3651.000000	61.371752
3650.000000	61.376846
3649.000000	61.393244
3648.000000	61.434763
3647.000000	61.495521
3646.000000	61.560054
3645.000000	61.621427
3644.000000	61.681745
3643.000000	61.744285
3642.000000	61.807411
3641.000000	61.868786
3640.000000	61.928369
3639.000000	61.984202
3638.000000	62.032987
3637.000000	62.074714
3636.000000	62.113809
3635.000000	62.151254
3634.000000	62.182181
3633.000000	62.204987
3632.000000	62.224106
3631.000000	62.242395
3630.000000	62.255296
3629.000000	62.267407
3628.000000	62.301294
3627.000000	62.365257
3626.000000	62.438632
3625.000000	62.500846
3624.000000	62.550083
3623.000000	62.597294
3622.000000	62.650388
3621.000000	62.702842
3620.000000	62.740901
3619.000000	62.762684
3618.000000	62.780277
3617.000000	62.803286
3616.000000	62.832891
3615.000000	62.865316
3614.000000	62.896319
3613.000000	62.926250
3612.000000	62.960306
3611.000000	63.001956
3610.000000	63.050459
3609.000000	63.104444
3608.000000	63.163390
3607.000000	63.227378
3606.000000	63.293462
3605.000000	63.355433
3604.000000	63.409968
3603.000000	63.458902
3602.000000	63.507149
3601.000000	63.557212
3600.000000	63.607822
3599.000000	63.655293
3598.000000	63.696877
3597.000000	63.732521
3596.000000	63.766842
3595.000000	63.803338
3594.000000	63.842539
3593.000000	63.882901
3592.000000	63.921019
3591.000000	63.955329
3590.000000	63.988668
3589.000000	64.026104
3588.000000	64.071504
3587.000000	64.127666
3586.000000	64.193844
3585.000000	64.263479
3584.000000	64.328539
3583.000000	64.385855
3582.000000	64.437639
3581.000000	64.486674
3580.000000	64.533888
3579.000000	64.579049
3578.000000	64.622874
3577.000000	64.667032
3576.000000	64.712904
3575.000000	64.761566
3574.000000	64.812903
3573.000000	64.865401
3572.000000	64.915352
3571.000000	64.958460
3570.000000	64.992386
3569.000000	65.017927
3568.000000	65.039384
3567.000000	65.066004
3566.000000	65.107097
3565.000000	65.163234
3564.000000	65.227410
3563.000000	65.293687
3562.000000	65.360079
3561.000000	65.426219
3560.000000	65.491210
3559.000000	65.554232
3558.000000	65.614773
3557.000000	65.672036
3556.000000	65.725175
3555.000000	65.774737
3554.000000	65.821807
3553.000000	65.866402
3552.000000	65.908204
3551.000000	65.948010
3550.000000	65.987591
3549.000000	66.029731
3548.000000	66.077593
3547.000000	66.133721
3546.000000	66.197059
3545.000000	66.262944
3544.000000	66.326418
3543.000000	66.385150
3542.000000	66.438682
3541.000000	66.487830
3540.000000	66.535180
3539.000000	66.584086
3538.000000	66.635663
3537.000000	66.686902
3536.000000	66.734457
3535.000000	66.778122
3534.000000	66.820981
3533.000000	66.865778
3532.000000	66.913138
3531.000000	66.962156
3530.000000	67.010794
3529.000000	67.057109
3528.000000	67.101561
3527.000000	67.147828
3526.000000	67.199215
3525.000000	67.254207
3524.000000	67.306892
3523.000000	67.352752
3522.000000	67.393029
3521.000000	67.433200
3520.000000	67.477802
3519.000000	67.526948
3518.000000	67.578251
3517.000000	67.630336
3516.000000	67.683440
3515.000000	67.736121
3514.000000	67.784216
3513.000000	67.824056
3512.000000	67.855962
3511.000000	67.883872
3510.000000	67.912283
3509.000000	67.943922
3508.000000	67.979493
3507.000000	68.018577
3506.000000	68.060114
3505.000000	68.102710
3504.000000	68.144809
3503.000000	68.184733
3502.000000	68.220924
3501.000000	68.253240
3500.000000	68.283925
3499.000000	68.315380
3498.000000	68.347238
3497.000000	68.376945
3496.000000	68.403351
3495.000000	68.427692
3494.000000	68.450848
3493.000000	68.471800
3492.000000	68.489593
3491.000000	68.505286
3490.000000	68.520992
3489.000000	68.537745
3488.000000	68.554666
3487.000000	68.569637
3486.000000	68.580561
3485.000000	68.586867
3484.000000	68.591101
3483.000000	68.597890
3482.000000	68.610062
3481.000000	68.625676
3480.000000	68.638836
3479.000000	68.643852
3478.000000	68.638763
3477.000000	68.626022
3476.000000	68.610313
3475.000000	68.595461
3474.000000	68.583329
3473.000000	68.575128
3472.000000	68.572413
3471.000000	68.575113
3470.000000	68.578943
3469.000000	68.576606
3468.000000	68.561977
3467.000000	68.533386
3466.000000	68.493681
3465.000000	68.448211
3464.000000	68.402789
3463.000000	68.361490
3462.000000	68.324802
3461.000000	68.289682
3460.000000	68.251805
3459.000000	68.208369
3458.000000	68.159351
3457.000000	68.106812
3456.000000	68.053640
3455.000000	68.001482
3454.000000	67.949970
3453.000000	67.897207
3452.000000	67.841661
3451.000000	67.783079
3450.000000	67.721005
3449.000000	67.653881
3448.000000	67.580831
3447.000000	67.503611
3446.000000	67.425174
3445.000000	67.346454
3444.000000	67.265843
3443.000000	67.181958
3442.000000	67.095822
3441.000000	67.010552
3440.000000	66.929165
3439.000000	66.851881
3438.000000	66.774902
3437.000000	66.691645
3436.000000	66.596400
3435.000000	66.486868
3434.000000	66.364652
3433.000000	66.234189
3432.000000	66.100756
3431.000000	65.967446
3430.000000	65.832517
3429.000000	65.691417
3428.000000	65.542205
3427.000000	65.387438
3426.000000	65.230727
3425.000000	65.073498
3424.000000	64.915392
3423.000000	64.755433
3422.000000	64.591502
3421.000000	64.420812
3420.000000	64.242250
3419.000000	64.056890
3418.000000	63.866171
3417.000000	63.670958
3416.000000	63.472480
3415.000000	63.271757
3414.000000	63.067165
3413.000000	62.855237
3412.000000	62.634544
3411.000000	62.406987
3410.000000	62.174296
3409.000000	61.935244
3408.000000	61.687841
3407.000000	61.432362
3406.000000	61.171276
3405.000000	60.907647
3404.000000	60.643799
3403.000000	60.379363
3402.000000	60.109345
3401.000000	59.825726
3400.000000	59.522891
3399.000000	59.201624
3398.000000	58.868473
3397.000000	58.531859
3396.000000	58.197620
3395.000000	57.866387
3394.000000	57.533608
3393.000000	57.192630
3392.000000	56.838161
3391.000000	56.467682
3390.000000	56.082112
3389.000000	55.685659
3388.000000	55.283942
3387.000000	54.880237
3386.000000	54.473766
3385.000000	54.062738
3384.000000	53.647344
3383.000000	53.228818
3382.000000	52.807016
3381.000000	52.380458
3380.000000	51.948185
3379.000000	51.510007
3378.000000	51.065838
3377.000000	50.616042
3376.000000	50.161516
3375.000000	49.703148
3374.000000	49.241994
3373.000000	48.780156
3372.000000	48.319607
3371.000000	47.858951
3370.000000	47.393381
3369.000000	46.918713
3368.000000	46.434473
3367.000000	45.943019
3366.000000	45.447654
3365.000000	44.952431
3364.000000	44.461244
3363.000000	43.975301
3362.000000	43.492563
3361.000000	43.010379
3360.000000	42.527528
3359.000000	42.043500
3358.000000	41.557900
3357.000000	41.071598
3356.000000	40.586904
3355.000000	40.105872
3354.000000	39.629728
3353.000000	39.159835
3352.000000	38.696910
3351.000000	38.239101
3350.000000	37.783081
3349.000000	37.327889
3348.000000	36.875967
3347.000000	36.429826
3346.000000	35.990002
3345.000000	35.556072
3344.000000	35.127397
3343.000000	34.702727
3342.000000	34.281299
3341.000000	33.865007
3340.000000	33.456960
3339.000000	33.057639
3338.000000	32.664988
3337.000000	32.278053
3336.000000	31.898189
3335.000000	31.526323
3334.000000	31.161646
3333.000000	30.803703
3332.000000	30.452726
3331.000000	30.107808
3330.000000	29.767220
3329.000000	29.430997
3328.000000	29.101400
3327.000000	28.779919
3326.000000	28.466267
3325.000000	28.160326
3324.000000	27.862535
3323.000000	27.572476
3322.000000	27.289000
3321.000000	27.012083
3320.000000	26.742598
3319.000000	26.479894
3318.000000	26.222407
3317.000000	25.969988
3316.000000	25.723735
3315.000000	25.483946
3314.000000	25.250219
3313.000000	25.023538
3312.000000	24.805588
3311.000000	24.596310
3310.000000	24.394724
3309.000000	24.201170
3308.000000	24.016880
3307.000000	23.841467
3306.000000	23.673159
3305.000000	23.511471
3304.000000	23.356789
3303.000000	23.208680
3302.000000	23.066665
3301.000000	22.931988
3300.000000	22.806546
3299.000000	22.690256
3298.000000	22.581918
3297.000000	22.481545
3296.000000	22.389299
3295.000000	22.303766
3294.000000	22.223398
3293.000000	22.148988
3292.000000	22.082120
3291.000000	22.021814
3290.000000	21.966043
3289.000000	21.914849
3288.000000	21.869621
3287.000000	21.830258
3286.000000	21.795448
3285.000000	21.765255
3284.000000	21.740173
3283.000000	21.718743
3282.000000	21.698781
3281.000000	21.680121
3280.000000	21.663937
3279.000000	21.650103
3278.000000	21.637900
3277.000000	21.628205
3276.000000	21.622128
3275.000000	21.618625
3274.000000	21.616046
3273.000000	21.615092
3272.000000	21.617448
3271.000000	21.622303
3270.000000	21.627142
3269.000000	21.631163
3268.000000	21.635291
3267.000000	21.639663
3266.000000	21.643778
3265.000000	21.648495
3264.000000	21.655242
3263.000000	21.663732
3262.000000	21.672830
3261.000000	21.682856
3260.000000	21.694710
3259.000000	21.707641
3258.000000	21.720167
3257.000000	21.732348
3256.000000	21.744805
3255.000000	21.756703
3254.000000	21.767070
3253.000000	21.777033
3252.000000	21.788380
3251.000000	21.800964
3250.000000	21.813878
3249.000000	21.827934
3248.000000	21.844288
3247.000000	21.861643
3246.000000	21.877433
3245.000000	21.891022
3244.000000	21.903467
3243.000000	21.915080
3242.000000	21.925735
3241.000000	21.936546
3240.000000	21.948708
3239.000000	21.961491
3238.000000	21.973712
3237.000000	21.986193
3236.000000	22.000521
3235.000000	22.016244
3234.000000	22.031438
3233.000000	22.045078
3232.000000	22.056871
3231.000000	22.066018
3230.000000	22.072384
3229.000000	22.077774
3228.000000	22.083940
3227.000000	22.090363
3226.000000	22.095953
3225.000000	22.101484
3224.000000	22.108121
3223.000000	22.115058
3222.000000	22.120866
3221.000000	22.125852
3220.000000	22.130685
3219.000000	22.134082
3218.000000	22.134383
3217.000000	22.132142
3216.000000	22.128754
3215.000000	22.123914
3214.000000	22.116743
3213.000000	22.108237
3212.000000	22.100085
3211.000000	22.092229
3210.000000	22.083824
3209.000000	22.075314
3208.000000	22.067296
3207.000000	22.058498
3206.000000	22.047156
3205.000000	22.033402
3204.000000	22.018088
3203.000000	22.000625
3202.000000	21.980148
3201.000000	21.957609
3200.000000	21.934540
3199.000000	21.910823
3198.000000	21.885838
3197.000000	21.860543
3196.000000	21.836211
3195.000000	21.812320
3194.000000	21.787636
3193.000000	21.762165
3192.000000	21.736173
3191.000000	21.708568
3190.000000	21.678324
3189.000000	21.646176
3188.000000	21.613084
3187.000000	21.578550
3186.000000	21.542247
3185.000000	21.505788
3184.000000	21.470776
3183.000000	21.436714
3182.000000	21.402743
3181.000000	21.369675
3180.000000	21.338293
3179.000000	21.307352
3178.000000	21.275353
3177.000000	21.242713
3176.000000	21.210159
3175.000000	21.176719
3174.000000	21.141471
3173.000000	21.105623
3172.000000	21.070797
3171.000000	21.036837
3170.000000	21.003363
3169.000000	20.971733
3168.000000	20.943292
3167.000000	20.917194
3166.000000	20.892013
3165.000000	20.867880
3164.000000	20.845061
3163.000000	20.822246
3162.000000	20.798287
3161.000000	20.774120
3160.000000	20.751036
3159.000000	20.728694
3158.000000	20.706669
3157.000000	20.686169
3156.000000	20.668418
3155.000000	20.652991
3154.000000	20.639385
3153.000000	20.628342
3152.000000	20.619808
3151.000000	20.611730
3150.000000	20.602760
3149.000000	20.594149
3148.000000	20.587222
3147.000000	20.581050
3146.000000	20.574638
3145.000000	20.569229
3144.000000	20.566314
3143.000000	20.565444
3142.000000	20.565995
3141.000000	20.569069
3140.000000	20.575384
3139.000000	20.583128
3138.000000	20.590277
3137.000000	20.597226
3136.000000	20.605202
3135.000000	20.614045
3134.000000	20.623578
3133.000000	20.635278
3132.000000	20.650229
3131.000000	20.667159
3130.000000	20.684506
3129.000000	20.702615
3128.000000	20.722210
3127.000000	20.742606
3126.000000	20.763247
3125.000000	20.785112
3124.000000	20.808764
3123.000000	20.833062
3122.000000	20.857454
3121.000000	20.883518
3120.000000	20.912574
3119.000000	20.943684
3118.000000	20.975795
3117.000000	21.009562
3116.000000	21.045193
3115.000000	21.080799
3114.000000	21.114900
3113.000000	21.148651
3112.000000	21.183759
3111.000000	21.220149
3110.000000	21.257367
3109.000000	21.296091
3108.000000	21.336672
3107.000000	21.378215
3106.000000	21.420606
3105.000000	21.465365
3104.000000	21.512974
3103.000000	21.561673
3102.000000	21.610253
3101.000000	21.659674
3100.000000	21.710441
3099.000000	21.760804
3098.000000	21.809558
3097.000000	21.858235
3096.000000	21.908582
3095.000000	21.960211
3094.000000	22.012620
3093.000000	22.067221
3092.000000	22.125176
3091.000000	22.185144
3090.000000	22.245204
3089.000000	22.305219
3088.000000	22.365588
3087.000000	22.425584
3086.000000	22.484627
3085.000000	22.543454
3084.000000	22.602440
3083.000000	22.660798
3082.000000	22.718941
3081.000000	22.779445
3080.000000	22.843951
3079.000000	22.910988
3078.000000	22.978415
3077.000000	23.045848
3076.000000	23.113196
3075.000000	23.179256
3074.000000	23.243628
3073.000000	23.307902
3072.000000	23.373244
3071.000000	23.438799
3070.000000	23.504047
3069.000000	23.570547
3068.000000	23.639532
3067.000000	23.709865
3066.000000	23.780150
3065.000000	23.850839
3064.000000	23.922421
3063.000000	23.993560
3062.000000	24.062952
3061.000000	24.131259
3060.000000	24.199498
3059.000000	24.267353
3058.000000	24.334687
3057.000000	24.402822
3056.000000	24.472626
3055.000000	24.543132
3054.000000	24.613784
3053.000000	24.686028
3052.000000	24.760846
3051.000000	24.836467
3050.000000	24.910364
3049.000000	24.982020
3048.000000	25.052130
3047.000000	25.120781
3046.000000	25.188266
3045.000000	25.256138
3044.000000	25.325676
3043.000000	25.396527
3042.000000	25.468114
3041.000000	25.540847
3040.000000	25.614641
3039.000000	25.688013
3038.000000	25.760152
3037.000000	25.832147
3036.000000	25.904747
3035.000000	25.976543
3034.000000	26.045932
3033.000000	26.113372
3032.000000	26.180294
3031.000000	26.247382
3030.000000	26.315266
3029.000000	26.385208
3028.000000	26.457700
3027.000000	26.531774
3026.000000	26.606634
3025.000000	26.682267
3024.000000	26.757624
3023.000000	26.830341
3022.000000	26.899608
3021.000000	26.967410
3020.000000	27.035709
3019.000000	27.104331
3018.000000	27.172823
3017.000000	27.242332
3016.000000	27.313984
3015.000000	27.387162
3014.000000	27.460878
3013.000000	27.535196
3012.000000	27.609858
3011.000000	27.683176
3010.000000	27.753823
3009.000000	27.822375
3008.000000	27.889881
3007.000000	27.956458
3006.000000	28.022375
3005.000000	28.088915
3004.000000	28.156939
3003.000000	28.226009
3002.000000	28.295929
3001.000000	28.367562
3000.000000	28.440997
2999.000000	28.514442
2998.000000	28.586017
2997.000000	28.655384
2996.000000	28.722857
2995.000000	28.788623
2994.000000	28.853757
2993.000000	28.920200
2992.000000	28.988664
2991.000000	29.058066
2990.000000	29.127810
2989.000000	29.198782
2988.000000	29.271187
2987.000000	29.343380
2986.000000	29.413958
2985.000000	29.483265
2984.000000	29.551749
2983.000000	29.618745
2982.000000	29.684075
2981.000000	29.749060
2980.000000	29.814761
2979.000000	29.880893
2978.000000	29.947563
2977.000000	30.016242
2976.000000	30.087716
2975.000000	30.160640
2974.000000	30.233246
2973.000000	30.304937
2972.000000	30.375296
2971.000000	30.443405
2970.000000	30.509403
2969.000000	30.575089
2968.000000	30.641767
2967.000000	30.709075
2966.000000	30.776869
2965.000000	30.846389
2964.000000	30.918270
2963.000000	30.991141
2962.000000	31.063423
2961.000000	31.134849
2960.000000	31.205130
2959.000000	31.273015
2958.000000	31.337846
2957.000000	31.400452
2956.000000	31.461589
2955.000000	31.521383
2954.000000	31.581034
2953.000000	31.642799
2952.000000	31.707199
2951.000000	31.772363
2950.000000	31.837183
2949.000000	31.902831
2948.000000	31.970027
2947.000000	32.037170
2946.000000	32.102670
2945.000000	32.167012
2944.000000	32.231055
2943.000000	32.294328
2942.000000	32.356680
2941.000000	32.419800
2940.000000	32.485371
2939.000000	32.553187
2938.000000	32.622431
2937.000000	32.693160
2936.000000	32.765042
2935.000000	32.836249
2934.000000	32.905244
2933.000000	32.972482
2932.000000	33.039070
2931.000000	33.105159
2930.000000	33.170839
2929.000000	33.237176
2928.000000	33.305166
2927.000000	33.374947
2926.000000	33.446872
2925.000000	33.521573
2924.000000	33.597900
2923.000000	33.672463
2922.000000	33.742248
2921.000000	33.806197
2920.000000	33.863650
2919.000000	33.913498
2918.000000	33.956008
2917.000000	33.993629
2916.000000	34.028892
2915.000000	34.062945
2914.000000	34.096864
2913.000000	34.132378
2912.000000	34.170444
2911.000000	34.210663
2910.000000	34.252924
2909.000000	34.297914
2908.000000	34.345213
2907.000000	34.392664
2906.000000	34.438668
2905.000000	34.483535
2904.000000	34.528054
2903.000000	34.572241
2902.000000	34.617073
2901.000000	34.664549
2900.000000	34.715786
2899.000000	34.770104
2898.000000	34.826267
2897.000000	34.883352
2896.000000	34.939553
2895.000000	34.992304
2894.000000	35.040661
2893.000000	35.086158
2892.000000	35.130507
2891.000000	35.174102
2890.000000	35.217461
2889.000000	35.262273
2888.000000	35.309813
2887.000000	35.359791
2886.000000	35.411628
2885.000000	35.465362
2884.000000	35.520407
2883.000000	35.574940
2882.000000	35.627552
2881.000000	35.678205
2880.000000	35.726987
2879.000000	35.773656
2878.000000	35.819445
2877.000000	35.867614
2876.000000	35.920608
2875.000000	35.977435
2874.000000	36.034739
2873.000000	36.089629
2872.000000	36.141040
2871.000000	36.189733
2870.000000	36.237757
2869.000000	36.286834
2868.000000	36.336502
2867.000000	36.384749
2866.000000	36.430839
2865.000000	36.476383
2864.000000	36.523596
2863.000000	36.573849
2862.000000	36.628038
2861.000000	36.686384
2860.000000	36.747231
2859.000000	36.807797
2858.000000	36.866846
2857.000000	36.925276
2856.000000	36.983800
2855.000000	37.041833
2854.000000	37.099060
2853.000000	37.156135
2852.000000	37.213057
2851.000000	37.268358
2850.000000	37.320438
2849.000000	37.368145
2848.000000	37.409991
2847.000000	37.445028
2846.000000	37.475108
2845.000000	37.504322
2844.000000	37.535599
2843.000000	37.569356
2842.000000	37.605542
2841.000000	37.644417
2840.000000	37.684523
2839.000000	37.722632
2838.000000	37.757550
2837.000000	37.792311
2836.000000	37.831217
2835.000000	37.876008
2834.000000	37.925759
2833.000000	37.978678
2832.000000	38.032535
2831.000000	38.084675
2830.000000	38.133390
2829.000000	38.178798
2828.000000	38.221669
2827.000000	38.262490
2826.000000	38.302402
2825.000000	38.343765
2824.000000	38.388699
2823.000000	38.437852
2822.000000	38.491091
2821.000000	38.548075
2820.000000	38.607298
2819.000000	38.665863
2818.000000	38.721239
2817.000000	38.772478
2816.000000	38.819297
2815.000000	38.861455
2814.000000	38.899996
2813.000000	38.937758
2812.000000	38.977425
2811.000000	39.019769
2810.000000	39.064484
2809.000000	39.111643
2808.000000	39.161345
2807.000000	39.212726
2806.000000	39.264117
2805.000000	39.313594
2804.000000	39.359049
2803.000000	39.398911
2802.000000	39.433611
2801.000000	39.465495
2800.000000	39.496706
2799.000000	39.527994
2798.000000	39.560061
2797.000000	39.594749
2796.000000	39.633941
2795.000000	39.678041
2794.000000	39.726022
2793.000000	39.776014
2792.000000	39.825281
2791.000000	39.870739
2790.000000	39.910529
2789.000000	39.944872
2788.000000	39.975329
2787.000000	40.004137
2786.000000	40.034307
2785.000000	40.068828
2784.000000	40.108837
2783.000000	40.153235
2782.000000	40.200369
2781.000000	40.249032
2780.000000	40.297526
2779.000000	40.343238
2778.000000	40.384030
2777.000000	40.419237
2776.000000	40.448942
2775.000000	40.473346
2774.000000	40.493592
2773.000000	40.512118
2772.000000	40.531174
2771.000000	40.551551
2770.000000	40.573027
2769.000000	40.594928
2768.000000	40.615681
2767.000000	40.632725
2766.000000	40.643844
2765.000000	40.648168
2764.000000	40.645743
2763.000000	40.637286
2762.000000	40.624781
2761.000000	40.611350
2760.000000	40.599816
2759.000000	40.591814
2758.000000	40.588397
2757.000000	40.590160
2756.000000	40.596079
2755.000000	40.603227
2754.000000	40.608289
2753.000000	40.608829
2752.000000	40.603035
2751.000000	40.589698
2750.000000	40.569162
2749.000000	40.543236
2748.000000	40.513631
2747.000000	40.481143
2746.000000	40.446636
2745.000000	40.411539
2744.000000	40.376454
2743.000000	40.340411
2742.000000	40.302158
2741.000000	40.261293
2740.000000	40.217851
2739.000000	40.172080
2738.000000	40.125604
2737.000000	40.082183
2736.000000	40.046515
2735.000000	40.022836
2734.000000	40.014981
2733.000000	40.025916
2732.000000	40.056472
2731.000000	40.105108
2730.000000	40.168927
2729.000000	40.244533
2728.000000	40.327397
2727.000000	40.412120
2726.000000	40.494727
2725.000000	40.573925
2724.000000	40.650255
2723.000000	40.724857
2722.000000	40.799241
2721.000000	40.875126
2720.000000	40.953453
2719.000000	41.033937
2718.000000	41.115610
2717.000000	41.196878
2716.000000	41.274897
2715.000000	41.346199
2714.000000	41.408381
2713.000000	41.460713
2712.000000	41.503204
2711.000000	41.536060
2710.000000	41.560765
2709.000000	41.580376
2708.000000	41.598121
2707.000000	41.616280
2706.000000	41.636057
2705.000000	41.657575
2704.000000	41.679383
2703.000000	41.698893
2702.000000	41.714063
2701.000000	41.724017
2700.000000	41.728343
2699.000000	41.726953
2698.000000	41.720986
2697.000000	41.712909
2696.000000	41.705120
2695.000000	41.699247
2694.000000	41.696756
2693.000000	41.698779
2692.000000	41.704747
2691.000000	41.712177
2690.000000	41.718423
2689.000000	41.721897
2688.000000	41.721489
2687.000000	41.716220
2686.000000	41.706260
2685.000000	41.693527
2684.000000	41.680629
2683.000000	41.669737
2682.000000	41.662565
2681.000000	41.660244
2680.000000	41.662546
2679.000000	41.667929
2678.000000	41.674746
2677.000000	41.681724
2676.000000	41.687404
2675.000000	41.690352
2674.000000	41.690395
2673.000000	41.688965
2672.000000	41.688001
2671.000000	41.689544
2670.000000	41.696275
2669.000000	41.710831
2668.000000	41.733866
2667.000000	41.763409
2666.000000	41.796385
2665.000000	41.829841
2664.000000	41.860592
2663.000000	41.885314
2662.000000	41.901876
2661.000000	41.909978
2660.000000	41.910590
2659.000000	41.905885
2658.000000	41.899671
2657.000000	41.896377
2656.000000	41.898718
2655.000000	41.906945
2654.000000	41.920395
2653.000000	41.938411
2652.000000	41.959406
2651.000000	41.980657
2650.000000	42.000029
2649.000000	42.017100
2648.000000	42.032597
2647.000000	42.047947
2646.000000	42.065983
2645.000000	42.090921
2644.000000	42.126280
2643.000000	42.173520
2642.000000	42.232449
2641.000000	42.301587
2640.000000	42.377789
2639.000000	42.456370
2638.000000	42.532817
2637.000000	42.603936
2636.000000	42.667391
2635.000000	42.721487
2634.000000	42.766133
2633.000000	42.803211
2632.000000	42.835465
2631.000000	42.865583
2630.000000	42.896021
2629.000000	42.928682
2628.000000	42.963825
2627.000000	42.999805
2626.000000	43.034385
2625.000000	43.065501
2624.000000	43.091123
2623.000000	43.109558
2622.000000	43.120525
2621.000000	43.125419
2620.000000	43.125937
2619.000000	43.123399
2618.000000	43.119419
2617.000000	43.115953
2616.000000	43.114130
2615.000000	43.113362
2614.000000	43.112039
2613.000000	43.108303
2612.000000	43.099933
2611.000000	43.084852
2610.000000	43.062305
2609.000000	43.033212
2608.000000	42.999382
2607.000000	42.963228
2606.000000	42.928489
2605.000000	42.899880
2604.000000	42.881176
2603.000000	42.874198
2602.000000	42.879854
2601.000000	42.898391
2600.000000	42.928363
2599.000000	42.966428
2598.000000	43.008904
2597.000000	43.053522
2596.000000	43.098933
2595.000000	43.144066
2594.000000	43.188797
2593.000000	43.234243
2592.000000	43.281961
2591.000000	43.332853
2590.000000	43.387140
2589.000000	43.444619
2588.000000	43.504337
2587.000000	43.564747
2586.000000	43.624522
2585.000000	43.682929
2584.000000	43.739474
2583.000000	43.793953
2582.000000	43.847150
2581.000000	43.900709
2580.000000	43.956070
2579.000000	44.014080
2578.000000	44.075590
2577.000000	44.141468
2576.000000	44.211465
2575.000000	44.283685
2574.000000	44.355560
2573.000000	44.424913
2572.000000	44.490140
2571.000000	44.550308
2570.000000	44.605566
2569.000000	44.656958
2568.000000	44.705657
2567.000000	44.752536
2566.000000	44.798417
2565.000000	44.844024
2564.000000	44.888986
2563.000000	44.931558
2562.000000	44.969041
2561.000000	44.998239
2560.000000	45.015884
2559.000000	45.019137
2558.000000	45.006918
2557.000000	44.980157
2556.000000	44.941210
2555.000000	44.894058
2554.000000	44.844654
2553.000000	44.800407
2552.000000	44.768295
2551.000000	44.753265
2550.000000	44.757752
2549.000000	44.781802
2548.000000	44.822773
2547.000000	44.876139
2546.000000	44.937473
2545.000000	45.003068
2544.000000	45.070090
2543.000000	45.136708
2542.000000	45.202621
2541.000000	45.268859
2540.000000	45.336178
2539.000000	45.404325
2538.000000	45.472524
2537.000000	45.539814
2536.000000	45.604630
2535.000000	45.664929
2534.000000	45.719207
2533.000000	45.767234
2532.000000	45.809748
2531.000000	45.847808
2530.000000	45.882895
2529.000000	45.916890
2528.000000	45.951615
2527.000000	45.988494
2526.000000	46.028398
2525.000000	46.071361
2524.000000	46.116178
2523.000000	46.160768
2522.000000	46.203203
2521.000000	46.242139
2520.000000	46.276612
2519.000000	46.306118
2518.000000	46.331226
2517.000000	46.353705
2516.000000	46.375670
2515.000000	46.398907
2514.000000	46.424804
2513.000000	46.454199
2512.000000	46.486936
2511.000000	46.521799
2510.000000	46.557089
2509.000000	46.591074
2508.000000	46.622091
2507.000000	46.648927
2506.000000	46.671420
2505.000000	46.690495
2504.000000	46.707494
2503.000000	46.723701
2502.000000	46.740525
2501.000000	46.759493
2500.000000	46.781696
2499.000000	46.807284
2498.000000	46.835435
2497.000000	46.864555
2496.000000	46.892604
2495.000000	46.917850
2494.000000	46.939512
2493.000000	46.957564
2492.000000	46.972187
2491.000000	46.983862
2490.000000	46.993980
2489.000000	47.004773
2488.000000	47.018248
2487.000000	47.035328
2486.000000	47.055768
2485.000000	47.078365
2484.000000	47.101308
2483.000000	47.122911
2482.000000	47.142321
2481.000000	47.159335
2480.000000	47.173737
2479.000000	47.185382
2478.000000	47.194950
2477.000000	47.204073
2476.000000	47.214416
2475.000000	47.226826
2474.000000	47.241352
2473.000000	47.257538
2472.000000	47.274585
2471.000000	47.291669
2470.000000	47.308286
2469.000000	47.324062
2468.000000	47.338353
2467.000000	47.350551
2466.000000	47.360847
2465.000000	47.370257
2464.000000	47.379816
2463.000000	47.390164
2462.000000	47.401890
2461.000000	47.415604
2460.000000	47.431300
2459.000000	47.448033
2458.000000	47.464452
2457.000000	47.479496
2456.000000	47.492615
2455.000000	47.503847
2454.000000	47.513855
2453.000000	47.523574
2452.000000	47.533664
2451.000000	47.544542
2450.000000	47.556826
2449.000000	47.571184
2448.000000	47.587610
2447.000000	47.605218
2446.000000	47.622818
2445.000000	47.639334
2444.000000	47.653801
2443.000000	47.665660
2442.000000	47.675292
2441.000000	47.683815
2440.000000	47.692224
2439.000000	47.701159
2438.000000	47.711543
2437.000000	47.724667
2436.000000	47.741214
2435.000000	47.760566
2434.000000	47.781249
2433.000000	47.801651
2432.000000	47.820229
2431.000000	47.835758
2430.000000	47.847924
2429.000000	47.857433
2428.000000	47.865275
2427.000000	47.872227
2426.000000	47.879292
2425.000000	47.888025
2424.000000	47.899914
2423.000000	47.915575
2422.000000	47.934698
2421.000000	47.956279
2420.000000	47.978610
2419.000000	47.999547
2418.000000	48.017387
2417.000000	48.031457
2416.000000	48.041842
2415.000000	48.049082
2414.000000	48.054500
2413.000000	48.060344
2412.000000	48.068973
2411.000000	48.081853
2410.000000	48.099377
2409.000000	48.121068
2408.000000	48.145465
2407.000000	48.170306
2406.000000	48.193428
2405.000000	48.213525
2404.000000	48.229994
2403.000000	48.242615
2402.000000	48.251967
2401.000000	48.259817
2400.000000	48.268452
2399.000000	48.279646
2398.000000	48.294498
2397.000000	48.313673
2396.000000	48.337051
2395.000000	48.363265
2394.000000	48.390229
2393.000000	48.416205
2392.000000	48.440044
2391.000000	48.460985
2390.000000	48.479065
2389.000000	48.495374
2388.000000	48.511917
2387.000000	48.530575
2386.000000	48.553071
2385.000000	48.581484
2384.000000	48.616800
2383.000000	48.658368
2382.000000	48.703809
2381.000000	48.750585
2380.000000	48.797024
2379.000000	48.841020
2378.000000	48.880544
2377.000000	48.914913
2376.000000	48.944911
2375.000000	48.971861
2374.000000	48.998043
2373.000000	49.027149
2372.000000	49.062538
2371.000000	49.104471
2370.000000	49.149295
2369.000000	49.194026
2368.000000	49.237308
2367.000000	49.277326
2366.000000	49.311703
2365.000000	49.340491
2364.000000	49.368911
2363.000000	49.396819
2362.000000	49.422141
2361.000000	49.450583
2360.000000	49.484100
2359.000000	49.524528
2358.000000	49.568165
2357.000000	49.610571
2356.000000	49.652646
2355.000000	49.689419
2354.000000	49.722981
2353.000000	49.757418
2352.000000	49.800565
2351.000000	49.851645
2350.000000	49.889888
2349.000000	49.906522
2348.000000	49.910318
2347.000000	49.932869
2346.000000	49.990662
2345.000000	50.064764
2344.000000	50.130891
2343.000000	50.173995
2342.000000	50.207894
2341.000000	50.241373
2340.000000	50.272651
2339.000000	50.298007
2338.000000	50.318471
2337.000000	50.338169
2336.000000	50.360854
2335.000000	50.388275
2334.000000	50.425340
2333.000000	50.472505
2332.000000	50.526885
2331.000000	50.586341
2330.000000	50.642888
2329.000000	50.698530
2328.000000	50.745848
2327.000000	50.785014
2326.000000	50.816955
2325.000000	50.842566
2324.000000	50.868132
2323.000000	50.891396
2322.000000	50.917212
2321.000000	50.944520
2320.000000	50.977227
2319.000000	51.017403
2318.000000	51.065858
2317.000000	51.120779
2316.000000	51.176763
2315.000000	51.231182
2314.000000	51.280172
2313.000000	51.322093
2312.000000	51.354391
2311.000000	51.379623
2310.000000	51.401683
2309.000000	51.425113
2308.000000	51.452737
2307.000000	51.486634
2306.000000	51.528207
2305.000000	51.575652
2304.000000	51.626267
2303.000000	51.676632
2302.000000	51.724178
2301.000000	51.766545
2300.000000	51.801987
2299.000000	51.831610
2298.000000	51.857055
2297.000000	51.880899
2296.000000	51.904895
2295.000000	51.931966
2294.000000	51.963981
2293.000000	52.000911
2292.000000	52.041197
2291.000000	52.082939
2290.000000	52.124361
2289.000000	52.162825
2288.000000	52.196679
2287.000000	52.225909
2286.000000	52.252240
2285.000000	52.277098
2284.000000	52.302372
2283.000000	52.330287
2282.000000	52.362782
2281.000000	52.399658
2280.000000	52.439342
2279.000000	52.480171
2278.000000	52.520713
2277.000000	52.559239
2276.000000	52.594019
2275.000000	52.624682
2274.000000	52.651771
2273.000000	52.676610
2272.000000	52.701254
2271.000000	52.728462
2270.000000	52.760209
2269.000000	52.796410
2268.000000	52.835713
2267.000000	52.876569
2266.000000	52.916836
2265.000000	52.953730
2264.000000	52.984823
2263.000000	53.009625
2262.000000	53.029086
2261.000000	53.044506
2260.000000	53.058107
2259.000000	53.072775
2258.000000	53.091197
2257.000000	53.114203
2256.000000	53.141317
2255.000000	53.171268
2254.000000	53.201416
2253.000000	53.227837
2252.000000	53.246630
2251.000000	53.255816
2250.000000	53.254591
2249.000000	53.243117
2248.000000	53.222966
2247.000000	53.197335
2246.000000	53.169807
2245.000000	53.142640
2244.000000	53.117053
2243.000000	53.093532
2242.000000	53.070951
2241.000000	53.046165
2240.000000	53.015611
2239.000000	52.977227
2238.000000	52.930617
2237.000000	52.876584
2236.000000	52.817764
2235.000000	52.758958
2234.000000	52.705880
2233.000000	52.663349
2232.000000	52.634807
2231.000000	52.622110
2230.000000	52.624569
2229.000000	52.638534
2228.000000	52.658844
2227.000000	52.680704
2226.000000	52.699818
2225.000000	52.712247
2224.000000	52.715592
2223.000000	52.710280
2222.000000	52.698939
2221.000000	52.684961
2220.000000	52.672165
2219.000000	52.664667
2218.000000	52.665444
2217.000000	52.674841
2216.000000	52.690990
2215.000000	52.711198
2214.000000	52.732310
2213.000000	52.750652
2212.000000	52.763032
2211.000000	52.767950
2210.000000	52.765591
2209.000000	52.757404
2208.000000	52.746380
2207.000000	52.736861
2206.000000	52.732766
2205.000000	52.735929
2204.000000	52.746336
2203.000000	52.763028
2202.000000	52.783870
2201.000000	52.805202
2200.000000	52.823065
2199.000000	52.834834
2198.000000	52.839381
2197.000000	52.836598
2196.000000	52.827744
2195.000000	52.815782
2194.000000	52.804292
2193.000000	52.795992
2192.000000	52.792357
2191.000000	52.793713
2190.000000	52.798843
2189.000000	52.804991
2188.000000	52.809165
2187.000000	52.809285
2186.000000	52.804057
2185.000000	52.792850
2184.000000	52.776612
2183.000000	52.758303
2182.000000	52.741659
2181.000000	52.729938
2180.000000	52.725894
2179.000000	52.731672
2178.000000	52.747535
2177.000000	52.771206
2176.000000	52.799292
2175.000000	52.828932
2174.000000	52.857792
2173.000000	52.883661
2172.000000	52.905412
2171.000000	52.923873
2170.000000	52.941036
2169.000000	52.959080
2168.000000	52.980529
2167.000000	53.008106
2166.000000	53.043159
2165.000000	53.084640
2164.000000	53.130184
2163.000000	53.177326
2162.000000	53.223134
2161.000000	53.264138
2160.000000	53.298152
2159.000000	53.325672
2158.000000	53.348738
2157.000000	53.369471
2156.000000	53.390493
2155.000000	53.415287
2154.000000	53.446479
2153.000000	53.484175
2152.000000	53.526630
2151.000000	53.571550
2150.000000	53.615969
2149.000000	53.656286
2148.000000	53.690013
2147.000000	53.717067
2146.000000	53.738658
2145.000000	53.756005
2144.000000	53.771269
2143.000000	53.788374
2142.000000	53.811171
2141.000000	53.841362
2140.000000	53.878972
2139.000000	53.923487
2138.000000	53.973168
2137.000000	54.024269
2136.000000	54.072575
2135.000000	54.115452
2134.000000	54.151882
2133.000000	54.181840
2132.000000	54.206925
2131.000000	54.230458
2130.000000	54.255535
2129.000000	54.283566
2128.000000	54.315160
2127.000000	54.350990
2126.000000	54.390567
2125.000000	54.431269
2124.000000	54.469936
2123.000000	54.504740
2122.000000	54.534821
2121.000000	54.559539
2120.000000	54.579428
2119.000000	54.596871
2118.000000	54.614792
2117.000000	54.635561
2116.000000	54.661521
2115.000000	54.694795
2114.000000	54.735229
2113.000000	54.779703
2112.000000	54.824507
2111.000000	54.867262
2110.000000	54.905999
2109.000000	54.938547
2108.000000	54.964299
2107.000000	54.985114
2106.000000	55.003306
2105.000000	55.020172
2104.000000	55.037149
2103.000000	55.056371
2102.000000	55.078484
2101.000000	55.101281
2100.000000	55.121856
2099.000000	55.138372
2098.000000	55.149176
2097.000000	55.152042
2096.000000	55.145648
2095.000000	55.130875
2094.000000	55.109646
2093.000000	55.084249
2092.000000	55.058657
2091.000000	55.038213
2090.000000	55.026314
2089.000000	55.022498
2088.000000	55.024707
2087.000000	55.031770
2086.000000	55.042378
2085.000000	55.053876
2084.000000	55.064299
2083.000000	55.074359
2082.000000	55.086036
2081.000000	55.100519
2080.000000	55.118914
2079.000000	55.143197
2078.000000	55.174777
2077.000000	55.213216
2076.000000	55.257343
2075.000000	55.306573
2074.000000	55.359223
2073.000000	55.411705
2072.000000	55.460998
2071.000000	55.505828
2070.000000	55.544999
2069.000000	55.577530
2068.000000	55.606770
2067.000000	55.641539
2066.000000	55.689848
2065.000000	55.752459
2064.000000	55.824568
2063.000000	55.901716
2062.000000	55.981461
2061.000000	56.061378
2060.000000	56.138770
2059.000000	56.211939
2058.000000	56.279861
2057.000000	56.341551
2056.000000	56.397489
2055.000000	56.450687
2054.000000	56.504311
2053.000000	56.559794
2052.000000	56.618463
2051.000000	56.682118
2050.000000	56.750537
2049.000000	56.820763
2048.000000	56.889658
2047.000000	56.954754
2046.000000	57.012707
2045.000000	57.060587
2044.000000	57.100370
2043.000000	57.139079
2042.000000	57.182653
2041.000000	57.231956
2040.000000	57.285922
2039.000000	57.345402
2038.000000	57.411709
2037.000000	57.484115
2036.000000	57.561041
2035.000000	57.641406
2034.000000	57.722953
2033.000000	57.801227
2032.000000	57.872502
2031.000000	57.936643
2030.000000	57.995276
2029.000000	58.050101
2028.000000	58.103710
2027.000000	58.160017
2026.000000	58.221561
2025.000000	58.288252
2024.000000	58.359560
2023.000000	58.433656
2022.000000	58.505320
2021.000000	58.568897
2020.000000	58.625475
2019.000000	58.683469
2018.000000	58.749382
2017.000000	58.820924
2016.000000	58.891675
2015.000000	58.958754
2014.000000	59.023284
2013.000000	59.087502
2012.000000	59.154205
2011.000000	59.226758
2010.000000	59.306810
2009.000000	59.393040
2008.000000	59.482722
2007.000000	59.573539
2006.000000	59.662508
2005.000000	59.745840
2004.000000	59.822615
2003.000000	59.895059
2002.000000	59.966231
2001.000000	60.037370
2000.000000	60.110188
1999.000000	60.187809
1998.000000	60.267954
1997.000000	60.341908
1996.000000	60.403976
1995.000000	60.459356
1994.000000	60.519609
1993.000000	60.591153
1992.000000	60.670650
1991.000000	60.752067
1990.000000	60.832711
1989.000000	60.913009
1988.000000	60.994168
1987.000000	61.075370
1986.000000	61.153271
1985.000000	61.225292
1984.000000	61.293358
1983.000000	61.360900
1982.000000	61.427920
1981.000000	61.491015
1980.000000	61.549596
1979.000000	61.607216
1978.000000	61.664509
1977.000000	61.718816
1976.000000	61.770748
1975.000000	61.824928
1974.000000	61.881852
1973.000000	61.935130
1972.000000	61.978246
1971.000000	62.009682
1970.000000	62.032743
1969.000000	62.057372
1968.000000	62.097729
1967.000000	62.158928
1966.000000	62.229487
1965.000000	62.293589
1964.000000	62.348036
1963.000000	62.401263
1962.000000	62.458397
1961.000000	62.515953
1960.000000	62.570697
1959.000000	62.623335
1958.000000	62.673041
1957.000000	62.717840
1956.000000	62.760470
1955.000000	62.805902
1954.000000	62.851882
1953.000000	62.891983
1952.000000	62.925513
1951.000000	62.956277
1950.000000	62.985783
1949.000000	63.012450
1948.000000	63.037468
1947.000000	63.063446
1946.000000	63.088364
1945.000000	63.112394
1944.000000	63.147782
1943.000000	63.205392
1942.000000	63.275447
1941.000000	63.337494
1940.000000	63.383592
1939.000000	63.420638
1938.000000	63.454589
1937.000000	63.484868
1936.000000	63.514456
1935.000000	63.552454
1934.000000	63.601866
1933.000000	63.657207
1932.000000	63.713259
1931.000000	63.767997
1930.000000	63.819495
1929.000000	63.858750
1928.000000	63.876096
1927.000000	63.867103
1926.000000	63.836501
1925.000000	63.804915
1924.000000	63.799407
1923.000000	63.832827
1922.000000	63.895226
1921.000000	63.967475
1920.000000	64.039365
1919.000000	64.109674
1918.000000	64.172717
1917.000000	64.220611
1916.000000	64.253559
1915.000000	64.277636
1914.000000	64.290645
1913.000000	64.284649
1912.000000	64.265614
1911.000000	64.257293
1910.000000	64.280153
1909.000000	64.330816
1908.000000	64.395094
1907.000000	64.464188
1906.000000	64.533877
1905.000000	64.600024
1904.000000	64.656902
1903.000000	64.704379
1902.000000	64.744659
1901.000000	64.772220
1900.000000	64.780295
1899.000000	64.770800
1898.000000	64.754432
1897.000000	64.747279
1896.000000	64.761021
1895.000000	64.794355
1894.000000	64.832758
1893.000000	64.860061
1892.000000	64.876472
1891.000000	64.901701
1890.000000	64.945541
1889.000000	64.990859
1888.000000	65.019280
1887.000000	65.033065
1886.000000	65.044206
1885.000000	65.057087
1884.000000	65.069373
1883.000000	65.082957
1882.000000	65.103450
1881.000000	65.130611
1880.000000	65.162173
1879.000000	65.199394
1878.000000	65.240592
1877.000000	65.278542
1876.000000	65.305196
1875.000000	65.315445
1874.000000	65.306559
1873.000000	65.274901
1872.000000	65.217747
1871.000000	65.146314
1870.000000	65.095550
1869.000000	65.098387
1868.000000	65.155269
1867.000000	65.245009
1866.000000	65.342226
1865.000000	65.422164
1864.000000	65.471165
1863.000000	65.494089
1862.000000	65.503470
1861.000000	65.506186
1860.000000	65.506085
1859.000000	65.509972
1858.000000	65.522065
1857.000000	65.537760
1856.000000	65.552156
1855.000000	65.567588
1854.000000	65.586905
1853.000000	65.599439
1852.000000	65.591582
1851.000000	65.562449
1850.000000	65.517374
1849.000000	65.469348
1848.000000	65.442237
1847.000000	65.459377
1846.000000	65.513216
1845.000000	65.559689
1844.000000	65.567572
1843.000000	65.553544
1842.000000	65.544091
1841.000000	65.542087
1840.000000	65.540676
1839.000000	65.538075
1838.000000	65.538834
1837.000000	65.540178
1836.000000	65.529371
1835.000000	65.499866
1834.000000	65.451428
1833.000000	65.379693
1832.000000	65.297611
1831.000000	65.246612
1830.000000	65.241694
1829.000000	65.255374
1828.000000	65.265491
1827.000000	65.272379
1826.000000	65.279246
1825.000000	65.279974
1824.000000	65.273286
1823.000000	65.266271
1822.000000	65.257319
1821.000000	65.235312
1820.000000	65.198382
1819.000000	65.157151
1818.000000	65.121576
1817.000000	65.091827
1816.000000	65.056556
1815.000000	65.004628
1814.000000	64.933145
1813.000000	64.856289
1812.000000	64.799980
1811.000000	64.771328
1810.000000	64.757074
1809.000000	64.745355
1808.000000	64.733465
1807.000000	64.721264
1806.000000	64.702303
1805.000000	64.666658
1804.000000	64.611928
1803.000000	64.556997
1802.000000	64.527347
1801.000000	64.526706
1800.000000	64.532680
1799.000000	64.516614
1798.000000	64.473150
1797.000000	64.422116
1796.000000	64.389319
1795.000000	64.384137
1794.000000	64.391322
1793.000000	64.397760
1792.000000	64.407722
1791.000000	64.427334
1790.000000	64.456323
1789.000000	64.485464
1788.000000	64.501113
1787.000000	64.489020
1786.000000	64.439094
1785.000000	64.349213
1784.000000	64.228102
1783.000000	64.103577
1782.000000	64.004954
1781.000000	63.939346
1780.000000	63.896132
1779.000000	63.855450
1778.000000	63.797029
1777.000000	63.709887
1776.000000	63.614371
1775.000000	63.546489
1774.000000	63.516315
1773.000000	63.501870
1772.000000	63.476698
1771.000000	63.434693
1770.000000	63.384571
1769.000000	63.334055
1768.000000	63.284792
1767.000000	63.239073
1766.000000	63.198894
1765.000000	63.164768
1764.000000	63.139683
1763.000000	63.120108
1762.000000	63.083466
1761.000000	63.014715
1760.000000	62.932094
1759.000000	62.864012
1758.000000	62.815251
1757.000000	62.751044
1756.000000	62.657348
1755.000000	62.554888
1754.000000	62.449712
1753.000000	62.316221
1752.000000	62.139582
1751.000000	61.961606
1750.000000	61.838705
1749.000000	61.777832
1748.000000	61.747864
1747.000000	61.720282
1746.000000	61.669295
1745.000000	61.591008
1744.000000	61.519662
1743.000000	61.486124
1742.000000	61.472424
1741.000000	61.427012
1740.000000	61.323225
1739.000000	61.189098
1738.000000	61.066851
1737.000000	60.974335
1736.000000	60.887639
1735.000000	60.751666
1734.000000	60.552697
1733.000000	60.340368
1732.000000	60.160903
1731.000000	60.038560
1730.000000	59.968121
1729.000000	59.894512
1728.000000	59.784230
1727.000000	59.644959
1726.000000	59.482766
1725.000000	59.295539
1724.000000	59.096818
1723.000000	58.904917
1722.000000	58.712202
1721.000000	58.476899
1720.000000	58.174407
1719.000000	57.854748
1718.000000	57.594414
1717.000000	57.410970
1716.000000	57.271906
1715.000000	57.137419
1714.000000	56.988322
1713.000000	56.818389
1712.000000	56.625483
1711.000000	56.416142
1710.000000	56.194683
1709.000000	55.951960
1708.000000	55.684016
1707.000000	55.411675
1706.000000	55.154993
1705.000000	54.934157
1704.000000	54.793170
1703.000000	54.765412
1702.000000	54.725955
1701.000000	54.438645
1700.000000	53.922989
1699.000000	53.431003
1698.000000	53.137943
1697.000000	53.046432
1696.000000	52.973972
1695.000000	52.789573
1694.000000	52.530941
1693.000000	52.245363
1692.000000	51.961387
1691.000000	51.676923
1690.000000	51.380063
1689.000000	51.074877
1688.000000	50.802720
1687.000000	50.598497
1686.000000	50.432358
1685.000000	50.252697
1684.000000	50.009370
1683.000000	49.733899
1682.000000	49.489945
1681.000000	49.287489
1680.000000	49.136224
1679.000000	49.032422
1678.000000	48.958046
1677.000000	48.850177
1676.000000	48.639233
1675.000000	48.338152
1674.000000	48.022298
1673.000000	47.734971
1672.000000	47.492370
1671.000000	47.301386
1670.000000	47.134492
1669.000000	46.942698
1668.000000	46.728806
1667.000000	46.534022
1666.000000	46.366892
1665.000000	46.198178
1664.000000	46.004513
1663.000000	45.795816
1662.000000	45.585739
1661.000000	45.366609
1660.000000	45.136370
1659.000000	44.906042
1658.000000	44.671513
1657.000000	44.435931
1656.000000	44.221549
1655.000000	44.079781
1654.000000	43.984639
1653.000000	43.771969
1652.000000	43.469207
1651.000000	43.177130
1650.000000	42.891185
1649.000000	42.653250
1648.000000	42.503853
1647.000000	42.420097
1646.000000	42.313764
1645.000000	42.157014
1644.000000	41.962452
1643.000000	41.761323
1642.000000	41.565556
1641.000000	41.352856
1640.000000	41.116838
1639.000000	40.891483
1638.000000	40.724403
1637.000000	40.633056
1636.000000	40.547154
1635.000000	40.399588
1634.000000	40.214717
1633.000000	40.024287
1632.000000	39.844952
1631.000000	39.680713
1630.000000	39.518074
1629.000000	39.346229
1628.000000	39.170752
1627.000000	39.011719
1626.000000	38.873444
1625.000000	38.737442
1624.000000	38.594938
1623.000000	38.453657
1622.000000	38.317916
1621.000000	38.179106
1620.000000	38.044789
1619.000000	37.946088
1618.000000	37.895672
1617.000000	37.852471
1616.000000	37.773366
1615.000000	37.673884
1614.000000	37.579797
1613.000000	37.491813
1612.000000	37.400033
1611.000000	37.309426
1610.000000	37.236190
1609.000000	37.180564
1608.000000	37.132183
1607.000000	37.090592
1606.000000	37.055419
1605.000000	37.014775
1604.000000	36.969370
1603.000000	36.937732
1602.000000	36.926739
1601.000000	36.918953
1600.000000	36.899162
1599.000000	36.872618
1598.000000	36.846941
1597.000000	36.820737
1596.000000	36.797340
1595.000000	36.788700
1594.000000	36.795762
1593.000000	36.802382
1592.000000	36.799635
1591.000000	36.798364
1590.000000	36.807365
1589.000000	36.816618
1588.000000	36.816318
1587.000000	36.812943
1586.000000	36.814595
1585.000000	36.812659
1584.000000	36.799113
1583.000000	36.782402
1582.000000	36.760797
1581.000000	36.711255
1580.000000	36.626531
1579.000000	36.542973
1578.000000	36.512732
1577.000000	36.539159
1576.000000	36.558888
1575.000000	36.536499
1574.000000	36.489593
1573.000000	36.439322
1572.000000	36.395822
1571.000000	36.360434
1570.000000	36.335294
1569.000000	36.300833
1568.000000	36.249698
1567.000000	36.204517
1566.000000	36.178776
1565.000000	36.156403
1564.000000	36.131518
1563.000000	36.131823
1562.000000	36.180196
1561.000000	36.182490
1560.000000	36.174155
1559.000000	36.274402
1558.000000	36.387048
1557.000000	36.456172
1556.000000	36.511185
1555.000000	36.611076
1554.000000	36.731841
1553.000000	36.825250
1552.000000	36.891302
1551.000000	36.979806
1550.000000	37.119462
1549.000000	37.279079
1548.000000	37.411042
1547.000000	37.496534
1546.000000	37.551212
1545.000000	37.610654
1544.000000	37.694293
1543.000000	37.789033
1542.000000	37.915727
1541.000000	38.178595
1540.000000	38.554817
1539.000000	38.884148
1538.000000	39.102831
1537.000000	39.238437
1536.000000	39.352927
1535.000000	39.502672
1534.000000	39.721661
1533.000000	39.981714
1532.000000	40.225593
1531.000000	40.441502
1530.000000	40.650236
1529.000000	40.866615
1528.000000	41.100956
1527.000000	41.362836
1526.000000	41.637663
1525.000000	41.890521
1524.000000	42.120653
1523.000000	42.401877
1522.000000	42.800296
1521.000000	43.243376
1520.000000	43.604468
1519.000000	43.881904
1518.000000	44.195046
1517.000000	44.620215
1516.000000	45.097008
1515.000000	45.542057
1514.000000	45.932693
1513.000000	46.264192
1512.000000	46.521194
1511.000000	46.694926
1510.000000	46.810708
1509.000000	46.960433
1508.000000	47.401669
1507.000000	48.202740
1506.000000	49.015464
1505.000000	49.585381
1504.000000	49.935378
1503.000000	50.221242
1502.000000	50.546780
1501.000000	50.906516
1500.000000	51.255639
1499.000000	51.600223
1498.000000	51.994571
1497.000000	52.450085
1496.000000	52.899811
1495.000000	53.280247
1494.000000	53.582037
1493.000000	53.812233
1492.000000	53.981561
1491.000000	54.165081
1490.000000	54.465316
1489.000000	54.876386
1488.000000	55.311576
1487.000000	55.712629
1486.000000	56.063977
1485.000000	56.347011
1484.000000	56.558690
1483.000000	56.741191
1482.000000	56.935851
1481.000000	57.136053
1480.000000	57.307639
1479.000000	57.433531
1478.000000	57.505668
1477.000000	57.521268
1476.000000	57.501746
1475.000000	57.493485
1474.000000	57.537479
1473.000000	57.610217
1472.000000	57.633940
1471.000000	57.569620
1470.000000	57.420954
1469.000000	57.190666
1468.000000	56.882135
1467.000000	56.493739
1466.000000	55.997868
1465.000000	55.354321
1464.000000	54.605471
1463.000000	53.867482
1462.000000	53.185716
1461.000000	52.526978
1460.000000	51.876581
1459.000000	51.273929
1458.000000	50.692734
1457.000000	49.975957
1456.000000	49.134707
1455.000000	48.327406
1454.000000	47.538398
1453.000000	46.661916
1452.000000	45.664608
1451.000000	44.589055
1450.000000	43.435769
1449.000000	42.144241
1448.000000	40.727934
1447.000000	39.300434
1446.000000	37.917902
1445.000000	36.533048
1444.000000	35.117021
1443.000000	33.684259
1442.000000	32.237160
1441.000000	30.796287
1440.000000	29.435193
1439.000000	28.162819
1438.000000	26.814831
1437.000000	25.246948
1436.000000	23.658088
1435.000000	22.372565
1434.000000	21.392369
1433.000000	20.539646
1432.000000	19.753984
1431.000000	19.079049
1430.000000	18.520559
1429.000000	18.051919
1428.000000	17.716907
1427.000000	17.566042
1426.000000	17.561415
1425.000000	17.655587
1424.000000	17.881212
1423.000000	18.258894
1422.000000	18.719095
1421.000000	19.206763
1420.000000	19.785955
1419.000000	20.521224
1418.000000	21.306302
1417.000000	22.029905
1416.000000	22.745787
1415.000000	23.525153
1414.000000	24.340704
1413.000000	25.155183
1412.000000	26.005225
1411.000000	26.927898
1410.000000	27.880551
1409.000000	28.813048
1408.000000	29.746276
1407.000000	30.726002
1406.000000	31.762569
1405.000000	32.844104
1404.000000	33.953282
1403.000000	35.045389
1402.000000	36.077351
1401.000000	37.075290
1400.000000	38.117648
1399.000000	39.219004
1398.000000	40.305532
1397.000000	41.361511
1396.000000	42.478747
1395.000000	43.707102
1394.000000	44.957494
1393.000000	46.125036
1392.000000	47.209069
1391.000000	48.252744
1390.000000	49.277312
1389.000000	50.310016
1388.000000	51.392404
1387.000000	52.505271
1386.000000	53.552367
1385.000000	54.467510
1384.000000	55.253519
1383.000000	55.914566
1382.000000	56.435093
1381.000000	56.811115
1380.000000	57.042731
1379.000000	57.100011
1378.000000	56.935033
1377.000000	56.515487
1376.000000	55.817987
1375.000000	54.820228
1374.000000	53.532906
1373.000000	52.041279
1372.000000	50.476818
1371.000000	48.959474
1370.000000	47.617679
1369.000000	46.620515
1368.000000	46.126390
1367.000000	46.186585
1366.000000	46.740723
1365.000000	47.706684
1364.000000	49.036229
1363.000000	50.658587
1362.000000	52.399761
1361.000000	54.046236
1360.000000	55.466524
1359.000000	56.617280
1358.000000	57.487501
1357.000000	58.071408
1356.000000	58.359893
1355.000000	58.338241
1354.000000	57.994367
1353.000000	57.325509
1352.000000	56.338141
1351.000000	55.043777
1350.000000	53.464907
1349.000000	51.638609
1348.000000	49.605881
1347.000000	47.406516
1346.000000	45.082997
1345.000000	42.685667
1344.000000	40.276239
1343.000000	37.913942
1342.000000	35.640200
1341.000000	33.495694
1340.000000	31.553567
1339.000000	29.910605
1338.000000	28.630802
1337.000000	27.703610
1336.000000	27.063738
1335.000000	26.622232
1334.000000	26.264890
1333.000000	25.860507
1332.000000	25.295892
1331.000000	24.507205
1330.000000	23.487274
1329.000000	22.277204
1328.000000	20.954854
1327.000000	19.613289
1326.000000	18.328776
1325.000000	17.147328
1324.000000	16.103976
1323.000000	15.234905
1322.000000	14.558235
1321.000000	14.063934
1320.000000	13.733227
1319.000000	13.542248
1318.000000	13.446543
1317.000000	13.388724
1316.000000	13.330266
1315.000000	13.262254
1314.000000	13.181320
1313.000000	13.080627
1312.000000	12.966311
1311.000000	12.857288
1310.000000	12.764748
1309.000000	12.690238
1308.000000	12.645652
1307.000000	12.652596
1306.000000	12.718895
1305.000000	12.836531
1304.000000	13.002196
1303.000000	13.218865
1302.000000	13.477300
1301.000000	13.756582
1300.000000	14.046846
1299.000000	14.350997
1298.000000	14.665533
1297.000000	14.980310
1296.000000	15.295394
1295.000000	15.619893
1294.000000	15.953454
1293.000000	16.287017
1292.000000	16.620427
1291.000000	16.961418
1290.000000	17.307526
1289.000000	17.645281
1288.000000	17.963556
1287.000000	18.249319
1286.000000	18.474522
1285.000000	18.606194
1284.000000	18.635046
1283.000000	18.585043
1282.000000	18.497795
1281.000000	18.420496
1280.000000	18.401294
1279.000000	18.473468
1278.000000	18.637188
1277.000000	18.868545
1276.000000	19.145534
1275.000000	19.455149
1274.000000	19.782787
1273.000000	20.113540
1272.000000	20.444847
1271.000000	20.781223
1270.000000	21.118665
1269.000000	21.447871
1268.000000	21.769016
1267.000000	22.089420
1266.000000	22.408778
1265.000000	22.720406
1264.000000	23.024639
1263.000000	23.328094
1262.000000	23.631494
1261.000000	23.931107
1260.000000	24.229152
1259.000000	24.530228
1258.000000	24.830777
1257.000000	25.124017
1256.000000	25.411818
1255.000000	25.700543
1254.000000	25.989500
1253.000000	26.274124
1252.000000	26.556234
1251.000000	26.840638
1250.000000	27.125382
1249.000000	27.405082
1248.000000	27.680491
1247.000000	27.955575
1246.000000	28.228792
1245.000000	28.496466
1244.000000	28.760963
1243.000000	29.026776
1242.000000	29.291993
1241.000000	29.552246
1240.000000	29.809309
1239.000000	30.067408
1238.000000	30.324905
1237.000000	30.577505
1236.000000	30.826056
1235.000000	31.073683
1234.000000	31.318674
1233.000000	31.557868
1232.000000	31.793488
1231.000000	32.029537
1230.000000	32.264930
1229.000000	32.496758
1228.000000	32.727202
1227.000000	32.960628
1226.000000	33.197038
1225.000000	33.434210
1224.000000	33.672676
1223.000000	33.913058
1222.000000	34.152112
1221.000000	34.386840
1220.000000	34.619210
1219.000000	34.851950
1218.000000	35.083454
1217.000000	35.311575
1216.000000	35.538506
1215.000000	35.767449
1214.000000	35.997974
1213.000000	36.228924
1212.000000	36.461991
1211.000000	36.697992
1210.000000	36.933553
1209.000000	37.165378
1208.000000	37.394231
1207.000000	37.621530
1206.000000	37.846192
1205.000000	38.068329
1204.000000	38.291668
1203.000000	38.518935
1202.000000	38.748695
1201.000000	38.979128
1200.000000	39.210836
1199.000000	39.443024
1198.000000	39.670916
1197.000000	39.889755
1196.000000	40.096403
1195.000000	40.285596
1194.000000	40.448021
1193.000000	40.573918
1192.000000	40.656348
1191.000000	40.688412
1190.000000	40.665402
1189.000000	40.592975
1188.000000	40.491274
1187.000000	40.390514
1186.000000	40.322235
1185.000000	40.312519
1184.000000	40.375554
1183.000000	40.507953
1182.000000	40.689998
1181.000000	40.898916
1180.000000	41.120137
1179.000000	41.347159
1178.000000	41.577678
1177.000000	41.811148
1176.000000	42.047945
1175.000000	42.286766
1174.000000	42.524510
1173.000000	42.759445
1172.000000	42.991502
1171.000000	43.219346
1170.000000	43.440377
1169.000000	43.653891
1168.000000	43.860834
1167.000000	44.061428
1166.000000	44.256142
1165.000000	44.448344
1164.000000	44.642441
1163.000000	44.839654
1162.000000	45.039366
1161.000000	45.243099
1160.000000	45.452954
1159.000000	45.667259
1158.000000	45.881550
1157.000000	46.092957
1156.000000	46.299926
1155.000000	46.499443
1154.000000	46.689104
1153.000000	46.870135
1152.000000	47.045217
1151.000000	47.215243
1150.000000	47.381637
1149.000000	47.549347
1148.000000	47.722830
1147.000000	47.901539
1146.000000	48.082868
1145.000000	48.266445
1144.000000	48.451616
1143.000000	48.633740
1142.000000	48.807849
1141.000000	48.973460
1140.000000	49.131822
1139.000000	49.282153
1138.000000	49.424358
1137.000000	49.562386
1136.000000	49.700890
1135.000000	49.841379
1134.000000	49.985233
1133.000000	50.136152
1132.000000	50.295531
1131.000000	50.459056
1130.000000	50.621874
1129.000000	50.783622
1128.000000	50.945003
1127.000000	51.103830
1126.000000	51.258436
1125.000000	51.410447
1124.000000	51.560724
1123.000000	51.707371
1122.000000	51.851396
1121.000000	51.998891
1120.000000	52.153060
1119.000000	52.309477
1118.000000	52.463001
1117.000000	52.613868
1116.000000	52.763180
1115.000000	52.908558
1114.000000	53.049221
1113.000000	53.189541
1112.000000	53.332599
1111.000000	53.476126
1110.000000	53.618594
1109.000000	53.762864
1108.000000	53.909868
1107.000000	54.054413
1106.000000	54.192087
1105.000000	54.323697
1104.000000	54.449233
1103.000000	54.564523
1102.000000	54.668623
1101.000000	54.767805
1100.000000	54.867930
1099.000000	54.970099
1098.000000	55.076010
1097.000000	55.190878
1096.000000	55.315649
1095.000000	55.443666
1094.000000	55.569095
1093.000000	55.691945
1092.000000	55.811415
1091.000000	55.922897
1090.000000	56.026084
1089.000000	56.128449
1088.000000	56.236387
1087.000000	56.350636
1086.000000	56.473273
1085.000000	56.610264
1084.000000	56.762167
1083.000000	56.919919
1082.000000	57.073921
1081.000000	57.219760
1080.000000	57.352149
1079.000000	57.462934
1078.000000	57.550813
1077.000000	57.623589
1076.000000	57.687442
1075.000000	57.742042
1074.000000	57.788096
1073.000000	57.830361
1072.000000	57.865742
1071.000000	57.877831
1070.000000	57.846273
1069.000000	57.750712
1068.000000	57.567915
1067.000000	57.273634
1066.000000	56.859546
1065.000000	56.345600
1064.000000	55.775041
1063.000000	55.208460
1062.000000	54.718871
1061.000000	54.375884
1060.000000	54.220064
1059.000000	54.254355
1058.000000	54.451995
1057.000000	54.772427
1056.000000	55.169600
1055.000000	55.595579
1054.000000	56.014348
1053.000000	56.405140
1052.000000	56.755031
1051.000000	57.055722
1050.000000	57.311377
1049.000000	57.539378
1048.000000	57.756717
1047.000000	57.972091
1046.000000	58.192259
1045.000000	58.425064
1044.000000	58.669344
1043.000000	58.912433
1042.000000	59.141995
1041.000000	59.352419
1040.000000	59.537830
1039.000000	59.689586
1038.000000	59.807415
1037.000000	59.903982
1036.000000	59.993338
1035.000000	60.084194
1034.000000	60.186210
1033.000000	60.311775
1032.000000	60.465506
1031.000000	60.640023
1030.000000	60.825645
1029.000000	61.015424
1028.000000	61.198114
1027.000000	61.357816
1026.000000	61.486806
1025.000000	61.590589
1024.000000	61.677264
1023.000000	61.751922
1022.000000	61.824327
1021.000000	61.909725
1020.000000	62.016963
1019.000000	62.144001
1018.000000	62.287511
1017.000000	62.446267
1016.000000	62.612053
1015.000000	62.768837
1014.000000	62.906076
1013.000000	63.024042
1012.000000	63.123919
1011.000000	63.204548
1010.000000	63.272323
1009.000000	63.342329
1008.000000	63.424877
1007.000000	63.520448
1006.000000	63.629759
1005.000000	63.756910
1004.000000	63.898968
1003.000000	64.043367
1002.000000	64.180068
1001.000000	64.306959
1000.000000	64.421360
999.000000	64.517911
998.000000	64.598976
997.000000	64.676211
996.000000	64.757889
995.000000	64.844263
994.000000	64.937357
993.000000	65.043491
992.000000	65.162356
991.000000	65.284539
990.000000	65.403507
989.000000	65.520128
988.000000	65.632703
987.000000	65.734598
986.000000	65.825376
985.000000	65.913315
984.000000	66.003272
983.000000	66.093009
982.000000	66.184157
981.000000	66.284462
980.000000	66.395215
979.000000	66.507729
978.000000	66.615886
977.000000	66.720890
976.000000	66.820949
975.000000	66.908726
974.000000	66.983815
973.000000	67.055728
972.000000	67.130958
971.000000	67.207921
970.000000	67.287589
969.000000	67.376496
968.000000	67.475024
967.000000	67.574617
966.000000	67.670413
965.000000	67.765220
964.000000	67.857586
963.000000	67.938756
962.000000	68.005882
961.000000	68.066930
960.000000	68.128353
959.000000	68.189948
958.000000	68.254548
957.000000	68.330011
956.000000	68.417234
955.000000	68.508049
954.000000	68.598448
953.000000	68.691593
952.000000	68.784775
951.000000	68.866582
950.000000	68.931566
949.000000	68.985478
948.000000	69.032701
947.000000	69.071399
946.000000	69.105039
945.000000	69.144748
944.000000	69.195944
943.000000	69.254367
942.000000	69.318474
941.000000	69.392673
940.000000	69.474313
939.000000	69.550964
938.000000	69.614795
937.000000	69.667692
936.000000	69.709084
935.000000	69.732430
934.000000	69.738242
933.000000	69.737530
932.000000	69.738091
931.000000	69.740229
930.000000	69.748142
929.000000	69.771383
928.000000	69.810596
927.000000	69.854338
926.000000	69.893873
925.000000	69.927754
924.000000	69.949758
923.000000	69.946990
922.000000	69.914664
921.000000	69.860469
920.000000	69.790281
919.000000	69.703359
918.000000	69.604652
917.000000	69.506860
916.000000	69.416815
915.000000	69.331348
914.000000	69.248819
913.000000	69.170947
912.000000	69.089107
911.000000	68.984335
910.000000	68.844519
909.000000	68.669914
908.000000	68.460144
907.000000	68.209596
906.000000	67.921404
905.000000	67.610555
904.000000	67.288633
903.000000	66.958037
902.000000	66.621310
901.000000	66.283354
900.000000	65.939665
899.000000	65.574403
898.000000	65.175112
897.000000	64.736754
896.000000	64.251975
895.000000	63.710275
894.000000	63.109559
893.000000	62.459371
892.000000	61.767655
891.000000	61.037625
890.000000	60.276990
889.000000	59.496467
888.000000	58.698437
887.000000	57.873922
886.000000	57.013547
885.000000	56.112045
884.000000	55.160548
883.000000	54.148598
882.000000	53.074250
881.000000	51.945936
880.000000	50.773482
879.000000	49.564231
878.000000	48.330252
877.000000	47.088599
876.000000	45.853058
875.000000	44.630501
874.000000	43.426293
873.000000	42.247206
872.000000	41.098240
871.000000	39.981036
870.000000	38.896394
869.000000	37.848747
868.000000	36.844386
867.000000	35.888919
866.000000	34.987377
865.000000	34.143511
864.000000	33.360459
863.000000	32.637510
862.000000	31.969631
861.000000	31.351322
860.000000	30.777189
859.000000	30.241761
858.000000	29.737745
857.000000	29.258564
856.000000	28.802617
855.000000	28.371553
854.000000	27.969518
853.000000	27.603153
852.000000	27.280826
851.000000	27.010308
850.000000	26.794955
849.000000	26.636460
848.000000	26.536399
847.000000	26.493392
846.000000	26.503728
845.000000	26.563874
844.000000	26.674708
843.000000	26.839554
842.000000	27.060402
841.000000	27.341127
840.000000	27.687619
839.000000	28.106474
838.000000	28.602248
837.000000	29.176532
836.000000	29.829544
835.000000	30.556890
834.000000	31.346104
833.000000	32.167598
832.000000	32.955781
831.000000	33.557742
830.000000	33.691841
829.000000	32.984047
828.000000	31.169221
827.000000	28.387075
826.000000	25.288972
825.000000	22.763961
824.000000	21.439764
823.000000	21.374302
822.000000	22.178246
821.000000	23.382500
820.000000	24.677215
819.000000	25.920920
818.000000	27.069476
817.000000	28.122939
816.000000	29.103633
815.000000	30.026676
814.000000	30.896610
813.000000	31.723323
812.000000	32.522418
811.000000	33.297540
810.000000	34.040054
809.000000	34.745446
808.000000	35.413527
807.000000	36.039233
806.000000	36.618390
805.000000	37.161213
804.000000	37.683704
803.000000	38.188684
802.000000	38.672237
801.000000	39.141551
800.000000	39.611276
799.000000	40.087069
798.000000	40.567413
797.000000	41.055672
796.000000	41.553958
795.000000	42.051394
794.000000	42.533875
793.000000	42.999652
792.000000	43.452678
791.000000	43.889427
790.000000	44.307004
789.000000	44.715792
788.000000	45.129447
787.000000	45.550119
786.000000	45.975674
785.000000	46.411345
784.000000	46.860045
783.000000	47.310085
782.000000	47.746401
781.000000	48.165676
780.000000	48.568210
779.000000	48.946205
778.000000	49.294575
777.000000	49.624288
776.000000	49.951224
775.000000	50.280468
774.000000	50.613169
773.000000	50.956986
772.000000	51.315837
771.000000	51.678603
770.000000	52.030479
769.000000	52.366744
768.000000	52.684608
767.000000	52.974191
766.000000	53.231040
765.000000	53.466472
764.000000	53.694098
763.000000	53.917174
762.000000	54.140286
761.000000	54.379043
760.000000	54.644007
759.000000	54.926164
758.000000	55.210165
757.000000	55.489958
756.000000	55.760368
755.000000	56.007799
754.000000	56.223804
753.000000	56.416190
752.000000	56.595681
751.000000	56.765485
750.000000	56.934322
749.000000	57.123661
748.000000	57.348019
747.000000	57.601460
746.000000	57.873596
745.000000	58.162194
744.000000	58.457401
743.000000	58.732225
742.000000	58.964609
741.000000	59.155154
740.000000	59.311582
739.000000	59.434372
738.000000	59.531700
737.000000	59.629215
736.000000	59.748475
735.000000	59.889896
734.000000	60.048794
733.000000	60.227989
732.000000	60.419721
731.000000	60.594732
730.000000	60.726591
729.000000	60.810508
728.000000	60.848225
727.000000	60.836011
726.000000	60.782667
725.000000	60.721564
724.000000	60.687307
723.000000	60.694718
722.000000	60.752490
721.000000	60.876094
720.000000	61.068171
719.000000	61.304264
718.000000	61.555787
717.000000	61.810298
716.000000	62.055660
715.000000	62.268754
714.000000	62.439846
713.000000	62.588292
712.000000	62.737700
711.000000	62.895311
710.000000	63.070741
709.000000	63.288038
708.000000	63.558906
707.000000	63.864945
706.000000	64.181366
705.000000	64.497727
704.000000	64.799733
703.000000	65.055067
702.000000	65.242846
701.000000	65.376941
700.000000	65.480457
699.000000	65.564451
698.000000	65.646424
697.000000	65.762581
696.000000	65.936522
695.000000	66.154888
694.000000	66.397152
693.000000	66.660008
692.000000	66.928943
691.000000	67.163605
690.000000	67.337537
689.000000	67.466858
688.000000	67.573868
687.000000	67.652582
686.000000	67.705632
685.000000	67.774613
684.000000	67.896040
683.000000	68.062660
682.000000	68.259773
681.000000	68.498013
680.000000	68.773455
679.000000	69.038638
678.000000	69.255477
677.000000	69.426961
676.000000	69.556357
675.000000	69.637595
674.000000	69.688126
673.000000	69.757930
672.000000	69.888949
671.000000	70.091059
670.000000	70.368184
669.000000	70.722152
668.000000	71.061523
667.000000	71.267890
666.000000	71.371794
665.000000	71.438728
664.000000	71.502284
663.000000	71.570107
662.000000	71.633065
661.000000	71.692051
660.000000	71.761054
659.000000	71.857501
658.000000	71.996064
657.000000	72.177664
656.000000	72.387998
655.000000	72.619251
654.000000	72.861324
653.000000	73.088884
652.000000	73.280142
651.000000	73.430764
650.000000	73.543798
649.000000	73.619404
648.000000	73.666268
647.000000	73.710748
646.000000	73.782335
645.000000	73.897504
644.000000	74.056454
643.000000	74.247498
642.000000	74.455211
641.000000	74.664173
640.000000	74.858507
639.000000	75.023346
638.000000	75.149191
637.000000	75.237931
636.000000	75.304698
635.000000	75.370676
634.000000	75.455870
633.000000	75.573992
632.000000	75.728346
631.000000	75.913555
630.000000	76.119980
629.000000	76.332992
628.000000	76.532338
627.000000	76.701806
626.000000	76.840628
625.000000	76.960532
624.000000	77.066824
623.000000	77.156283
622.000000	77.238786
621.000000	77.341301
620.000000	77.480914
619.000000	77.649899
618.000000	77.835004
617.000000	78.034952
616.000000	78.245800
615.000000	78.446160
614.000000	78.611749
613.000000	78.733382
612.000000	78.808767
611.000000	78.833726
610.000000	78.812128
609.000000	78.754818
608.000000	78.656606
607.000000	78.476933
606.000000	78.149575
605.000000	77.583181
604.000000	76.628567
603.000000	75.069875
602.000000	72.647848
601.000000	69.148746
600.000000	64.554392
599.000000	59.214989
598.000000	53.870826
597.000000	49.411528
596.000000	46.540394
595.000000	45.542065
594.000000	46.230794
593.000000	48.097718
592.000000	50.591996
591.000000	53.276340
590.000000	55.852522
589.000000	58.179911
588.000000	60.237978
587.000000	62.056616
586.000000	63.663678
585.000000	65.081455
584.000000	66.330709
583.000000	67.439039
582.000000	68.449527
581.000000	69.413071
580.000000	70.351361
579.000000	71.232980
578.000000	72.020533
577.000000	72.714362
576.000000	73.329011
575.000000	73.852985
574.000000	74.262224
573.000000	74.564301
572.000000	74.793155
571.000000	74.983762
570.000000	75.176445
569.000000	75.418358
568.000000	75.734027
567.000000	76.104751
566.000000	76.493296
565.000000	76.875255
564.000000	77.227749
563.000000	77.515789
562.000000	77.717607
561.000000	77.845789
560.000000	77.924601
559.000000	77.968298
558.000000	78.000923
557.000000	78.065768
556.000000	78.193174
555.000000	78.378876
554.000000	78.608003
553.000000	78.873528
552.000000	79.154857
551.000000	79.407300
550.000000	79.598310
549.000000	79.731406
548.000000	79.817443
547.000000	79.856859
546.000000	79.868061
545.000000	79.896584
544.000000	79.971962
543.000000	80.089360
542.000000	80.244536
541.000000	80.449270
540.000000	80.692762
539.000000	80.927834
538.000000	81.119504
537.000000	81.273617
536.000000	81.396586
535.000000	81.468426
534.000000	81.484554
533.000000	81.484976
532.000000	81.509571
531.000000	81.559935
530.000000	81.630270
529.000000	81.733616
528.000000	81.871745
527.000000	82.018384
526.000000	82.155545
525.000000	82.279702
524.000000	82.354774
523.000000	82.307319
522.000000	82.092489
521.000000	81.725479
520.000000	81.237506
519.000000	80.644866
518.000000	79.990279
517.000000	79.373283
516.000000	78.894274
515.000000	78.598818
514.000000	78.493184
513.000000	78.569310
512.000000	78.774007
511.000000	78.993132
510.000000	79.107511
509.000000	79.046945
508.000000	78.760429
507.000000	78.189791
506.000000	77.302188
505.000000	76.105742
504.000000	74.628211
503.000000	72.967515
502.000000	71.393014
501.000000	70.259537
500.000000	69.766826
499.000000	69.881322
498.000000	70.462888
497.000000	71.343391
496.000000	72.320568
495.000000	73.190748
494.000000	73.838578
493.000000	74.291818
492.000000	74.659418
491.000000	75.046923
490.000000	75.527706
489.000000	76.133138
488.000000	76.821409
487.000000	77.499560
486.000000	78.112382
485.000000	78.684757
484.000000	79.254140
483.000000	79.809048
482.000000	80.333555
481.000000	80.848524
480.000000	81.360966
479.000000	81.831663
478.000000	82.228294
477.000000	82.559737
476.000000	82.820105
475.000000	82.956182
474.000000	82.954539
473.000000	82.914497
472.000000	82.945587
471.000000	83.032333
470.000000	83.116770
469.000000	83.223184
468.000000	83.405193
467.000000	83.648432
466.000000	83.881675
465.000000	84.060178
464.000000	84.159920
463.000000	84.149400
462.000000	84.041077
461.000000	83.907239
460.000000	83.783305
459.000000	83.637164
458.000000	83.501626
457.000000	83.498984
456.000000	83.637969
455.000000	83.784921
454.000000	83.849236
453.000000	83.862227
452.000000	83.872704
451.000000	83.822294
450.000000	83.607212
449.000000	83.205396
448.000000	82.659301
447.000000	81.988599
446.000000	81.187149
445.000000	80.248969
444.000000	79.125060
443.000000	77.712953
442.000000	75.941757
441.000000	73.843157
440.000000	71.495370
439.000000	68.975578
438.000000	66.414309
437.000000	64.086187
436.000000	62.355710
435.000000	61.477424
434.000000	61.464584
433.000000	62.188940
432.000000	63.531139
431.000000	65.326346
430.000000	67.338964
429.000000	69.379540
428.000000	71.329997
427.000000	73.064475
426.000000	74.494795
425.000000	75.678622
424.000000	76.719656
423.000000	77.613399
422.000000	78.314687
421.000000	78.885296
420.000000	79.444764
419.000000	80.143356
418.000000	81.018173
417.000000	81.887329
416.000000	82.630905
415.000000	83.175284
414.000000	83.478829
413.000000	83.658835
412.000000	83.836356
411.000000	83.942204
410.000000	83.908667
409.000000	83.886145
408.000000	84.032201
407.000000	84.256313
406.000000	84.471415
405.000000	84.776724
404.000000	85.219792
403.000000	85.539336
402.000000	85.451114
401.000000	85.000859
400.000000	84.380138
