PE IR       SUBTECH     SPECTRUM    ASCII       PEDS        4.00        
   -1
23ms210_nitrito.asc
24/09/02
16:47:58.00
24/09/02
16:47:58.00
Administrator
Sample 1082 By Administrator Date Monday, September 02 2024
400.000000
#HDR
-1
-1
#GR
cm-1
%T
1.0
0.0
4000.000000
-1.000000
3601
8
90.734034
12.783294
#DATA
4000.000000	76.761728
3999.000000	76.810011
3998.000000	76.855599
3997.000000	76.898957
3996.000000	76.941305
3995.000000	76.983806
3994.000000	77.027586
3993.000000	77.073759
3992.000000	77.122594
3991.000000	77.172567
3990.000000	77.221058
3989.000000	77.266479
3988.000000	77.309325
3987.000000	77.351001
3986.000000	77.392398
3985.000000	77.434132
3984.000000	77.477374
3983.000000	77.523540
3982.000000	77.573013
3981.000000	77.624590
3980.000000	77.676182
3979.000000	77.725954
3978.000000	77.772674
3977.000000	77.815463
3976.000000	77.854299
3975.000000	77.890840
3974.000000	77.928073
3973.000000	77.968546
3972.000000	78.013062
3971.000000	78.060400
3970.000000	78.107848
3969.000000	78.152617
3968.000000	78.193538
3967.000000	78.231488
3966.000000	78.268421
3965.000000	78.306348
3964.000000	78.346698
3963.000000	78.389947
3962.000000	78.435214
3961.000000	78.480431
3960.000000	78.523891
3959.000000	78.565103
3958.000000	78.603854
3957.000000	78.640010
3956.000000	78.674804
3955.000000	78.710776
3954.000000	78.749796
3953.000000	78.792143
3952.000000	78.837088
3951.000000	78.883851
3950.000000	78.931547
3949.000000	78.979251
3948.000000	79.025951
3947.000000	79.070850
3946.000000	79.114995
3945.000000	79.160681
3944.000000	79.207812
3943.000000	79.252281
3942.000000	79.290751
3941.000000	79.325576
3940.000000	79.362360
3939.000000	79.403352
3938.000000	79.445844
3937.000000	79.487307
3936.000000	79.530900
3935.000000	79.583060
3934.000000	79.644318
3933.000000	79.706108
3932.000000	79.757808
3931.000000	79.796559
3930.000000	79.827775
3929.000000	79.857868
3928.000000	79.890800
3927.000000	79.929321
3926.000000	79.974703
3925.000000	80.023137
3924.000000	80.069439
3923.000000	80.115478
3922.000000	80.166543
3921.000000	80.221265
3920.000000	80.272327
3919.000000	80.316246
3918.000000	80.356092
3917.000000	80.393044
3916.000000	80.424243
3915.000000	80.450620
3914.000000	80.479514
3913.000000	80.515526
3912.000000	80.555966
3911.000000	80.596663
3910.000000	80.637341
3909.000000	80.679529
3908.000000	80.724027
3907.000000	80.772903
3906.000000	80.829385
3905.000000	80.894213
3904.000000	80.961419
3903.000000	81.024884
3902.000000	81.083196
3901.000000	81.134855
3900.000000	81.174010
3899.000000	81.195746
3898.000000	81.207548
3897.000000	81.224619
3896.000000	81.254444
3895.000000	81.292050
3894.000000	81.330941
3893.000000	81.370294
3892.000000	81.411987
3891.000000	81.452032
3890.000000	81.485661
3889.000000	81.520684
3888.000000	81.571989
3887.000000	81.643004
3886.000000	81.713590
3885.000000	81.759624
3884.000000	81.786650
3883.000000	81.820979
3882.000000	81.868996
3881.000000	81.912620
3880.000000	81.938192
3879.000000	81.954577
3878.000000	81.982727
3877.000000	82.032545
3876.000000	82.094386
3875.000000	82.147840
3874.000000	82.178605
3873.000000	82.197051
3872.000000	82.232682
3871.000000	82.297054
3870.000000	82.362657
3869.000000	82.398312
3868.000000	82.416886
3867.000000	82.455165
3866.000000	82.518197
3865.000000	82.573576
3864.000000	82.599217
3863.000000	82.613663
3862.000000	82.644304
3861.000000	82.689810
3860.000000	82.732280
3859.000000	82.758230
3858.000000	82.763562
3857.000000	82.758764
3856.000000	82.772967
3855.000000	82.837347
3854.000000	82.932808
3853.000000	82.999605
3852.000000	83.031197
3851.000000	83.069351
3850.000000	83.124479
3849.000000	83.177863
3848.000000	83.217809
3847.000000	83.251686
3846.000000	83.292119
3845.000000	83.341661
3844.000000	83.396144
3843.000000	83.449879
3842.000000	83.497981
3841.000000	83.542376
3840.000000	83.589342
3839.000000	83.639001
3838.000000	83.685621
3837.000000	83.725055
3836.000000	83.757424
3835.000000	83.786613
3834.000000	83.815986
3833.000000	83.848035
3832.000000	83.882088
3831.000000	83.916475
3830.000000	83.955116
3829.000000	84.002948
3828.000000	84.058366
3827.000000	84.112449
3826.000000	84.154953
3825.000000	84.187584
3824.000000	84.228911
3823.000000	84.292416
3822.000000	84.361448
3821.000000	84.402562
3820.000000	84.413353
3819.000000	84.431397
3818.000000	84.481133
3817.000000	84.547794
3816.000000	84.595488
3815.000000	84.607682
3814.000000	84.612992
3813.000000	84.645057
3812.000000	84.696474
3811.000000	84.739893
3810.000000	84.769925
3809.000000	84.807302
3808.000000	84.868016
3807.000000	84.937199
3806.000000	84.990114
3805.000000	85.030070
3804.000000	85.078151
3803.000000	85.138863
3802.000000	85.193467
3801.000000	85.222452
3800.000000	85.240185
3799.000000	85.279676
3798.000000	85.339470
3797.000000	85.390395
3796.000000	85.415699
3795.000000	85.428057
3794.000000	85.452253
3793.000000	85.495636
3792.000000	85.544599
3791.000000	85.586606
3790.000000	85.624853
3789.000000	85.667749
3788.000000	85.716361
3787.000000	85.765422
3786.000000	85.811330
3785.000000	85.854578
3784.000000	85.898067
3783.000000	85.946718
3782.000000	86.004494
3781.000000	86.065353
3780.000000	86.114451
3779.000000	86.144533
3778.000000	86.166297
3777.000000	86.196498
3776.000000	86.240262
3775.000000	86.288803
3774.000000	86.332037
3773.000000	86.372363
3772.000000	86.421348
3771.000000	86.481134
3770.000000	86.538534
3769.000000	86.585535
3768.000000	86.631100
3767.000000	86.683275
3766.000000	86.735695
3765.000000	86.777057
3764.000000	86.807984
3763.000000	86.845253
3762.000000	86.902146
3761.000000	86.968693
3760.000000	87.023606
3759.000000	87.064460
3758.000000	87.107689
3757.000000	87.156665
3756.000000	87.199189
3755.000000	87.234184
3754.000000	87.273355
3753.000000	87.322302
3752.000000	87.372593
3751.000000	87.421745
3750.000000	87.481312
3749.000000	87.545852
3748.000000	87.592829
3747.000000	87.623596
3746.000000	87.665989
3745.000000	87.731099
3744.000000	87.787867
3743.000000	87.825083
3742.000000	87.880974
3741.000000	87.964984
3740.000000	88.042963
3739.000000	88.096096
3738.000000	88.143184
3737.000000	88.205818
3736.000000	88.271336
3735.000000	88.315649
3734.000000	88.341240
3733.000000	88.366379
3732.000000	88.393589
3731.000000	88.416501
3730.000000	88.438690
3729.000000	88.470782
3728.000000	88.517650
3727.000000	88.570190
3726.000000	88.615163
3725.000000	88.654373
3724.000000	88.699968
3723.000000	88.751012
3722.000000	88.795463
3721.000000	88.829527
3720.000000	88.860239
3719.000000	88.894813
3718.000000	88.934774
3717.000000	88.974690
3716.000000	89.012912
3715.000000	89.058285
3714.000000	89.117009
3713.000000	89.179993
3712.000000	89.230017
3711.000000	89.264577
3710.000000	89.298651
3709.000000	89.341887
3708.000000	89.391315
3707.000000	89.439349
3706.000000	89.481246
3705.000000	89.519541
3704.000000	89.558617
3703.000000	89.598044
3702.000000	89.633357
3701.000000	89.665735
3700.000000	89.702113
3699.000000	89.746705
3698.000000	89.795905
3697.000000	89.839804
3696.000000	89.872580
3695.000000	89.903346
3694.000000	89.946540
3693.000000	90.001499
3692.000000	90.055691
3691.000000	90.102431
3690.000000	90.145683
3689.000000	90.188035
3688.000000	90.226310
3687.000000	90.258635
3686.000000	90.289375
3685.000000	90.323008
3684.000000	90.355551
3683.000000	90.382643
3682.000000	90.407091
3681.000000	90.434767
3680.000000	90.461203
3679.000000	90.478772
3678.000000	90.497114
3677.000000	90.534051
3676.000000	90.577911
3675.000000	90.601049
3674.000000	90.615011
3673.000000	90.649258
3672.000000	90.700077
3671.000000	90.734034
3670.000000	90.723805
3669.000000	90.685386
3668.000000	90.666629
3667.000000	90.683314
3666.000000	90.709889
3665.000000	90.722472
3664.000000	90.719189
3663.000000	90.712845
3662.000000	90.712383
3661.000000	90.713184
3660.000000	90.705876
3659.000000	90.689717
3658.000000	90.671560
3657.000000	90.656929
3656.000000	90.646865
3655.000000	90.645860
3654.000000	90.661977
3653.000000	90.692048
3652.000000	90.717716
3651.000000	90.715717
3650.000000	90.674312
3649.000000	90.608513
3648.000000	90.547540
3647.000000	90.502238
3646.000000	90.464791
3645.000000	90.428096
3644.000000	90.388352
3643.000000	90.342677
3642.000000	90.289212
3641.000000	90.229955
3640.000000	90.172191
3639.000000	90.121856
3638.000000	90.076713
3637.000000	90.032293
3636.000000	89.989558
3635.000000	89.951039
3634.000000	89.911236
3633.000000	89.862995
3632.000000	89.810923
3631.000000	89.765449
3630.000000	89.723430
3629.000000	89.667127
3628.000000	89.599190
3627.000000	89.549129
3626.000000	89.524298
3625.000000	89.499819
3624.000000	89.455634
3623.000000	89.393402
3622.000000	89.326886
3621.000000	89.263438
3620.000000	89.197998
3619.000000	89.128681
3618.000000	89.066155
3617.000000	89.017254
3616.000000	88.974223
3615.000000	88.923681
3614.000000	88.856866
3613.000000	88.777080
3612.000000	88.699903
3611.000000	88.638678
3610.000000	88.589918
3609.000000	88.537452
3608.000000	88.471859
3607.000000	88.401541
3606.000000	88.338849
3605.000000	88.283136
3604.000000	88.224282
3603.000000	88.155384
3602.000000	88.078098
3601.000000	87.999281
3600.000000	87.924755
3599.000000	87.858074
3598.000000	87.798579
3597.000000	87.740304
3596.000000	87.679025
3595.000000	87.616030
3594.000000	87.554045
3593.000000	87.495143
3592.000000	87.441056
3591.000000	87.391091
3590.000000	87.342785
3589.000000	87.291539
3588.000000	87.232996
3587.000000	87.168543
3586.000000	87.104104
3585.000000	87.040558
3584.000000	86.972054
3583.000000	86.893746
3582.000000	86.805923
3581.000000	86.713874
3580.000000	86.624825
3579.000000	86.543693
3578.000000	86.469803
3577.000000	86.398921
3576.000000	86.328888
3575.000000	86.261269
3574.000000	86.198353
3573.000000	86.140740
3572.000000	86.088447
3571.000000	86.039669
3570.000000	85.990621
3569.000000	85.935861
3568.000000	85.870026
3567.000000	85.792910
3566.000000	85.712250
3565.000000	85.634882
3564.000000	85.559077
3563.000000	85.478422
3562.000000	85.388479
3561.000000	85.290604
3560.000000	85.191281
3559.000000	85.096668
3558.000000	85.008075
3557.000000	84.923345
3556.000000	84.840745
3555.000000	84.759502
3554.000000	84.677774
3553.000000	84.593479
3552.000000	84.508184
3551.000000	84.426768
3550.000000	84.352173
3549.000000	84.282892
3548.000000	84.214622
3547.000000	84.142356
3546.000000	84.061515
3545.000000	83.970175
3544.000000	83.870747
3543.000000	83.767858
3542.000000	83.664635
3541.000000	83.563185
3540.000000	83.466879
3539.000000	83.378635
3538.000000	83.296684
3537.000000	83.215184
3536.000000	83.130973
3535.000000	83.046681
3534.000000	82.966219
3533.000000	82.890353
3532.000000	82.817188
3531.000000	82.744630
3530.000000	82.671561
3529.000000	82.598646
3528.000000	82.529099
3527.000000	82.466130
3526.000000	82.408522
3525.000000	82.349672
3524.000000	82.282341
3523.000000	82.204317
3522.000000	82.119386
3521.000000	82.033584
3520.000000	81.951005
3519.000000	81.872110
3518.000000	81.795281
3517.000000	81.720263
3516.000000	81.649054
3515.000000	81.582035
3514.000000	81.515252
3513.000000	81.444551
3512.000000	81.370102
3511.000000	81.294125
3510.000000	81.216883
3509.000000	81.137963
3508.000000	81.059557
3507.000000	80.984855
3506.000000	80.913708
3505.000000	80.842220
3504.000000	80.766616
3503.000000	80.685879
3502.000000	80.601071
3501.000000	80.514062
3500.000000	80.426382
3499.000000	80.337258
3498.000000	80.243364
3497.000000	80.143071
3496.000000	80.040374
3495.000000	79.941443
3494.000000	79.847756
3493.000000	79.755879
3492.000000	79.662936
3491.000000	79.568570
3490.000000	79.472417
3489.000000	79.373676
3488.000000	79.272866
3487.000000	79.171275
3486.000000	79.068839
3485.000000	78.964927
3484.000000	78.860899
3483.000000	78.758901
3482.000000	78.658237
3481.000000	78.555395
3480.000000	78.447588
3479.000000	78.334509
3478.000000	78.217372
3477.000000	78.098504
3476.000000	77.981177
3475.000000	77.867533
3474.000000	77.757144
3473.000000	77.648734
3472.000000	77.542019
3471.000000	77.435668
3470.000000	77.325272
3469.000000	77.206780
3468.000000	77.080946
3467.000000	76.951885
3466.000000	76.822674
3465.000000	76.694549
3464.000000	76.568409
3463.000000	76.443726
3462.000000	76.317107
3461.000000	76.185066
3460.000000	76.047720
3459.000000	75.907962
3458.000000	75.768396
3457.000000	75.631145
3456.000000	75.498439
3455.000000	75.369994
3454.000000	75.241559
3453.000000	75.108737
3452.000000	74.970945
3451.000000	74.829875
3450.000000	74.685587
3449.000000	74.536885
3448.000000	74.384551
3447.000000	74.231503
3446.000000	74.080061
3445.000000	73.930190
3444.000000	73.779819
3443.000000	73.625873
3442.000000	73.466503
3441.000000	73.303943
3440.000000	73.143164
3439.000000	72.985975
3438.000000	72.828384
3437.000000	72.665323
3436.000000	72.495612
3435.000000	72.320539
3434.000000	72.140790
3433.000000	71.957145
3432.000000	71.771102
3431.000000	71.582510
3430.000000	71.388478
3429.000000	71.187170
3428.000000	70.981037
3427.000000	70.773590
3426.000000	70.565296
3425.000000	70.354734
3424.000000	70.141413
3423.000000	69.924656
3422.000000	69.701692
3421.000000	69.470639
3420.000000	69.234061
3419.000000	68.996479
3418.000000	68.759725
3417.000000	68.522768
3416.000000	68.283959
3415.000000	68.040606
3414.000000	67.788248
3413.000000	67.524101
3412.000000	67.249931
3411.000000	66.969385
3410.000000	66.683931
3409.000000	66.393439
3408.000000	66.099052
3407.000000	65.802258
3406.000000	65.502474
3405.000000	65.197891
3404.000000	64.887180
3403.000000	64.568290
3402.000000	64.237295
3401.000000	63.891664
3400.000000	63.533930
3399.000000	63.169700
3398.000000	62.803215
3397.000000	62.436101
3396.000000	62.067825
3395.000000	61.694695
3394.000000	61.309947
3393.000000	60.908325
3392.000000	60.490297
3391.000000	60.060265
3390.000000	59.622847
3389.000000	59.181385
3388.000000	58.737557
3387.000000	58.289806
3386.000000	57.833851
3385.000000	57.367269
3384.000000	56.891117
3383.000000	56.406351
3382.000000	55.911501
3381.000000	55.405691
3380.000000	54.891441
3379.000000	54.371699
3378.000000	53.846529
3377.000000	53.314684
3376.000000	52.775730
3375.000000	52.229207
3374.000000	51.673897
3373.000000	51.109758
3372.000000	50.538517
3371.000000	49.960447
3370.000000	49.373840
3369.000000	48.778380
3368.000000	48.176172
3367.000000	47.568456
3366.000000	46.954307
3365.000000	46.334087
3364.000000	45.710171
3363.000000	45.083083
3362.000000	44.450814
3361.000000	43.813178
3360.000000	43.173410
3359.000000	42.533708
3358.000000	41.892607
3357.000000	41.248528
3356.000000	40.602004
3355.000000	39.953310
3354.000000	39.301466
3353.000000	38.647137
3352.000000	37.993510
3351.000000	37.343063
3350.000000	36.696403
3349.000000	36.054600
3348.000000	35.418804
3347.000000	34.786913
3346.000000	34.154799
3345.000000	33.521668
3344.000000	32.890857
3343.000000	32.265381
3342.000000	31.646395
3341.000000	31.036092
3340.000000	30.437252
3339.000000	29.849269
3338.000000	29.269003
3337.000000	28.695610
3336.000000	28.130814
3335.000000	27.574524
3334.000000	27.024914
3333.000000	26.483225
3332.000000	25.953146
3331.000000	25.435664
3330.000000	24.928792
3329.000000	24.432070
3328.000000	23.947309
3327.000000	23.474466
3326.000000	23.012122
3325.000000	22.561716
3324.000000	22.126151
3323.000000	21.705082
3322.000000	21.295630
3321.000000	20.897635
3320.000000	20.513649
3319.000000	20.143399
3318.000000	19.784333
3317.000000	19.436182
3316.000000	19.100487
3315.000000	18.776340
3314.000000	18.461051
3313.000000	18.155079
3312.000000	17.860839
3311.000000	17.577332
3310.000000	17.301657
3309.000000	17.034507
3308.000000	16.779948
3307.000000	16.540032
3306.000000	16.314420
3305.000000	16.104602
3304.000000	15.911857
3303.000000	15.732651
3302.000000	15.560921
3301.000000	15.394435
3300.000000	15.234691
3299.000000	15.081372
3298.000000	14.932781
3297.000000	14.790574
3296.000000	14.658066
3295.000000	14.535047
3294.000000	14.419018
3293.000000	14.311070
3292.000000	14.215085
3291.000000	14.131023
3290.000000	14.054889
3289.000000	13.984007
3288.000000	13.917935
3287.000000	13.855212
3286.000000	13.794076
3285.000000	13.736376
3284.000000	13.685416
3283.000000	13.641014
3282.000000	13.600924
3281.000000	13.565525
3280.000000	13.536520
3279.000000	13.511992
3278.000000	13.488114
3277.000000	13.464794
3276.000000	13.444526
3275.000000	13.426983
3274.000000	13.409736
3273.000000	13.393703
3272.000000	13.382984
3271.000000	13.379610
3270.000000	13.382730
3269.000000	13.391564
3268.000000	13.404715
3267.000000	13.418104
3266.000000	13.428191
3265.000000	13.436422
3264.000000	13.446498
3263.000000	13.458633
3262.000000	13.470880
3261.000000	13.483862
3260.000000	13.499406
3259.000000	13.516146
3258.000000	13.531454
3257.000000	13.546497
3256.000000	13.564380
3255.000000	13.584857
3254.000000	13.605477
3253.000000	13.626481
3252.000000	13.649595
3251.000000	13.673350
3250.000000	13.694633
3249.000000	13.713945
3248.000000	13.734572
3247.000000	13.757590
3246.000000	13.781934
3245.000000	13.807945
3244.000000	13.836403
3243.000000	13.865246
3242.000000	13.891767
3241.000000	13.916801
3240.000000	13.942683
3239.000000	13.968394
3238.000000	13.991027
3237.000000	14.010600
3236.000000	14.029438
3235.000000	14.048445
3234.000000	14.067995
3233.000000	14.090583
3232.000000	14.117987
3231.000000	14.147286
3230.000000	14.173957
3229.000000	14.197415
3228.000000	14.219571
3227.000000	14.240124
3226.000000	14.257739
3225.000000	14.274025
3224.000000	14.291567
3223.000000	14.309488
3222.000000	14.325154
3221.000000	14.338779
3220.000000	14.352159
3219.000000	14.364470
3218.000000	14.373662
3217.000000	14.380382
3216.000000	14.386387
3215.000000	14.390834
3214.000000	14.392167
3213.000000	14.391959
3212.000000	14.392511
3211.000000	14.392430
3210.000000	14.388810
3209.000000	14.381903
3208.000000	14.373645
3207.000000	14.363438
3206.000000	14.349663
3205.000000	14.333708
3204.000000	14.318072
3203.000000	14.302168
3202.000000	14.283944
3201.000000	14.263804
3200.000000	14.243009
3199.000000	14.220010
3198.000000	14.192658
3197.000000	14.162256
3196.000000	14.131436
3195.000000	14.099943
3194.000000	14.066323
3193.000000	14.031644
3192.000000	13.997495
3191.000000	13.962300
3190.000000	13.923894
3189.000000	13.883626
3188.000000	13.843945
3187.000000	13.804082
3186.000000	13.762206
3185.000000	13.719767
3184.000000	13.679314
3183.000000	13.640021
3182.000000	13.599548
3181.000000	13.558347
3180.000000	13.518021
3179.000000	13.477561
3178.000000	13.435394
3177.000000	13.393197
3176.000000	13.353527
3175.000000	13.315603
3174.000000	13.277428
3173.000000	13.239919
3172.000000	13.204921
3171.000000	13.171302
3170.000000	13.137063
3169.000000	13.103283
3168.000000	13.072059
3167.000000	13.042592
3166.000000	13.013326
3165.000000	12.985700
3164.000000	12.961791
3163.000000	12.940393
3162.000000	12.919277
3161.000000	12.899277
3160.000000	12.882211
3159.000000	12.867006
3158.000000	12.851679
3157.000000	12.836770
3156.000000	12.823285
3155.000000	12.809866
3154.000000	12.796038
3153.000000	12.785759
3152.000000	12.783294
3151.000000	12.787707
3150.000000	12.795056
3149.000000	12.803712
3148.000000	12.813863
3147.000000	12.824346
3146.000000	12.834296
3145.000000	12.845669
3144.000000	12.860151
3143.000000	12.875833
3142.000000	12.890559
3141.000000	12.906387
3140.000000	12.926995
3139.000000	12.952791
3138.000000	12.982259
3137.000000	13.015440
3136.000000	13.052378
3135.000000	13.090561
3134.000000	13.127604
3133.000000	13.164674
3132.000000	13.203867
3131.000000	13.244743
3130.000000	13.286685
3129.000000	13.331686
3128.000000	13.381326
3127.000000	13.433495
3126.000000	13.485581
3125.000000	13.538133
3124.000000	13.591987
3123.000000	13.645143
3122.000000	13.696304
3121.000000	13.748494
3120.000000	13.805289
3119.000000	13.866070
3118.000000	13.928981
3117.000000	13.995559
3116.000000	14.068209
3115.000000	14.145588
3114.000000	14.224319
3113.000000	14.303097
3112.000000	14.381564
3111.000000	14.458024
3110.000000	14.532256
3109.000000	14.608078
3108.000000	14.689274
3107.000000	14.774982
3106.000000	14.862196
3105.000000	14.950212
3104.000000	15.039142
3103.000000	15.127221
3102.000000	15.213526
3101.000000	15.300862
3100.000000	15.392317
3099.000000	15.486979
3098.000000	15.582421
3097.000000	15.678802
3096.000000	15.777020
3095.000000	15.875524
3094.000000	15.972614
3093.000000	16.069700
3092.000000	16.168974
3091.000000	16.270084
3090.000000	16.372145
3089.000000	16.476329
3088.000000	16.583277
3087.000000	16.690713
3086.000000	16.796925
3085.000000	16.904109
3084.000000	17.014785
3083.000000	17.127516
3082.000000	17.239654
3081.000000	17.351754
3080.000000	17.466047
3079.000000	17.582923
3078.000000	17.702213
3077.000000	17.825395
3076.000000	17.952962
3075.000000	18.081895
3074.000000	18.208994
3073.000000	18.334460
3072.000000	18.459403
3071.000000	18.582520
3070.000000	18.702761
3069.000000	18.822830
3068.000000	18.946523
3067.000000	19.074506
3066.000000	19.205542
3065.000000	19.339546
3064.000000	19.476232
3063.000000	19.613057
3062.000000	19.747766
3061.000000	19.881082
3060.000000	20.014305
3059.000000	20.146595
3058.000000	20.277332
3057.000000	20.408685
3056.000000	20.542742
3055.000000	20.678234
3054.000000	20.813003
3053.000000	20.947567
3052.000000	21.083506
3051.000000	21.220483
3050.000000	21.357469
3049.000000	21.494692
3048.000000	21.631893
3047.000000	21.767039
3046.000000	21.899457
3045.000000	22.031944
3044.000000	22.167352
3043.000000	22.305394
3042.000000	22.445023
3041.000000	22.586972
3040.000000	22.731054
3039.000000	22.873738
3038.000000	23.011747
3037.000000	23.146047
3036.000000	23.279807
3035.000000	23.414629
3034.000000	23.551087
3033.000000	23.690256
3032.000000	23.831709
3031.000000	23.972331
3030.000000	24.109930
3029.000000	24.245799
3028.000000	24.381548
3027.000000	24.516223
3026.000000	24.649268
3025.000000	24.783305
3024.000000	24.920557
3023.000000	25.058957
3022.000000	25.195028
3021.000000	25.328509
3020.000000	25.461112
3019.000000	25.592874
3018.000000	25.722957
3017.000000	25.852246
3016.000000	25.982189
3015.000000	26.112696
3014.000000	26.243709
3013.000000	26.377013
3012.000000	26.513860
3011.000000	26.652635
3010.000000	26.791179
3009.000000	26.929516
3008.000000	27.068013
3007.000000	27.205191
3006.000000	27.339909
3005.000000	27.473676
3004.000000	27.608172
3003.000000	27.742209
3002.000000	27.873567
3001.000000	28.002044
3000.000000	28.128704
2999.000000	28.254159
2998.000000	28.379688
2997.000000	28.507728
2996.000000	28.638819
2995.000000	28.770199
2994.000000	28.899803
2993.000000	29.029412
2992.000000	29.161398
2991.000000	29.294673
2990.000000	29.426581
2989.000000	29.556797
2988.000000	29.686582
2987.000000	29.816079
2986.000000	29.944930
2985.000000	30.073836
2984.000000	30.202972
2983.000000	30.330576
2982.000000	30.455615
2981.000000	30.580150
2980.000000	30.706634
2979.000000	30.834502
2978.000000	30.961799
2977.000000	31.088491
2976.000000	31.215771
2975.000000	31.343719
2974.000000	31.471959
2973.000000	31.600932
2972.000000	31.730341
2971.000000	31.858054
2970.000000	31.982863
2969.000000	32.106659
2968.000000	32.231657
2967.000000	32.357360
2966.000000	32.482400
2965.000000	32.607348
2964.000000	32.733085
2963.000000	32.858251
2962.000000	32.981044
2961.000000	33.101871
2960.000000	33.221844
2959.000000	33.340522
2958.000000	33.457454
2957.000000	33.574001
2956.000000	33.691093
2955.000000	33.807262
2954.000000	33.921463
2953.000000	34.035655
2952.000000	34.151732
2951.000000	34.267815
2950.000000	34.380676
2949.000000	34.490300
2948.000000	34.599357
2947.000000	34.709675
2946.000000	34.821879
2945.000000	34.936963
2944.000000	35.055179
2943.000000	35.174233
2942.000000	35.291076
2941.000000	35.404914
2940.000000	35.516667
2939.000000	35.626860
2938.000000	35.736041
2937.000000	35.845770
2936.000000	35.956838
2935.000000	36.067561
2934.000000	36.175876
2933.000000	36.281792
2932.000000	36.386035
2931.000000	36.488167
2930.000000	36.588391
2929.000000	36.689509
2928.000000	36.794357
2927.000000	36.902508
2926.000000	37.011596
2925.000000	37.120236
2924.000000	37.227535
2923.000000	37.331670
2922.000000	37.431825
2921.000000	37.530141
2920.000000	37.629375
2919.000000	37.729994
2918.000000	37.831455
2917.000000	37.934349
2916.000000	38.038624
2915.000000	38.141236
2914.000000	38.238301
2913.000000	38.328796
2912.000000	38.414345
2911.000000	38.496759
2910.000000	38.578039
2909.000000	38.661408
2908.000000	38.749679
2907.000000	38.842813
2906.000000	38.938484
2905.000000	39.034248
2904.000000	39.127794
2903.000000	39.216724
2902.000000	39.300389
2901.000000	39.381109
2900.000000	39.462098
2899.000000	39.544874
2898.000000	39.629359
2897.000000	39.715180
2896.000000	39.800992
2895.000000	39.884183
2894.000000	39.963174
2893.000000	40.039054
2892.000000	40.113561
2891.000000	40.186953
2890.000000	40.259388
2889.000000	40.332603
2888.000000	40.407996
2887.000000	40.484139
2886.000000	40.558108
2885.000000	40.628280
2884.000000	40.694219
2883.000000	40.755283
2882.000000	40.811436
2881.000000	40.864374
2880.000000	40.915941
2879.000000	40.966393
2878.000000	41.015891
2877.000000	41.066148
2876.000000	41.118247
2875.000000	41.169856
2874.000000	41.217268
2873.000000	41.259940
2872.000000	41.301401
2871.000000	41.346367
2870.000000	41.398625
2869.000000	41.460726
2868.000000	41.533147
2867.000000	41.613733
2866.000000	41.699500
2865.000000	41.788747
2864.000000	41.880686
2863.000000	41.974314
2862.000000	42.069367
2861.000000	42.167426
2860.000000	42.270318
2859.000000	42.377961
2858.000000	42.489038
2857.000000	42.602632
2856.000000	42.717582
2855.000000	42.831400
2854.000000	42.941682
2853.000000	43.048129
2852.000000	43.151968
2851.000000	43.254293
2850.000000	43.356205
2849.000000	43.459264
2848.000000	43.563987
2847.000000	43.668602
2846.000000	43.770617
2845.000000	43.868887
2844.000000	43.963209
2843.000000	44.053287
2842.000000	44.139659
2841.000000	44.224612
2840.000000	44.310504
2839.000000	44.397856
2838.000000	44.486125
2837.000000	44.575129
2836.000000	44.664130
2835.000000	44.750794
2834.000000	44.833100
2833.000000	44.911816
2832.000000	44.989525
2831.000000	45.067861
2830.000000	45.147171
2829.000000	45.227914
2828.000000	45.310410
2827.000000	45.393486
2826.000000	45.474991
2825.000000	45.553584
2824.000000	45.629104
2823.000000	45.701862
2822.000000	45.772890
2821.000000	45.844277
2820.000000	45.917784
2819.000000	45.993303
2818.000000	46.069483
2817.000000	46.145140
2816.000000	46.219106
2815.000000	46.289874
2814.000000	46.357052
2813.000000	46.422648
2812.000000	46.489576
2811.000000	46.559418
2810.000000	46.632525
2809.000000	46.709010
2808.000000	46.787888
2807.000000	46.866094
2806.000000	46.940291
2805.000000	47.009537
2804.000000	47.075111
2803.000000	47.138633
2802.000000	47.201910
2801.000000	47.267657
2800.000000	47.338118
2799.000000	47.412824
2798.000000	47.488913
2797.000000	47.563379
2796.000000	47.634028
2795.000000	47.699305
2794.000000	47.759270
2793.000000	47.816641
2792.000000	47.875282
2791.000000	47.937481
2790.000000	48.003563
2789.000000	48.073229
2788.000000	48.145449
2787.000000	48.217382
2786.000000	48.285352
2785.000000	48.347414
2784.000000	48.404206
2783.000000	48.457820
2782.000000	48.510981
2781.000000	48.566649
2780.000000	48.626471
2779.000000	48.689308
2778.000000	48.752281
2777.000000	48.813120
2776.000000	48.870816
2775.000000	48.924884
2774.000000	48.975665
2773.000000	49.025156
2772.000000	49.075984
2771.000000	49.129470
2770.000000	49.185508
2769.000000	49.243638
2768.000000	49.302809
2767.000000	49.360664
2766.000000	49.414889
2765.000000	49.465427
2764.000000	49.514303
2763.000000	49.563547
2762.000000	49.614398
2761.000000	49.667801
2760.000000	49.723759
2759.000000	49.780155
2758.000000	49.833836
2757.000000	49.883146
2756.000000	49.928592
2755.000000	49.971564
2754.000000	50.013836
2753.000000	50.057940
2752.000000	50.106110
2751.000000	50.158390
2750.000000	50.212715
2749.000000	50.266725
2748.000000	50.318489
2747.000000	50.366063
2746.000000	50.408296
2745.000000	50.446437
2744.000000	50.483718
2743.000000	50.523119
2742.000000	50.566260
2741.000000	50.613782
2740.000000	50.664982
2739.000000	50.716930
2738.000000	50.765606
2737.000000	50.808574
2736.000000	50.845987
2735.000000	50.879566
2734.000000	50.911938
2733.000000	50.946622
2732.000000	50.986716
2731.000000	51.032762
2730.000000	51.082530
2729.000000	51.132756
2728.000000	51.180321
2727.000000	51.222538
2726.000000	51.258307
2725.000000	51.289463
2724.000000	51.319750
2723.000000	51.352199
2722.000000	51.388140
2721.000000	51.428006
2720.000000	51.471281
2719.000000	51.515574
2718.000000	51.557510
2717.000000	51.595247
2716.000000	51.629412
2715.000000	51.661799
2714.000000	51.694341
2713.000000	51.729030
2712.000000	51.767003
2711.000000	51.807194
2710.000000	51.847016
2709.000000	51.884486
2708.000000	51.918805
2707.000000	51.949365
2706.000000	51.975944
2705.000000	52.000090
2704.000000	52.024605
2703.000000	52.051088
2702.000000	52.078989
2701.000000	52.106875
2700.000000	52.133241
2699.000000	52.156017
2698.000000	52.173180
2697.000000	52.184862
2696.000000	52.193798
2695.000000	52.203319
2694.000000	52.215680
2693.000000	52.232008
2692.000000	52.252089
2691.000000	52.273513
2690.000000	52.292356
2689.000000	52.305528
2688.000000	52.312145
2687.000000	52.313169
2686.000000	52.311117
2685.000000	52.310018
2684.000000	52.313771
2683.000000	52.323543
2682.000000	52.337393
2681.000000	52.352252
2680.000000	52.365205
2679.000000	52.373380
2678.000000	52.374850
2677.000000	52.370690
2676.000000	52.364982
2675.000000	52.362180
2674.000000	52.365118
2673.000000	52.375279
2672.000000	52.392970
2671.000000	52.416521
2670.000000	52.442611
2669.000000	52.468439
2668.000000	52.493428
2667.000000	52.518781
2666.000000	52.546689
2665.000000	52.580117
2664.000000	52.621739
2663.000000	52.672384
2662.000000	52.730619
2661.000000	52.793958
2660.000000	52.859823
2659.000000	52.925566
2658.000000	52.989412
2657.000000	53.051770
2656.000000	53.114784
2655.000000	53.180327
2654.000000	53.248856
2653.000000	53.319987
2652.000000	53.392683
2651.000000	53.464676
2650.000000	53.533178
2649.000000	53.596902
2648.000000	53.656726
2647.000000	53.714354
2646.000000	53.771326
2645.000000	53.829164
2644.000000	53.888847
2643.000000	53.949287
2642.000000	54.007420
2641.000000	54.060441
2640.000000	54.107208
2639.000000	54.147883
2638.000000	54.183727
2637.000000	54.217793
2636.000000	54.254253
2635.000000	54.295638
2634.000000	54.341230
2633.000000	54.388188
2632.000000	54.433276
2631.000000	54.473475
2630.000000	54.506576
2629.000000	54.532613
2628.000000	54.554152
2627.000000	54.574625
2626.000000	54.596889
2625.000000	54.622995
2624.000000	54.653713
2623.000000	54.687295
2622.000000	54.719674
2621.000000	54.746925
2620.000000	54.767288
2619.000000	54.781194
2618.000000	54.790752
2617.000000	54.799614
2616.000000	54.811916
2615.000000	54.830035
2614.000000	54.853511
2613.000000	54.879974
2612.000000	54.906069
2611.000000	54.927797
2610.000000	54.941795
2609.000000	54.947558
2608.000000	54.947751
2607.000000	54.945770
2606.000000	54.943764
2605.000000	54.942590
2604.000000	54.942015
2603.000000	54.940237
2602.000000	54.934299
2601.000000	54.922265
2600.000000	54.904434
2599.000000	54.882474
2598.000000	54.858653
2597.000000	54.836074
2596.000000	54.818139
2595.000000	54.806745
2594.000000	54.801604
2593.000000	54.801573
2592.000000	54.806063
2591.000000	54.815032
2590.000000	54.829354
2589.000000	54.851746
2588.000000	54.885659
2587.000000	54.933005
2586.000000	54.992953
2585.000000	55.063067
2584.000000	55.140530
2583.000000	55.221675
2582.000000	55.302742
2581.000000	55.381975
2580.000000	55.460621
2579.000000	55.541619
2578.000000	55.627591
2577.000000	55.720258
2576.000000	55.819818
2575.000000	55.923890
2574.000000	56.028041
2573.000000	56.128104
2572.000000	56.221862
2571.000000	56.308849
2570.000000	56.390257
2569.000000	56.469650
2568.000000	56.552105
2567.000000	56.641088
2566.000000	56.736358
2565.000000	56.834981
2564.000000	56.933104
2563.000000	57.026622
2562.000000	57.112060
2561.000000	57.188587
2560.000000	57.258823
2559.000000	57.326865
2558.000000	57.396223
2557.000000	57.469498
2556.000000	57.548039
2555.000000	57.630503
2554.000000	57.712615
2553.000000	57.789804
2552.000000	57.859773
2551.000000	57.922419
2550.000000	57.979058
2549.000000	58.032587
2548.000000	58.086967
2547.000000	58.144699
2546.000000	58.205037
2545.000000	58.265429
2544.000000	58.323326
2543.000000	58.376264
2542.000000	58.421937
2541.000000	58.459815
2540.000000	58.492182
2539.000000	58.521995
2538.000000	58.550558
2537.000000	58.577660
2536.000000	58.602178
2535.000000	58.621654
2534.000000	58.632134
2533.000000	58.630533
2532.000000	58.616865
2531.000000	58.593177
2530.000000	58.562044
2529.000000	58.526432
2528.000000	58.489600
2527.000000	58.453382
2526.000000	58.416929
2525.000000	58.378674
2524.000000	58.338659
2523.000000	58.298606
2522.000000	58.261249
2521.000000	58.231011
2520.000000	58.213586
2519.000000	58.213386
2518.000000	58.231549
2517.000000	58.266280
2516.000000	58.314408
2515.000000	58.371056
2514.000000	58.430299
2513.000000	58.488368
2512.000000	58.545485
2511.000000	58.604595
2510.000000	58.668593
2509.000000	58.739554
2508.000000	58.818673
2507.000000	58.904560
2506.000000	58.992514
2505.000000	59.076741
2504.000000	59.153248
2503.000000	59.220389
2502.000000	59.278451
2501.000000	59.330225
2500.000000	59.380795
2499.000000	59.434738
2498.000000	59.493373
2497.000000	59.555363
2496.000000	59.618293
2495.000000	59.678633
2494.000000	59.732050
2493.000000	59.775982
2492.000000	59.811913
2491.000000	59.843820
2490.000000	59.875292
2489.000000	59.908891
2488.000000	59.946339
2487.000000	59.987328
2486.000000	60.028690
2485.000000	60.066511
2484.000000	60.098906
2483.000000	60.125948
2482.000000	60.148565
2481.000000	60.168980
2480.000000	60.190863
2479.000000	60.216933
2478.000000	60.246679
2477.000000	60.277560
2476.000000	60.307339
2475.000000	60.334192
2474.000000	60.356281
2473.000000	60.373389
2472.000000	60.388387
2471.000000	60.405294
2470.000000	60.426254
2469.000000	60.451255
2468.000000	60.479268
2467.000000	60.507983
2466.000000	60.533571
2465.000000	60.552917
2464.000000	60.566090
2463.000000	60.575783
2462.000000	60.585348
2461.000000	60.598327
2460.000000	60.618030
2459.000000	60.645228
2458.000000	60.676720
2457.000000	60.707538
2456.000000	60.734131
2455.000000	60.754775
2454.000000	60.768784
2453.000000	60.777556
2452.000000	60.785427
2451.000000	60.797437
2450.000000	60.816306
2449.000000	60.842108
2448.000000	60.873274
2447.000000	60.906372
2446.000000	60.936352
2445.000000	60.959328
2444.000000	60.975027
2443.000000	60.985879
2442.000000	60.995043
2441.000000	61.006257
2440.000000	61.023607
2439.000000	61.048982
2438.000000	61.080227
2437.000000	61.113086
2436.000000	61.144025
2435.000000	61.170404
2434.000000	61.190148
2433.000000	61.203566
2432.000000	61.214421
2431.000000	61.227250
2430.000000	61.244302
2429.000000	61.266009
2428.000000	61.292477
2427.000000	61.322510
2426.000000	61.352697
2425.000000	61.379871
2424.000000	61.403772
2423.000000	61.425977
2422.000000	61.447653
2421.000000	61.470016
2420.000000	61.495280
2419.000000	61.524641
2418.000000	61.556137
2417.000000	61.586381
2416.000000	61.613559
2415.000000	61.637379
2414.000000	61.657835
2413.000000	61.676237
2412.000000	61.696155
2411.000000	61.720895
2410.000000	61.750538
2409.000000	61.782779
2408.000000	61.815317
2407.000000	61.845854
2406.000000	61.871572
2405.000000	61.891283
2404.000000	61.907459
2403.000000	61.924389
2402.000000	61.945235
2401.000000	61.971923
2400.000000	62.005700
2399.000000	62.045317
2398.000000	62.085948
2397.000000	62.122245
2396.000000	62.151921
2395.000000	62.175443
2394.000000	62.194375
2393.000000	62.212211
2392.000000	62.234638
2391.000000	62.266050
2390.000000	62.306368
2389.000000	62.352370
2388.000000	62.400962
2387.000000	62.448639
2386.000000	62.490855
2385.000000	62.525447
2384.000000	62.554959
2383.000000	62.585135
2382.000000	62.620481
2381.000000	62.664069
2380.000000	62.719065
2379.000000	62.785627
2378.000000	62.859130
2377.000000	62.932849
2376.000000	63.002030
2375.000000	63.064047
2374.000000	63.117586
2373.000000	63.164631
2372.000000	63.211165
2371.000000	63.262481
2370.000000	63.318297
2369.000000	63.377023
2368.000000	63.438585
2367.000000	63.501294
2366.000000	63.560142
2365.000000	63.612045
2364.000000	63.662170
2363.000000	63.712408
2362.000000	63.760645
2361.000000	63.810936
2360.000000	63.866245
2359.000000	63.929817
2358.000000	63.996375
2357.000000	64.059099
2356.000000	64.118901
2355.000000	64.172439
2354.000000	64.221314
2353.000000	64.268866
2352.000000	64.325182
2351.000000	64.393360
2350.000000	64.456799
2349.000000	64.506890
2348.000000	64.548755
2347.000000	64.605568
2346.000000	64.684161
2345.000000	64.763404
2344.000000	64.825892
2343.000000	64.867335
2342.000000	64.907584
2341.000000	64.957480
2340.000000	65.016851
2339.000000	65.080428
2338.000000	65.143126
2337.000000	65.201407
2336.000000	65.254613
2335.000000	65.303651
2334.000000	65.352808
2333.000000	65.405137
2332.000000	65.464202
2331.000000	65.535094
2330.000000	65.611701
2329.000000	65.692612
2328.000000	65.766802
2327.000000	65.832239
2326.000000	65.886083
2325.000000	65.928106
2324.000000	65.967001
2323.000000	66.006965
2322.000000	66.055287
2321.000000	66.110253
2320.000000	66.173878
2319.000000	66.245312
2318.000000	66.319342
2317.000000	66.387836
2316.000000	66.443977
2315.000000	66.489446
2314.000000	66.526630
2313.000000	66.561473
2312.000000	66.599195
2311.000000	66.647664
2310.000000	66.708261
2309.000000	66.777833
2308.000000	66.849930
2307.000000	66.919334
2306.000000	66.981001
2305.000000	67.031592
2304.000000	67.073481
2303.000000	67.113342
2302.000000	67.157101
2301.000000	67.207757
2300.000000	67.265763
2299.000000	67.330684
2298.000000	67.397240
2297.000000	67.459535
2296.000000	67.514016
2295.000000	67.562575
2294.000000	67.607640
2293.000000	67.651846
2292.000000	67.698922
2291.000000	67.752088
2290.000000	67.809997
2289.000000	67.866999
2288.000000	67.918906
2287.000000	67.964643
2286.000000	68.004814
2285.000000	68.040958
2284.000000	68.078256
2283.000000	68.122938
2282.000000	68.177455
2281.000000	68.238819
2280.000000	68.302242
2279.000000	68.362383
2278.000000	68.412792
2277.000000	68.448836
2276.000000	68.472575
2275.000000	68.492374
2274.000000	68.516713
2273.000000	68.551488
2272.000000	68.600365
2271.000000	68.663064
2270.000000	68.732080
2269.000000	68.795244
2268.000000	68.843130
2267.000000	68.872546
2266.000000	68.884964
2265.000000	68.886749
2264.000000	68.889801
2263.000000	68.907072
2262.000000	68.944440
2261.000000	68.998560
2260.000000	69.061427
2259.000000	69.122612
2258.000000	69.170128
2257.000000	69.194680
2256.000000	69.196688
2255.000000	69.185940
2254.000000	69.174528
2253.000000	69.172522
2252.000000	69.187434
2251.000000	69.221832
2250.000000	69.269123
2249.000000	69.315927
2248.000000	69.350229
2247.000000	69.365922
2246.000000	69.361818
2245.000000	69.341957
2244.000000	69.316579
2243.000000	69.298011
2242.000000	69.293189
2241.000000	69.301590
2240.000000	69.318659
2239.000000	69.337419
2238.000000	69.348302
2237.000000	69.343305
2236.000000	69.322297
2235.000000	69.292445
2234.000000	69.261832
2233.000000	69.236218
2232.000000	69.219654
2231.000000	69.212648
2230.000000	69.209274
2229.000000	69.200559
2228.000000	69.181710
2227.000000	69.153757
2226.000000	69.119894
2225.000000	69.084651
2224.000000	69.055340
2223.000000	69.038394
2222.000000	69.032850
2221.000000	69.030680
2220.000000	69.023498
2219.000000	69.006122
2218.000000	68.975679
2217.000000	68.933341
2216.000000	68.887706
2215.000000	68.851604
2214.000000	68.833754
2213.000000	68.835148
2212.000000	68.851468
2211.000000	68.874216
2210.000000	68.890468
2209.000000	68.887895
2208.000000	68.862941
2207.000000	68.822546
2206.000000	68.778790
2205.000000	68.744834
2204.000000	68.733215
2203.000000	68.750686
2202.000000	68.792126
2201.000000	68.842322
2200.000000	68.884737
2199.000000	68.907463
2198.000000	68.904397
2197.000000	68.877817
2196.000000	68.841038
2195.000000	68.813328
2194.000000	68.809382
2193.000000	68.833923
2192.000000	68.883189
2191.000000	68.946198
2190.000000	69.005631
2189.000000	69.044442
2188.000000	69.055382
2187.000000	69.043056
2186.000000	69.018333
2185.000000	68.994339
2184.000000	68.984985
2183.000000	68.999633
2182.000000	69.036336
2181.000000	69.083015
2180.000000	69.125683
2179.000000	69.153780
2178.000000	69.160824
2177.000000	69.146896
2176.000000	69.121692
2175.000000	69.100069
2174.000000	69.092424
2173.000000	69.100804
2172.000000	69.121968
2171.000000	69.149111
2170.000000	69.171722
2169.000000	69.180355
2168.000000	69.174019
2167.000000	69.160113
2166.000000	69.147468
2165.000000	69.142616
2164.000000	69.150422
2163.000000	69.171759
2162.000000	69.199526
2161.000000	69.221739
2160.000000	69.230218
2159.000000	69.224292
2158.000000	69.208082
2157.000000	69.189345
2156.000000	69.179869
2155.000000	69.190250
2154.000000	69.221596
2153.000000	69.264679
2152.000000	69.306690
2151.000000	69.335901
2150.000000	69.342831
2149.000000	69.324597
2148.000000	69.290143
2147.000000	69.256923
2146.000000	69.240659
2145.000000	69.249455
2144.000000	69.284179
2143.000000	69.337391
2142.000000	69.391988
2141.000000	69.427787
2140.000000	69.433160
2139.000000	69.409378
2138.000000	69.366418
2137.000000	69.319675
2136.000000	69.288301
2135.000000	69.287905
2134.000000	69.320791
2133.000000	69.375259
2132.000000	69.433737
2131.000000	69.479310
2130.000000	69.498219
2129.000000	69.484910
2128.000000	69.447741
2127.000000	69.405527
2126.000000	69.376606
2125.000000	69.372253
2124.000000	69.396536
2123.000000	69.444761
2122.000000	69.501566
2121.000000	69.547327
2120.000000	69.569813
2119.000000	69.568468
2118.000000	69.550049
2117.000000	69.525796
2116.000000	69.510976
2115.000000	69.518805
2114.000000	69.551481
2113.000000	69.599789
2112.000000	69.651489
2111.000000	69.696878
2110.000000	69.728963
2109.000000	69.745951
2108.000000	69.755275
2107.000000	69.770009
2106.000000	69.799463
2105.000000	69.845636
2104.000000	69.906369
2103.000000	69.976120
2102.000000	70.044269
2101.000000	70.099964
2100.000000	70.141161
2099.000000	70.175543
2098.000000	70.213323
2097.000000	70.262800
2096.000000	70.330622
2095.000000	70.418362
2094.000000	70.517001
2093.000000	70.610372
2092.000000	70.685986
2091.000000	70.739984
2090.000000	70.774402
2089.000000	70.796786
2088.000000	70.821887
2087.000000	70.865564
2086.000000	70.933820
2085.000000	71.020103
2084.000000	71.111582
2083.000000	71.193607
2082.000000	71.250578
2081.000000	71.272167
2080.000000	71.262301
2079.000000	71.237676
2078.000000	71.216960
2077.000000	71.213895
2076.000000	71.236953
2075.000000	71.286051
2074.000000	71.347438
2073.000000	71.399346
2072.000000	71.425113
2071.000000	71.419210
2070.000000	71.384664
2069.000000	71.332123
2068.000000	71.280743
2067.000000	71.251178
2066.000000	71.253749
2065.000000	71.285070
2064.000000	71.333931
2063.000000	71.385401
2062.000000	71.422563
2061.000000	71.433864
2060.000000	71.422061
2059.000000	71.401809
2058.000000	71.388238
2057.000000	71.391620
2056.000000	71.419204
2055.000000	71.472758
2054.000000	71.543201
2053.000000	71.614884
2052.000000	71.676813
2051.000000	71.726439
2050.000000	71.765270
2049.000000	71.798368
2048.000000	71.836877
2047.000000	71.892697
2046.000000	71.968597
2045.000000	72.057565
2044.000000	72.151500
2043.000000	72.244933
2042.000000	72.332116
2041.000000	72.409420
2040.000000	72.481977
2039.000000	72.561349
2038.000000	72.655526
2037.000000	72.765489
2036.000000	72.889409
2035.000000	73.022587
2034.000000	73.153853
2033.000000	73.270476
2032.000000	73.369558
2031.000000	73.459283
2030.000000	73.549715
2029.000000	73.648965
2028.000000	73.765524
2027.000000	73.904706
2026.000000	74.059776
2025.000000	74.214595
2024.000000	74.355473
2023.000000	74.475809
2022.000000	74.572940
2021.000000	74.649515
2020.000000	74.719337
2019.000000	74.802317
2018.000000	74.910501
2017.000000	75.042911
2016.000000	75.191587
2015.000000	75.344302
2014.000000	75.483541
2013.000000	75.593809
2012.000000	75.673436
2011.000000	75.733641
2010.000000	75.786854
2009.000000	75.843036
2008.000000	75.913868
2007.000000	76.009011
2006.000000	76.124485
2005.000000	76.244602
2004.000000	76.355335
2003.000000	76.449489
2002.000000	76.522224
2001.000000	76.571291
2000.000000	76.606306
1999.000000	76.644337
1998.000000	76.695066
1997.000000	76.758303
1996.000000	76.832036
1995.000000	76.913949
1994.000000	76.996167
1993.000000	77.068834
1992.000000	77.130655
1991.000000	77.186964
1990.000000	77.237342
1989.000000	77.278291
1988.000000	77.315828
1987.000000	77.361966
1986.000000	77.417981
1985.000000	77.473283
1984.000000	77.520986
1983.000000	77.563220
1982.000000	77.601737
1981.000000	77.634975
1980.000000	77.667758
1979.000000	77.708895
1978.000000	77.758649
1977.000000	77.808969
1976.000000	77.854878
1975.000000	77.896332
1974.000000	77.929553
1973.000000	77.949374
1972.000000	77.960479
1971.000000	77.975986
1970.000000	78.004086
1969.000000	78.044595
1968.000000	78.095872
1967.000000	78.155018
1966.000000	78.211315
1965.000000	78.250136
1964.000000	78.266927
1963.000000	78.269469
1962.000000	78.266120
1961.000000	78.262372
1960.000000	78.267774
1959.000000	78.292920
1958.000000	78.337744
1957.000000	78.391120
1956.000000	78.443007
1955.000000	78.487894
1954.000000	78.517805
1953.000000	78.525864
1952.000000	78.516258
1951.000000	78.503943
1950.000000	78.501459
1949.000000	78.512058
1948.000000	78.536822
1947.000000	78.574538
1946.000000	78.615132
1945.000000	78.646243
1944.000000	78.666687
1943.000000	78.683570
1942.000000	78.697923
1941.000000	78.703148
1940.000000	78.697341
1939.000000	78.688890
1938.000000	78.687780
1937.000000	78.698126
1936.000000	78.720795
1935.000000	78.753187
1934.000000	78.785030
1933.000000	78.805311
1932.000000	78.811649
1931.000000	78.810839
1930.000000	78.806081
1929.000000	78.793964
1928.000000	78.778838
1927.000000	78.769885
1926.000000	78.771708
1925.000000	78.780345
1924.000000	78.790894
1923.000000	78.803786
1922.000000	78.815728
1921.000000	78.816719
1920.000000	78.803455
1919.000000	78.788306
1918.000000	78.784659
1917.000000	78.789343
1916.000000	78.791159
1915.000000	78.784307
1914.000000	78.767843
1913.000000	78.747583
1912.000000	78.734462
1911.000000	78.735190
1910.000000	78.741856
1909.000000	78.741352
1908.000000	78.733968
1907.000000	78.724446
1906.000000	78.710307
1905.000000	78.684199
1904.000000	78.647582
1903.000000	78.613705
1902.000000	78.588707
1901.000000	78.569427
1900.000000	78.559289
1899.000000	78.566277
1898.000000	78.589071
1897.000000	78.614994
1896.000000	78.633098
1895.000000	78.640843
1894.000000	78.633317
1893.000000	78.603496
1892.000000	78.559296
1891.000000	78.524430
1890.000000	78.515716
1889.000000	78.533147
1888.000000	78.569551
1887.000000	78.614614
1886.000000	78.652965
1885.000000	78.671908
1884.000000	78.671520
1883.000000	78.660095
1882.000000	78.638493
1881.000000	78.603733
1880.000000	78.567452
1879.000000	78.548474
1878.000000	78.551977
1877.000000	78.569913
1876.000000	78.594981
1875.000000	78.623223
1874.000000	78.643236
1873.000000	78.638399
1872.000000	78.607611
1871.000000	78.572994
1870.000000	78.556971
1869.000000	78.555891
1868.000000	78.557397
1867.000000	78.561396
1866.000000	78.562745
1865.000000	78.551533
1864.000000	78.532705
1863.000000	78.519169
1862.000000	78.509011
1861.000000	78.488092
1860.000000	78.454411
1859.000000	78.419971
1858.000000	78.389642
1857.000000	78.359259
1856.000000	78.331560
1855.000000	78.315528
1854.000000	78.308977
1853.000000	78.296951
1852.000000	78.278427
1851.000000	78.260720
1850.000000	78.241098
1849.000000	78.217397
1848.000000	78.199750
1847.000000	78.192035
1846.000000	78.172207
1845.000000	78.126622
1844.000000	78.074516
1843.000000	78.037815
1842.000000	78.014314
1841.000000	77.988844
1840.000000	77.957799
1839.000000	77.932878
1838.000000	77.918965
1837.000000	77.897880
1836.000000	77.852713
1835.000000	77.788055
1834.000000	77.710806
1833.000000	77.622493
1832.000000	77.542882
1831.000000	77.499511
1830.000000	77.487605
1829.000000	77.477926
1828.000000	77.451698
1827.000000	77.410011
1826.000000	77.362996
1825.000000	77.317949
1824.000000	77.274357
1823.000000	77.223089
1822.000000	77.150053
1821.000000	77.055594
1820.000000	76.966451
1819.000000	76.911788
1818.000000	76.895949
1817.000000	76.896529
1816.000000	76.890489
1815.000000	76.869975
1814.000000	76.827599
1813.000000	76.758552
1812.000000	76.670021
1811.000000	76.580341
1810.000000	76.504411
1809.000000	76.441141
1808.000000	76.390178
1807.000000	76.355378
1806.000000	76.324644
1805.000000	76.273509
1804.000000	76.198198
1803.000000	76.125723
1802.000000	76.072968
1801.000000	76.031917
1800.000000	75.992714
1799.000000	75.955742
1798.000000	75.920138
1797.000000	75.882811
1796.000000	75.850879
1795.000000	75.824540
1794.000000	75.784858
1793.000000	75.721046
1792.000000	75.645819
1791.000000	75.585133
1790.000000	75.542005
1789.000000	75.485871
1788.000000	75.398060
1787.000000	75.295653
1786.000000	75.207654
1785.000000	75.143791
1784.000000	75.102963
1783.000000	75.089663
1782.000000	75.088388
1781.000000	75.077977
1780.000000	75.057450
1779.000000	75.031795
1778.000000	74.997313
1777.000000	74.962013
1776.000000	74.961272
1775.000000	74.996904
1774.000000	75.006494
1773.000000	74.931012
1772.000000	74.783621
1771.000000	74.637885
1770.000000	74.542478
1769.000000	74.478074
1768.000000	74.414083
1767.000000	74.349784
1766.000000	74.283051
1765.000000	74.194086
1764.000000	74.074711
1763.000000	73.958779
1762.000000	73.884330
1761.000000	73.847963
1760.000000	73.823381
1759.000000	73.799327
1758.000000	73.766121
1757.000000	73.714722
1756.000000	73.665208
1755.000000	73.640205
1754.000000	73.619932
1753.000000	73.552881
1752.000000	73.438855
1751.000000	73.335870
1750.000000	73.273074
1749.000000	73.222152
1748.000000	73.159728
1747.000000	73.087621
1746.000000	72.996533
1745.000000	72.877830
1744.000000	72.744256
1743.000000	72.621757
1742.000000	72.516430
1741.000000	72.405064
1740.000000	72.276324
1739.000000	72.169456
1738.000000	72.141062
1737.000000	72.181689
1736.000000	72.199271
1735.000000	72.144445
1734.000000	72.009457
1733.000000	71.761082
1732.000000	71.443162
1731.000000	71.155731
1730.000000	70.922217
1729.000000	70.707933
1728.000000	70.501382
1727.000000	70.310529
1726.000000	70.128784
1725.000000	69.949692
1724.000000	69.774228
1723.000000	69.611472
1722.000000	69.480241
1721.000000	69.400033
1720.000000	69.372082
1719.000000	69.350405
1718.000000	69.220353
1717.000000	68.888989
1716.000000	68.430122
1715.000000	68.010035
1714.000000	67.705008
1713.000000	67.476328
1712.000000	67.267045
1711.000000	67.058153
1710.000000	66.835740
1709.000000	66.576017
1708.000000	66.284432
1707.000000	65.981984
1706.000000	65.671014
1705.000000	65.369901
1704.000000	65.143218
1703.000000	64.984702
1702.000000	64.774223
1701.000000	64.517964
1700.000000	64.339985
1699.000000	64.271301
1698.000000	64.227266
1697.000000	63.999750
1696.000000	63.476884
1695.000000	62.843294
1694.000000	62.310250
1693.000000	61.926574
1692.000000	61.630488
1691.000000	61.343259
1690.000000	61.058720
1689.000000	60.834375
1688.000000	60.728782
1687.000000	60.672103
1686.000000	60.477406
1685.000000	60.020509
1684.000000	59.368928
1683.000000	58.767802
1682.000000	58.336556
1681.000000	57.984264
1680.000000	57.625381
1679.000000	57.264719
1678.000000	56.919332
1677.000000	56.550788
1676.000000	56.146312
1675.000000	55.763224
1674.000000	55.434278
1673.000000	55.137600
1672.000000	54.833409
1671.000000	54.487396
1670.000000	54.079831
1669.000000	53.624004
1668.000000	53.183713
1667.000000	52.814484
1666.000000	52.506115
1665.000000	52.204148
1664.000000	51.873810
1663.000000	51.526158
1662.000000	51.170750
1661.000000	50.803088
1660.000000	50.428161
1659.000000	50.061975
1658.000000	49.740695
1657.000000	49.530647
1656.000000	49.453068
1655.000000	49.418689
1654.000000	49.267127
1653.000000	48.866942
1652.000000	48.278908
1651.000000	47.705261
1650.000000	47.292312
1649.000000	47.015905
1648.000000	46.743102
1647.000000	46.397282
1646.000000	46.016278
1645.000000	45.644035
1644.000000	45.297646
1643.000000	45.004384
1642.000000	44.741962
1641.000000	44.462971
1640.000000	44.184855
1639.000000	43.964866
1638.000000	43.795396
1637.000000	43.581149
1636.000000	43.264003
1635.000000	42.917205
1634.000000	42.621085
1633.000000	42.371590
1632.000000	42.144678
1631.000000	41.926835
1630.000000	41.709567
1629.000000	41.486562
1628.000000	41.266217
1627.000000	41.079273
1626.000000	40.934686
1625.000000	40.806607
1624.000000	40.673111
1623.000000	40.535252
1622.000000	40.404129
1621.000000	40.301425
1620.000000	40.260958
1619.000000	40.279284
1618.000000	40.289849
1617.000000	40.214026
1616.000000	40.051335
1615.000000	39.884537
1614.000000	39.776452
1613.000000	39.715083
1612.000000	39.664323
1611.000000	39.621734
1610.000000	39.597848
1609.000000	39.585569
1608.000000	39.583718
1607.000000	39.613426
1606.000000	39.678859
1605.000000	39.755517
1604.000000	39.824829
1603.000000	39.883952
1602.000000	39.928876
1601.000000	39.952567
1600.000000	39.967036
1599.000000	40.001807
1598.000000	40.073152
1597.000000	40.173187
1596.000000	40.289580
1595.000000	40.415719
1594.000000	40.535988
1593.000000	40.627158
1592.000000	40.684124
1591.000000	40.725187
1590.000000	40.767523
1589.000000	40.816972
1588.000000	40.883103
1587.000000	40.980096
1586.000000	41.104761
1585.000000	41.229444
1584.000000	41.337811
1583.000000	41.429193
1582.000000	41.498639
1581.000000	41.557597
1580.000000	41.659250
1579.000000	41.849268
1578.000000	42.092135
1577.000000	42.287125
1576.000000	42.361373
1575.000000	42.334522
1574.000000	42.284900
1573.000000	42.271040
1572.000000	42.289842
1571.000000	42.328819
1570.000000	42.393790
1569.000000	42.474962
1568.000000	42.565521
1567.000000	42.671438
1566.000000	42.796598
1565.000000	42.933674
1564.000000	43.090376
1563.000000	43.276470
1562.000000	43.452242
1561.000000	43.552870
1560.000000	43.690250
1559.000000	43.874592
1558.000000	44.009631
1557.000000	44.098917
1556.000000	44.183484
1555.000000	44.289279
1554.000000	44.387716
1553.000000	44.458215
1552.000000	44.522280
1551.000000	44.624486
1550.000000	44.791253
1549.000000	45.007574
1548.000000	45.241147
1547.000000	45.486185
1546.000000	45.768795
1545.000000	46.101674
1544.000000	46.465219
1543.000000	46.851712
1542.000000	47.287581
1541.000000	47.749590
1540.000000	48.131239
1539.000000	48.383555
1538.000000	48.528731
1537.000000	48.647563
1536.000000	48.831553
1535.000000	49.113936
1534.000000	49.483873
1533.000000	49.876377
1532.000000	50.227866
1531.000000	50.539910
1530.000000	50.853401
1529.000000	51.214193
1528.000000	51.650322
1527.000000	52.160250
1526.000000	52.706760
1525.000000	53.240849
1524.000000	53.746603
1523.000000	54.232920
1522.000000	54.688191
1521.000000	55.070091
1520.000000	55.371303
1519.000000	55.676533
1518.000000	56.078364
1517.000000	56.564567
1516.000000	57.053303
1515.000000	57.490990
1514.000000	57.868066
1513.000000	58.197999
1512.000000	58.515695
1511.000000	58.882107
1510.000000	59.357572
1509.000000	59.967800
1508.000000	60.683567
1507.000000	61.373419
1506.000000	61.931557
1505.000000	62.254841
1504.000000	62.386584
1503.000000	62.521688
1502.000000	62.747337
1501.000000	63.060588
1500.000000	63.474025
1499.000000	64.015716
1498.000000	64.647256
1497.000000	65.245198
1496.000000	65.691446
1495.000000	65.977585
1494.000000	66.171394
1493.000000	66.333689
1492.000000	66.527609
1491.000000	66.844564
1490.000000	67.295247
1489.000000	67.772358
1488.000000	68.194468
1487.000000	68.562019
1486.000000	68.870868
1485.000000	69.080176
1484.000000	69.198904
1483.000000	69.288577
1482.000000	69.386147
1481.000000	69.476331
1480.000000	69.544743
1479.000000	69.601360
1478.000000	69.638094
1477.000000	69.624176
1476.000000	69.537226
1475.000000	69.348909
1474.000000	68.944644
1473.000000	68.183759
1472.000000	67.133341
1471.000000	66.012862
1470.000000	64.871845
1469.000000	63.594916
1468.000000	62.079302
1467.000000	60.226750
1466.000000	57.846946
1465.000000	54.827413
1464.000000	51.444539
1463.000000	48.138635
1462.000000	45.059541
1461.000000	42.146951
1460.000000	39.361268
1459.000000	36.616947
1458.000000	33.677607
1457.000000	30.583410
1456.000000	27.977420
1455.000000	26.267095
1454.000000	25.195401
1453.000000	24.457107
1452.000000	23.997615
1451.000000	23.862273
1450.000000	24.038588
1449.000000	24.504261
1448.000000	25.280939
1447.000000	26.320229
1446.000000	27.479950
1445.000000	28.683907
1444.000000	29.970071
1443.000000	31.363116
1442.000000	32.809964
1441.000000	34.243739
1440.000000	35.648066
1439.000000	37.062707
1438.000000	38.601938
1437.000000	40.380091
1436.000000	42.265681
1435.000000	43.956919
1434.000000	45.380282
1433.000000	46.691220
1432.000000	48.022860
1431.000000	49.389747
1430.000000	50.727159
1429.000000	51.960264
1428.000000	53.017084
1427.000000	53.862435
1426.000000	54.532670
1425.000000	55.101639
1424.000000	55.604820
1423.000000	56.035607
1422.000000	56.409732
1421.000000	56.780308
1420.000000	57.227114
1419.000000	57.766264
1418.000000	58.324126
1417.000000	58.859837
1416.000000	59.380074
1415.000000	59.889434
1414.000000	60.411910
1413.000000	60.995582
1412.000000	61.663055
1411.000000	62.391984
1410.000000	63.154512
1409.000000	63.929207
1408.000000	64.673733
1407.000000	65.349450
1406.000000	65.961974
1405.000000	66.538214
1404.000000	67.064588
1403.000000	67.502195
1402.000000	67.867978
1401.000000	68.236239
1400.000000	68.655922
1399.000000	69.091818
1398.000000	69.479580
1397.000000	69.793309
1396.000000	70.022436
1395.000000	70.163804
1394.000000	70.251945
1393.000000	70.328012
1392.000000	70.385920
1391.000000	70.397293
1390.000000	70.351387
1389.000000	70.231406
1388.000000	69.976496
1387.000000	69.543551
1386.000000	69.023054
1385.000000	68.594641
1384.000000	68.376554
1383.000000	68.380623
1382.000000	68.546147
1381.000000	68.764903
1380.000000	68.919476
1379.000000	68.941036
1378.000000	68.835133
1377.000000	68.640117
1376.000000	68.375358
1375.000000	68.052665
1374.000000	67.716361
1373.000000	67.426790
1372.000000	67.194015
1371.000000	66.982488
1370.000000	66.764813
1369.000000	66.523685
1368.000000	66.227231
1367.000000	65.846767
1366.000000	65.389009
1365.000000	64.884104
1364.000000	64.357209
1363.000000	63.831075
1362.000000	63.346977
1361.000000	62.937611
1360.000000	62.587073
1359.000000	62.263870
1358.000000	61.968441
1357.000000	61.723964
1356.000000	61.548202
1355.000000	61.453156
1354.000000	61.450218
1353.000000	61.530899
1352.000000	61.649045
1351.000000	61.738787
1350.000000	61.735497
1349.000000	61.578112
1348.000000	61.210779
1347.000000	60.605433
1346.000000	59.775192
1345.000000	58.757358
1344.000000	57.594722
1343.000000	56.325743
1342.000000	54.973419
1341.000000	53.526954
1340.000000	51.952075
1339.000000	50.239420
1338.000000	48.411569
1337.000000	46.478670
1336.000000	44.430354
1335.000000	42.275557
1334.000000	40.055719
1333.000000	37.816400
1332.000000	35.599873
1331.000000	33.462495
1330.000000	31.463163
1329.000000	29.630832
1328.000000	27.966876
1327.000000	26.466603
1326.000000	25.114351
1325.000000	23.876824
1324.000000	22.725109
1323.000000	21.658785
1322.000000	20.687003
1321.000000	19.804813
1320.000000	19.016720
1319.000000	18.360069
1318.000000	17.887155
1317.000000	17.633630
1316.000000	17.619944
1315.000000	17.867756
1314.000000	18.379684
1313.000000	19.125208
1312.000000	20.061190
1311.000000	21.148784
1310.000000	22.350279
1309.000000	23.619475
1308.000000	24.913338
1307.000000	26.204931
1306.000000	27.476856
1305.000000	28.717457
1304.000000	29.926309
1303.000000	31.113122
1302.000000	32.283139
1301.000000	33.426154
1300.000000	34.519583
1299.000000	35.538426
1298.000000	36.461324
1297.000000	37.277212
1296.000000	37.999666
1295.000000	38.673920
1294.000000	39.364554
1293.000000	40.131265
1292.000000	41.010049
1291.000000	42.007136
1290.000000	43.102966
1289.000000	44.260992
1288.000000	45.439622
1287.000000	46.606382
1286.000000	47.746323
1285.000000	48.857242
1284.000000	49.936862
1283.000000	50.975284
1282.000000	51.953522
1281.000000	52.843458
1280.000000	53.608608
1279.000000	54.219425
1278.000000	54.675909
1277.000000	55.009135
1276.000000	55.269117
1275.000000	55.515711
1274.000000	55.811166
1273.000000	56.202468
1272.000000	56.701921
1271.000000	57.289955
1270.000000	57.935709
1269.000000	58.610414
1268.000000	59.289945
1267.000000	59.964757
1266.000000	60.649409
1265.000000	61.370061
1264.000000	62.138098
1263.000000	62.940110
1262.000000	63.746846
1261.000000	64.516687
1260.000000	65.195065
1259.000000	65.735871
1258.000000	66.135887
1257.000000	66.433178
1256.000000	66.676562
1255.000000	66.909175
1254.000000	67.165538
1253.000000	67.458202
1252.000000	67.757863
1251.000000	68.005181
1250.000000	68.147323
1249.000000	68.155639
1248.000000	68.024891
1247.000000	67.775701
1246.000000	67.458786
1245.000000	67.134047
1244.000000	66.833371
1243.000000	66.552072
1242.000000	66.262935
1241.000000	65.925053
1240.000000	65.490880
1239.000000	64.928451
1238.000000	64.248543
1237.000000	63.499129
1236.000000	62.737378
1235.000000	62.014624
1234.000000	61.371095
1233.000000	60.823052
1232.000000	60.353693
1231.000000	59.927776
1230.000000	59.516804
1229.000000	59.112283
1228.000000	58.722636
1227.000000	58.372526
1226.000000	58.101539
1225.000000	57.944594
1224.000000	57.913157
1223.000000	57.992063
1222.000000	58.150075
1221.000000	58.350195
1220.000000	58.555281
1219.000000	58.744662
1218.000000	58.926903
1217.000000	59.131279
1216.000000	59.387784
1215.000000	59.713325
1214.000000	60.109479
1213.000000	60.557794
1212.000000	61.017407
1211.000000	61.441744
1210.000000	61.804906
1209.000000	62.111436
1208.000000	62.386402
1207.000000	62.666777
1206.000000	62.995177
1205.000000	63.400552
1204.000000	63.876382
1203.000000	64.382153
1202.000000	64.866419
1201.000000	65.285434
1200.000000	65.612030
1199.000000	65.848268
1198.000000	66.034906
1197.000000	66.234856
1196.000000	66.498981
1195.000000	66.848137
1194.000000	67.274534
1193.000000	67.741548
1192.000000	68.185865
1191.000000	68.541844
1190.000000	68.778759
1189.000000	68.912526
1188.000000	68.988060
1187.000000	69.063377
1186.000000	69.198723
1185.000000	69.433737
1184.000000	69.762323
1183.000000	70.134211
1182.000000	70.483003
1181.000000	70.750177
1180.000000	70.899190
1179.000000	70.933445
1178.000000	70.904025
1177.000000	70.883394
1176.000000	70.924843
1175.000000	71.048056
1174.000000	71.246493
1173.000000	71.487860
1172.000000	71.714921
1171.000000	71.869627
1170.000000	71.927955
1169.000000	71.906602
1168.000000	71.841963
1167.000000	71.776402
1166.000000	71.753918
1165.000000	71.802300
1164.000000	71.911607
1163.000000	72.040302
1162.000000	72.145735
1161.000000	72.202125
1160.000000	72.200029
1159.000000	72.151284
1158.000000	72.095430
1157.000000	72.080779
1156.000000	72.132277
1155.000000	72.242814
1154.000000	72.387519
1153.000000	72.531846
1152.000000	72.634007
1151.000000	72.665495
1150.000000	72.638175
1149.000000	72.598920
1148.000000	72.597409
1147.000000	72.666396
1146.000000	72.820393
1145.000000	73.047759
1144.000000	73.301102
1143.000000	73.515253
1142.000000	73.645528
1141.000000	73.686157
1140.000000	73.661866
1139.000000	73.619952
1138.000000	73.624670
1137.000000	73.731150
1136.000000	73.951238
1135.000000	74.248004
1134.000000	74.559999
1133.000000	74.822536
1132.000000	74.979737
1131.000000	75.007368
1130.000000	74.935057
1129.000000	74.833158
1128.000000	74.773189
1127.000000	74.803398
1126.000000	74.944089
1125.000000	75.176144
1124.000000	75.433303
1123.000000	75.627280
1122.000000	75.694617
1121.000000	75.620179
1120.000000	75.427210
1119.000000	75.168035
1118.000000	74.916404
1117.000000	74.736984
1116.000000	74.649191
1115.000000	74.620754
1114.000000	74.593043
1113.000000	74.501760
1112.000000	74.285882
1111.000000	73.912057
1110.000000	73.396727
1109.000000	72.794479
1108.000000	72.161359
1107.000000	71.530963
1106.000000	70.914535
1105.000000	70.291663
1104.000000	69.605658
1103.000000	68.788860
1102.000000	67.795319
1101.000000	66.615629
1100.000000	65.262604
1099.000000	63.763079
1098.000000	62.154575
1097.000000	60.459562
1096.000000	58.671643
1095.000000	56.761115
1094.000000	54.694287
1093.000000	52.450778
1092.000000	50.028737
1091.000000	47.458042
1090.000000	44.797408
1089.000000	42.115204
1088.000000	39.475548
1087.000000	36.933077
1086.000000	34.524255
1085.000000	32.263904
1084.000000	30.159857
1083.000000	28.219663
1082.000000	26.450911
1081.000000	24.856137
1080.000000	23.440374
1079.000000	22.213339
1078.000000	21.163916
1077.000000	20.262302
1076.000000	19.478015
1075.000000	18.786310
1074.000000	18.161555
1073.000000	17.575723
1072.000000	17.021049
1071.000000	16.510681
1070.000000	16.055073
1069.000000	15.657236
1068.000000	15.323638
1067.000000	15.064069
1066.000000	14.872944
1065.000000	14.729196
1064.000000	14.621976
1063.000000	14.553873
1062.000000	14.524611
1061.000000	14.530172
1060.000000	14.578743
1059.000000	14.690300
1058.000000	14.871757
1057.000000	15.113335
1056.000000	15.407810
1055.000000	15.752674
1054.000000	16.137400
1053.000000	16.545072
1052.000000	16.973971
1051.000000	17.440963
1050.000000	17.959334
1049.000000	18.535134
1048.000000	19.177704
1047.000000	19.895577
1046.000000	20.680779
1045.000000	21.510690
1044.000000	22.370565
1043.000000	23.257486
1042.000000	24.169351
1041.000000	25.107445
1040.000000	26.084560
1039.000000	27.119533
1038.000000	28.218037
1037.000000	29.367557
1036.000000	30.548259
1035.000000	31.735872
1034.000000	32.901814
1033.000000	34.025030
1032.000000	35.108086
1031.000000	36.176047
1030.000000	37.258976
1029.000000	38.377395
1028.000000	39.535806
1027.000000	40.718915
1026.000000	41.891601
1025.000000	43.011858
1024.000000	44.048291
1023.000000	44.992835
1022.000000	45.865206
1021.000000	46.705473
1020.000000	47.559310
1019.000000	48.459467
1018.000000	49.412237
1017.000000	50.395067
1016.000000	51.361802
1015.000000	52.259793
1014.000000	53.052748
1013.000000	53.736217
1012.000000	54.338152
1011.000000	54.907945
1010.000000	55.501694
1009.000000	56.161215
1008.000000	56.893791
1007.000000	57.669902
1006.000000	58.437602
1005.000000	59.142730
1004.000000	59.745906
1003.000000	60.238268
1002.000000	60.650529
1001.000000	61.039893
1000.000000	61.462226
999.000000	61.951300
998.000000	62.511532
997.000000	63.117475
996.000000	63.717803
995.000000	64.256427
994.000000	64.702750
993.000000	65.063378
992.000000	65.371130
991.000000	65.671218
990.000000	66.010095
989.000000	66.416658
988.000000	66.882561
987.000000	67.366793
986.000000	67.820448
985.000000	68.208013
984.000000	68.515685
983.000000	68.757953
982.000000	68.979556
981.000000	69.235475
980.000000	69.558597
979.000000	69.946783
978.000000	70.371564
977.000000	70.788007
976.000000	71.142480
975.000000	71.396032
974.000000	71.553688
973.000000	71.664025
972.000000	71.789896
971.000000	71.982946
970.000000	72.272053
969.000000	72.651260
968.000000	73.069941
967.000000	73.450303
966.000000	73.727699
965.000000	73.877867
964.000000	73.918136
963.000000	73.902683
962.000000	73.913143
961.000000	74.026393
960.000000	74.273081
959.000000	74.626426
958.000000	75.021692
957.000000	75.379059
956.000000	75.622738
955.000000	75.711171
954.000000	75.665741
953.000000	75.562401
952.000000	75.490571
951.000000	75.519687
950.000000	75.685425
949.000000	75.977321
948.000000	76.330135
947.000000	76.647101
946.000000	76.849914
945.000000	76.909930
944.000000	76.846344
943.000000	76.717315
942.000000	76.607738
941.000000	76.595572
940.000000	76.711580
939.000000	76.930562
938.000000	77.193235
937.000000	77.428728
936.000000	77.570749
935.000000	77.584506
934.000000	77.492376
933.000000	77.362128
932.000000	77.263512
931.000000	77.240158
930.000000	77.306267
929.000000	77.442665
928.000000	77.593036
927.000000	77.687621
926.000000	77.685961
925.000000	77.593142
924.000000	77.443427
923.000000	77.284245
922.000000	77.167730
921.000000	77.128985
920.000000	77.158515
919.000000	77.204538
918.000000	77.206684
917.000000	77.122443
916.000000	76.934803
915.000000	76.660945
914.000000	76.357761
913.000000	76.096665
912.000000	75.920063
911.000000	75.824688
910.000000	75.773571
909.000000	75.708074
908.000000	75.558183
907.000000	75.270776
906.000000	74.846005
905.000000	74.338871
904.000000	73.824371
903.000000	73.367267
902.000000	73.008233
901.000000	72.748487
900.000000	72.536151
899.000000	72.282759
898.000000	71.908846
897.000000	71.375051
896.000000	70.688122
895.000000	69.899014
894.000000	69.091214
893.000000	68.346131
892.000000	67.701397
891.000000	67.138855
890.000000	66.601727
889.000000	66.014663
888.000000	65.303445
887.000000	64.422291
886.000000	63.379906
885.000000	62.234537
884.000000	61.059906
883.000000	59.917789
882.000000	58.842332
881.000000	57.827339
880.000000	56.824210
879.000000	55.762552
878.000000	54.586399
877.000000	53.275832
876.000000	51.848830
875.000000	50.352960
874.000000	48.847838
873.000000	47.381659
872.000000	45.973257
871.000000	44.610660
870.000000	43.262477
869.000000	41.891955
868.000000	40.472678
867.000000	39.001126
866.000000	37.498936
865.000000	36.002426
864.000000	34.549162
863.000000	33.164758
862.000000	31.853272
861.000000	30.599638
860.000000	29.382649
859.000000	28.190084
858.000000	27.025179
857.000000	25.910996
856.000000	24.893604
855.000000	24.025075
854.000000	23.343476
853.000000	22.860486
852.000000	22.561558
851.000000	22.409045
850.000000	22.342114
849.000000	22.298052
848.000000	22.236878
847.000000	22.147847
846.000000	22.041579
845.000000	21.941171
844.000000	21.878369
843.000000	21.879176
842.000000	21.948050
841.000000	22.072578
840.000000	22.239076
839.000000	22.440065
838.000000	22.672684
837.000000	22.941177
836.000000	23.263329
835.000000	23.661446
834.000000	24.148541
833.000000	24.723834
832.000000	25.374539
831.000000	26.076886
830.000000	26.798554
829.000000	27.512933
828.000000	28.212510
827.000000	28.906599
826.000000	29.614168
825.000000	30.359669
824.000000	31.166348
823.000000	32.041843
822.000000	32.970028
821.000000	33.918701
820.000000	34.851271
819.000000	35.735425
818.000000	36.554240
817.000000	37.315608
816.000000	38.046851
815.000000	38.777633
814.000000	39.526751
813.000000	40.296770
812.000000	41.072643
811.000000	41.825289
810.000000	42.527378
809.000000	43.170351
808.000000	43.766692
807.000000	44.342807
806.000000	44.932657
805.000000	45.567842
804.000000	46.260118
803.000000	46.991226
802.000000	47.724323
801.000000	48.423046
800.000000	49.062025
799.000000	49.633855
798.000000	50.158584
797.000000	50.680259
796.000000	51.243070
795.000000	51.868485
794.000000	52.552013
793.000000	53.267841
792.000000	53.971362
791.000000	54.611504
790.000000	55.158320
789.000000	55.619941
788.000000	56.033334
787.000000	56.447312
786.000000	56.911119
785.000000	57.456602
784.000000	58.076513
783.000000	58.723555
782.000000	59.337301
781.000000	59.869432
780.000000	60.291313
779.000000	60.602728
778.000000	60.845332
777.000000	61.091810
776.000000	61.405919
775.000000	61.812347
774.000000	62.299367
773.000000	62.830287
772.000000	63.347757
771.000000	63.789890
770.000000	64.123766
769.000000	64.362633
768.000000	64.549691
767.000000	64.736549
766.000000	64.973841
765.000000	65.295952
764.000000	65.697931
763.000000	66.134518
762.000000	66.549890
761.000000	66.902953
760.000000	67.170160
759.000000	67.350689
758.000000	67.479677
757.000000	67.616069
756.000000	67.802999
755.000000	68.045604
754.000000	68.325929
753.000000	68.618658
752.000000	68.888121
751.000000	69.095898
750.000000	69.229958
749.000000	69.316305
748.000000	69.394203
747.000000	69.491666
746.000000	69.624810
745.000000	69.795751
744.000000	69.979073
743.000000	70.128448
742.000000	70.211263
741.000000	70.228849
740.000000	70.203340
739.000000	70.165948
738.000000	70.160667
737.000000	70.230486
736.000000	70.382083
735.000000	70.576205
734.000000	70.760625
733.000000	70.898100
732.000000	70.964441
731.000000	70.952717
730.000000	70.897190
729.000000	70.869651
728.000000	70.934951
727.000000	71.118011
726.000000	71.409420
725.000000	71.775609
724.000000	72.152964
723.000000	72.461757
722.000000	72.652127
721.000000	72.732041
720.000000	72.749491
719.000000	72.767929
718.000000	72.858797
717.000000	73.080739
716.000000	73.438925
715.000000	73.874955
714.000000	74.307398
713.000000	74.669871
712.000000	74.915027
711.000000	75.022738
710.000000	75.028531
709.000000	75.018675
708.000000	75.076085
707.000000	75.240107
706.000000	75.513275
705.000000	75.872850
704.000000	76.260706
703.000000	76.593172
702.000000	76.813375
701.000000	76.923586
700.000000	76.959877
699.000000	76.966531
698.000000	76.999100
697.000000	77.113831
696.000000	77.325215
695.000000	77.590393
694.000000	77.854497
693.000000	78.086948
692.000000	78.264487
691.000000	78.366789
690.000000	78.411273
689.000000	78.459724
688.000000	78.560616
687.000000	78.706237
686.000000	78.869572
685.000000	79.040211
684.000000	79.198044
683.000000	79.301567
682.000000	79.340987
681.000000	79.365931
680.000000	79.430303
679.000000	79.544763
678.000000	79.707579
677.000000	79.917117
676.000000	80.128134
675.000000	80.271486
674.000000	80.316089
673.000000	80.290117
672.000000	80.251680
671.000000	80.263609
670.000000	80.397229
669.000000	80.709435
668.000000	81.119554
667.000000	81.427646
666.000000	81.563039
665.000000	81.573948
664.000000	81.495375
663.000000	81.337315
662.000000	81.129943
661.000000	80.948283
660.000000	80.878801
659.000000	80.978958
658.000000	81.252464
657.000000	81.634863
656.000000	82.010559
655.000000	82.276307
654.000000	82.370188
653.000000	82.277096
652.000000	82.048171
651.000000	81.797765
650.000000	81.650860
649.000000	81.677873
648.000000	81.880634
647.000000	82.209752
646.000000	82.573742
645.000000	82.861183
644.000000	82.986195
643.000000	82.927529
642.000000	82.737527
641.000000	82.512545
640.000000	82.350958
639.000000	82.323229
638.000000	82.448197
637.000000	82.684157
636.000000	82.950985
635.000000	83.165412
634.000000	83.272017
633.000000	83.260447
632.000000	83.165282
631.000000	83.052417
630.000000	82.989881
629.000000	83.011968
628.000000	83.106817
627.000000	83.233990
626.000000	83.348134
625.000000	83.414962
624.000000	83.421447
623.000000	83.386248
622.000000	83.359033
621.000000	83.391325
620.000000	83.498188
619.000000	83.648572
618.000000	83.786944
617.000000	83.859318
616.000000	83.831136
615.000000	83.706623
614.000000	83.540647
613.000000	83.419062
612.000000	83.415387
611.000000	83.559002
610.000000	83.826694
609.000000	84.144499
608.000000	84.403162
607.000000	84.499109
606.000000	84.388551
605.000000	84.111013
604.000000	83.766857
603.000000	83.480999
602.000000	83.367932
601.000000	83.484266
600.000000	83.787851
599.000000	84.143740
598.000000	84.389433
597.000000	84.405724
596.000000	84.151008
595.000000	83.678190
594.000000	83.136242
593.000000	82.717895
592.000000	82.572272
591.000000	82.748090
590.000000	83.188545
589.000000	83.759638
588.000000	84.288838
587.000000	84.618917
586.000000	84.674810
585.000000	84.495545
584.000000	84.199509
583.000000	83.928487
582.000000	83.811898
581.000000	83.925341
580.000000	84.245845
579.000000	84.657155
578.000000	85.021673
577.000000	85.241902
576.000000	85.269268
575.000000	85.113498
574.000000	84.862887
573.000000	84.647431
572.000000	84.560160
571.000000	84.617603
570.000000	84.776708
569.000000	84.965829
568.000000	85.102704
567.000000	85.124877
566.000000	85.035636
565.000000	84.903075
564.000000	84.800830
563.000000	84.765973
562.000000	84.804823
561.000000	84.896143
560.000000	84.980323
559.000000	84.981532
558.000000	84.869623
557.000000	84.686874
556.000000	84.512588
555.000000	84.424108
554.000000	84.483610
553.000000	84.709969
552.000000	85.041578
551.000000	85.346182
550.000000	85.495712
549.000000	85.433933
548.000000	85.180577
547.000000	84.818831
546.000000	84.496083
545.000000	84.376212
544.000000	84.546551
543.000000	84.969601
542.000000	85.509328
541.000000	85.983727
540.000000	86.215203
539.000000	86.099577
538.000000	85.679684
537.000000	85.136057
536.000000	84.684497
535.000000	84.488287
534.000000	84.628933
533.000000	85.081883
532.000000	85.700439
531.000000	86.253833
530.000000	86.537453
529.000000	86.468812
528.000000	86.092721
527.000000	85.549030
526.000000	85.054777
525.000000	84.825361
524.000000	84.942776
523.000000	85.321363
522.000000	85.795258
521.000000	86.197969
520.000000	86.384160
519.000000	86.262498
518.000000	85.861790
517.000000	85.336634
516.000000	84.869280
515.000000	84.574881
514.000000	84.481438
513.000000	84.536416
512.000000	84.616764
511.000000	84.574221
510.000000	84.320904
509.000000	83.868003
508.000000	83.290616
507.000000	82.685335
506.000000	82.151889
505.000000	81.750626
504.000000	81.461007
503.000000	81.201740
502.000000	80.896599
501.000000	80.522183
500.000000	80.106423
499.000000	79.710704
498.000000	79.437397
497.000000	79.395483
496.000000	79.622482
495.000000	80.051746
494.000000	80.551802
493.000000	80.986646
492.000000	81.254728
491.000000	81.333609
490.000000	81.317491
489.000000	81.373574
488.000000	81.647944
487.000000	82.202648
486.000000	83.001507
485.000000	83.899314
484.000000	84.653346
483.000000	85.020706
482.000000	84.914337
481.000000	84.457203
480.000000	83.880855
479.000000	83.414321
478.000000	83.245781
477.000000	83.473337
476.000000	84.032810
475.000000	84.707810
474.000000	85.250201
473.000000	85.478894
472.000000	85.324000
471.000000	84.871375
470.000000	84.350809
469.000000	84.026629
468.000000	84.084118
467.000000	84.550035
466.000000	85.284831
465.000000	86.055580
464.000000	86.626630
463.000000	86.823007
462.000000	86.618444
461.000000	86.163852
460.000000	85.671437
459.000000	85.334771
458.000000	85.327499
457.000000	85.700224
456.000000	86.273818
455.000000	86.761792
454.000000	86.992052
453.000000	86.962891
452.000000	86.756450
451.000000	86.473553
450.000000	86.241395
449.000000	86.192564
448.000000	86.375766
447.000000	86.698228
446.000000	87.010325
445.000000	87.221284
444.000000	87.300235
443.000000	87.244723
442.000000	87.128713
441.000000	87.099029
440.000000	87.239966
439.000000	87.506402
438.000000	87.808015
437.000000	88.071215
436.000000	88.200133
435.000000	88.093968
434.000000	87.784694
433.000000	87.459451
432.000000	87.316429
431.000000	87.453537
430.000000	87.865057
429.000000	88.462835
428.000000	89.047282
427.000000	89.339195
426.000000	89.169173
425.000000	88.623869
424.000000	87.955904
423.000000	87.412399
422.000000	87.167714
421.000000	87.330062
420.000000	87.960890
419.000000	88.884503
418.000000	89.590986
417.000000	89.797030
416.000000	89.538092
415.000000	88.882445
414.000000	88.039010
413.000000	87.409439
412.000000	87.294761
411.000000	87.686876
410.000000	88.390897
409.000000	89.201923
408.000000	89.873825
407.000000	90.100523
406.000000	89.755937
405.000000	89.064497
404.000000	88.321053
403.000000	87.723609
402.000000	87.386635
401.000000	87.936688
400.000000	88.823216
