PE IR       SUBTECH     SPECTRUM    ASCII       PEDS        4.00        
   -1
23ms193_nitrito.asc
24/08/30
16:59:02.00
24/08/30
16:59:02.00
Administrator
Sample 1069 By Administrator Date Friday, August 30 2024
400.000000
#HDR
-1
-1
#GR
cm-1
%T
1.0
0.0
4000.000000
-1.000000
3601
8
88.767163
16.895789
#DATA
4000.000000	76.221271
3999.000000	76.253914
3998.000000	76.284369
3997.000000	76.315155
3996.000000	76.348099
3995.000000	76.383843
3994.000000	76.421967
3993.000000	76.461582
3992.000000	76.501893
3991.000000	76.542135
3990.000000	76.581118
3989.000000	76.617199
3988.000000	76.649502
3987.000000	76.679297
3986.000000	76.709635
3985.000000	76.743229
3984.000000	76.780727
3983.000000	76.820763
3982.000000	76.860959
3981.000000	76.898828
3980.000000	76.932498
3979.000000	76.961542
3978.000000	76.987559
3977.000000	77.013784
3976.000000	77.043463
3975.000000	77.077881
3974.000000	77.115883
3973.000000	77.155092
3972.000000	77.193220
3971.000000	77.228905
3970.000000	77.261810
3969.000000	77.292090
3968.000000	77.319854
3967.000000	77.345482
3966.000000	77.370369
3965.000000	77.396883
3964.000000	77.427354
3963.000000	77.462356
3962.000000	77.499867
3961.000000	77.536361
3960.000000	77.568877
3959.000000	77.596931
3958.000000	77.622913
3957.000000	77.649957
3956.000000	77.679337
3955.000000	77.710266
3954.000000	77.741609
3953.000000	77.772807
3952.000000	77.803691
3951.000000	77.834422
3950.000000	77.865445
3949.000000	77.896214
3948.000000	77.925063
3947.000000	77.951254
3946.000000	77.976579
3945.000000	78.005342
3944.000000	78.042314
3943.000000	78.088733
3942.000000	78.138906
3941.000000	78.183389
3940.000000	78.217110
3939.000000	78.243042
3938.000000	78.267505
3937.000000	78.293331
3936.000000	78.318579
3935.000000	78.341748
3934.000000	78.366986
3933.000000	78.401099
3932.000000	78.445396
3931.000000	78.492361
3930.000000	78.532114
3929.000000	78.561494
3928.000000	78.585340
3927.000000	78.611180
3926.000000	78.643864
3925.000000	78.684135
3924.000000	78.727475
3923.000000	78.764983
3922.000000	78.790937
3921.000000	78.809070
3920.000000	78.828968
3919.000000	78.856624
3918.000000	78.890916
3917.000000	78.929123
3916.000000	78.970218
3915.000000	79.012505
3914.000000	79.052716
3913.000000	79.089950
3912.000000	79.126169
3911.000000	79.161011
3910.000000	79.190532
3909.000000	79.212259
3908.000000	79.229400
3907.000000	79.247725
3906.000000	79.270648
3905.000000	79.297645
3904.000000	79.326803
3903.000000	79.355428
3902.000000	79.382618
3901.000000	79.411858
3900.000000	79.448387
3899.000000	79.492915
3898.000000	79.536717
3897.000000	79.570370
3896.000000	79.595126
3895.000000	79.622067
3894.000000	79.660618
3893.000000	79.710497
3892.000000	79.762110
3891.000000	79.804864
3890.000000	79.833779
3889.000000	79.848520
3888.000000	79.853334
3887.000000	79.859906
3886.000000	79.884093
3885.000000	79.928381
3884.000000	79.974546
3883.000000	80.006400
3882.000000	80.031557
3881.000000	80.068442
3880.000000	80.118258
3879.000000	80.162012
3878.000000	80.184769
3877.000000	80.192418
3876.000000	80.204304
3875.000000	80.236466
3874.000000	80.288944
3873.000000	80.343410
3872.000000	80.377950
3871.000000	80.391262
3870.000000	80.405549
3869.000000	80.436452
3868.000000	80.471813
3867.000000	80.493291
3866.000000	80.507103
3865.000000	80.538923
3864.000000	80.597207
3863.000000	80.657611
3862.000000	80.694484
3861.000000	80.709403
3860.000000	80.721139
3859.000000	80.746784
3858.000000	80.794432
3857.000000	80.858196
3856.000000	80.918137
3855.000000	80.955468
3854.000000	80.980606
3853.000000	81.014338
3852.000000	81.045570
3851.000000	81.057288
3850.000000	81.059990
3849.000000	81.072369
3848.000000	81.100968
3847.000000	81.138267
3846.000000	81.174405
3845.000000	81.207023
3844.000000	81.237799
3843.000000	81.268699
3842.000000	81.301979
3841.000000	81.336935
3840.000000	81.371195
3839.000000	81.404934
3838.000000	81.439293
3837.000000	81.474031
3836.000000	81.509650
3835.000000	81.546989
3834.000000	81.585793
3833.000000	81.623529
3832.000000	81.658627
3831.000000	81.690878
3830.000000	81.718954
3829.000000	81.743729
3828.000000	81.769972
3827.000000	81.802636
3826.000000	81.842601
3825.000000	81.883318
3824.000000	81.913319
3823.000000	81.930620
3822.000000	81.952736
3821.000000	81.997614
3820.000000	82.055740
3819.000000	82.100092
3818.000000	82.121606
3817.000000	82.136308
3816.000000	82.167479
3815.000000	82.219795
3814.000000	82.271035
3813.000000	82.301863
3812.000000	82.321056
3811.000000	82.348821
3810.000000	82.389349
3809.000000	82.428527
3808.000000	82.454918
3807.000000	82.476365
3806.000000	82.506618
3805.000000	82.543620
3804.000000	82.575581
3803.000000	82.600591
3802.000000	82.630041
3801.000000	82.671721
3800.000000	82.713393
3799.000000	82.740177
3798.000000	82.761107
3797.000000	82.796062
3796.000000	82.849744
3795.000000	82.906897
3794.000000	82.949590
3793.000000	82.976314
3792.000000	82.999690
3791.000000	83.029306
3790.000000	83.062622
3789.000000	83.093843
3788.000000	83.123743
3787.000000	83.157974
3786.000000	83.198504
3785.000000	83.240906
3784.000000	83.278868
3783.000000	83.308498
3782.000000	83.330270
3781.000000	83.351506
3780.000000	83.382931
3779.000000	83.427359
3778.000000	83.475320
3777.000000	83.515241
3776.000000	83.544806
3775.000000	83.570405
3774.000000	83.598279
3773.000000	83.626786
3772.000000	83.650024
3771.000000	83.669701
3770.000000	83.695965
3769.000000	83.732496
3768.000000	83.772151
3767.000000	83.810245
3766.000000	83.849762
3765.000000	83.892605
3764.000000	83.932444
3763.000000	83.958317
3762.000000	83.968210
3761.000000	83.977399
3760.000000	84.005414
3759.000000	84.052013
3758.000000	84.099697
3757.000000	84.140053
3756.000000	84.177927
3755.000000	84.212582
3754.000000	84.235988
3753.000000	84.248789
3752.000000	84.265721
3751.000000	84.294412
3750.000000	84.323298
3749.000000	84.349209
3748.000000	84.386506
3747.000000	84.434859
3746.000000	84.474725
3745.000000	84.501248
3744.000000	84.533332
3743.000000	84.573700
3742.000000	84.602770
3741.000000	84.618864
3740.000000	84.638831
3739.000000	84.667422
3738.000000	84.692169
3737.000000	84.710869
3736.000000	84.747843
3735.000000	84.820245
3734.000000	84.905563
3733.000000	84.968603
3732.000000	85.003733
3731.000000	85.028619
3730.000000	85.054822
3729.000000	85.079883
3728.000000	85.101214
3727.000000	85.127008
3726.000000	85.165834
3725.000000	85.211432
3724.000000	85.251424
3723.000000	85.286642
3722.000000	85.325798
3721.000000	85.369409
3720.000000	85.411580
3719.000000	85.448852
3718.000000	85.482023
3717.000000	85.515311
3716.000000	85.550492
3715.000000	85.582807
3714.000000	85.607402
3713.000000	85.628534
3712.000000	85.658321
3711.000000	85.700789
3710.000000	85.746811
3709.000000	85.788110
3708.000000	85.824710
3707.000000	85.861135
3706.000000	85.899931
3705.000000	85.938490
3704.000000	85.973582
3703.000000	86.006668
3702.000000	86.041235
3701.000000	86.075820
3700.000000	86.106777
3699.000000	86.134888
3698.000000	86.164381
3697.000000	86.199422
3696.000000	86.239693
3695.000000	86.276402
3694.000000	86.300244
3693.000000	86.315417
3692.000000	86.336857
3691.000000	86.372484
3690.000000	86.413736
3689.000000	86.446438
3688.000000	86.467513
3687.000000	86.486939
3686.000000	86.511924
3685.000000	86.538660
3684.000000	86.562389
3683.000000	86.582456
3682.000000	86.599584
3681.000000	86.615117
3680.000000	86.635638
3679.000000	86.666175
3678.000000	86.695027
3677.000000	86.705491
3676.000000	86.708377
3675.000000	86.727446
3674.000000	86.754209
3673.000000	86.764338
3672.000000	86.755507
3671.000000	86.752624
3670.000000	86.783920
3669.000000	86.841946
3668.000000	86.889687
3667.000000	86.911913
3666.000000	86.921713
3665.000000	86.931765
3664.000000	86.944434
3663.000000	86.956908
3662.000000	86.968416
3661.000000	86.981138
3660.000000	86.995063
3659.000000	87.003897
3658.000000	86.999234
3657.000000	86.980081
3656.000000	86.955152
3655.000000	86.932695
3654.000000	86.912418
3653.000000	86.889661
3652.000000	86.862027
3651.000000	86.834249
3650.000000	86.814035
3649.000000	86.799727
3648.000000	86.784749
3647.000000	86.772049
3646.000000	86.766281
3645.000000	86.762536
3644.000000	86.755775
3643.000000	86.747622
3642.000000	86.741397
3641.000000	86.734173
3640.000000	86.717779
3639.000000	86.688660
3638.000000	86.650981
3637.000000	86.608584
3636.000000	86.560675
3635.000000	86.509085
3634.000000	86.463125
3633.000000	86.427665
3632.000000	86.390177
3631.000000	86.330459
3630.000000	86.249905
3629.000000	86.178620
3628.000000	86.132770
3627.000000	86.095822
3626.000000	86.055770
3625.000000	86.017885
3624.000000	85.986997
3623.000000	85.958614
3622.000000	85.920248
3621.000000	85.863637
3620.000000	85.796125
3619.000000	85.731220
3618.000000	85.670943
3617.000000	85.610385
3616.000000	85.548866
3615.000000	85.489706
3614.000000	85.436487
3613.000000	85.388297
3612.000000	85.337974
3611.000000	85.279067
3610.000000	85.214749
3609.000000	85.158222
3608.000000	85.120187
3607.000000	85.095262
3606.000000	85.067447
3605.000000	85.026689
3604.000000	84.974771
3603.000000	84.919387
3602.000000	84.865604
3601.000000	84.814006
3600.000000	84.764093
3599.000000	84.713766
3598.000000	84.659591
3597.000000	84.601384
3596.000000	84.542574
3595.000000	84.486856
3594.000000	84.435369
3593.000000	84.385644
3592.000000	84.334460
3591.000000	84.279806
3590.000000	84.220769
3589.000000	84.161873
3588.000000	84.112761
3587.000000	84.074938
3586.000000	84.036897
3585.000000	83.990088
3584.000000	83.939056
3583.000000	83.892729
3582.000000	83.853935
3581.000000	83.818476
3580.000000	83.780950
3579.000000	83.738232
3578.000000	83.688891
3577.000000	83.632925
3576.000000	83.573202
3575.000000	83.514371
3574.000000	83.459490
3573.000000	83.407939
3572.000000	83.355885
3571.000000	83.297734
3570.000000	83.227082
3569.000000	83.143325
3568.000000	83.058294
3567.000000	82.987521
3566.000000	82.933125
3565.000000	82.887203
3564.000000	82.845758
3563.000000	82.809431
3562.000000	82.776259
3561.000000	82.739853
3560.000000	82.694148
3559.000000	82.637533
3558.000000	82.572388
3557.000000	82.502688
3556.000000	82.433116
3555.000000	82.367505
3554.000000	82.306623
3553.000000	82.248024
3552.000000	82.187542
3551.000000	82.120748
3550.000000	82.044633
3549.000000	81.960422
3548.000000	81.875168
3547.000000	81.797647
3546.000000	81.730873
3545.000000	81.670745
3544.000000	81.612091
3543.000000	81.552389
3542.000000	81.490102
3541.000000	81.423502
3540.000000	81.352500
3539.000000	81.278872
3538.000000	81.204062
3537.000000	81.128653
3536.000000	81.053336
3535.000000	80.978869
3534.000000	80.904786
3533.000000	80.829980
3532.000000	80.754453
3531.000000	80.678595
3530.000000	80.601199
3529.000000	80.520733
3528.000000	80.438590
3527.000000	80.358591
3526.000000	80.283050
3525.000000	80.211747
3524.000000	80.144256
3523.000000	80.080019
3522.000000	80.016544
3521.000000	79.950514
3520.000000	79.880821
3519.000000	79.808380
3518.000000	79.733460
3517.000000	79.655560
3516.000000	79.575587
3515.000000	79.496009
3514.000000	79.418184
3513.000000	79.340939
3512.000000	79.262624
3511.000000	79.182969
3510.000000	79.101675
3509.000000	79.017341
3508.000000	78.929299
3507.000000	78.839287
3506.000000	78.750548
3505.000000	78.666310
3504.000000	78.588475
3503.000000	78.515646
3502.000000	78.442902
3501.000000	78.365283
3500.000000	78.281193
3499.000000	78.191268
3498.000000	78.096150
3497.000000	77.997416
3496.000000	77.899132
3495.000000	77.805747
3494.000000	77.718413
3493.000000	77.634645
3492.000000	77.550898
3491.000000	77.463993
3490.000000	77.371062
3489.000000	77.270757
3488.000000	77.165056
3487.000000	77.058070
3486.000000	76.953113
3485.000000	76.852352
3484.000000	76.757697
3483.000000	76.669208
3482.000000	76.582568
3481.000000	76.490676
3480.000000	76.388688
3479.000000	76.276715
3478.000000	76.158534
3477.000000	76.039707
3476.000000	75.926113
3475.000000	75.821046
3474.000000	75.722998
3473.000000	75.627521
3472.000000	75.530592
3471.000000	75.429209
3470.000000	75.320401
3469.000000	75.202502
3468.000000	75.077586
3467.000000	74.950489
3466.000000	74.825201
3465.000000	74.703409
3464.000000	74.585519
3463.000000	74.470619
3462.000000	74.355386
3461.000000	74.235416
3460.000000	74.108446
3459.000000	73.975380
3458.000000	73.838923
3457.000000	73.702454
3456.000000	73.569329
3455.000000	73.441121
3454.000000	73.316128
3453.000000	73.190823
3452.000000	73.062533
3451.000000	72.929496
3450.000000	72.789718
3449.000000	72.642220
3448.000000	72.489238
3447.000000	72.335068
3446.000000	72.182757
3445.000000	72.033440
3444.000000	71.887540
3443.000000	71.744136
3442.000000	71.599899
3441.000000	71.451016
3440.000000	71.296229
3439.000000	71.136816
3438.000000	70.974260
3437.000000	70.809326
3436.000000	70.642884
3435.000000	70.475787
3434.000000	70.307739
3433.000000	70.137529
3432.000000	69.963649
3431.000000	69.783825
3430.000000	69.595471
3429.000000	69.398328
3428.000000	69.196042
3427.000000	68.993475
3426.000000	68.793293
3425.000000	68.595736
3424.000000	68.399553
3423.000000	68.201646
3422.000000	67.997356
3421.000000	67.783600
3420.000000	67.561372
3419.000000	67.334099
3418.000000	67.104913
3417.000000	66.876133
3416.000000	66.649257
3415.000000	66.423201
3414.000000	66.193627
3413.000000	65.956071
3412.000000	65.708750
3411.000000	65.451751
3410.000000	65.185431
3409.000000	64.911260
3408.000000	64.632918
3407.000000	64.354199
3406.000000	64.076670
3405.000000	63.800019
3404.000000	63.522509
3403.000000	63.240113
3402.000000	62.947183
3401.000000	62.640225
3400.000000	62.320454
3399.000000	61.991745
3398.000000	61.657889
3397.000000	61.322104
3396.000000	60.986435
3395.000000	60.649815
3394.000000	60.307788
3393.000000	59.955838
3392.000000	59.592174
3391.000000	59.216979
3390.000000	58.831781
3389.000000	58.439991
3388.000000	58.045696
3387.000000	57.650157
3386.000000	57.250946
3385.000000	56.845696
3384.000000	56.433863
3383.000000	56.014569
3382.000000	55.585583
3381.000000	55.145906
3380.000000	54.697402
3379.000000	54.242207
3378.000000	53.780929
3377.000000	53.314305
3376.000000	52.843748
3375.000000	52.369126
3374.000000	51.887934
3373.000000	51.397934
3372.000000	50.898938
3371.000000	50.391026
3370.000000	49.874258
3369.000000	49.350591
3368.000000	48.823446
3367.000000	48.294418
3366.000000	47.762265
3365.000000	47.225830
3364.000000	46.684849
3363.000000	46.137714
3362.000000	45.582112
3361.000000	45.018623
3360.000000	44.450884
3359.000000	43.881278
3358.000000	43.309394
3357.000000	42.735466
3356.000000	42.161178
3355.000000	41.586313
3354.000000	41.008035
3353.000000	40.424815
3352.000000	39.838406
3351.000000	39.251193
3350.000000	38.664689
3349.000000	38.081064
3348.000000	37.502561
3347.000000	36.928487
3346.000000	36.355866
3345.000000	35.783710
3344.000000	35.213612
3343.000000	34.646071
3342.000000	34.079823
3341.000000	33.515466
3340.000000	32.956308
3339.000000	32.405147
3338.000000	31.863299
3337.000000	31.332352
3336.000000	30.813406
3335.000000	30.304325
3334.000000	29.801255
3333.000000	29.303386
3332.000000	28.812678
3331.000000	28.329930
3330.000000	27.854677
3329.000000	27.388304
3328.000000	26.933837
3327.000000	26.492191
3326.000000	26.062546
3325.000000	25.645544
3324.000000	25.241861
3323.000000	24.849060
3322.000000	24.463653
3321.000000	24.086093
3320.000000	23.720072
3319.000000	23.366904
3318.000000	23.025614
3317.000000	22.696597
3316.000000	22.380946
3315.000000	22.076849
3314.000000	21.780537
3313.000000	21.491007
3312.000000	21.209567
3311.000000	20.935820
3310.000000	20.668959
3309.000000	20.411495
3308.000000	20.168042
3307.000000	19.940596
3306.000000	19.728596
3305.000000	19.532502
3304.000000	19.351716
3303.000000	19.181291
3302.000000	19.015229
3301.000000	18.852337
3300.000000	18.695254
3299.000000	18.544803
3298.000000	18.400367
3297.000000	18.263992
3296.000000	18.138309
3295.000000	18.021815
3294.000000	17.910892
3293.000000	17.806148
3292.000000	17.711793
3291.000000	17.628720
3290.000000	17.553651
3289.000000	17.483915
3288.000000	17.418978
3287.000000	17.357904
3286.000000	17.299549
3285.000000	17.245379
3284.000000	17.197453
3283.000000	17.154575
3282.000000	17.114179
3281.000000	17.076746
3280.000000	17.044642
3279.000000	17.017522
3278.000000	16.993225
3277.000000	16.971929
3276.000000	16.954873
3275.000000	16.940265
3274.000000	16.924966
3273.000000	16.909796
3272.000000	16.899155
3271.000000	16.895789
3270.000000	16.899498
3269.000000	16.909539
3268.000000	16.924399
3267.000000	16.940559
3266.000000	16.955224
3265.000000	16.969559
3264.000000	16.985977
3263.000000	17.003680
3262.000000	17.020671
3261.000000	17.037915
3260.000000	17.057635
3259.000000	17.079252
3258.000000	17.100988
3257.000000	17.123997
3256.000000	17.150543
3255.000000	17.179751
3254.000000	17.209047
3253.000000	17.238286
3252.000000	17.268479
3251.000000	17.298179
3250.000000	17.325570
3249.000000	17.352747
3248.000000	17.383676
3247.000000	17.418970
3246.000000	17.456334
3245.000000	17.494707
3244.000000	17.534179
3243.000000	17.573181
3242.000000	17.609967
3241.000000	17.645727
3240.000000	17.682670
3239.000000	17.720105
3238.000000	17.755674
3237.000000	17.788979
3236.000000	17.820939
3235.000000	17.851536
3234.000000	17.881530
3233.000000	17.914289
3232.000000	17.952000
3231.000000	17.991780
3230.000000	18.029241
3229.000000	18.064006
3228.000000	18.098151
3227.000000	18.131384
3226.000000	18.161792
3225.000000	18.189690
3224.000000	18.216597
3223.000000	18.241902
3222.000000	18.264204
3221.000000	18.284536
3220.000000	18.304755
3219.000000	18.324170
3218.000000	18.341142
3217.000000	18.356149
3216.000000	18.369973
3215.000000	18.380967
3214.000000	18.387535
3213.000000	18.391518
3212.000000	18.395477
3211.000000	18.398596
3210.000000	18.398841
3209.000000	18.396951
3208.000000	18.394692
3207.000000	18.391018
3206.000000	18.383637
3205.000000	18.372837
3204.000000	18.360156
3203.000000	18.345281
3202.000000	18.327585
3201.000000	18.308615
3200.000000	18.289695
3199.000000	18.268900
3198.000000	18.243964
3197.000000	18.216054
3196.000000	18.187297
3195.000000	18.156990
3194.000000	18.123777
3193.000000	18.089323
3192.000000	18.056073
3191.000000	18.023331
3190.000000	17.989266
3189.000000	17.954494
3188.000000	17.920115
3187.000000	17.884393
3186.000000	17.845224
3185.000000	17.804004
3184.000000	17.763435
3183.000000	17.723627
3182.000000	17.683710
3181.000000	17.644958
3180.000000	17.608578
3179.000000	17.572592
3178.000000	17.534641
3177.000000	17.495895
3176.000000	17.458653
3175.000000	17.422393
3174.000000	17.385839
3173.000000	17.350638
3172.000000	17.319118
3171.000000	17.290492
3170.000000	17.262788
3169.000000	17.236365
3168.000000	17.212093
3167.000000	17.188272
3166.000000	17.163208
3165.000000	17.138675
3164.000000	17.117323
3163.000000	17.098869
3162.000000	17.082073
3161.000000	17.068164
3160.000000	17.058597
3159.000000	17.051632
3158.000000	17.044669
3157.000000	17.037633
3156.000000	17.031160
3155.000000	17.024239
3154.000000	17.017432
3153.000000	17.015731
3152.000000	17.023776
3151.000000	17.040326
3150.000000	17.060714
3149.000000	17.082495
3148.000000	17.105279
3147.000000	17.127662
3146.000000	17.148643
3145.000000	17.170109
3144.000000	17.194129
3143.000000	17.219808
3142.000000	17.246057
3141.000000	17.275415
3140.000000	17.311486
3139.000000	17.354273
3138.000000	17.401327
3137.000000	17.451195
3136.000000	17.502730
3135.000000	17.553533
3134.000000	17.602488
3133.000000	17.652244
3132.000000	17.705940
3131.000000	17.763553
3130.000000	17.824001
3129.000000	17.887984
3128.000000	17.955794
3127.000000	18.024805
3126.000000	18.092400
3125.000000	18.159098
3124.000000	18.226035
3123.000000	18.292385
3122.000000	18.358387
3121.000000	18.427900
3120.000000	18.504298
3119.000000	18.586077
3118.000000	18.670013
3117.000000	18.756065
3116.000000	18.845802
3115.000000	18.938535
3114.000000	19.032335
3113.000000	19.126880
3112.000000	19.222253
3111.000000	19.317377
3110.000000	19.412696
3109.000000	19.511662
3108.000000	19.616392
3107.000000	19.724092
3106.000000	19.830754
3105.000000	19.936002
3104.000000	20.041441
3103.000000	20.147289
3102.000000	20.254099
3101.000000	20.364997
3100.000000	20.482454
3099.000000	20.604452
3098.000000	20.727075
3097.000000	20.848897
3096.000000	20.970065
3095.000000	21.089725
3094.000000	21.207606
3093.000000	21.326222
3092.000000	21.448523
3091.000000	21.574902
3090.000000	21.704601
3089.000000	21.837451
3088.000000	21.971909
3087.000000	22.104369
3086.000000	22.233416
3085.000000	22.362427
3084.000000	22.495080
3083.000000	22.630747
3082.000000	22.767119
3081.000000	22.904608
3080.000000	23.045079
3079.000000	23.188487
3078.000000	23.333770
3077.000000	23.480893
3076.000000	23.629165
3075.000000	23.775946
3074.000000	23.919860
3073.000000	24.063141
3072.000000	24.208141
3071.000000	24.353660
3070.000000	24.497493
3069.000000	24.640299
3068.000000	24.784108
3067.000000	24.929143
3066.000000	25.074839
3065.000000	25.222033
3064.000000	25.371424
3063.000000	25.521706
3062.000000	25.671531
3061.000000	25.821269
3060.000000	25.970722
3059.000000	26.117609
3058.000000	26.260761
3057.000000	26.402562
3056.000000	26.545701
3055.000000	26.689707
3054.000000	26.833148
3053.000000	26.976954
3052.000000	27.122900
3051.000000	27.270649
3050.000000	27.418656
3049.000000	27.566066
3048.000000	27.711733
3047.000000	27.853662
3046.000000	27.991804
3045.000000	28.129370
3044.000000	28.269361
3043.000000	28.411848
3042.000000	28.556316
3041.000000	28.703703
3040.000000	28.853557
3039.000000	29.001850
3038.000000	29.144639
3037.000000	29.282205
3036.000000	29.417595
3035.000000	29.553147
3034.000000	29.690500
3033.000000	29.831413
3032.000000	29.975779
3031.000000	30.120707
3030.000000	30.263765
3029.000000	30.405188
3028.000000	30.545282
3027.000000	30.682437
3026.000000	30.816190
3025.000000	30.949550
3024.000000	31.085431
3023.000000	31.222872
3022.000000	31.359327
3021.000000	31.494496
3020.000000	31.629192
3019.000000	31.762412
3018.000000	31.892532
3017.000000	32.019985
3016.000000	32.146452
3015.000000	32.272952
3014.000000	32.400848
3013.000000	32.532919
3012.000000	32.670867
3011.000000	32.813002
3010.000000	32.956072
3009.000000	33.097830
3008.000000	33.236463
3007.000000	33.370001
3006.000000	33.498585
3005.000000	33.625524
3004.000000	33.753989
3003.000000	33.884022
3002.000000	34.014230
3001.000000	34.144216
3000.000000	34.273731
2999.000000	34.401664
2998.000000	34.527930
2997.000000	34.654277
2996.000000	34.781431
2995.000000	34.907799
2994.000000	35.033004
2993.000000	35.160211
2992.000000	35.292327
2991.000000	35.427834
2990.000000	35.562740
2989.000000	35.694876
2988.000000	35.824075
2987.000000	35.950225
2986.000000	36.073843
2985.000000	36.197100
2984.000000	36.321889
2983.000000	36.448032
2982.000000	36.575146
2981.000000	36.704438
2980.000000	36.836455
2979.000000	36.968720
2978.000000	37.098067
2977.000000	37.224282
2976.000000	37.349671
2975.000000	37.476382
2974.000000	37.605839
2973.000000	37.738976
2972.000000	37.874838
2971.000000	38.010249
2970.000000	38.142851
2969.000000	38.273378
2968.000000	38.403504
2967.000000	38.533292
2966.000000	38.662530
2965.000000	38.792704
2964.000000	38.925351
2963.000000	39.059786
2962.000000	39.194309
2961.000000	39.328050
2960.000000	39.459803
2959.000000	39.587030
2958.000000	39.708132
2957.000000	39.824293
2956.000000	39.937163
2955.000000	40.046526
2954.000000	40.152152
2953.000000	40.255845
2952.000000	40.359504
2951.000000	40.462813
2950.000000	40.565199
2949.000000	40.668389
2948.000000	40.774827
2947.000000	40.885069
2946.000000	40.998711
2945.000000	41.116374
2944.000000	41.238461
2943.000000	41.363288
2942.000000	41.488552
2941.000000	41.613736
2940.000000	41.739434
2939.000000	41.865694
2938.000000	41.992876
2937.000000	42.122722
2936.000000	42.256672
2935.000000	42.394308
2934.000000	42.535097
2933.000000	42.680125
2932.000000	42.830207
2931.000000	42.983862
2930.000000	43.139436
2929.000000	43.298010
2928.000000	43.462401
2927.000000	43.634598
2926.000000	43.815930
2925.000000	44.008212
2924.000000	44.212225
2923.000000	44.426231
2922.000000	44.647393
2921.000000	44.873019
2920.000000	45.097472
2919.000000	45.308170
2918.000000	45.486751
2917.000000	45.614277
2916.000000	45.677636
2915.000000	45.675496
2914.000000	45.621943
2913.000000	45.542880
2912.000000	45.464934
2911.000000	45.405396
2910.000000	45.370888
2909.000000	45.361843
2908.000000	45.375421
2907.000000	45.406757
2906.000000	45.451003
2905.000000	45.505164
2904.000000	45.567169
2903.000000	45.634411
2902.000000	45.704444
2901.000000	45.776287
2900.000000	45.849503
2899.000000	45.922601
2898.000000	45.994378
2897.000000	46.065000
2896.000000	46.135067
2895.000000	46.204608
2894.000000	46.274160
2893.000000	46.345233
2892.000000	46.418096
2891.000000	46.490361
2890.000000	46.559330
2889.000000	46.624729
2888.000000	46.687867
2887.000000	46.749631
2886.000000	46.810847
2885.000000	46.873220
2884.000000	46.937902
2883.000000	47.003904
2882.000000	47.069417
2881.000000	47.133793
2880.000000	47.197050
2879.000000	47.258973
2878.000000	47.320537
2877.000000	47.384983
2876.000000	47.455220
2875.000000	47.530485
2874.000000	47.607161
2873.000000	47.682326
2872.000000	47.755311
2871.000000	47.826891
2870.000000	47.898840
2869.000000	47.973939
2868.000000	48.054758
2867.000000	48.142447
2866.000000	48.237503
2865.000000	48.340660
2864.000000	48.451909
2863.000000	48.569485
2862.000000	48.691172
2861.000000	48.816127
2860.000000	48.944721
2859.000000	49.078135
2858.000000	49.219542
2857.000000	49.374663
2856.000000	49.549750
2855.000000	49.749660
2854.000000	49.977585
2853.000000	50.232675
2852.000000	50.502973
2851.000000	50.759537
2850.000000	50.962563
2849.000000	51.078989
2848.000000	51.099936
2847.000000	51.045689
2846.000000	50.954757
2845.000000	50.865374
2844.000000	50.801689
2843.000000	50.771035
2842.000000	50.770483
2841.000000	50.794322
2840.000000	50.836101
2839.000000	50.888756
2838.000000	50.946842
2837.000000	51.008507
2836.000000	51.074141
2835.000000	51.143734
2834.000000	51.216474
2833.000000	51.291918
2832.000000	51.369882
2831.000000	51.449364
2830.000000	51.529010
2829.000000	51.608259
2828.000000	51.687084
2827.000000	51.765229
2826.000000	51.842742
2825.000000	51.920705
2824.000000	52.000259
2823.000000	52.081303
2822.000000	52.163007
2821.000000	52.244886
2820.000000	52.326356
2819.000000	52.406069
2818.000000	52.483045
2817.000000	52.558108
2816.000000	52.633225
2815.000000	52.709849
2814.000000	52.788663
2813.000000	52.869993
2812.000000	52.953157
2811.000000	53.035940
2810.000000	53.116094
2809.000000	53.193237
2808.000000	53.268568
2807.000000	53.343388
2806.000000	53.418818
2805.000000	53.496127
2804.000000	53.575868
2803.000000	53.656894
2802.000000	53.737277
2801.000000	53.815898
2800.000000	53.892422
2799.000000	53.966527
2798.000000	54.038447
2797.000000	54.109827
2796.000000	54.182704
2795.000000	54.257730
2794.000000	54.334197
2793.000000	54.411214
2792.000000	54.487847
2791.000000	54.562733
2790.000000	54.634977
2789.000000	54.705261
2788.000000	54.775068
2787.000000	54.845097
2786.000000	54.915378
2785.000000	54.986346
2784.000000	55.058457
2783.000000	55.130978
2782.000000	55.202415
2781.000000	55.272108
2780.000000	55.340430
2779.000000	55.407649
2778.000000	55.473795
2777.000000	55.539481
2776.000000	55.605720
2775.000000	55.672812
2774.000000	55.740283
2773.000000	55.807802
2772.000000	55.875258
2771.000000	55.942070
2770.000000	56.007456
2769.000000	56.071377
2768.000000	56.134458
2767.000000	56.197137
2766.000000	56.259730
2765.000000	56.323097
2764.000000	56.388199
2763.000000	56.454939
2762.000000	56.522186
2761.000000	56.588800
2760.000000	56.653932
2759.000000	56.716704
2758.000000	56.776783
2757.000000	56.835237
2756.000000	56.893908
2755.000000	56.953859
2754.000000	57.015112
2753.000000	57.077551
2752.000000	57.140971
2751.000000	57.204240
2750.000000	57.265507
2749.000000	57.323614
2748.000000	57.378831
2747.000000	57.432383
2746.000000	57.485981
2745.000000	57.541527
2744.000000	57.600091
2743.000000	57.660893
2742.000000	57.721849
2741.000000	57.781122
2740.000000	57.837748
2739.000000	57.891277
2738.000000	57.941947
2737.000000	57.991173
2736.000000	58.040897
2735.000000	58.092223
2734.000000	58.145084
2733.000000	58.198882
2732.000000	58.252571
2731.000000	58.304479
2730.000000	58.353257
2729.000000	58.399134
2728.000000	58.443539
2727.000000	58.487656
2726.000000	58.532102
2725.000000	58.577599
2724.000000	58.624639
2723.000000	58.672483
2722.000000	58.719555
2721.000000	58.764937
2720.000000	58.808651
2719.000000	58.850674
2718.000000	58.890894
2717.000000	58.930114
2716.000000	58.969873
2715.000000	59.010997
2714.000000	59.053172
2713.000000	59.095967
2712.000000	59.139200
2711.000000	59.182135
2710.000000	59.223530
2709.000000	59.262887
2708.000000	59.300803
2707.000000	59.337853
2706.000000	59.374084
2705.000000	59.409899
2704.000000	59.446413
2703.000000	59.484383
2702.000000	59.523404
2701.000000	59.562334
2700.000000	59.599862
2699.000000	59.634571
2698.000000	59.665489
2697.000000	59.693128
2696.000000	59.719367
2695.000000	59.746109
2694.000000	59.774490
2693.000000	59.805102
2692.000000	59.837791
2691.000000	59.870840
2690.000000	59.901391
2689.000000	59.927336
2688.000000	59.948484
2687.000000	59.966126
2686.000000	59.982298
2685.000000	59.999503
2684.000000	60.019838
2683.000000	60.043524
2682.000000	60.068636
2681.000000	60.092405
2680.000000	60.112505
2679.000000	60.127628
2678.000000	60.138177
2677.000000	60.146841
2676.000000	60.157530
2675.000000	60.173053
2674.000000	60.193953
2673.000000	60.219150
2672.000000	60.246683
2671.000000	60.274034
2670.000000	60.299220
2669.000000	60.322419
2668.000000	60.346150
2667.000000	60.373490
2666.000000	60.406614
2665.000000	60.446593
2664.000000	60.493039
2663.000000	60.543612
2662.000000	60.594804
2661.000000	60.644079
2660.000000	60.691156
2659.000000	60.737335
2658.000000	60.784629
2657.000000	60.835329
2656.000000	60.891000
2655.000000	60.951061
2654.000000	61.012763
2653.000000	61.072987
2652.000000	61.129764
2651.000000	61.182409
2650.000000	61.231452
2649.000000	61.278811
2648.000000	61.326956
2647.000000	61.377157
2646.000000	61.428852
2645.000000	61.480634
2644.000000	61.531108
2643.000000	61.578770
2642.000000	61.622421
2641.000000	61.662352
2640.000000	61.700228
2639.000000	61.737447
2638.000000	61.774180
2637.000000	61.810174
2636.000000	61.845417
2635.000000	61.879437
2634.000000	61.911189
2633.000000	61.940263
2632.000000	61.967488
2631.000000	61.993847
2630.000000	62.019403
2629.000000	62.043835
2628.000000	62.067115
2627.000000	62.089151
2626.000000	62.109663
2625.000000	62.128971
2624.000000	62.148299
2623.000000	62.168680
2622.000000	62.190060
2621.000000	62.211770
2620.000000	62.233111
2619.000000	62.253181
2618.000000	62.271041
2617.000000	62.286759
2616.000000	62.301833
2615.000000	62.318165
2614.000000	62.336934
2613.000000	62.358260
2612.000000	62.380877
2611.000000	62.401932
2610.000000	62.418182
2609.000000	62.428253
2608.000000	62.433438
2607.000000	62.436257
2606.000000	62.439163
2605.000000	62.444301
2604.000000	62.452831
2603.000000	62.463536
2602.000000	62.472851
2601.000000	62.477236
2600.000000	62.475235
2599.000000	62.467591
2598.000000	62.456852
2597.000000	62.447294
2596.000000	62.443695
2595.000000	62.448785
2594.000000	62.461957
2593.000000	62.480464
2592.000000	62.501309
2591.000000	62.521983
2590.000000	62.541318
2589.000000	62.560862
2588.000000	62.584617
2587.000000	62.616903
2586.000000	62.660074
2585.000000	62.713918
2584.000000	62.775917
2583.000000	62.841405
2582.000000	62.905297
2581.000000	62.964828
2580.000000	63.020753
2579.000000	63.076044
2578.000000	63.133882
2577.000000	63.196886
2576.000000	63.266293
2575.000000	63.340730
2574.000000	63.416584
2573.000000	63.490327
2572.000000	63.560264
2571.000000	63.626226
2570.000000	63.689070
2569.000000	63.751174
2568.000000	63.815937
2567.000000	63.885441
2566.000000	63.958938
2565.000000	64.033992
2564.000000	64.108214
2563.000000	64.179550
2562.000000	64.246434
2561.000000	64.308987
2560.000000	64.369439
2559.000000	64.430265
2558.000000	64.492392
2557.000000	64.555519
2556.000000	64.619062
2555.000000	64.682028
2554.000000	64.742862
2553.000000	64.800621
2552.000000	64.855696
2551.000000	64.908702
2550.000000	64.959692
2549.000000	65.008976
2548.000000	65.057686
2547.000000	65.106420
2546.000000	65.154216
2545.000000	65.199960
2544.000000	65.243633
2543.000000	65.285395
2542.000000	65.324373
2541.000000	65.359470
2540.000000	65.390697
2539.000000	65.418332
2538.000000	65.441846
2537.000000	65.460751
2536.000000	65.475579
2535.000000	65.487146
2534.000000	65.495100
2533.000000	65.498377
2532.000000	65.496331
2531.000000	65.488241
2530.000000	65.473142
2529.000000	65.451076
2528.000000	65.424198
2527.000000	65.395715
2526.000000	65.368132
2525.000000	65.343362
2524.000000	65.323230
2523.000000	65.308677
2522.000000	65.299155
2521.000000	65.294054
2520.000000	65.293958
2519.000000	65.300107
2518.000000	65.313563
2517.000000	65.335415
2516.000000	65.367225
2515.000000	65.409387
2514.000000	65.459926
2513.000000	65.515762
2512.000000	65.574188
2511.000000	65.633259
2510.000000	65.691608
2509.000000	65.749358
2508.000000	65.808414
2507.000000	65.870450
2506.000000	65.935375
2505.000000	66.002110
2504.000000	66.069687
2503.000000	66.136604
2502.000000	66.200358
2501.000000	66.259215
2500.000000	66.313854
2499.000000	66.366325
2498.000000	66.418164
2497.000000	66.470607
2496.000000	66.525125
2495.000000	66.582018
2494.000000	66.639132
2493.000000	66.693325
2492.000000	66.742913
2491.000000	66.787784
2490.000000	66.828376
2489.000000	66.866102
2488.000000	66.903800
2487.000000	66.944098
2486.000000	66.987378
2485.000000	67.032157
2484.000000	67.076670
2483.000000	67.118952
2482.000000	67.156792
2481.000000	67.189329
2480.000000	67.218294
2479.000000	67.246530
2478.000000	67.275828
2477.000000	67.307153
2476.000000	67.341467
2475.000000	67.378555
2474.000000	67.415827
2473.000000	67.449963
2472.000000	67.479496
2471.000000	67.504949
2470.000000	67.527536
2469.000000	67.549235
2468.000000	67.573024
2467.000000	67.601058
2466.000000	67.632744
2465.000000	67.665616
2464.000000	67.697446
2463.000000	67.726548
2462.000000	67.751433
2461.000000	67.772129
2460.000000	67.791258
2459.000000	67.812269
2458.000000	67.836875
2457.000000	67.864874
2456.000000	67.895165
2455.000000	67.925516
2454.000000	67.952728
2453.000000	67.975131
2452.000000	67.994490
2451.000000	68.014079
2450.000000	68.035581
2449.000000	68.059067
2448.000000	68.084664
2447.000000	68.112223
2446.000000	68.140081
2445.000000	68.166072
2444.000000	68.189542
2443.000000	68.211266
2442.000000	68.232179
2441.000000	68.253470
2440.000000	68.276836
2439.000000	68.302803
2438.000000	68.329392
2437.000000	68.353975
2436.000000	68.375924
2435.000000	68.396287
2434.000000	68.415988
2433.000000	68.435863
2432.000000	68.457298
2431.000000	68.480910
2430.000000	68.505148
2429.000000	68.527778
2428.000000	68.548259
2427.000000	68.567566
2426.000000	68.586762
2425.000000	68.607258
2424.000000	68.631201
2423.000000	68.659579
2422.000000	68.690505
2421.000000	68.720805
2420.000000	68.748557
2419.000000	68.772972
2418.000000	68.793381
2417.000000	68.810417
2416.000000	68.827306
2415.000000	68.847860
2414.000000	68.873389
2413.000000	68.902597
2412.000000	68.933293
2411.000000	68.962669
2410.000000	68.987416
2409.000000	69.006090
2408.000000	69.021142
2407.000000	69.037078
2406.000000	69.057091
2405.000000	69.082321
2404.000000	69.112558
2403.000000	69.145550
2402.000000	69.176755
2401.000000	69.202229
2400.000000	69.221814
2399.000000	69.238537
2398.000000	69.255972
2397.000000	69.277369
2396.000000	69.305361
2395.000000	69.339884
2394.000000	69.376959
2393.000000	69.411502
2392.000000	69.441000
2391.000000	69.465783
2390.000000	69.487666
2389.000000	69.509923
2388.000000	69.537189
2387.000000	69.572041
2386.000000	69.612407
2385.000000	69.653925
2384.000000	69.693266
2383.000000	69.729366
2382.000000	69.762194
2381.000000	69.793893
2380.000000	69.829729
2379.000000	69.874098
2378.000000	69.927212
2377.000000	69.985607
2376.000000	70.044903
2375.000000	70.100167
2374.000000	70.146431
2373.000000	70.182360
2372.000000	70.212120
2371.000000	70.241480
2370.000000	70.273020
2369.000000	70.308150
2368.000000	70.347716
2367.000000	70.389118
2366.000000	70.426984
2365.000000	70.458356
2364.000000	70.487328
2363.000000	70.519288
2362.000000	70.556864
2361.000000	70.604373
2360.000000	70.665030
2359.000000	70.737852
2358.000000	70.815631
2357.000000	70.890869
2356.000000	70.961628
2355.000000	71.026484
2354.000000	71.086795
2353.000000	71.143099
2352.000000	71.193256
2351.000000	71.236082
2350.000000	71.274911
2349.000000	71.320554
2348.000000	71.382807
2347.000000	71.463277
2346.000000	71.546229
2345.000000	71.607550
2344.000000	71.641605
2343.000000	71.663173
2342.000000	71.690128
2341.000000	71.725732
2340.000000	71.764364
2339.000000	71.801700
2338.000000	71.837526
2337.000000	71.874604
2336.000000	71.917327
2335.000000	71.969725
2334.000000	72.033600
2333.000000	72.106483
2332.000000	72.181264
2331.000000	72.251016
2330.000000	72.309433
2329.000000	72.357228
2328.000000	72.399439
2327.000000	72.445379
2326.000000	72.501854
2325.000000	72.568764
2324.000000	72.642386
2323.000000	72.714841
2322.000000	72.779097
2321.000000	72.829916
2320.000000	72.869195
2319.000000	72.904011
2318.000000	72.941894
2317.000000	72.988504
2316.000000	73.046100
2315.000000	73.112974
2314.000000	73.180722
2313.000000	73.239856
2312.000000	73.285603
2311.000000	73.320995
2310.000000	73.352498
2309.000000	73.387225
2308.000000	73.431426
2307.000000	73.487585
2306.000000	73.551685
2305.000000	73.615079
2304.000000	73.670994
2303.000000	73.717031
2302.000000	73.754140
2301.000000	73.786246
2300.000000	73.820506
2299.000000	73.864150
2298.000000	73.918374
2297.000000	73.978479
2296.000000	74.038044
2295.000000	74.092087
2294.000000	74.136953
2293.000000	74.171961
2292.000000	74.201898
2291.000000	74.234453
2290.000000	74.274605
2289.000000	74.322215
2288.000000	74.374486
2287.000000	74.427100
2286.000000	74.474646
2285.000000	74.513342
2284.000000	74.545088
2283.000000	74.575770
2282.000000	74.610088
2281.000000	74.649476
2280.000000	74.693776
2279.000000	74.741208
2278.000000	74.787040
2277.000000	74.826281
2276.000000	74.858304
2275.000000	74.886828
2274.000000	74.915615
2273.000000	74.946758
2272.000000	74.981687
2271.000000	75.020180
2270.000000	75.058451
2269.000000	75.091574
2268.000000	75.118235
2267.000000	75.141027
2266.000000	75.162983
2265.000000	75.186554
2264.000000	75.214436
2263.000000	75.247386
2262.000000	75.281273
2261.000000	75.309656
2260.000000	75.329611
2259.000000	75.342716
2258.000000	75.351956
2257.000000	75.360806
2256.000000	75.374255
2255.000000	75.395910
2254.000000	75.423401
2253.000000	75.449577
2252.000000	75.468213
2251.000000	75.476717
2250.000000	75.475044
2249.000000	75.466114
2248.000000	75.457201
2247.000000	75.456155
2246.000000	75.465255
2245.000000	75.480705
2244.000000	75.496458
2243.000000	75.506341
2242.000000	75.504414
2241.000000	75.488531
2240.000000	75.464037
2239.000000	75.440718
2238.000000	75.425616
2237.000000	75.420346
2236.000000	75.423135
2235.000000	75.429265
2234.000000	75.430623
2233.000000	75.419805
2232.000000	75.396032
2231.000000	75.365027
2230.000000	75.333783
2229.000000	75.307972
2228.000000	75.292122
2227.000000	75.287256
2226.000000	75.287993
2225.000000	75.285528
2224.000000	75.274175
2223.000000	75.253285
2222.000000	75.224758
2221.000000	75.192603
2220.000000	75.163701
2219.000000	75.144238
2218.000000	75.134480
2217.000000	75.129478
2216.000000	75.124276
2215.000000	75.115816
2214.000000	75.101569
2213.000000	75.080821
2212.000000	75.057275
2211.000000	75.036695
2210.000000	75.021673
2209.000000	75.011155
2208.000000	75.003896
2207.000000	74.999041
2206.000000	74.994229
2205.000000	74.987027
2204.000000	74.978145
2203.000000	74.970093
2202.000000	74.963220
2201.000000	74.956184
2200.000000	74.949377
2199.000000	74.944404
2198.000000	74.940927
2197.000000	74.937601
2196.000000	74.935535
2195.000000	74.937170
2194.000000	74.942130
2193.000000	74.947397
2192.000000	74.951016
2191.000000	74.952448
2190.000000	74.950378
2189.000000	74.944158
2188.000000	74.937077
2187.000000	74.934489
2186.000000	74.938613
2185.000000	74.947713
2184.000000	74.959101
2183.000000	74.969565
2182.000000	74.974188
2181.000000	74.969338
2180.000000	74.957134
2179.000000	74.943955
2178.000000	74.934957
2177.000000	74.932511
2176.000000	74.937974
2175.000000	74.950388
2174.000000	74.963930
2173.000000	74.970921
2172.000000	74.967981
2171.000000	74.957118
2170.000000	74.942285
2169.000000	74.928342
2168.000000	74.921652
2167.000000	74.926573
2166.000000	74.940771
2165.000000	74.957015
2164.000000	74.969342
2163.000000	74.975072
2162.000000	74.972933
2161.000000	74.963976
2160.000000	74.953794
2159.000000	74.949493
2158.000000	74.953980
2157.000000	74.965597
2156.000000	74.981718
2155.000000	74.999129
2154.000000	75.012531
2153.000000	75.017613
2152.000000	75.015732
2151.000000	75.012244
2150.000000	75.010851
2149.000000	75.012711
2148.000000	75.019326
2147.000000	75.031566
2146.000000	75.046408
2145.000000	75.058887
2144.000000	75.067142
2143.000000	75.072342
2142.000000	75.074981
2141.000000	75.075078
2140.000000	75.075068
2139.000000	75.078275
2138.000000	75.084990
2137.000000	75.093568
2136.000000	75.104278
2135.000000	75.118155
2134.000000	75.133189
2133.000000	75.146006
2132.000000	75.156573
2131.000000	75.167328
2130.000000	75.178539
2129.000000	75.188806
2128.000000	75.199269
2127.000000	75.212907
2126.000000	75.230167
2125.000000	75.249159
2124.000000	75.269286
2123.000000	75.290544
2122.000000	75.310389
2121.000000	75.325768
2120.000000	75.337670
2119.000000	75.349754
2118.000000	75.363573
2117.000000	75.379250
2116.000000	75.399205
2115.000000	75.425933
2114.000000	75.456687
2113.000000	75.485275
2112.000000	75.509080
2111.000000	75.530215
2110.000000	75.550844
2109.000000	75.572282
2108.000000	75.597805
2107.000000	75.630909
2106.000000	75.670358
2105.000000	75.711117
2104.000000	75.750107
2103.000000	75.787196
2102.000000	75.821717
2101.000000	75.853202
2100.000000	75.885045
2099.000000	75.922511
2098.000000	75.966668
2097.000000	76.014251
2096.000000	76.062839
2095.000000	76.111045
2094.000000	76.154947
2093.000000	76.190494
2092.000000	76.219904
2091.000000	76.250646
2090.000000	76.287495
2089.000000	76.329526
2088.000000	76.374180
2087.000000	76.419120
2086.000000	76.460223
2085.000000	76.493256
2084.000000	76.518427
2083.000000	76.539409
2082.000000	76.558003
2081.000000	76.573988
2080.000000	76.589085
2079.000000	76.605750
2078.000000	76.622264
2077.000000	76.634109
2076.000000	76.640482
2075.000000	76.644500
2074.000000	76.647777
2073.000000	76.649499
2072.000000	76.650492
2071.000000	76.653109
2070.000000	76.655959
2069.000000	76.654025
2068.000000	76.645761
2067.000000	76.636580
2066.000000	76.634336
2065.000000	76.643576
2064.000000	76.663501
2063.000000	76.688693
2062.000000	76.712420
2061.000000	76.732173
2060.000000	76.751891
2059.000000	76.776538
2058.000000	76.806216
2057.000000	76.838732
2056.000000	76.875191
2055.000000	76.917926
2054.000000	76.965018
2053.000000	77.011983
2052.000000	77.057868
2051.000000	77.105474
2050.000000	77.156231
2049.000000	77.209927
2048.000000	77.268925
2047.000000	77.336551
2046.000000	77.410659
2045.000000	77.484328
2044.000000	77.554245
2043.000000	77.623955
2042.000000	77.698572
2041.000000	77.780648
2040.000000	77.870883
2039.000000	77.968339
2038.000000	78.069540
2037.000000	78.170928
2036.000000	78.272274
2035.000000	78.374134
2034.000000	78.473768
2033.000000	78.568525
2032.000000	78.661434
2031.000000	78.757995
2030.000000	78.859233
2029.000000	78.962494
2028.000000	79.067403
2027.000000	79.174537
2026.000000	79.280072
2025.000000	79.378941
2024.000000	79.472285
2023.000000	79.565558
2022.000000	79.658540
2021.000000	79.744854
2020.000000	79.822734
2019.000000	79.899750
2018.000000	79.985504
2017.000000	80.083428
2016.000000	80.189358
2015.000000	80.294864
2014.000000	80.392531
2013.000000	80.481387
2012.000000	80.567381
2011.000000	80.654987
2010.000000	80.740353
2009.000000	80.817101
2008.000000	80.885829
2007.000000	80.951781
2006.000000	81.016971
2005.000000	81.081790
2004.000000	81.149985
2003.000000	81.224876
2002.000000	81.301255
2001.000000	81.369855
2000.000000	81.427722
1999.000000	81.478276
1998.000000	81.524067
1997.000000	81.563259
1996.000000	81.593953
1995.000000	81.618809
1994.000000	81.646404
1993.000000	81.689791
1992.000000	81.756210
1991.000000	81.832757
1990.000000	81.894988
1989.000000	81.935144
1988.000000	81.969959
1987.000000	82.017429
1986.000000	82.076380
1985.000000	82.135552
1984.000000	82.191213
1983.000000	82.244620
1982.000000	82.289981
1981.000000	82.320065
1980.000000	82.338970
1979.000000	82.358163
1978.000000	82.383610
1977.000000	82.414695
1976.000000	82.452538
1975.000000	82.497800
1974.000000	82.543125
1973.000000	82.577847
1972.000000	82.598125
1971.000000	82.604711
1970.000000	82.596929
1969.000000	82.581331
1968.000000	82.581310
1967.000000	82.618982
1966.000000	82.685248
1965.000000	82.747294
1964.000000	82.786321
1963.000000	82.809610
1962.000000	82.830242
1961.000000	82.853264
1960.000000	82.879877
1959.000000	82.909390
1958.000000	82.934348
1957.000000	82.946409
1956.000000	82.949939
1955.000000	82.957787
1954.000000	82.974737
1953.000000	82.996511
1952.000000	83.023366
1951.000000	83.058604
1950.000000	83.092996
1949.000000	83.109519
1948.000000	83.102462
1947.000000	83.077832
1946.000000	83.039586
1945.000000	82.993330
1944.000000	82.964323
1943.000000	82.989782
1942.000000	83.075258
1941.000000	83.176462
1940.000000	83.245991
1939.000000	83.272668
1938.000000	83.266846
1937.000000	83.240772
1936.000000	83.210747
1935.000000	83.197239
1934.000000	83.211923
1933.000000	83.249517
1932.000000	83.296495
1931.000000	83.338521
1930.000000	83.358264
1929.000000	83.345904
1928.000000	83.307972
1927.000000	83.257091
1926.000000	83.198689
1925.000000	83.141288
1924.000000	83.114799
1923.000000	83.147404
1922.000000	83.220546
1921.000000	83.282152
1920.000000	83.305197
1919.000000	83.303164
1918.000000	83.298199
1917.000000	83.292848
1916.000000	83.282836
1915.000000	83.278863
1914.000000	83.286601
1913.000000	83.286813
1912.000000	83.258629
1911.000000	83.206883
1910.000000	83.155511
1909.000000	83.125999
1908.000000	83.124442
1907.000000	83.144877
1906.000000	83.174539
1905.000000	83.199769
1904.000000	83.215719
1903.000000	83.222046
1902.000000	83.215519
1901.000000	83.195336
1900.000000	83.167768
1899.000000	83.139914
1898.000000	83.111327
1897.000000	83.081588
1896.000000	83.064459
1895.000000	83.072346
1894.000000	83.088432
1893.000000	83.080150
1892.000000	83.041142
1891.000000	83.001671
1890.000000	82.999957
1889.000000	83.040594
1888.000000	83.086333
1887.000000	83.103216
1886.000000	83.089851
1885.000000	83.063207
1884.000000	83.041869
1883.000000	83.035552
1882.000000	83.041845
1881.000000	83.054930
1880.000000	83.071787
1879.000000	83.087586
1878.000000	83.090004
1877.000000	83.067867
1876.000000	83.026999
1875.000000	82.984055
1874.000000	82.946228
1873.000000	82.911767
1872.000000	82.880459
1871.000000	82.847716
1870.000000	82.804573
1869.000000	82.763693
1868.000000	82.748790
1867.000000	82.755243
1866.000000	82.765084
1865.000000	82.774642
1864.000000	82.790403
1863.000000	82.816703
1862.000000	82.845843
1861.000000	82.861157
1860.000000	82.851292
1859.000000	82.816803
1858.000000	82.764265
1857.000000	82.705932
1856.000000	82.661339
1855.000000	82.647735
1854.000000	82.663983
1853.000000	82.689424
1852.000000	82.696283
1851.000000	82.662277
1850.000000	82.577469
1849.000000	82.454350
1848.000000	82.340415
1847.000000	82.294004
1846.000000	82.336248
1845.000000	82.436519
1844.000000	82.535833
1843.000000	82.567769
1842.000000	82.505158
1841.000000	82.386764
1840.000000	82.261540
1839.000000	82.153534
1838.000000	82.075104
1837.000000	82.036890
1836.000000	82.038072
1835.000000	82.053551
1834.000000	82.046203
1833.000000	81.991213
1832.000000	81.887274
1831.000000	81.763522
1830.000000	81.676511
1829.000000	81.642081
1828.000000	81.621454
1827.000000	81.599754
1826.000000	81.588777
1825.000000	81.588597
1824.000000	81.580896
1823.000000	81.546164
1822.000000	81.486511
1821.000000	81.417993
1820.000000	81.356593
1819.000000	81.313402
1818.000000	81.285722
1817.000000	81.259689
1816.000000	81.220727
1815.000000	81.152777
1814.000000	81.045881
1813.000000	80.913937
1812.000000	80.801180
1811.000000	80.750212
1810.000000	80.751897
1809.000000	80.761431
1808.000000	80.753164
1807.000000	80.723548
1806.000000	80.665558
1805.000000	80.572404
1804.000000	80.459118
1803.000000	80.355845
1802.000000	80.287643
1801.000000	80.262206
1800.000000	80.261499
1799.000000	80.244498
1798.000000	80.175084
1797.000000	80.063468
1796.000000	79.965236
1795.000000	79.925226
1794.000000	79.932634
1793.000000	79.949365
1792.000000	79.969067
1791.000000	79.983338
1790.000000	79.953449
1789.000000	79.872776
1788.000000	79.775616
1787.000000	79.693857
1786.000000	79.638090
1785.000000	79.600589
1784.000000	79.563167
1783.000000	79.505980
1782.000000	79.427147
1781.000000	79.345465
1780.000000	79.278782
1779.000000	79.219522
1778.000000	79.142872
1777.000000	79.052465
1776.000000	78.989831
1775.000000	78.990842
1774.000000	79.031698
1773.000000	79.051761
1772.000000	79.035074
1771.000000	78.985438
1770.000000	78.902214
1769.000000	78.816497
1768.000000	78.761859
1767.000000	78.731003
1766.000000	78.692535
1765.000000	78.639489
1764.000000	78.588858
1763.000000	78.542713
1762.000000	78.483892
1761.000000	78.383395
1760.000000	78.242149
1759.000000	78.117721
1758.000000	78.059023
1757.000000	78.058571
1756.000000	78.063103
1755.000000	78.027165
1754.000000	77.948407
1753.000000	77.828310
1752.000000	77.651092
1751.000000	77.431492
1750.000000	77.221819
1749.000000	77.070991
1748.000000	77.001341
1747.000000	76.981942
1746.000000	76.946540
1745.000000	76.858781
1744.000000	76.752749
1743.000000	76.690139
1742.000000	76.679268
1741.000000	76.670594
1740.000000	76.624259
1739.000000	76.540820
1738.000000	76.446418
1737.000000	76.387120
1736.000000	76.372723
1735.000000	76.327008
1734.000000	76.195216
1733.000000	75.953196
1732.000000	75.628414
1731.000000	75.354200
1730.000000	75.202160
1729.000000	75.117533
1728.000000	75.019431
1727.000000	74.877665
1726.000000	74.701945
1725.000000	74.502650
1724.000000	74.305363
1723.000000	74.138151
1722.000000	73.998124
1721.000000	73.861982
1720.000000	73.699551
1719.000000	73.471492
1718.000000	73.195694
1717.000000	72.943319
1716.000000	72.736457
1715.000000	72.566487
1714.000000	72.412403
1713.000000	72.230052
1712.000000	72.005454
1711.000000	71.759514
1710.000000	71.504106
1709.000000	71.233976
1708.000000	70.954774
1707.000000	70.685950
1706.000000	70.446828
1705.000000	70.254098
1704.000000	70.135245
1703.000000	70.133409
1702.000000	70.197284
1701.000000	70.102205
1700.000000	69.720156
1699.000000	69.190351
1698.000000	68.730590
1697.000000	68.473079
1696.000000	68.379882
1695.000000	68.242662
1694.000000	67.913088
1693.000000	67.472342
1692.000000	67.042526
1691.000000	66.647852
1690.000000	66.278951
1689.000000	65.960478
1688.000000	65.738635
1687.000000	65.619349
1686.000000	65.499279
1685.000000	65.221112
1684.000000	64.849692
1683.000000	64.475220
1682.000000	64.053220
1681.000000	63.646499
1680.000000	63.333343
1679.000000	63.125496
1678.000000	62.993801
1677.000000	62.859901
1676.000000	62.634715
1675.000000	62.285050
1674.000000	61.851137
1673.000000	61.400471
1672.000000	61.000636
1671.000000	60.673064
1670.000000	60.400074
1669.000000	60.144412
1668.000000	59.856338
1667.000000	59.540069
1666.000000	59.234844
1665.000000	58.935630
1664.000000	58.609718
1663.000000	58.267561
1662.000000	57.943397
1661.000000	57.626199
1660.000000	57.300682
1659.000000	56.979091
1658.000000	56.680602
1657.000000	56.429400
1656.000000	56.263038
1655.000000	56.147438
1654.000000	55.969151
1653.000000	55.723371
1652.000000	55.319511
1651.000000	54.742789
1650.000000	54.220805
1649.000000	53.816514
1648.000000	53.480574
1647.000000	53.243198
1646.000000	53.087305
1645.000000	52.874590
1644.000000	52.565657
1643.000000	52.247885
1642.000000	51.959066
1641.000000	51.674639
1640.000000	51.382279
1639.000000	51.118245
1638.000000	50.909863
1637.000000	50.731196
1636.000000	50.580925
1635.000000	50.447408
1634.000000	50.239477
1633.000000	49.947420
1632.000000	49.656429
1631.000000	49.410186
1630.000000	49.194900
1629.000000	48.985564
1628.000000	48.795503
1627.000000	48.652357
1626.000000	48.544815
1625.000000	48.427673
1624.000000	48.275707
1623.000000	48.115880
1622.000000	47.969096
1621.000000	47.831584
1620.000000	47.728440
1619.000000	47.694585
1618.000000	47.715490
1617.000000	47.742929
1616.000000	47.732582
1615.000000	47.664637
1614.000000	47.567903
1613.000000	47.480911
1612.000000	47.413653
1611.000000	47.371611
1610.000000	47.366996
1609.000000	47.402307
1608.000000	47.467941
1607.000000	47.551031
1606.000000	47.631492
1605.000000	47.684167
1604.000000	47.705794
1603.000000	47.727650
1602.000000	47.779235
1601.000000	47.858135
1600.000000	47.950200
1599.000000	48.050889
1598.000000	48.152499
1597.000000	48.236127
1596.000000	48.296108
1595.000000	48.351172
1594.000000	48.415809
1593.000000	48.483304
1592.000000	48.549725
1591.000000	48.629579
1590.000000	48.732278
1589.000000	48.843184
1588.000000	48.942206
1587.000000	49.025596
1586.000000	49.096444
1585.000000	49.151856
1584.000000	49.194238
1583.000000	49.241640
1582.000000	49.302828
1581.000000	49.361300
1580.000000	49.409433
1579.000000	49.471598
1578.000000	49.565605
1577.000000	49.675518
1576.000000	49.775358
1575.000000	49.818641
1574.000000	49.790345
1573.000000	49.751905
1572.000000	49.752250
1571.000000	49.781616
1570.000000	49.827498
1569.000000	49.883166
1568.000000	49.913283
1567.000000	49.917832
1566.000000	49.938264
1565.000000	49.986630
1564.000000	50.054183
1563.000000	50.171217
1562.000000	50.357031
1561.000000	50.564969
1560.000000	50.619423
1559.000000	50.706577
1558.000000	50.976464
1557.000000	51.095298
1556.000000	51.082921
1555.000000	51.142241
1554.000000	51.270310
1553.000000	51.379864
1552.000000	51.435145
1551.000000	51.516249
1550.000000	51.691203
1549.000000	51.944631
1548.000000	52.208276
1547.000000	52.451698
1546.000000	52.677663
1545.000000	52.895481
1544.000000	53.134235
1543.000000	53.412990
1542.000000	53.714842
1541.000000	54.057525
1540.000000	54.566072
1539.000000	55.140629
1538.000000	55.495439
1537.000000	55.653523
1536.000000	55.807486
1535.000000	56.045394
1534.000000	56.376846
1533.000000	56.767716
1532.000000	57.137164
1531.000000	57.447687
1530.000000	57.745488
1529.000000	58.070940
1528.000000	58.443693
1527.000000	58.873633
1526.000000	59.326760
1525.000000	59.730830
1524.000000	60.073182
1523.000000	60.426467
1522.000000	60.881928
1521.000000	61.423122
1520.000000	61.879100
1519.000000	62.183710
1518.000000	62.460648
1517.000000	62.830014
1516.000000	63.291428
1515.000000	63.741305
1514.000000	64.119559
1513.000000	64.433541
1512.000000	64.688484
1511.000000	64.901860
1510.000000	65.093674
1509.000000	65.302461
1508.000000	65.620569
1507.000000	66.324723
1506.000000	67.284624
1505.000000	67.863611
1504.000000	68.001937
1503.000000	68.072859
1502.000000	68.251964
1501.000000	68.531604
1500.000000	68.848869
1499.000000	69.188784
1498.000000	69.556672
1497.000000	69.938359
1496.000000	70.289571
1495.000000	70.550659
1494.000000	70.702805
1493.000000	70.774778
1492.000000	70.796074
1491.000000	70.791293
1490.000000	70.812777
1489.000000	70.891963
1488.000000	71.000909
1487.000000	71.097785
1486.000000	71.126462
1485.000000	71.035908
1484.000000	70.828122
1483.000000	70.535237
1482.000000	70.161433
1481.000000	69.692689
1480.000000	69.146862
1479.000000	68.541143
1478.000000	67.831059
1477.000000	66.972553
1476.000000	66.016996
1475.000000	65.015379
1474.000000	63.860320
1473.000000	62.414323
1472.000000	60.756098
1471.000000	59.066793
1470.000000	57.403252
1469.000000	55.743035
1468.000000	54.072053
1467.000000	52.351529
1466.000000	50.479270
1465.000000	48.423291
1464.000000	46.350940
1463.000000	44.454148
1462.000000	42.757341
1461.000000	41.203339
1460.000000	39.770646
1459.000000	38.425044
1458.000000	37.077108
1457.000000	35.761872
1456.000000	34.692430
1455.000000	33.983165
1454.000000	33.572441
1453.000000	33.385454
1452.000000	33.410498
1451.000000	33.643131
1450.000000	34.044570
1449.000000	34.595096
1448.000000	35.306655
1447.000000	36.141534
1446.000000	37.007917
1445.000000	37.864108
1444.000000	38.743706
1443.000000	39.673788
1442.000000	40.628435
1441.000000	41.576417
1440.000000	42.531845
1439.000000	43.548879
1438.000000	44.682638
1437.000000	45.941502
1436.000000	47.203601
1435.000000	48.282470
1434.000000	49.163562
1433.000000	49.980625
1432.000000	50.813782
1431.000000	51.645308
1430.000000	52.434395
1429.000000	53.157018
1428.000000	53.778678
1427.000000	54.272501
1426.000000	54.666391
1425.000000	55.022288
1424.000000	55.385165
1423.000000	55.761584
1422.000000	56.147780
1421.000000	56.550567
1420.000000	56.960000
1419.000000	57.372547
1418.000000	57.789326
1417.000000	58.198949
1416.000000	58.622391
1415.000000	59.083376
1414.000000	59.575027
1413.000000	60.091636
1412.000000	60.641318
1411.000000	61.226746
1410.000000	61.831367
1409.000000	62.428074
1408.000000	62.989172
1407.000000	63.500990
1406.000000	63.988758
1405.000000	64.497711
1404.000000	65.022629
1403.000000	65.508857
1402.000000	65.938575
1401.000000	66.343590
1400.000000	66.741060
1399.000000	67.114439
1398.000000	67.445136
1397.000000	67.745007
1396.000000	68.046841
1395.000000	68.366194
1394.000000	68.675706
1393.000000	68.918532
1392.000000	69.067984
1391.000000	69.143242
1390.000000	69.161174
1389.000000	69.098642
1388.000000	68.909528
1387.000000	68.598944
1386.000000	68.261761
1385.000000	68.027539
1384.000000	67.980734
1383.000000	68.121343
1382.000000	68.374898
1381.000000	68.635460
1380.000000	68.815166
1379.000000	68.877663
1378.000000	68.838307
1377.000000	68.729867
1376.000000	68.575086
1375.000000	68.408279
1374.000000	68.282732
1373.000000	68.200955
1372.000000	68.098052
1371.000000	67.930349
1370.000000	67.720001
1369.000000	67.511476
1368.000000	67.316124
1367.000000	67.107806
1366.000000	66.857618
1365.000000	66.547979
1364.000000	66.176548
1363.000000	65.782682
1362.000000	65.427711
1361.000000	65.124357
1360.000000	64.838556
1359.000000	64.551648
1358.000000	64.279868
1357.000000	64.043475
1356.000000	63.843145
1355.000000	63.675617
1354.000000	63.549097
1353.000000	63.466515
1352.000000	63.412290
1351.000000	63.368179
1350.000000	63.326183
1349.000000	63.267108
1348.000000	63.139557
1347.000000	62.884676
1346.000000	62.468304
1345.000000	61.878251
1344.000000	61.109455
1343.000000	60.164008
1342.000000	59.057914
1341.000000	57.817213
1340.000000	56.478079
1339.000000	55.082269
1338.000000	53.643973
1337.000000	52.136028
1336.000000	50.523982
1335.000000	48.806120
1334.000000	47.015702
1333.000000	45.191668
1332.000000	43.369765
1331.000000	41.595164
1330.000000	39.913220
1329.000000	38.343937
1328.000000	36.883515
1327.000000	35.522511
1326.000000	34.244906
1325.000000	33.022649
1324.000000	31.831929
1323.000000	30.675494
1322.000000	29.572853
1321.000000	28.543668
1320.000000	27.623578
1319.000000	26.873993
1318.000000	26.355440
1317.000000	26.094651
1316.000000	26.088481
1315.000000	26.326893
1314.000000	26.784900
1313.000000	27.414577
1312.000000	28.161679
1311.000000	28.981129
1310.000000	29.840020
1309.000000	30.712892
1308.000000	31.586877
1307.000000	32.461830
1306.000000	33.335662
1305.000000	34.198202
1304.000000	35.040364
1303.000000	35.860613
1302.000000	36.657869
1301.000000	37.426523
1300.000000	38.163095
1299.000000	38.872732
1298.000000	39.563855
1297.000000	40.241195
1296.000000	40.909366
1295.000000	41.578814
1294.000000	42.263743
1293.000000	42.976616
1292.000000	43.728263
1291.000000	44.530025
1290.000000	45.392698
1289.000000	46.321768
1288.000000	47.314230
1287.000000	48.359042
1286.000000	49.437469
1285.000000	50.525446
1284.000000	51.598444
1283.000000	52.638391
1282.000000	53.638095
1281.000000	54.598076
1280.000000	55.519899
1279.000000	56.405965
1278.000000	57.261982
1277.000000	58.090410
1276.000000	58.885347
1275.000000	59.640592
1274.000000	60.362885
1273.000000	61.071578
1272.000000	61.785202
1271.000000	62.515670
1270.000000	63.268608
1269.000000	64.037151
1268.000000	64.797645
1267.000000	65.522644
1266.000000	66.201678
1265.000000	66.840201
1264.000000	67.443391
1263.000000	68.015901
1262.000000	68.569663
1261.000000	69.114354
1260.000000	69.637146
1259.000000	70.106394
1258.000000	70.500313
1257.000000	70.817725
1256.000000	71.069292
1255.000000	71.275727
1254.000000	71.467852
1253.000000	71.669756
1252.000000	71.875123
1251.000000	72.052217
1250.000000	72.169561
1249.000000	72.206686
1248.000000	72.154152
1247.000000	72.020796
1246.000000	71.840311
1245.000000	71.652757
1244.000000	71.473800
1243.000000	71.291207
1242.000000	71.080681
1241.000000	70.814531
1240.000000	70.466982
1239.000000	70.029909
1238.000000	69.527425
1237.000000	69.001439
1236.000000	68.484926
1235.000000	67.994841
1234.000000	67.536734
1233.000000	67.103085
1232.000000	66.673183
1231.000000	66.229897
1230.000000	65.777140
1229.000000	65.336264
1228.000000	64.929936
1227.000000	64.577339
1226.000000	64.295390
1225.000000	64.088848
1224.000000	63.944713
1223.000000	63.842852
1222.000000	63.771729
1221.000000	63.730981
1220.000000	63.722236
1219.000000	63.749156
1218.000000	63.818521
1217.000000	63.931477
1216.000000	64.077230
1215.000000	64.240551
1214.000000	64.416256
1213.000000	64.608747
1212.000000	64.821669
1211.000000	65.056749
1210.000000	65.315848
1209.000000	65.595086
1208.000000	65.878255
1207.000000	66.145249
1206.000000	66.387751
1205.000000	66.611441
1204.000000	66.828278
1203.000000	67.054506
1202.000000	67.309315
1201.000000	67.601149
1200.000000	67.914217
1199.000000	68.216170
1198.000000	68.479077
1197.000000	68.690209
1196.000000	68.852153
1195.000000	68.986568
1194.000000	69.133281
1193.000000	69.329366
1192.000000	69.583288
1191.000000	69.871229
1190.000000	70.154560
1189.000000	70.394945
1188.000000	70.564291
1187.000000	70.661713
1186.000000	70.723708
1185.000000	70.805530
1184.000000	70.947704
1183.000000	71.159422
1182.000000	71.421483
1181.000000	71.691576
1180.000000	71.916149
1179.000000	72.059438
1178.000000	72.128724
1177.000000	72.166682
1176.000000	72.223724
1175.000000	72.340361
1174.000000	72.537790
1173.000000	72.803536
1172.000000	73.087916
1171.000000	73.330661
1170.000000	73.498304
1169.000000	73.596121
1168.000000	73.656057
1167.000000	73.724642
1166.000000	73.850747
1165.000000	74.059920
1164.000000	74.333316
1163.000000	74.619125
1162.000000	74.866514
1161.000000	75.046835
1160.000000	75.157026
1159.000000	75.222901
1158.000000	75.295119
1157.000000	75.420723
1156.000000	75.611131
1155.000000	75.840822
1154.000000	76.070633
1153.000000	76.263352
1152.000000	76.391451
1151.000000	76.453497
1150.000000	76.484517
1149.000000	76.533694
1148.000000	76.627462
1147.000000	76.759858
1146.000000	76.908110
1145.000000	77.042472
1144.000000	77.131852
1143.000000	77.162655
1142.000000	77.156185
1141.000000	77.154227
1140.000000	77.185861
1139.000000	77.254975
1138.000000	77.348839
1137.000000	77.442865
1136.000000	77.504111
1135.000000	77.511945
1134.000000	77.479993
1133.000000	77.446698
1132.000000	77.444680
1131.000000	77.485369
1130.000000	77.560567
1129.000000	77.641549
1128.000000	77.682073
1127.000000	77.645156
1126.000000	77.534291
1125.000000	77.390033
1124.000000	77.259794
1123.000000	77.176425
1122.000000	77.150035
1121.000000	77.157908
1120.000000	77.141669
1119.000000	77.037410
1118.000000	76.817546
1117.000000	76.501805
1116.000000	76.138335
1115.000000	75.782227
1114.000000	75.477427
1113.000000	75.230371
1112.000000	74.993623
1111.000000	74.691400
1110.000000	74.263790
1109.000000	73.692259
1108.000000	72.999154
1107.000000	72.238366
1106.000000	71.477965
1105.000000	70.761003
1104.000000	70.075237
1103.000000	69.363031
1102.000000	68.553346
1101.000000	67.592646
1100.000000	66.458768
1099.000000	65.171462
1098.000000	63.786670
1097.000000	62.359974
1096.000000	60.916899
1095.000000	59.445925
1094.000000	57.910275
1093.000000	56.266295
1092.000000	54.479942
1091.000000	52.549172
1090.000000	50.507908
1089.000000	48.409179
1088.000000	46.308012
1087.000000	44.250463
1086.000000	42.265217
1085.000000	40.362233
1084.000000	38.545743
1083.000000	36.822028
1082.000000	35.199206
1081.000000	33.683551
1080.000000	32.285807
1079.000000	31.023076
1078.000000	29.898484
1077.000000	28.899909
1076.000000	28.012303
1075.000000	27.222957
1074.000000	26.517062
1073.000000	25.874531
1072.000000	25.286595
1071.000000	24.757130
1070.000000	24.286901
1069.000000	23.873342
1068.000000	23.519311
1067.000000	23.233497
1066.000000	23.015393
1065.000000	22.852988
1064.000000	22.740453
1063.000000	22.678387
1062.000000	22.662233
1061.000000	22.683088
1060.000000	22.740170
1059.000000	22.841829
1058.000000	22.988808
1057.000000	23.173494
1056.000000	23.393865
1055.000000	23.652714
1054.000000	23.946395
1053.000000	24.264839
1052.000000	24.605599
1051.000000	24.974645
1050.000000	25.371352
1049.000000	25.788962
1048.000000	26.226240
1047.000000	26.686927
1046.000000	27.168809
1045.000000	27.664598
1044.000000	28.174518
1043.000000	28.704851
1042.000000	29.256375
1041.000000	29.825003
1040.000000	30.410650
1039.000000	31.017107
1038.000000	31.642869
1037.000000	32.282342
1036.000000	32.936564
1035.000000	33.612121
1034.000000	34.312596
1033.000000	35.037178
1032.000000	35.786032
1031.000000	36.559889
1030.000000	37.353405
1029.000000	38.157943
1028.000000	38.970147
1027.000000	39.793186
1026.000000	40.632029
1025.000000	41.490498
1024.000000	42.371698
1023.000000	43.274854
1022.000000	44.191264
1021.000000	45.107399
1020.000000	46.011930
1019.000000	46.900533
1018.000000	47.776854
1017.000000	48.650555
1016.000000	49.532512
1015.000000	50.428546
1014.000000	51.335206
1013.000000	52.239236
1012.000000	53.121719
1011.000000	53.966174
1010.000000	54.768137
1009.000000	55.537833
1008.000000	56.293641
1007.000000	57.054098
1006.000000	57.830968
1005.000000	58.622467
1004.000000	59.409655
1003.000000	60.163813
1002.000000	60.863531
1001.000000	61.504576
1000.000000	62.099757
999.000000	62.675241
998.000000	63.262346
997.000000	63.882139
996.000000	64.530073
995.000000	65.178138
994.000000	65.792618
993.000000	66.347872
992.000000	66.833293
991.000000	67.259697
990.000000	67.661287
989.000000	68.080031
988.000000	68.540228
987.000000	69.039510
986.000000	69.555358
985.000000	70.053201
984.000000	70.495875
983.000000	70.861557
982.000000	71.160746
981.000000	71.429868
980.000000	71.707602
979.000000	72.020472
978.000000	72.379699
977.000000	72.776138
976.000000	73.176491
975.000000	73.538569
974.000000	73.838136
973.000000	74.077272
972.000000	74.274630
971.000000	74.458357
970.000000	74.662272
969.000000	74.911258
968.000000	75.203411
967.000000	75.512948
966.000000	75.809383
965.000000	76.068556
964.000000	76.274441
963.000000	76.427090
962.000000	76.550670
961.000000	76.680733
960.000000	76.839819
959.000000	77.031526
958.000000	77.249079
957.000000	77.476677
956.000000	77.686989
955.000000	77.854508
954.000000	77.975820
953.000000	78.068353
952.000000	78.152525
951.000000	78.244686
950.000000	78.359925
949.000000	78.504589
948.000000	78.664546
947.000000	78.813779
946.000000	78.936416
945.000000	79.031393
944.000000	79.102480
943.000000	79.158062
942.000000	79.216544
941.000000	79.295021
940.000000	79.390738
939.000000	79.485442
938.000000	79.565372
937.000000	79.626831
936.000000	79.667992
935.000000	79.691266
934.000000	79.711774
933.000000	79.747073
932.000000	79.796366
931.000000	79.842203
930.000000	79.869123
929.000000	79.870123
928.000000	79.840613
927.000000	79.783322
926.000000	79.718793
925.000000	79.674214
924.000000	79.658953
923.000000	79.659091
922.000000	79.652006
921.000000	79.615873
920.000000	79.530792
919.000000	79.391065
918.000000	79.218767
917.000000	79.051148
916.000000	78.913269
915.000000	78.807664
914.000000	78.721587
913.000000	78.630079
912.000000	78.496420
911.000000	78.291721
910.000000	78.019255
909.000000	77.711995
908.000000	77.407119
907.000000	77.128966
906.000000	76.886439
905.000000	76.665816
904.000000	76.426806
903.000000	76.124446
902.000000	75.739439
901.000000	75.285333
900.000000	74.792505
899.000000	74.294146
898.000000	73.818057
897.000000	73.369174
896.000000	72.918653
895.000000	72.420168
894.000000	71.840479
893.000000	71.173502
892.000000	70.433356
891.000000	69.649454
890.000000	68.859618
889.000000	68.086644
888.000000	67.319519
887.000000	66.520631
886.000000	65.652687
885.000000	64.696327
884.000000	63.651770
883.000000	62.540952
882.000000	61.403476
881.000000	60.276081
880.000000	59.169459
879.000000	58.064747
878.000000	56.930880
877.000000	55.740349
876.000000	54.479853
875.000000	53.159109
874.000000	51.810196
873.000000	50.471881
872.000000	49.169876
871.000000	47.908041
870.000000	46.672188
869.000000	45.438641
868.000000	44.184867
867.000000	42.900593
866.000000	41.594508
865.000000	40.290198
864.000000	39.015761
863.000000	37.791957
862.000000	36.625821
861.000000	35.514168
860.000000	34.450543
859.000000	33.433362
858.000000	32.470378
857.000000	31.583243
856.000000	30.808900
855.000000	30.183388
854.000000	29.728568
853.000000	29.445811
852.000000	29.316955
851.000000	29.308288
850.000000	29.373164
849.000000	29.469062
848.000000	29.570403
847.000000	29.668489
846.000000	29.767680
845.000000	29.881206
844.000000	30.027306
843.000000	30.218642
842.000000	30.455657
841.000000	30.732504
840.000000	31.042996
839.000000	31.381530
838.000000	31.744576
837.000000	32.134805
836.000000	32.559678
835.000000	33.020082
834.000000	33.504557
833.000000	33.994568
832.000000	34.471623
831.000000	34.922261
830.000000	35.346802
829.000000	35.769404
828.000000	36.234588
827.000000	36.786669
826.000000	37.452289
825.000000	38.233955
824.000000	39.110580
823.000000	40.043626
822.000000	40.991464
821.000000	41.926593
820.000000	42.838533
819.000000	43.728372
818.000000	44.605398
817.000000	45.481912
816.000000	46.361466
815.000000	47.231890
814.000000	48.073568
813.000000	48.871119
812.000000	49.617603
811.000000	50.316570
810.000000	50.987572
809.000000	51.661245
808.000000	52.359156
807.000000	53.081117
806.000000	53.811484
805.000000	54.530269
804.000000	55.216772
803.000000	55.856357
802.000000	56.455011
801.000000	57.039883
800.000000	57.638772
799.000000	58.262978
798.000000	58.908017
797.000000	59.558093
796.000000	60.185011
795.000000	60.759085
794.000000	61.272735
793.000000	61.747163
792.000000	62.213143
791.000000	62.692488
790.000000	63.195031
789.000000	63.716749
788.000000	64.233666
787.000000	64.712528
786.000000	65.136282
785.000000	65.514019
784.000000	65.866394
783.000000	66.212895
782.000000	66.572075
781.000000	66.954695
780.000000	67.348261
779.000000	67.721661
778.000000	68.052023
777.000000	68.340630
776.000000	68.603312
775.000000	68.859689
774.000000	69.132525
773.000000	69.438415
772.000000	69.769686
771.000000	70.096307
770.000000	70.391224
769.000000	70.646366
768.000000	70.866524
767.000000	71.065507
766.000000	71.269893
765.000000	71.506201
764.000000	71.774760
763.000000	72.046695
762.000000	72.290654
761.000000	72.491325
760.000000	72.644438
759.000000	72.756233
758.000000	72.854695
757.000000	72.981890
756.000000	73.162913
755.000000	73.389119
754.000000	73.632142
753.000000	73.859397
752.000000	74.037374
751.000000	74.144561
750.000000	74.193545
749.000000	74.227293
748.000000	74.285934
747.000000	74.385465
746.000000	74.524858
745.000000	74.690715
744.000000	74.849694
743.000000	74.959603
742.000000	75.003008
741.000000	74.999976
740.000000	74.985185
739.000000	74.987891
738.000000	75.034085
737.000000	75.142071
736.000000	75.302363
735.000000	75.477786
734.000000	75.635312
733.000000	75.766339
732.000000	75.874247
731.000000	75.963365
730.000000	76.049248
729.000000	76.159135
728.000000	76.311003
727.000000	76.502847
726.000000	76.724030
725.000000	76.961575
724.000000	77.192666
723.000000	77.392136
722.000000	77.555932
721.000000	77.701947
720.000000	77.844365
719.000000	77.986265
718.000000	78.139412
717.000000	78.325284
716.000000	78.545210
715.000000	78.769130
714.000000	78.963945
713.000000	79.116455
712.000000	79.226182
711.000000	79.301096
710.000000	79.371180
709.000000	79.481606
708.000000	79.656221
707.000000	79.879823
706.000000	80.118553
705.000000	80.339171
704.000000	80.507451
703.000000	80.596761
702.000000	80.618476
701.000000	80.626963
700.000000	80.680022
699.000000	80.806638
698.000000	81.007570
697.000000	81.258383
696.000000	81.502289
695.000000	81.668856
694.000000	81.727284
693.000000	81.709371
692.000000	81.673943
691.000000	81.673729
690.000000	81.754178
689.000000	81.942763
688.000000	82.210567
687.000000	82.468815
686.000000	82.635817
685.000000	82.690373
684.000000	82.657890
683.000000	82.585644
682.000000	82.545006
681.000000	82.611206
680.000000	82.802267
679.000000	83.056636
678.000000	83.292889
677.000000	83.456686
676.000000	83.512178
675.000000	83.463669
674.000000	83.376774
673.000000	83.345136
672.000000	83.426214
671.000000	83.624114
670.000000	83.924366
669.000000	84.287825
668.000000	84.562833
667.000000	84.583594
666.000000	84.422950
665.000000	84.256998
664.000000	84.179222
663.000000	84.215485
662.000000	84.350257
661.000000	84.534203
660.000000	84.701440
659.000000	84.800546
658.000000	84.823973
657.000000	84.805250
656.000000	84.788386
655.000000	84.818818
654.000000	84.918445
653.000000	85.061487
652.000000	85.194839
651.000000	85.276204
650.000000	85.294953
649.000000	85.271051
648.000000	85.248820
647.000000	85.280635
646.000000	85.391325
645.000000	85.553730
644.000000	85.703348
643.000000	85.778816
642.000000	85.758856
641.000000	85.671232
640.000000	85.577542
639.000000	85.549712
638.000000	85.636212
637.000000	85.828661
636.000000	86.059339
635.000000	86.233617
634.000000	86.277800
633.000000	86.172996
632.000000	85.964338
631.000000	85.751730
630.000000	85.652423
629.000000	85.735840
628.000000	85.978751
627.000000	86.278018
626.000000	86.506200
625.000000	86.572187
624.000000	86.457262
623.000000	86.228630
622.000000	86.023844
621.000000	85.983457
620.000000	86.166109
619.000000	86.514156
618.000000	86.886390
617.000000	87.127310
616.000000	87.136379
615.000000	86.917037
614.000000	86.585068
613.000000	86.315342
612.000000	86.250974
611.000000	86.435755
610.000000	86.800734
609.000000	87.192955
608.000000	87.435399
607.000000	87.411376
606.000000	87.136802
605.000000	86.755252
604.000000	86.451945
603.000000	86.359585
602.000000	86.510620
601.000000	86.828957
600.000000	87.148851
599.000000	87.279445
598.000000	87.111140
597.000000	86.681417
596.000000	86.144991
595.000000	85.697220
594.000000	85.499268
593.000000	85.615901
592.000000	85.983092
591.000000	86.431228
590.000000	86.767909
589.000000	86.878502
588.000000	86.771957
587.000000	86.567894
586.000000	86.440746
585.000000	86.525041
584.000000	86.831237
583.000000	87.247705
582.000000	87.619499
581.000000	87.825872
580.000000	87.815793
579.000000	87.623374
578.000000	87.369460
577.000000	87.211531
576.000000	87.254084
575.000000	87.486665
574.000000	87.797717
573.000000	88.047915
572.000000	88.132751
571.000000	88.024237
570.000000	87.794710
569.000000	87.581447
568.000000	87.497627
567.000000	87.573805
566.000000	87.761606
565.000000	87.970284
564.000000	88.104416
563.000000	88.107512
562.000000	87.999612
561.000000	87.865019
560.000000	87.789091
559.000000	87.810324
558.000000	87.916670
557.000000	88.055993
556.000000	88.151326
555.000000	88.142198
554.000000	88.035011
553.000000	87.902414
552.000000	87.828267
551.000000	87.858940
550.000000	87.988531
549.000000	88.158600
548.000000	88.274644
547.000000	88.259532
546.000000	88.117701
545.000000	87.936785
544.000000	87.822637
543.000000	87.844194
542.000000	88.015241
541.000000	88.281376
540.000000	88.521909
539.000000	88.604253
538.000000	88.472452
537.000000	88.186080
536.000000	87.879443
535.000000	87.695044
534.000000	87.729450
533.000000	87.985275
532.000000	88.348534
531.000000	88.632693
530.000000	88.684951
529.000000	88.465829
528.000000	88.049334
527.000000	87.590655
526.000000	87.284315
525.000000	87.259076
524.000000	87.475360
523.000000	87.751574
522.000000	87.885267
521.000000	87.745085
520.000000	87.307482
519.000000	86.671811
518.000000	86.043665
517.000000	85.636270
516.000000	85.538506
515.000000	85.674473
514.000000	85.873590
513.000000	85.961956
512.000000	85.817128
511.000000	85.409102
510.000000	84.826457
509.000000	84.237310
508.000000	83.799533
507.000000	83.592431
506.000000	83.590662
505.000000	83.674340
504.000000	83.682861
503.000000	83.500896
502.000000	83.133970
501.000000	82.696460
500.000000	82.318490
499.000000	82.090956
498.000000	82.071949
497.000000	82.268783
496.000000	82.602282
495.000000	82.933618
494.000000	83.154993
493.000000	83.255093
492.000000	83.296078
491.000000	83.360366
490.000000	83.520990
489.000000	83.817808
488.000000	84.227610
487.000000	84.673368
486.000000	85.078362
485.000000	85.402439
484.000000	85.629187
483.000000	85.753073
482.000000	85.801491
481.000000	85.833733
480.000000	85.891039
479.000000	85.973959
478.000000	86.070535
477.000000	86.171975
476.000000	86.250522
475.000000	86.263238
474.000000	86.207754
473.000000	86.154812
472.000000	86.184096
471.000000	86.290454
470.000000	86.428560
469.000000	86.603733
468.000000	86.844805
467.000000	87.140389
466.000000	87.429266
465.000000	87.649854
464.000000	87.759380
463.000000	87.735898
462.000000	87.615397
461.000000	87.492879
460.000000	87.447392
459.000000	87.500043
458.000000	87.656309
457.000000	87.899616
456.000000	88.113145
455.000000	88.159167
454.000000	88.014309
453.000000	87.770168
452.000000	87.558641
451.000000	87.463670
450.000000	87.504574
449.000000	87.671206
448.000000	87.917939
447.000000	88.147509
446.000000	88.252732
445.000000	88.187517
444.000000	87.974699
443.000000	87.700130
442.000000	87.513057
441.000000	87.546540
440.000000	87.804942
439.000000	88.162121
438.000000	88.462515
437.000000	88.611124
436.000000	88.577496
435.000000	88.377951
434.000000	88.100235
433.000000	87.889703
432.000000	87.854360
431.000000	88.000424
430.000000	88.265724
429.000000	88.563229
428.000000	88.767163
427.000000	88.745725
426.000000	88.483641
425.000000	88.112868
424.000000	87.781075
423.000000	87.558762
422.000000	87.467640
421.000000	87.498439
420.000000	87.552899
419.000000	87.546596
418.000000	87.493964
417.000000	87.355940
416.000000	87.121262
415.000000	86.836792
414.000000	86.566451
413.000000	86.419637
412.000000	86.463456
411.000000	86.642802
410.000000	86.864874
409.000000	87.079959
408.000000	87.217457
407.000000	87.169770
406.000000	86.943636
405.000000	86.703580
404.000000	86.573969
403.000000	86.536246
402.000000	86.532790
401.000000	86.583616
400.000000	86.670209
