PE IR       SUBTECH     SPECTRUM    ASCII       PEDS        4.00        
   -1
23ms154_nitro.asc
24/09/06
16:07:41.00
24/09/06
16:07:41.00
Administrator
Sample 1125 By Administrator Date Friday, September 06 2024
400.000000
#HDR
-1
-1
#GR
cm-1
%T
1.0
0.0
4000.000000
-1.000000
3601
8
84.326490
2.976047
#DATA
4000.000000	46.676664
3999.000000	46.713151
3998.000000	46.750146
3997.000000	46.787939
3996.000000	46.826412
3995.000000	46.865041
3994.000000	46.902880
3993.000000	46.939129
3992.000000	46.973987
3991.000000	47.008719
3990.000000	47.044374
3989.000000	47.080603
3988.000000	47.116363
3987.000000	47.151573
3986.000000	47.187266
3985.000000	47.223997
3984.000000	47.261093
3983.000000	47.297642
3982.000000	47.333299
3981.000000	47.367811
3980.000000	47.400494
3979.000000	47.430827
3978.000000	47.459441
3977.000000	47.488067
3976.000000	47.518070
3975.000000	47.549274
3974.000000	47.580721
3973.000000	47.612180
3972.000000	47.644082
3971.000000	47.676639
3970.000000	47.709723
3969.000000	47.743081
3968.000000	47.776109
3967.000000	47.807783
3966.000000	47.837272
3965.000000	47.864781
3964.000000	47.892011
3963.000000	47.921064
3962.000000	47.952726
3961.000000	47.985739
3960.000000	48.017561
3959.000000	48.046791
3958.000000	48.075000
3957.000000	48.104955
3956.000000	48.137182
3955.000000	48.169397
3954.000000	48.199269
3953.000000	48.226255
3952.000000	48.251442
3951.000000	48.276792
3950.000000	48.304077
3949.000000	48.332829
3948.000000	48.360491
3947.000000	48.385412
3946.000000	48.408279
3945.000000	48.432006
3944.000000	48.461488
3943.000000	48.500924
3942.000000	48.548376
3941.000000	48.595500
3940.000000	48.634897
3939.000000	48.666864
3938.000000	48.697629
3937.000000	48.731167
3936.000000	48.764119
3935.000000	48.790012
3934.000000	48.808972
3933.000000	48.829194
3932.000000	48.857820
3931.000000	48.892679
3930.000000	48.925766
3929.000000	48.953653
3928.000000	48.979868
3927.000000	49.009206
3926.000000	49.043829
3925.000000	49.084694
3924.000000	49.129321
3923.000000	49.168138
3922.000000	49.192061
3921.000000	49.204028
3920.000000	49.217187
3919.000000	49.240850
3918.000000	49.273342
3917.000000	49.310153
3916.000000	49.350751
3915.000000	49.394598
3914.000000	49.437646
3913.000000	49.478431
3912.000000	49.520219
3911.000000	49.564004
3910.000000	49.605367
3909.000000	49.639437
3908.000000	49.666547
3907.000000	49.688032
3906.000000	49.702041
3905.000000	49.705525
3904.000000	49.701011
3903.000000	49.694409
3902.000000	49.689774
3901.000000	49.690467
3900.000000	49.703762
3899.000000	49.737447
3898.000000	49.787323
3897.000000	49.840101
3896.000000	49.888278
3895.000000	49.936828
3894.000000	49.991941
3893.000000	50.049359
3892.000000	50.097100
3891.000000	50.131757
3890.000000	50.162598
3889.000000	50.190885
3888.000000	50.204612
3887.000000	50.199465
3886.000000	50.195096
3885.000000	50.215201
3884.000000	50.253681
3883.000000	50.282845
3882.000000	50.296392
3881.000000	50.316581
3880.000000	50.360284
3879.000000	50.417688
3878.000000	50.465052
3877.000000	50.488396
3876.000000	50.495731
3875.000000	50.511714
3874.000000	50.556773
3873.000000	50.620166
3872.000000	50.662187
3871.000000	50.659951
3870.000000	50.641051
3869.000000	50.649440
3868.000000	50.684407
3867.000000	50.707137
3866.000000	50.705639
3865.000000	50.715455
3864.000000	50.766358
3863.000000	50.839175
3862.000000	50.895746
3861.000000	50.927781
3860.000000	50.956554
3859.000000	51.008110
3858.000000	51.098095
3857.000000	51.217008
3856.000000	51.321974
3855.000000	51.353606
3854.000000	51.300787
3853.000000	51.227542
3852.000000	51.187439
3851.000000	51.173756
3850.000000	51.174282
3849.000000	51.199095
3848.000000	51.257737
3847.000000	51.339805
3846.000000	51.423504
3845.000000	51.492876
3844.000000	51.541778
3843.000000	51.574719
3842.000000	51.602060
3841.000000	51.626382
3840.000000	51.642265
3839.000000	51.647363
3838.000000	51.647154
3837.000000	51.651120
3836.000000	51.668190
3835.000000	51.699928
3834.000000	51.742147
3833.000000	51.789738
3832.000000	51.842437
3831.000000	51.902113
3830.000000	51.963563
3829.000000	52.016664
3828.000000	52.056332
3827.000000	52.089787
3826.000000	52.132067
3825.000000	52.185554
3824.000000	52.227424
3823.000000	52.233644
3822.000000	52.216806
3821.000000	52.221338
3820.000000	52.269299
3819.000000	52.327939
3818.000000	52.355309
3817.000000	52.351387
3816.000000	52.358416
3815.000000	52.412228
3814.000000	52.493238
3813.000000	52.556492
3812.000000	52.596745
3811.000000	52.644851
3810.000000	52.715624
3809.000000	52.785216
3808.000000	52.820722
3807.000000	52.826630
3806.000000	52.838101
3805.000000	52.865934
3804.000000	52.883795
3803.000000	52.873901
3802.000000	52.856302
3801.000000	52.867797
3800.000000	52.912225
3799.000000	52.954616
3798.000000	52.979112
3797.000000	53.008251
3796.000000	53.067447
3795.000000	53.153137
3794.000000	53.237684
3793.000000	53.302575
3792.000000	53.354008
3791.000000	53.405849
3790.000000	53.458782
3789.000000	53.504339
3788.000000	53.538975
3787.000000	53.567384
3786.000000	53.595040
3785.000000	53.624687
3784.000000	53.657095
3783.000000	53.689598
3782.000000	53.716116
3781.000000	53.737365
3780.000000	53.765379
3779.000000	53.810111
3778.000000	53.865038
3777.000000	53.912640
3776.000000	53.943981
3775.000000	53.968372
3774.000000	54.001911
3773.000000	54.045512
3772.000000	54.082829
3771.000000	54.104119
3770.000000	54.120916
3769.000000	54.146237
3768.000000	54.175271
3767.000000	54.198240
3766.000000	54.220112
3765.000000	54.255827
3764.000000	54.308619
3763.000000	54.359186
3762.000000	54.386097
3761.000000	54.396109
3760.000000	54.416651
3759.000000	54.456106
3758.000000	54.496567
3757.000000	54.528920
3756.000000	54.563244
3755.000000	54.601254
3754.000000	54.630956
3753.000000	54.646938
3752.000000	54.657477
3751.000000	54.661715
3750.000000	54.647727
3749.000000	54.633239
3748.000000	54.654650
3747.000000	54.706701
3746.000000	54.747881
3745.000000	54.761758
3744.000000	54.787045
3743.000000	54.852859
3742.000000	54.921559
3741.000000	54.959617
3740.000000	54.987121
3739.000000	55.027780
3738.000000	55.072682
3737.000000	55.106724
3736.000000	55.148203
3735.000000	55.219859
3734.000000	55.300947
3733.000000	55.355261
3732.000000	55.387366
3731.000000	55.430569
3730.000000	55.497438
3729.000000	55.568971
3728.000000	55.626842
3727.000000	55.678970
3726.000000	55.743413
3725.000000	55.815574
3724.000000	55.873516
3723.000000	55.914297
3722.000000	55.955443
3721.000000	56.008180
3720.000000	56.068048
3719.000000	56.125162
3718.000000	56.176143
3717.000000	56.227427
3716.000000	56.282231
3715.000000	56.328746
3714.000000	56.353112
3713.000000	56.359786
3712.000000	56.371825
3711.000000	56.404720
3710.000000	56.451257
3709.000000	56.498801
3708.000000	56.545188
3707.000000	56.597278
3706.000000	56.659966
3705.000000	56.728446
3704.000000	56.794940
3703.000000	56.859503
3702.000000	56.927848
3701.000000	56.998541
3700.000000	57.062614
3699.000000	57.112577
3698.000000	57.149071
3697.000000	57.183017
3696.000000	57.225508
3695.000000	57.270779
3694.000000	57.302388
3693.000000	57.319187
3692.000000	57.339211
3691.000000	57.375447
3690.000000	57.418222
3689.000000	57.449437
3688.000000	57.470312
3687.000000	57.500677
3686.000000	57.547636
3685.000000	57.600314
3684.000000	57.653399
3683.000000	57.709168
3682.000000	57.764314
3681.000000	57.809012
3680.000000	57.845474
3679.000000	57.883147
3678.000000	57.908755
3677.000000	57.897937
3676.000000	57.870481
3675.000000	57.880408
3674.000000	57.930636
3673.000000	57.968955
3672.000000	57.965499
3671.000000	57.957338
3670.000000	58.009383
3669.000000	58.128602
3668.000000	58.253512
3667.000000	58.340759
3666.000000	58.401919
3665.000000	58.465689
3664.000000	58.545160
3663.000000	58.632232
3662.000000	58.713100
3661.000000	58.781761
3660.000000	58.838429
3659.000000	58.878925
3658.000000	58.896228
3657.000000	58.894265
3656.000000	58.890599
3655.000000	58.896629
3654.000000	58.899110
3653.000000	58.876300
3652.000000	58.826723
3651.000000	58.778964
3650.000000	58.769082
3649.000000	58.802905
3648.000000	58.858547
3647.000000	58.923978
3646.000000	58.998843
3645.000000	59.076452
3644.000000	59.150760
3643.000000	59.224581
3642.000000	59.303919
3641.000000	59.385107
3640.000000	59.454654
3639.000000	59.504773
3638.000000	59.542293
3637.000000	59.575278
3636.000000	59.601093
3635.000000	59.617116
3634.000000	59.634183
3633.000000	59.661202
3632.000000	59.680313
3631.000000	59.661103
3630.000000	59.609984
3629.000000	59.583247
3628.000000	59.614179
3627.000000	59.668926
3626.000000	59.707823
3625.000000	59.731809
3624.000000	59.762364
3623.000000	59.808989
3622.000000	59.857287
3621.000000	59.888151
3620.000000	59.903334
3619.000000	59.917458
3618.000000	59.931599
3617.000000	59.935742
3616.000000	59.927440
3615.000000	59.918799
3614.000000	59.929738
3613.000000	59.967560
3612.000000	60.014513
3611.000000	60.045038
3610.000000	60.055301
3609.000000	60.071221
3608.000000	60.120319
3607.000000	60.198260
3606.000000	60.275508
3605.000000	60.330459
3604.000000	60.364604
3603.000000	60.392504
3602.000000	60.424584
3601.000000	60.460481
3600.000000	60.494309
3599.000000	60.518162
3598.000000	60.528252
3597.000000	60.532244
3596.000000	60.544325
3595.000000	60.573751
3594.000000	60.616908
3593.000000	60.658071
3592.000000	60.679943
3591.000000	60.675091
3590.000000	60.650454
3589.000000	60.631770
3588.000000	60.651589
3587.000000	60.715135
3586.000000	60.790465
3585.000000	60.846507
3584.000000	60.881429
3583.000000	60.912127
3582.000000	60.952463
3581.000000	61.003106
3580.000000	61.056740
3579.000000	61.106624
3578.000000	61.149927
3577.000000	61.186620
3576.000000	61.218119
3575.000000	61.245835
3574.000000	61.269264
3573.000000	61.284833
3572.000000	61.286746
3571.000000	61.270005
3570.000000	61.233552
3569.000000	61.190439
3568.000000	61.173494
3567.000000	61.210306
3566.000000	61.288284
3565.000000	61.369559
3564.000000	61.432496
3563.000000	61.482140
3562.000000	61.532524
3561.000000	61.589431
3560.000000	61.647983
3559.000000	61.700992
3558.000000	61.745077
3557.000000	61.780506
3556.000000	61.810573
3555.000000	61.841190
3554.000000	61.878552
3553.000000	61.924585
3552.000000	61.973208
3551.000000	62.012672
3550.000000	62.033907
3549.000000	62.039021
3548.000000	62.043599
3547.000000	62.067120
3546.000000	62.116307
3545.000000	62.180335
3544.000000	62.243971
3543.000000	62.300434
3542.000000	62.350833
3541.000000	62.397529
3540.000000	62.442272
3539.000000	62.486999
3538.000000	62.532956
3537.000000	62.579026
3536.000000	62.621577
3535.000000	62.656736
3534.000000	62.682757
3533.000000	62.701529
3532.000000	62.718558
3531.000000	62.739984
3530.000000	62.768171
3529.000000	62.801522
3528.000000	62.838241
3527.000000	62.878292
3526.000000	62.921327
3525.000000	62.966249
3524.000000	63.013092
3523.000000	63.061568
3522.000000	63.108006
3521.000000	63.147831
3520.000000	63.181709
3519.000000	63.215906
3518.000000	63.255417
3517.000000	63.298772
3516.000000	63.340389
3515.000000	63.376009
3514.000000	63.404013
3513.000000	63.423681
3512.000000	63.436872
3511.000000	63.450502
3510.000000	63.471487
3509.000000	63.498736
3508.000000	63.523611
3507.000000	63.539216
3506.000000	63.547153
3505.000000	63.556501
3504.000000	63.576785
3503.000000	63.609776
3502.000000	63.647655
3501.000000	63.680616
3500.000000	63.705697
3499.000000	63.726508
3498.000000	63.746645
3497.000000	63.765842
3496.000000	63.781489
3495.000000	63.791154
3494.000000	63.793201
3493.000000	63.787187
3492.000000	63.775492
3491.000000	63.763574
3490.000000	63.756717
3489.000000	63.756862
3488.000000	63.762608
3487.000000	63.769781
3486.000000	63.771963
3485.000000	63.764357
3484.000000	63.749129
3483.000000	63.734652
3482.000000	63.726465
3481.000000	63.720376
3480.000000	63.706717
3479.000000	63.680362
3478.000000	63.644769
3477.000000	63.608306
3476.000000	63.578832
3475.000000	63.559626
3474.000000	63.548227
3473.000000	63.539344
3472.000000	63.528764
3471.000000	63.513665
3470.000000	63.489933
3469.000000	63.452113
3468.000000	63.397832
3467.000000	63.330489
3466.000000	63.256578
3465.000000	63.182501
3464.000000	63.114715
3463.000000	63.058891
3462.000000	63.015148
3461.000000	62.975820
3460.000000	62.930890
3459.000000	62.875106
3458.000000	62.808974
3457.000000	62.734967
3456.000000	62.655304
3455.000000	62.572135
3454.000000	62.486861
3453.000000	62.399646
3452.000000	62.310812
3451.000000	62.221288
3450.000000	62.131317
3449.000000	62.040918
3448.000000	61.951945
3447.000000	61.866106
3446.000000	61.779880
3445.000000	61.685745
3444.000000	61.580270
3443.000000	61.468064
3442.000000	61.356100
3441.000000	61.246878
3440.000000	61.138942
3439.000000	61.030901
3438.000000	60.921352
3437.000000	60.806275
3436.000000	60.680748
3435.000000	60.543525
3434.000000	60.397737
3433.000000	60.247883
3432.000000	60.096765
3431.000000	59.943762
3430.000000	59.784804
3429.000000	59.615250
3428.000000	59.434179
3427.000000	59.244534
3426.000000	59.049381
3425.000000	58.849874
3424.000000	58.646786
3423.000000	58.442077
3422.000000	58.237615
3421.000000	58.033732
3420.000000	57.829368
3419.000000	57.622342
3418.000000	57.409666
3417.000000	57.188948
3416.000000	56.959762
3415.000000	56.721986
3414.000000	56.473145
3413.000000	56.210380
3412.000000	55.934765
3411.000000	55.651311
3410.000000	55.364052
3409.000000	55.073169
3408.000000	54.777801
3407.000000	54.478676
3406.000000	54.177208
3405.000000	53.873748
3404.000000	53.566602
3403.000000	53.251393
3402.000000	52.920847
3401.000000	52.567884
3400.000000	52.191049
3399.000000	51.796605
3398.000000	51.395320
3397.000000	50.996722
3396.000000	50.604880
3395.000000	50.217870
3394.000000	49.829683
3393.000000	49.433327
3392.000000	49.022994
3391.000000	48.594542
3390.000000	48.146732
3389.000000	47.682444
3388.000000	47.207521
3387.000000	46.726865
3386.000000	46.242241
3385.000000	45.754742
3384.000000	45.266495
3383.000000	44.778706
3382.000000	44.289531
3381.000000	43.795489
3380.000000	43.294143
3379.000000	42.783874
3378.000000	42.262999
3377.000000	41.731056
3376.000000	41.190004
3375.000000	40.643188
3374.000000	40.093659
3373.000000	39.543973
3372.000000	38.995835
3371.000000	38.448197
3370.000000	37.897578
3369.000000	37.341234
3368.000000	36.779065
3367.000000	36.212156
3366.000000	35.641314
3365.000000	35.068153
3364.000000	34.495220
3363.000000	33.923680
3362.000000	33.352612
3361.000000	32.781533
3360.000000	32.211771
3359.000000	31.644455
3358.000000	31.079289
3357.000000	30.516470
3356.000000	29.957802
3355.000000	29.404643
3354.000000	28.856613
3353.000000	28.313004
3352.000000	27.773485
3351.000000	27.237054
3350.000000	26.702503
3349.000000	26.170634
3348.000000	25.644023
3347.000000	25.123818
3346.000000	24.609104
3345.000000	24.099596
3344.000000	23.596584
3343.000000	23.101041
3342.000000	22.612933
3341.000000	22.132850
3340.000000	21.661692
3339.000000	21.198541
3338.000000	20.741559
3337.000000	20.290683
3336.000000	19.847250
3335.000000	19.411070
3334.000000	18.980670
3333.000000	18.556580
3332.000000	18.140896
3331.000000	17.734026
3330.000000	17.334641
3329.000000	16.942577
3328.000000	16.559244
3327.000000	16.184797
3326.000000	15.818277
3325.000000	15.460227
3324.000000	15.111785
3323.000000	14.771843
3322.000000	14.437862
3321.000000	14.109480
3320.000000	13.788542
3319.000000	13.475537
3318.000000	13.169851
3317.000000	12.872394
3316.000000	12.584906
3315.000000	12.307010
3314.000000	12.036668
3313.000000	11.773474
3312.000000	11.518107
3311.000000	11.269328
3310.000000	11.025399
3309.000000	10.787498
3308.000000	10.559058
3307.000000	10.341942
3306.000000	10.136315
3305.000000	9.943548
3304.000000	9.764643
3303.000000	9.597113
3302.000000	9.436681
3301.000000	9.281709
3300.000000	9.133245
3299.000000	8.991270
3298.000000	8.854864
3297.000000	8.725190
3296.000000	8.604331
3295.000000	8.492174
3294.000000	8.387332
3293.000000	8.290715
3292.000000	8.204674
3291.000000	8.128742
3290.000000	8.060324
3289.000000	7.998211
3288.000000	7.942559
3287.000000	7.892186
3286.000000	7.845088
3285.000000	7.801641
3284.000000	7.763538
3283.000000	7.730513
3282.000000	7.701033
3281.000000	7.675111
3280.000000	7.653587
3279.000000	7.635277
3278.000000	7.618200
3277.000000	7.602792
3276.000000	7.590702
3275.000000	7.581465
3274.000000	7.573369
3273.000000	7.566845
3272.000000	7.563982
3271.000000	7.565304
3270.000000	7.569893
3269.000000	7.577491
3268.000000	7.587632
3267.000000	7.598048
3266.000000	7.606802
3265.000000	7.615087
3264.000000	7.625155
3263.000000	7.636667
3262.000000	7.648069
3261.000000	7.659772
3260.000000	7.672885
3259.000000	7.686296
3258.000000	7.698313
3257.000000	7.710163
3256.000000	7.724501
3255.000000	7.741519
3254.000000	7.759434
3253.000000	7.777684
3252.000000	7.796558
3251.000000	7.814853
3250.000000	7.831193
3249.000000	7.846839
3248.000000	7.864312
3247.000000	7.884068
3246.000000	7.905022
3245.000000	7.927079
3244.000000	7.950434
3243.000000	7.973600
3242.000000	7.995046
3241.000000	8.015590
3240.000000	8.036657
3239.000000	8.057437
3238.000000	8.076387
3237.000000	8.094093
3236.000000	8.112096
3235.000000	8.130380
3234.000000	8.148674
3233.000000	8.168565
3232.000000	8.191283
3231.000000	8.214787
3230.000000	8.236018
3229.000000	8.254747
3228.000000	8.272558
3227.000000	8.289556
3226.000000	8.304895
3225.000000	8.319226
3224.000000	8.333646
3223.000000	8.347474
3222.000000	8.359690
3221.000000	8.371307
3220.000000	8.383727
3219.000000	8.396105
3218.000000	8.406905
3217.000000	8.416517
3216.000000	8.425752
3215.000000	8.433450
3214.000000	8.438220
3213.000000	8.441139
3212.000000	8.443979
3211.000000	8.446268
3210.000000	8.446761
3209.000000	8.446176
3208.000000	8.445793
3207.000000	8.444805
3206.000000	8.441704
3205.000000	8.436977
3204.000000	8.431724
3203.000000	8.425142
3202.000000	8.415910
3201.000000	8.404606
3200.000000	8.392426
3199.000000	8.378913
3198.000000	8.363436
3197.000000	8.347200
3196.000000	8.331301
3195.000000	8.314553
3194.000000	8.295628
3193.000000	8.275628
3192.000000	8.256075
3191.000000	8.236087
3190.000000	8.214237
3189.000000	8.191338
3188.000000	8.168780
3187.000000	8.145853
3186.000000	8.121383
3185.000000	8.096386
3184.000000	8.072441
3183.000000	8.049099
3182.000000	8.025394
3181.000000	8.002220
3180.000000	7.980647
3179.000000	7.959577
3178.000000	7.937634
3177.000000	7.915746
3176.000000	7.895412
3175.000000	7.876099
3174.000000	7.856830
3173.000000	7.838543
3172.000000	7.822376
3171.000000	7.807409
3170.000000	7.792520
3169.000000	7.778759
3168.000000	7.767576
3167.000000	7.758378
3166.000000	7.750212
3165.000000	7.743873
3164.000000	7.740048
3163.000000	7.737392
3162.000000	7.734678
3161.000000	7.733014
3160.000000	7.733585
3159.000000	7.735283
3158.000000	7.736928
3157.000000	7.739596
3156.000000	7.744475
3155.000000	7.750611
3154.000000	7.757337
3153.000000	7.766747
3152.000000	7.780891
3151.000000	7.798509
3150.000000	7.817079
3149.000000	7.836203
3148.000000	7.856585
3147.000000	7.877593
3146.000000	7.898501
3145.000000	7.920296
3144.000000	7.943782
3143.000000	7.967780
3142.000000	7.991432
3141.000000	8.016488
3140.000000	8.044993
3139.000000	8.076508
3138.000000	8.109828
3137.000000	8.145226
3136.000000	8.182805
3135.000000	8.220766
3134.000000	8.257626
3133.000000	8.294424
3132.000000	8.332547
3131.000000	8.371550
3130.000000	8.411186
3129.000000	8.453148
3128.000000	8.498517
3127.000000	8.545550
3126.000000	8.592271
3125.000000	8.639119
3124.000000	8.686832
3123.000000	8.734160
3122.000000	8.780178
3121.000000	8.826718
3120.000000	8.876005
3119.000000	8.927761
3118.000000	8.981078
3117.000000	9.036962
3116.000000	9.096515
3115.000000	9.158543
3114.000000	9.221204
3113.000000	9.284320
3112.000000	9.348015
3111.000000	9.411194
3110.000000	9.473570
3109.000000	9.537128
3108.000000	9.603458
3107.000000	9.671462
3106.000000	9.739589
3105.000000	9.808265
3104.000000	9.878144
3103.000000	9.948250
3102.000000	10.018036
3101.000000	10.089170
3100.000000	10.163121
3099.000000	10.238836
3098.000000	10.314862
3097.000000	10.391618
3096.000000	10.469510
3095.000000	10.547108
3094.000000	10.623367
3093.000000	10.699734
3092.000000	10.777974
3091.000000	10.857804
3090.000000	10.938523
3089.000000	11.020768
3088.000000	11.104674
3087.000000	11.188459
3086.000000	11.270952
3085.000000	11.353605
3084.000000	11.437994
3083.000000	11.523280
3082.000000	11.608110
3081.000000	11.692961
3080.000000	11.778711
3079.000000	11.864947
3078.000000	11.951636
3077.000000	12.040390
3076.000000	12.131981
3075.000000	12.224568
3074.000000	12.316248
3073.000000	12.407424
3072.000000	12.498927
3071.000000	12.589831
3070.000000	12.679243
3069.000000	12.768313
3068.000000	12.858496
3067.000000	12.949508
3066.000000	13.040693
3065.000000	13.132580
3064.000000	13.225333
3063.000000	13.317624
3062.000000	13.408754
3061.000000	13.500020
3060.000000	13.592427
3059.000000	13.685079
3058.000000	13.777338
3057.000000	13.870382
3056.000000	13.964799
3055.000000	14.058791
3054.000000	14.150694
3053.000000	14.241377
3052.000000	14.332380
3051.000000	14.423560
3050.000000	14.514331
3049.000000	14.605327
3048.000000	14.697032
3047.000000	14.788574
3046.000000	14.879533
3045.000000	14.971206
3044.000000	15.064521
3043.000000	15.158511
3042.000000	15.252275
3041.000000	15.346388
3040.000000	15.440837
3039.000000	15.533710
3038.000000	15.623700
3037.000000	15.712136
3036.000000	15.800995
3035.000000	15.890713
3034.000000	15.981417
3033.000000	16.074191
3032.000000	16.169277
3031.000000	16.264897
3030.000000	16.359472
3029.000000	16.453231
3028.000000	16.546279
3027.000000	16.637212
3026.000000	16.725418
3025.000000	16.812797
3024.000000	16.901447
3023.000000	16.991307
3022.000000	17.081611
3021.000000	17.172784
3020.000000	17.265179
3019.000000	17.357549
3018.000000	17.448464
3017.000000	17.537848
3016.000000	17.625913
3015.000000	17.712319
3014.000000	17.797686
3013.000000	17.884184
3012.000000	17.973179
3011.000000	18.063922
3010.000000	18.155541
3009.000000	18.248374
3008.000000	18.342201
3007.000000	18.435340
3006.000000	18.526899
3005.000000	18.617955
3004.000000	18.709147
3003.000000	18.799081
3002.000000	18.886558
3001.000000	18.972485
3000.000000	19.058164
2999.000000	19.143586
2998.000000	19.228873
2997.000000	19.315356
2996.000000	19.403572
2995.000000	19.492030
2994.000000	19.579539
2993.000000	19.667099
2992.000000	19.755929
2991.000000	19.845310
2990.000000	19.933949
2989.000000	20.021856
2988.000000	20.109350
2987.000000	20.195800
2986.000000	20.280819
2985.000000	20.365223
2984.000000	20.449516
2983.000000	20.533056
2982.000000	20.615999
2981.000000	20.700308
2980.000000	20.787290
2979.000000	20.875630
2978.000000	20.963307
2977.000000	21.050007
2976.000000	21.136394
2975.000000	21.222573
2974.000000	21.308759
2973.000000	21.395920
2972.000000	21.484295
2971.000000	21.572484
2970.000000	21.659264
2969.000000	21.745031
2968.000000	21.830406
2967.000000	21.915019
2966.000000	21.998727
2965.000000	22.082435
2964.000000	22.166526
2963.000000	22.250069
2962.000000	22.332682
2961.000000	22.415378
2960.000000	22.498442
2959.000000	22.580438
2958.000000	22.660514
2957.000000	22.739709
2956.000000	22.818712
2955.000000	22.896534
2954.000000	22.972990
2953.000000	23.050370
2952.000000	23.130721
2951.000000	23.213059
2950.000000	23.294992
2949.000000	23.375562
2948.000000	23.455030
2947.000000	23.533467
2946.000000	23.611312
2945.000000	23.689990
2944.000000	23.770354
2943.000000	23.851466
2942.000000	23.932126
2941.000000	24.012467
2940.000000	24.092962
2939.000000	24.173258
2938.000000	24.253115
2937.000000	24.333103
2936.000000	24.413204
2935.000000	24.491991
2934.000000	24.568363
2933.000000	24.642774
2932.000000	24.715875
2931.000000	24.787544
2930.000000	24.858288
2929.000000	24.929871
2928.000000	25.003217
2927.000000	25.077187
2926.000000	25.150572
2925.000000	25.223626
2924.000000	25.296554
2923.000000	25.368257
2922.000000	25.437935
2921.000000	25.506301
2920.000000	25.574042
2919.000000	25.640722
2918.000000	25.706292
2917.000000	25.772046
2916.000000	25.838959
2915.000000	25.906677
2914.000000	25.975095
2913.000000	26.045171
2912.000000	26.117046
2911.000000	26.189032
2910.000000	26.259632
2909.000000	26.329165
2908.000000	26.398211
2907.000000	26.466071
2906.000000	26.532062
2905.000000	26.596957
2904.000000	26.661848
2903.000000	26.726797
2902.000000	26.791580
2901.000000	26.856884
2900.000000	26.923414
2899.000000	26.990613
2898.000000	27.057759
2897.000000	27.124478
2896.000000	27.190020
2895.000000	27.253150
2894.000000	27.313844
2893.000000	27.373824
2892.000000	27.434512
2891.000000	27.495655
2890.000000	27.556703
2889.000000	27.618145
2888.000000	27.680452
2887.000000	27.743018
2886.000000	27.805266
2885.000000	27.867665
2884.000000	27.930635
2883.000000	27.993507
2882.000000	28.055580
2881.000000	28.117185
2880.000000	28.178812
2879.000000	28.240336
2878.000000	28.302112
2877.000000	28.365669
2876.000000	28.431845
2875.000000	28.498813
2874.000000	28.563077
2873.000000	28.622271
2872.000000	28.676687
2871.000000	28.728877
2870.000000	28.782211
2869.000000	28.838861
2868.000000	28.898308
2867.000000	28.958261
2866.000000	29.017251
2865.000000	29.075598
2864.000000	29.134001
2863.000000	29.192525
2862.000000	29.251171
2861.000000	29.309902
2860.000000	29.367657
2859.000000	29.422944
2858.000000	29.476082
2857.000000	29.529479
2856.000000	29.584961
2855.000000	29.642095
2854.000000	29.699711
2853.000000	29.757592
2852.000000	29.815938
2851.000000	29.874478
2850.000000	29.932850
2849.000000	29.990727
2848.000000	30.047131
2847.000000	30.101033
2846.000000	30.153187
2845.000000	30.206100
2844.000000	30.261741
2843.000000	30.320519
2842.000000	30.382518
2841.000000	30.447564
2840.000000	30.513334
2839.000000	30.575516
2838.000000	30.631464
2837.000000	30.682549
2836.000000	30.731922
2835.000000	30.781383
2834.000000	30.831427
2833.000000	30.882801
2832.000000	30.936275
2831.000000	30.991669
2830.000000	31.048442
2829.000000	31.106674
2828.000000	31.166516
2827.000000	31.227337
2826.000000	31.288326
2825.000000	31.349299
2824.000000	31.410131
2823.000000	31.470115
2822.000000	31.528709
2821.000000	31.586298
2820.000000	31.643543
2819.000000	31.700671
2818.000000	31.757880
2817.000000	31.815605
2816.000000	31.873778
2815.000000	31.931756
2814.000000	31.989498
2813.000000	32.047749
2812.000000	32.106311
2811.000000	32.163230
2810.000000	32.216690
2809.000000	32.266933
2808.000000	32.315484
2807.000000	32.363312
2806.000000	32.410629
2805.000000	32.457642
2804.000000	32.504519
2803.000000	32.551147
2802.000000	32.597676
2801.000000	32.644690
2800.000000	32.692122
2799.000000	32.738717
2798.000000	32.783391
2797.000000	32.826524
2796.000000	32.869212
2795.000000	32.911933
2794.000000	32.954685
2793.000000	32.997788
2792.000000	33.041654
2791.000000	33.086183
2790.000000	33.131068
2789.000000	33.176265
2788.000000	33.221715
2787.000000	33.267208
2786.000000	33.313027
2785.000000	33.360034
2784.000000	33.408471
2783.000000	33.457227
2782.000000	33.504861
2781.000000	33.550783
2780.000000	33.594972
2779.000000	33.637313
2778.000000	33.677785
2777.000000	33.716570
2776.000000	33.753372
2775.000000	33.787192
2774.000000	33.817406
2773.000000	33.844526
2772.000000	33.869244
2771.000000	33.891422
2770.000000	33.910462
2769.000000	33.925875
2768.000000	33.936956
2767.000000	33.942635
2766.000000	33.942583
2765.000000	33.937904
2764.000000	33.930030
2763.000000	33.919621
2762.000000	33.907101
2761.000000	33.893576
2760.000000	33.880356
2759.000000	33.867964
2758.000000	33.856391
2757.000000	33.845654
2756.000000	33.835407
2755.000000	33.824547
2754.000000	33.811873
2753.000000	33.796769
2752.000000	33.778657
2751.000000	33.756553
2750.000000	33.729832
2749.000000	33.698773
2748.000000	33.663791
2747.000000	33.624617
2746.000000	33.580876
2745.000000	33.532859
2744.000000	33.480885
2743.000000	33.424761
2742.000000	33.364583
2741.000000	33.301473
2740.000000	33.237073
2739.000000	33.173062
2738.000000	33.111911
2737.000000	33.057569
2736.000000	33.014349
2735.000000	32.985522
2734.000000	32.973611
2733.000000	32.980552
2732.000000	33.006939
2731.000000	33.051747
2730.000000	33.113036
2729.000000	33.188886
2728.000000	33.276635
2727.000000	33.372474
2726.000000	33.473124
2725.000000	33.576923
2724.000000	33.683230
2723.000000	33.791274
2722.000000	33.900158
2721.000000	34.009456
2720.000000	34.118674
2719.000000	34.226612
2718.000000	34.331825
2717.000000	34.433063
2716.000000	34.528673
2715.000000	34.616368
2714.000000	34.694225
2713.000000	34.761765
2712.000000	34.819671
2711.000000	34.868689
2710.000000	34.909855
2709.000000	34.944931
2708.000000	34.975781
2707.000000	35.003551
2706.000000	35.028524
2705.000000	35.050761
2704.000000	35.070088
2703.000000	35.085797
2702.000000	35.097156
2701.000000	35.103828
2700.000000	35.105772
2699.000000	35.103170
2698.000000	35.096934
2697.000000	35.088907
2696.000000	35.080782
2695.000000	35.073276
2694.000000	35.066679
2693.000000	35.061431
2692.000000	35.057522
2691.000000	35.053831
2690.000000	35.048926
2689.000000	35.042210
2688.000000	35.033703
2687.000000	35.023247
2686.000000	35.010713
2685.000000	34.996680
2684.000000	34.982217
2683.000000	34.968162
2682.000000	34.955132
2681.000000	34.943775
2680.000000	34.934340
2679.000000	34.926337
2678.000000	34.919243
2677.000000	34.913251
2676.000000	34.908888
2675.000000	34.906283
2674.000000	34.905383
2673.000000	34.906676
2672.000000	34.911006
2671.000000	34.919050
2670.000000	34.931334
2669.000000	34.948263
2668.000000	34.969731
2667.000000	34.994752
2666.000000	35.021928
2665.000000	35.049969
2664.000000	35.077497
2663.000000	35.103033
2662.000000	35.125650
2661.000000	35.145205
2660.000000	35.161650
2659.000000	35.174632
2658.000000	35.184146
2657.000000	35.191113
2656.000000	35.196740
2655.000000	35.201650
2654.000000	35.206247
2653.000000	35.211434
2652.000000	35.218469
2651.000000	35.228451
2650.000000	35.242378
2649.000000	35.261268
2648.000000	35.285947
2647.000000	35.316822
2646.000000	35.354096
2645.000000	35.397960
2644.000000	35.448002
2643.000000	35.503330
2642.000000	35.563404
2641.000000	35.628219
2640.000000	35.697654
2639.000000	35.770828
2638.000000	35.846627
2637.000000	35.924118
2636.000000	36.001898
2635.000000	36.077666
2634.000000	36.148942
2633.000000	36.213976
2632.000000	36.271774
2631.000000	36.321900
2630.000000	36.364610
2629.000000	36.401166
2628.000000	36.433377
2627.000000	36.462908
2626.000000	36.491364
2625.000000	36.520079
2624.000000	36.549479
2623.000000	36.578628
2622.000000	36.605678
2621.000000	36.628760
2620.000000	36.646052
2619.000000	36.655914
2618.000000	36.657558
2617.000000	36.651468
2616.000000	36.639101
2615.000000	36.622067
2614.000000	36.601995
2613.000000	36.580518
2612.000000	36.558492
2611.000000	36.535597
2610.000000	36.510841
2609.000000	36.483440
2608.000000	36.453134
2607.000000	36.420192
2606.000000	36.385919
2605.000000	36.352995
2604.000000	36.324806
2603.000000	36.304519
2602.000000	36.295134
2601.000000	36.299299
2600.000000	36.318642
2599.000000	36.353057
2598.000000	36.400522
2597.000000	36.457926
2596.000000	36.521393
2595.000000	36.587079
2594.000000	36.652440
2593.000000	36.716466
2592.000000	36.779225
2591.000000	36.841187
2590.000000	36.903340
2589.000000	36.967362
2588.000000	37.034834
2587.000000	37.106493
2586.000000	37.182184
2585.000000	37.261205
2584.000000	37.342455
2583.000000	37.424447
2582.000000	37.505780
2581.000000	37.585596
2580.000000	37.663715
2579.000000	37.740671
2578.000000	37.817630
2577.000000	37.895908
2576.000000	37.976172
2575.000000	38.058150
2574.000000	38.141021
2573.000000	38.223766
2572.000000	38.304967
2571.000000	38.382819
2570.000000	38.455760
2569.000000	38.522861
2568.000000	38.583725
2567.000000	38.637988
2566.000000	38.685323
2565.000000	38.725765
2564.000000	38.759240
2563.000000	38.785367
2562.000000	38.803380
2561.000000	38.812322
2560.000000	38.811309
2559.000000	38.799335
2558.000000	38.776107
2557.000000	38.742701
2556.000000	38.701575
2555.000000	38.656562
2554.000000	38.612921
2553.000000	38.577177
2552.000000	38.555877
2551.000000	38.553903
2550.000000	38.573391
2549.000000	38.614166
2548.000000	38.673908
2547.000000	38.748650
2546.000000	38.834081
2545.000000	38.926173
2544.000000	39.021908
2543.000000	39.119126
2542.000000	39.216171
2541.000000	39.311673
2540.000000	39.403874
2539.000000	39.490552
2538.000000	39.569825
2537.000000	39.641078
2536.000000	39.704874
2535.000000	39.762425
2534.000000	39.815328
2533.000000	39.865781
2532.000000	39.916349
2531.000000	39.968779
2530.000000	40.023456
2529.000000	40.079709
2528.000000	40.136314
2527.000000	40.191555
2526.000000	40.243186
2525.000000	40.289204
2524.000000	40.328695
2523.000000	40.362089
2522.000000	40.390991
2521.000000	40.417785
2520.000000	40.445168
2519.000000	40.475366
2518.000000	40.509611
2517.000000	40.548186
2516.000000	40.590381
2515.000000	40.634242
2514.000000	40.676816
2513.000000	40.715276
2512.000000	40.748006
2511.000000	40.774664
2510.000000	40.795881
2509.000000	40.813360
2508.000000	40.829899
2507.000000	40.848598
2506.000000	40.871581
2505.000000	40.899431
2504.000000	40.931490
2503.000000	40.966315
2502.000000	41.001954
2501.000000	41.036203
2500.000000	41.066949
2499.000000	41.092526
2498.000000	41.112222
2497.000000	41.126820
2496.000000	41.138429
2495.000000	41.149556
2494.000000	41.162319
2493.000000	41.178287
2492.000000	41.198440
2491.000000	41.222735
2490.000000	41.249867
2489.000000	41.277783
2488.000000	41.304384
2487.000000	41.327844
2486.000000	41.346888
2485.000000	41.361347
2484.000000	41.372302
2483.000000	41.381322
2482.000000	41.389774
2481.000000	41.398891
2480.000000	41.409913
2479.000000	41.423644
2478.000000	41.440031
2477.000000	41.458502
2476.000000	41.478393
2475.000000	41.498724
2474.000000	41.518031
2473.000000	41.535009
2472.000000	41.549194
2471.000000	41.560685
2470.000000	41.569633
2469.000000	41.576578
2468.000000	41.582890
2467.000000	41.590159
2466.000000	41.599182
2465.000000	41.609998
2464.000000	41.622741
2463.000000	41.637808
2462.000000	41.655160
2461.000000	41.673909
2460.000000	41.692630
2459.000000	41.709769
2458.000000	41.723953
2457.000000	41.734491
2456.000000	41.741750
2455.000000	41.746850
2454.000000	41.751147
2453.000000	41.756155
2452.000000	41.763549
2451.000000	41.774622
2450.000000	41.789689
2449.000000	41.808172
2448.000000	41.828991
2447.000000	41.850543
2446.000000	41.870673
2445.000000	41.887408
2444.000000	41.899837
2443.000000	41.908158
2442.000000	41.913215
2441.000000	41.916447
2440.000000	41.919960
2439.000000	41.925950
2438.000000	41.935905
2437.000000	41.950462
2436.000000	41.969547
2435.000000	41.992123
2434.000000	42.015985
2433.000000	42.038481
2432.000000	42.057615
2431.000000	42.072327
2430.000000	42.082236
2429.000000	42.087915
2428.000000	42.091301
2427.000000	42.095133
2426.000000	42.101778
2425.000000	42.112657
2424.000000	42.128373
2423.000000	42.148667
2422.000000	42.172241
2421.000000	42.197097
2420.000000	42.221192
2419.000000	42.242628
2418.000000	42.259742
2417.000000	42.271791
2416.000000	42.279686
2415.000000	42.285604
2414.000000	42.291824
2413.000000	42.300126
2412.000000	42.311868
2411.000000	42.327861
2410.000000	42.348008
2409.000000	42.371390
2408.000000	42.396656
2407.000000	42.422167
2406.000000	42.446061
2405.000000	42.466823
2404.000000	42.483926
2403.000000	42.497742
2402.000000	42.509095
2401.000000	42.519245
2400.000000	42.529918
2399.000000	42.542760
2398.000000	42.558783
2397.000000	42.578534
2396.000000	42.602303
2395.000000	42.629641
2394.000000	42.658998
2393.000000	42.688450
2392.000000	42.716654
2391.000000	42.742800
2390.000000	42.766246
2389.000000	42.786931
2388.000000	42.806184
2387.000000	42.826257
2386.000000	42.849328
2385.000000	42.877343
2384.000000	42.912031
2383.000000	42.954607
2382.000000	43.004836
2381.000000	43.061088
2380.000000	43.121044
2379.000000	43.181594
2378.000000	43.239089
2377.000000	43.290374
2376.000000	43.334164
2375.000000	43.370950
2374.000000	43.402640
2373.000000	43.432491
2372.000000	43.464647
2371.000000	43.502642
2370.000000	43.547420
2369.000000	43.598054
2368.000000	43.653343
2367.000000	43.711842
2366.000000	43.770419
2365.000000	43.824838
2364.000000	43.874434
2363.000000	43.919043
2362.000000	43.956295
2361.000000	43.988142
2360.000000	44.017090
2359.000000	44.045992
2358.000000	44.077162
2357.000000	44.109247
2356.000000	44.144902
2355.000000	44.184828
2354.000000	44.229702
2353.000000	44.280266
2352.000000	44.336913
2351.000000	44.401632
2350.000000	44.463439
2349.000000	44.510609
2348.000000	44.541760
2347.000000	44.570214
2346.000000	44.614626
2345.000000	44.672551
2344.000000	44.731825
2343.000000	44.780406
2342.000000	44.820415
2341.000000	44.861516
2340.000000	44.904793
2339.000000	44.950054
2338.000000	44.993707
2337.000000	45.034696
2336.000000	45.072992
2335.000000	45.111023
2334.000000	45.151094
2333.000000	45.195170
2332.000000	45.242140
2331.000000	45.293598
2330.000000	45.344920
2329.000000	45.394408
2328.000000	45.441881
2327.000000	45.487052
2326.000000	45.534475
2325.000000	45.581815
2324.000000	45.632537
2323.000000	45.684015
2322.000000	45.734358
2321.000000	45.780746
2320.000000	45.821776
2319.000000	45.861000
2318.000000	45.899607
2317.000000	45.940660
2316.000000	45.984678
2315.000000	46.033722
2314.000000	46.086375
2313.000000	46.139852
2312.000000	46.191373
2311.000000	46.239757
2310.000000	46.285391
2309.000000	46.327534
2308.000000	46.367275
2307.000000	46.405026
2306.000000	46.442039
2305.000000	46.477427
2304.000000	46.511970
2303.000000	46.546758
2302.000000	46.582987
2301.000000	46.620640
2300.000000	46.659695
2299.000000	46.700179
2298.000000	46.741456
2297.000000	46.781892
2296.000000	46.820883
2295.000000	46.858069
2294.000000	46.893514
2293.000000	46.926115
2292.000000	46.956768
2291.000000	46.986882
2290.000000	47.018133
2289.000000	47.050523
2288.000000	47.084509
2287.000000	47.120541
2286.000000	47.158532
2285.000000	47.197275
2284.000000	47.235889
2283.000000	47.273961
2282.000000	47.310757
2281.000000	47.345649
2280.000000	47.379088
2279.000000	47.412393
2278.000000	47.445909
2277.000000	47.479621
2276.000000	47.514277
2275.000000	47.551309
2274.000000	47.590522
2273.000000	47.630145
2272.000000	47.668888
2271.000000	47.706467
2270.000000	47.742427
2269.000000	47.775893
2268.000000	47.807121
2267.000000	47.837471
2266.000000	47.867752
2265.000000	47.898075
2264.000000	47.929062
2263.000000	47.961417
2262.000000	47.994456
2261.000000	48.026188
2260.000000	48.055579
2259.000000	48.082478
2258.000000	48.106102
2257.000000	48.125342
2256.000000	48.140610
2255.000000	48.153833
2254.000000	48.165922
2253.000000	48.176439
2252.000000	48.184904
2251.000000	48.191095
2250.000000	48.193606
2249.000000	48.190148
2248.000000	48.179662
2247.000000	48.162088
2246.000000	48.136814
2245.000000	48.102983
2244.000000	48.061340
2243.000000	48.013724
2242.000000	47.960911
2241.000000	47.902852
2240.000000	47.840621
2239.000000	47.776163
2238.000000	47.710297
2237.000000	47.643227
2236.000000	47.577094
2235.000000	47.515803
2234.000000	47.462228
2233.000000	47.417280
2232.000000	47.381803
2231.000000	47.357061
2230.000000	47.343029
2229.000000	47.337956
2228.000000	47.339904
2227.000000	47.347210
2226.000000	47.357119
2225.000000	47.366162
2224.000000	47.372380
2223.000000	47.375766
2222.000000	47.376428
2221.000000	47.373984
2220.000000	47.369104
2219.000000	47.363721
2218.000000	47.359259
2217.000000	47.356055
2216.000000	47.354649
2215.000000	47.355864
2214.000000	47.359278
2213.000000	47.363173
2212.000000	47.366328
2211.000000	47.368514
2210.000000	47.369273
2209.000000	47.367975
2208.000000	47.365295
2207.000000	47.363040
2206.000000	47.362271
2205.000000	47.363013
2204.000000	47.365692
2203.000000	47.371055
2202.000000	47.378527
2201.000000	47.386317
2200.000000	47.393266
2199.000000	47.399077
2198.000000	47.402932
2197.000000	47.403828
2196.000000	47.402331
2195.000000	47.400113
2194.000000	47.397553
2193.000000	47.393605
2192.000000	47.388007
2191.000000	47.381629
2190.000000	47.374544
2189.000000	47.365711
2188.000000	47.354931
2187.000000	47.343192
2186.000000	47.330882
2185.000000	47.317535
2184.000000	47.303732
2183.000000	47.291457
2182.000000	47.282154
2181.000000	47.276109
2180.000000	47.273861
2179.000000	47.276458
2178.000000	47.283897
2177.000000	47.294931
2176.000000	47.308784
2175.000000	47.325551
2174.000000	47.344836
2173.000000	47.365701
2172.000000	47.388210
2171.000000	47.413344
2170.000000	47.441208
2169.000000	47.470950
2168.000000	47.502461
2167.000000	47.536352
2166.000000	47.572060
2165.000000	47.607848
2164.000000	47.642987
2163.000000	47.678157
2162.000000	47.713650
2161.000000	47.749039
2160.000000	47.784680
2159.000000	47.821565
2158.000000	47.859493
2157.000000	47.897318
2156.000000	47.935031
2155.000000	47.973583
2154.000000	48.012600
2153.000000	48.050443
2152.000000	48.086654
2151.000000	48.122099
2150.000000	48.156621
2149.000000	48.188938
2148.000000	48.219234
2147.000000	48.249503
2146.000000	48.280913
2145.000000	48.313003
2144.000000	48.345710
2143.000000	48.379838
2142.000000	48.415215
2141.000000	48.450590
2140.000000	48.485725
2139.000000	48.521634
2138.000000	48.558679
2137.000000	48.596604
2136.000000	48.636395
2135.000000	48.679614
2134.000000	48.725661
2133.000000	48.772020
2132.000000	48.817284
2131.000000	48.861562
2130.000000	48.903921
2129.000000	48.942327
2128.000000	48.976544
2127.000000	49.008488
2126.000000	49.039399
2125.000000	49.069241
2124.000000	49.099080
2123.000000	49.131229
2122.000000	49.166536
2121.000000	49.203938
2120.000000	49.242753
2119.000000	49.282694
2118.000000	49.321685
2117.000000	49.356864
2116.000000	49.388356
2115.000000	49.419200
2114.000000	49.451164
2113.000000	49.483455
2112.000000	49.515907
2111.000000	49.550325
2110.000000	49.587892
2109.000000	49.627945
2108.000000	49.669733
2107.000000	49.712550
2106.000000	49.753675
2105.000000	49.788996
2104.000000	49.816399
2103.000000	49.836263
2102.000000	49.848648
2101.000000	49.853362
2100.000000	49.852804
2099.000000	49.851214
2098.000000	49.850593
2097.000000	49.850041
2096.000000	49.849296
2095.000000	49.849025
2094.000000	49.846993
2093.000000	49.838336
2092.000000	49.821240
2091.000000	49.799242
2090.000000	49.776844
2089.000000	49.755815
2088.000000	49.736984
2087.000000	49.722671
2086.000000	49.715506
2085.000000	49.717109
2084.000000	49.728979
2083.000000	49.752155
2082.000000	49.785020
2081.000000	49.823592
2080.000000	49.864760
2079.000000	49.907311
2078.000000	49.949483
2077.000000	49.988633
2076.000000	50.024676
2075.000000	50.060842
2074.000000	50.100035
2073.000000	50.143145
2072.000000	50.191262
2071.000000	50.246504
2070.000000	50.308541
2069.000000	50.372831
2068.000000	50.434908
2067.000000	50.495208
2066.000000	50.558522
2065.000000	50.629402
2064.000000	50.708112
2063.000000	50.789813
2062.000000	50.867927
2061.000000	50.939731
2060.000000	51.008702
2059.000000	51.080150
2058.000000	51.155497
2057.000000	51.232966
2056.000000	51.312176
2055.000000	51.394145
2054.000000	51.477500
2053.000000	51.558849
2052.000000	51.636749
2051.000000	51.711808
2050.000000	51.782951
2049.000000	51.847404
2048.000000	51.905085
2047.000000	51.959224
2046.000000	52.011450
2045.000000	52.060337
2044.000000	52.106619
2043.000000	52.156258
2042.000000	52.216466
2041.000000	52.290534
2040.000000	52.376668
2039.000000	52.469282
2038.000000	52.561039
2037.000000	52.646592
2036.000000	52.725703
2035.000000	52.800963
2034.000000	52.873200
2033.000000	52.942258
2032.000000	53.010969
2031.000000	53.083753
2030.000000	53.161795
2029.000000	53.243706
2028.000000	53.330157
2027.000000	53.423243
2026.000000	53.520961
2025.000000	53.617685
2024.000000	53.710009
2023.000000	53.797418
2022.000000	53.876512
2021.000000	53.940237
2020.000000	53.986590
2019.000000	54.024624
2018.000000	54.070087
2017.000000	54.136196
2016.000000	54.226649
2015.000000	54.334264
2014.000000	54.446836
2013.000000	54.556264
2012.000000	54.662209
2011.000000	54.766633
2010.000000	54.867549
2009.000000	54.961610
2008.000000	55.050301
2007.000000	55.137893
2006.000000	55.224855
2005.000000	55.309790
2004.000000	55.395662
2003.000000	55.488229
2002.000000	55.588888
2001.000000	55.694648
2000.000000	55.805052
1999.000000	55.921656
1998.000000	56.041258
1997.000000	56.153479
1996.000000	56.245970
1995.000000	56.312250
1994.000000	56.357390
1993.000000	56.399653
1992.000000	56.461051
1991.000000	56.547225
1990.000000	56.643211
1989.000000	56.737161
1988.000000	56.835620
1987.000000	56.947779
1986.000000	57.066703
1985.000000	57.177202
1984.000000	57.274835
1983.000000	57.364729
1982.000000	57.446690
1981.000000	57.514895
1980.000000	57.570469
1979.000000	57.621488
1978.000000	57.672176
1977.000000	57.722160
1976.000000	57.775480
1975.000000	57.839577
1974.000000	57.914857
1973.000000	57.994344
1972.000000	58.071746
1971.000000	58.140822
1970.000000	58.190747
1969.000000	58.216371
1968.000000	58.233497
1967.000000	58.269355
1966.000000	58.331764
1965.000000	58.402139
1964.000000	58.463846
1963.000000	58.519571
1962.000000	58.578271
1961.000000	58.642759
1960.000000	58.713177
1959.000000	58.788931
1958.000000	58.863202
1957.000000	58.926459
1956.000000	58.979130
1955.000000	59.029951
1954.000000	59.080479
1953.000000	59.123542
1952.000000	59.157783
1951.000000	59.191223
1950.000000	59.227296
1949.000000	59.262025
1948.000000	59.296295
1947.000000	59.334505
1946.000000	59.370893
1945.000000	59.393969
1944.000000	59.409380
1943.000000	59.444230
1942.000000	59.515137
1941.000000	59.601304
1940.000000	59.670873
1939.000000	59.718150
1938.000000	59.754656
1937.000000	59.787318
1936.000000	59.819874
1935.000000	59.859083
1934.000000	59.909020
1933.000000	59.966366
1932.000000	60.026721
1931.000000	60.088861
1930.000000	60.147276
1929.000000	60.193332
1928.000000	60.225110
1927.000000	60.241640
1926.000000	60.233869
1925.000000	60.196865
1924.000000	60.154688
1923.000000	60.151476
1922.000000	60.203261
1921.000000	60.282808
1920.000000	60.363958
1919.000000	60.447209
1918.000000	60.536006
1917.000000	60.613518
1916.000000	60.658879
1915.000000	60.678701
1914.000000	60.692588
1913.000000	60.700678
1912.000000	60.692622
1911.000000	60.674781
1910.000000	60.669540
1909.000000	60.694612
1908.000000	60.751092
1907.000000	60.827356
1906.000000	60.908308
1905.000000	60.981314
1904.000000	61.044057
1903.000000	61.101795
1902.000000	61.154404
1901.000000	61.195547
1900.000000	61.221028
1899.000000	61.229515
1898.000000	61.218565
1897.000000	61.190996
1896.000000	61.168310
1895.000000	61.178944
1894.000000	61.222852
1893.000000	61.268739
1892.000000	61.294766
1891.000000	61.312248
1890.000000	61.347230
1889.000000	61.407254
1888.000000	61.466276
1887.000000	61.494897
1886.000000	61.492196
1885.000000	61.475907
1884.000000	61.463652
1883.000000	61.464336
1882.000000	61.476434
1881.000000	61.497112
1880.000000	61.530838
1879.000000	61.583234
1878.000000	61.648537
1877.000000	61.710795
1876.000000	61.759104
1875.000000	61.789659
1874.000000	61.792273
1873.000000	61.755782
1872.000000	61.686828
1871.000000	61.604607
1870.000000	61.525405
1869.000000	61.477004
1868.000000	61.496421
1867.000000	61.582614
1866.000000	61.697047
1865.000000	61.805218
1864.000000	61.888272
1863.000000	61.938397
1862.000000	61.954290
1861.000000	61.940503
1860.000000	61.910165
1859.000000	61.880315
1858.000000	61.860147
1857.000000	61.850062
1856.000000	61.851442
1855.000000	61.868880
1854.000000	61.901343
1853.000000	61.937554
1852.000000	61.963437
1851.000000	61.967041
1850.000000	61.938018
1849.000000	61.874162
1848.000000	61.801036
1847.000000	61.765851
1846.000000	61.792378
1845.000000	61.856405
1844.000000	61.914629
1843.000000	61.930557
1842.000000	61.892509
1841.000000	61.837019
1840.000000	61.806577
1839.000000	61.802320
1838.000000	61.801700
1837.000000	61.792439
1836.000000	61.778047
1835.000000	61.755667
1834.000000	61.710898
1833.000000	61.637132
1832.000000	61.546133
1831.000000	61.460098
1830.000000	61.409111
1829.000000	61.397219
1828.000000	61.384439
1827.000000	61.355562
1826.000000	61.335301
1825.000000	61.339240
1824.000000	61.357394
1823.000000	61.364715
1822.000000	61.347690
1821.000000	61.309115
1820.000000	61.254103
1819.000000	61.188594
1818.000000	61.119680
1817.000000	61.054962
1816.000000	60.998163
1815.000000	60.936917
1814.000000	60.850543
1813.000000	60.739795
1812.000000	60.638889
1811.000000	60.587171
1810.000000	60.583062
1809.000000	60.590976
1808.000000	60.591664
1807.000000	60.586350
1806.000000	60.563782
1805.000000	60.499727
1804.000000	60.389647
1803.000000	60.260675
1802.000000	60.152947
1801.000000	60.099383
1800.000000	60.102545
1799.000000	60.124617
1798.000000	60.118375
1797.000000	60.078128
1796.000000	60.047143
1795.000000	60.063794
1794.000000	60.108441
1793.000000	60.124192
1792.000000	60.099847
1791.000000	60.065127
1790.000000	60.017452
1789.000000	59.949015
1788.000000	59.880337
1787.000000	59.829961
1786.000000	59.796867
1785.000000	59.767939
1784.000000	59.727704
1783.000000	59.661303
1782.000000	59.566271
1781.000000	59.462131
1780.000000	59.373417
1779.000000	59.296493
1778.000000	59.194492
1777.000000	59.050745
1776.000000	58.903717
1775.000000	58.810028
1774.000000	58.778396
1773.000000	58.762503
1772.000000	58.741069
1771.000000	58.712624
1770.000000	58.655205
1769.000000	58.579728
1768.000000	58.519637
1767.000000	58.465462
1766.000000	58.372718
1765.000000	58.233300
1764.000000	58.092552
1763.000000	57.990856
1762.000000	57.928664
1761.000000	57.868425
1760.000000	57.776377
1759.000000	57.678155
1758.000000	57.618603
1757.000000	57.598495
1756.000000	57.578437
1755.000000	57.515079
1754.000000	57.399314
1753.000000	57.239158
1752.000000	57.030920
1751.000000	56.788465
1750.000000	56.552059
1749.000000	56.359374
1748.000000	56.242137
1747.000000	56.194365
1746.000000	56.155753
1745.000000	56.077088
1744.000000	55.980948
1743.000000	55.928105
1742.000000	55.925194
1741.000000	55.908078
1740.000000	55.821062
1739.000000	55.669943
1738.000000	55.495547
1737.000000	55.353585
1736.000000	55.276014
1735.000000	55.200669
1734.000000	55.050005
1733.000000	54.793175
1732.000000	54.440780
1731.000000	54.112825
1730.000000	53.906675
1729.000000	53.785411
1728.000000	53.668706
1727.000000	53.512818
1726.000000	53.311054
1725.000000	53.061477
1724.000000	52.786987
1723.000000	52.532656
1722.000000	52.315689
1721.000000	52.118838
1720.000000	51.914072
1719.000000	51.653111
1718.000000	51.314121
1717.000000	50.962895
1716.000000	50.660329
1715.000000	50.410035
1714.000000	50.191423
1713.000000	49.959334
1712.000000	49.692212
1711.000000	49.411089
1710.000000	49.130307
1709.000000	48.837946
1708.000000	48.524360
1707.000000	48.193862
1706.000000	47.856665
1705.000000	47.544693
1704.000000	47.312536
1703.000000	47.215239
1702.000000	47.231107
1701.000000	47.162341
1700.000000	46.828395
1699.000000	46.297109
1698.000000	45.754670
1697.000000	45.340496
1696.000000	45.074574
1695.000000	44.843268
1694.000000	44.510800
1693.000000	44.096506
1692.000000	43.701499
1691.000000	43.346748
1690.000000	43.004360
1689.000000	42.677673
1688.000000	42.414938
1687.000000	42.240367
1686.000000	42.083143
1685.000000	41.778976
1684.000000	41.350727
1683.000000	40.963746
1682.000000	40.586390
1681.000000	40.208867
1680.000000	39.907165
1679.000000	39.705511
1678.000000	39.582894
1677.000000	39.471451
1676.000000	39.295156
1675.000000	39.021979
1674.000000	38.676170
1673.000000	38.300156
1672.000000	37.948774
1671.000000	37.645694
1670.000000	37.370320
1669.000000	37.103893
1668.000000	36.834732
1667.000000	36.570759
1666.000000	36.337601
1665.000000	36.130400
1664.000000	35.911251
1663.000000	35.663970
1662.000000	35.406352
1661.000000	35.138947
1660.000000	34.857373
1659.000000	34.580703
1658.000000	34.327698
1657.000000	34.117167
1656.000000	33.978553
1655.000000	33.904029
1654.000000	33.771692
1653.000000	33.546175
1652.000000	33.240530
1651.000000	32.806955
1650.000000	32.388296
1649.000000	32.079038
1648.000000	31.820653
1647.000000	31.606832
1646.000000	31.452627
1645.000000	31.276981
1644.000000	31.022901
1643.000000	30.755016
1642.000000	30.518475
1641.000000	30.299873
1640.000000	30.084563
1639.000000	29.893347
1638.000000	29.745165
1637.000000	29.607322
1636.000000	29.454281
1635.000000	29.305992
1634.000000	29.123134
1633.000000	28.876385
1632.000000	28.626701
1631.000000	28.419192
1630.000000	28.240893
1629.000000	28.056691
1628.000000	27.864873
1627.000000	27.699612
1626.000000	27.573766
1625.000000	27.460622
1624.000000	27.331432
1623.000000	27.195846
1622.000000	27.071808
1621.000000	26.953357
1620.000000	26.850943
1619.000000	26.787457
1618.000000	26.743131
1617.000000	26.667033
1616.000000	26.545516
1615.000000	26.406266
1614.000000	26.281838
1613.000000	26.190259
1612.000000	26.124553
1611.000000	26.072096
1610.000000	26.028454
1609.000000	25.989469
1608.000000	25.952692
1607.000000	25.922988
1606.000000	25.900153
1605.000000	25.870121
1604.000000	25.825656
1603.000000	25.784301
1602.000000	25.765900
1601.000000	25.765890
1600.000000	25.770584
1599.000000	25.779329
1598.000000	25.794084
1597.000000	25.805391
1596.000000	25.807189
1595.000000	25.810839
1594.000000	25.825485
1593.000000	25.840063
1592.000000	25.842516
1591.000000	25.840823
1590.000000	25.848342
1589.000000	25.863176
1588.000000	25.877662
1587.000000	25.895351
1586.000000	25.921657
1585.000000	25.948473
1584.000000	25.965191
1583.000000	25.975779
1582.000000	25.985819
1581.000000	25.985125
1580.000000	25.969652
1579.000000	25.961912
1578.000000	25.980469
1577.000000	26.004381
1576.000000	26.004338
1575.000000	25.969147
1574.000000	25.903425
1573.000000	25.844713
1572.000000	25.824018
1571.000000	25.826110
1570.000000	25.823538
1569.000000	25.809818
1568.000000	25.779535
1567.000000	25.740524
1566.000000	25.720577
1565.000000	25.722905
1564.000000	25.734462
1563.000000	25.779602
1562.000000	25.891765
1561.000000	26.058256
1560.000000	26.137297
1559.000000	26.138330
1558.000000	26.254775
1557.000000	26.337340
1556.000000	26.323549
1555.000000	26.362870
1554.000000	26.471544
1553.000000	26.582029
1552.000000	26.647729
1551.000000	26.714031
1550.000000	26.835548
1549.000000	27.007185
1548.000000	27.176824
1547.000000	27.317570
1546.000000	27.439782
1545.000000	27.559453
1544.000000	27.703262
1543.000000	27.897692
1542.000000	28.139254
1541.000000	28.408777
1540.000000	28.743052
1539.000000	29.105731
1538.000000	29.322582
1537.000000	29.392856
1536.000000	29.464999
1535.000000	29.616008
1534.000000	29.850997
1533.000000	30.140391
1532.000000	30.426488
1531.000000	30.675180
1530.000000	30.916355
1529.000000	31.177823
1528.000000	31.463231
1527.000000	31.782315
1526.000000	32.135135
1525.000000	32.483017
1524.000000	32.800724
1523.000000	33.127214
1522.000000	33.528602
1521.000000	33.999958
1520.000000	34.415223
1519.000000	34.716169
1518.000000	35.011061
1517.000000	35.406117
1516.000000	35.896555
1515.000000	36.395566
1514.000000	36.850791
1513.000000	37.262389
1512.000000	37.611382
1511.000000	37.886543
1510.000000	38.118452
1509.000000	38.373769
1508.000000	38.747319
1507.000000	39.459620
1506.000000	40.498108
1505.000000	41.290973
1504.000000	41.624285
1503.000000	41.823890
1502.000000	42.110990
1501.000000	42.505905
1500.000000	42.939981
1499.000000	43.379550
1498.000000	43.845434
1497.000000	44.353193
1496.000000	44.858875
1495.000000	45.282081
1494.000000	45.599872
1493.000000	45.856777
1492.000000	46.092361
1491.000000	46.329968
1490.000000	46.620618
1489.000000	47.005637
1488.000000	47.448589
1487.000000	47.890742
1486.000000	48.291704
1485.000000	48.616152
1484.000000	48.861975
1483.000000	49.073876
1482.000000	49.295120
1481.000000	49.519100
1480.000000	49.713752
1479.000000	49.867128
1478.000000	49.973457
1477.000000	50.015199
1476.000000	50.004746
1475.000000	49.992791
1474.000000	49.997211
1473.000000	49.997738
1472.000000	49.990576
1471.000000	49.932880
1470.000000	49.755603
1469.000000	49.467653
1468.000000	49.122117
1467.000000	48.738955
1466.000000	48.267877
1465.000000	47.650064
1464.000000	46.930789
1463.000000	46.207724
1462.000000	45.517718
1461.000000	44.851439
1460.000000	44.202872
1459.000000	43.549146
1458.000000	42.787341
1457.000000	41.854721
1456.000000	40.848525
1455.000000	39.850520
1454.000000	38.851680
1453.000000	37.794359
1452.000000	36.653234
1451.000000	35.466804
1450.000000	34.215790
1449.000000	32.808922
1448.000000	31.250226
1447.000000	29.678969
1446.000000	28.166609
1445.000000	26.656336
1444.000000	25.111229
1443.000000	23.550923
1442.000000	21.973880
1441.000000	20.389743
1440.000000	18.874658
1439.000000	17.446245
1438.000000	15.920338
1437.000000	14.112540
1436.000000	12.252887
1435.000000	10.747971
1434.000000	9.617355
1433.000000	8.655675
1432.000000	7.795469
1431.000000	7.087267
1430.000000	6.534944
1429.000000	6.104605
1428.000000	5.842754
1427.000000	5.801386
1426.000000	5.933840
1425.000000	6.184361
1424.000000	6.582700
1423.000000	7.142127
1422.000000	7.783124
1421.000000	8.465702
1420.000000	9.280398
1419.000000	10.279474
1418.000000	11.305819
1417.000000	12.213769
1416.000000	13.072611
1415.000000	13.984394
1414.000000	14.932099
1413.000000	15.870950
1412.000000	16.831088
1411.000000	17.852817
1410.000000	18.897704
1409.000000	19.913628
1408.000000	20.919381
1407.000000	21.959985
1406.000000	23.044612
1405.000000	24.167643
1404.000000	25.319012
1403.000000	26.448882
1402.000000	27.511447
1401.000000	28.543523
1400.000000	29.627568
1399.000000	30.769111
1398.000000	31.883152
1397.000000	32.948855
1396.000000	34.071484
1395.000000	35.331154
1394.000000	36.652178
1393.000000	37.896303
1392.000000	39.028490
1391.000000	40.103604
1390.000000	41.171326
1389.000000	42.265447
1388.000000	43.410628
1387.000000	44.576996
1386.000000	45.673538
1385.000000	46.644125
1384.000000	47.509893
1383.000000	48.290128
1382.000000	48.957780
1381.000000	49.478758
1380.000000	49.834197
1379.000000	49.994382
1378.000000	49.914931
1377.000000	49.554662
1376.000000	48.862118
1375.000000	47.788716
1374.000000	46.368676
1373.000000	44.731132
1372.000000	43.004807
1371.000000	41.286230
1370.000000	39.704497
1369.000000	38.458051
1368.000000	37.742809
1367.000000	37.629369
1366.000000	38.056309
1365.000000	38.936357
1364.000000	40.222724
1363.000000	41.874966
1362.000000	43.771631
1361.000000	45.704349
1360.000000	47.485094
1359.000000	49.013087
1358.000000	50.246152
1357.000000	51.160780
1356.000000	51.733191
1355.000000	51.941311
1354.000000	51.777424
1353.000000	51.243064
1352.000000	50.340495
1351.000000	49.072687
1350.000000	47.459874
1349.000000	45.549528
1348.000000	43.392598
1347.000000	41.032261
1346.000000	38.513481
1345.000000	35.893934
1344.000000	33.243756
1343.000000	30.620923
1342.000000	28.049158
1341.000000	25.543443
1340.000000	23.174348
1339.000000	21.077848
1338.000000	19.366046
1337.000000	18.047726
1336.000000	17.057018
1335.000000	16.312098
1334.000000	15.723036
1333.000000	15.193010
1332.000000	14.638834
1331.000000	14.003865
1330.000000	13.249759
1329.000000	12.350923
1328.000000	11.312581
1327.000000	10.181220
1326.000000	9.023770
1325.000000	7.905100
1324.000000	6.887949
1323.000000	6.028877
1322.000000	5.351170
1321.000000	4.835388
1320.000000	4.447785
1319.000000	4.158313
1318.000000	3.932520
1317.000000	3.734539
1316.000000	3.550111
1315.000000	3.390504
1314.000000	3.263383
1313.000000	3.161262
1312.000000	3.080248
1311.000000	3.025140
1310.000000	2.993569
1309.000000	2.976047
1308.000000	2.978344
1307.000000	3.022571
1306.000000	3.121188
1305.000000	3.271849
1304.000000	3.477063
1303.000000	3.746077
1302.000000	4.074431
1301.000000	4.441673
1300.000000	4.834771
1299.000000	5.252583
1298.000000	5.687900
1297.000000	6.126636
1296.000000	6.564694
1295.000000	7.007823
1294.000000	7.453167
1293.000000	7.888458
1292.000000	8.308662
1291.000000	8.716171
1290.000000	9.103258
1289.000000	9.451208
1288.000000	9.746075
1287.000000	9.979693
1286.000000	10.140314
1285.000000	10.219633
1284.000000	10.233637
1283.000000	10.224163
1282.000000	10.236716
1281.000000	10.306075
1280.000000	10.457617
1279.000000	10.701474
1278.000000	11.021592
1277.000000	11.386738
1276.000000	11.774111
1275.000000	12.173653
1274.000000	12.575468
1273.000000	12.968955
1272.000000	13.354079
1271.000000	13.737704
1270.000000	14.118895
1269.000000	14.489871
1268.000000	14.849218
1267.000000	15.201340
1266.000000	15.545166
1265.000000	15.875390
1264.000000	16.193356
1263.000000	16.506094
1262.000000	16.815455
1261.000000	17.119711
1260.000000	17.423220
1259.000000	17.732509
1258.000000	18.045338
1257.000000	18.354048
1256.000000	18.657320
1255.000000	18.958498
1254.000000	19.255555
1253.000000	19.542898
1252.000000	19.820806
1251.000000	20.094147
1250.000000	20.363981
1249.000000	20.628729
1248.000000	20.891539
1247.000000	21.158262
1246.000000	21.429821
1245.000000	21.703573
1244.000000	21.979733
1243.000000	22.259318
1242.000000	22.537771
1241.000000	22.807901
1240.000000	23.067507
1239.000000	23.318064
1238.000000	23.558851
1237.000000	23.788711
1236.000000	24.011677
1235.000000	24.234788
1234.000000	24.461385
1233.000000	24.691757
1232.000000	24.928013
1231.000000	25.172548
1230.000000	25.423115
1229.000000	25.674147
1228.000000	25.921846
1227.000000	26.164115
1226.000000	26.397926
1225.000000	26.621420
1224.000000	26.836955
1223.000000	27.048756
1222.000000	27.259469
1221.000000	27.472065
1220.000000	27.692492
1219.000000	27.926318
1218.000000	28.174003
1217.000000	28.431898
1216.000000	28.695515
1215.000000	28.959196
1214.000000	29.215435
1213.000000	29.458230
1212.000000	29.685948
1211.000000	29.899487
1210.000000	30.100531
1209.000000	30.293462
1208.000000	30.486682
1207.000000	30.689442
1206.000000	30.907886
1205.000000	31.144590
1204.000000	31.398930
1203.000000	31.665563
1202.000000	31.934474
1201.000000	32.194592
1200.000000	32.437162
1199.000000	32.656158
1198.000000	32.848783
1197.000000	33.017101
1196.000000	33.166186
1195.000000	33.300947
1194.000000	33.423943
1193.000000	33.534098
1192.000000	33.625675
1191.000000	33.686875
1190.000000	33.704926
1189.000000	33.674526
1188.000000	33.602803
1187.000000	33.509477
1186.000000	33.421971
1185.000000	33.367673
1184.000000	33.366002
1183.000000	33.424672
1182.000000	33.541218
1181.000000	33.710409
1180.000000	33.928464
1179.000000	34.190894
1178.000000	34.490036
1177.000000	34.812928
1176.000000	35.142595
1175.000000	35.461107
1174.000000	35.754294
1173.000000	36.015141
1172.000000	36.242995
1171.000000	36.442209
1170.000000	36.622725
1169.000000	36.798636
1168.000000	36.982483
1167.000000	37.182057
1166.000000	37.401604
1165.000000	37.642044
1164.000000	37.898106
1163.000000	38.158423
1162.000000	38.411444
1161.000000	38.649527
1160.000000	38.867262
1159.000000	39.061199
1158.000000	39.233631
1157.000000	39.393358
1156.000000	39.550179
1155.000000	39.711499
1154.000000	39.884508
1153.000000	40.075367
1152.000000	40.283901
1151.000000	40.503012
1150.000000	40.725171
1149.000000	40.945520
1148.000000	41.157565
1147.000000	41.352443
1146.000000	41.525713
1145.000000	41.679970
1144.000000	41.819546
1143.000000	41.947782
1142.000000	42.071529
1141.000000	42.201538
1140.000000	42.344890
1139.000000	42.502047
1138.000000	42.672532
1137.000000	42.857310
1136.000000	43.052985
1135.000000	43.249680
1134.000000	43.437892
1133.000000	43.612593
1132.000000	43.769375
1131.000000	43.903812
1130.000000	44.017669
1129.000000	44.120509
1128.000000	44.222669
1127.000000	44.332011
1126.000000	44.457851
1125.000000	44.609883
1124.000000	44.789840
1123.000000	44.989583
1122.000000	45.198957
1121.000000	45.409325
1120.000000	45.608662
1119.000000	45.782330
1118.000000	45.923044
1117.000000	46.034656
1116.000000	46.125531
1115.000000	46.205412
1114.000000	46.289845
1113.000000	46.397906
1112.000000	46.541113
1111.000000	46.719166
1110.000000	46.926346
1109.000000	47.153665
1108.000000	47.383502
1107.000000	47.592412
1106.000000	47.764238
1105.000000	47.894886
1104.000000	47.985532
1103.000000	48.041760
1102.000000	48.080419
1101.000000	48.127084
1100.000000	48.201660
1099.000000	48.312833
1098.000000	48.464136
1097.000000	48.654296
1096.000000	48.869208
1095.000000	49.083787
1094.000000	49.276421
1093.000000	49.435759
1092.000000	49.555082
1091.000000	49.633207
1090.000000	49.683690
1089.000000	49.732280
1088.000000	49.801409
1087.000000	49.903914
1086.000000	50.049226
1085.000000	50.242551
1084.000000	50.474375
1083.000000	50.720338
1082.000000	50.955385
1081.000000	51.161258
1080.000000	51.322470
1079.000000	51.429250
1078.000000	51.489201
1077.000000	51.524674
1076.000000	51.557271
1075.000000	51.602730
1074.000000	51.676881
1073.000000	51.791679
1072.000000	51.941196
1071.000000	52.102132
1070.000000	52.249661
1069.000000	52.362471
1068.000000	52.416008
1067.000000	52.385545
1066.000000	52.263470
1065.000000	52.065600
1064.000000	51.820574
1063.000000	51.566808
1062.000000	51.355381
1061.000000	51.237607
1060.000000	51.240539
1059.000000	51.360996
1058.000000	51.577852
1057.000000	51.862376
1056.000000	52.178182
1055.000000	52.486560
1054.000000	52.763363
1053.000000	53.001417
1052.000000	53.198289
1051.000000	53.353559
1050.000000	53.479622
1049.000000	53.599399
1048.000000	53.729546
1047.000000	53.875847
1046.000000	54.043747
1045.000000	54.238788
1044.000000	54.454768
1043.000000	54.674837
1042.000000	54.886796
1041.000000	55.086485
1040.000000	55.266304
1039.000000	55.415156
1038.000000	55.532766
1037.000000	55.631545
1036.000000	55.722593
1035.000000	55.813214
1034.000000	55.917371
1033.000000	56.053167
1032.000000	56.226394
1031.000000	56.428376
1030.000000	56.649927
1029.000000	56.884053
1028.000000	57.114228
1027.000000	57.316015
1026.000000	57.474831
1025.000000	57.590859
1024.000000	57.666824
1023.000000	57.707320
1022.000000	57.732020
1021.000000	57.772200
1020.000000	57.850438
1019.000000	57.973985
1018.000000	58.145708
1017.000000	58.364434
1016.000000	58.612315
1015.000000	58.856921
1014.000000	59.070972
1013.000000	59.239889
1012.000000	59.352511
1011.000000	59.402863
1010.000000	59.405265
1009.000000	59.392458
1008.000000	59.395449
1007.000000	59.435985
1006.000000	59.534220
1005.000000	59.703870
1004.000000	59.935663
1003.000000	60.198794
1002.000000	60.461011
1001.000000	60.696643
1000.000000	60.878740
999.000000	60.984317
998.000000	61.013973
997.000000	60.993743
996.000000	60.955356
995.000000	60.927416
994.000000	60.941965
993.000000	61.028782
992.000000	61.195774
991.000000	61.425515
990.000000	61.690992
989.000000	61.963128
988.000000	62.205343
987.000000	62.381053
986.000000	62.474930
985.000000	62.497295
984.000000	62.468458
983.000000	62.412719
982.000000	62.366211
981.000000	62.369169
980.000000	62.443780
979.000000	62.588718
978.000000	62.793154
977.000000	63.039533
976.000000	63.294052
975.000000	63.513744
974.000000	63.670802
973.000000	63.759375
972.000000	63.782096
971.000000	63.748026
970.000000	63.684517
969.000000	63.632082
968.000000	63.621123
967.000000	63.664637
966.000000	63.769337
965.000000	63.935875
964.000000	64.145358
963.000000	64.363333
962.000000	64.561040
961.000000	64.722121
960.000000	64.830879
959.000000	64.874944
958.000000	64.862496
957.000000	64.820887
956.000000	64.775217
955.000000	64.741832
954.000000	64.740704
953.000000	64.792985
952.000000	64.902636
951.000000	65.054545
950.000000	65.232366
949.000000	65.421643
948.000000	65.597368
947.000000	65.728541
946.000000	65.801187
945.000000	65.821219
944.000000	65.796376
943.000000	65.733492
942.000000	65.654323
941.000000	65.593818
940.000000	65.577385
939.000000	65.613549
938.000000	65.705815
937.000000	65.852654
936.000000	66.032772
935.000000	66.209187
934.000000	66.351942
933.000000	66.444807
932.000000	66.472190
931.000000	66.422941
930.000000	66.309849
929.000000	66.168630
928.000000	66.034194
927.000000	65.931416
926.000000	65.884932
925.000000	65.913822
924.000000	66.011245
923.000000	66.144291
922.000000	66.276900
921.000000	66.378952
920.000000	66.416897
919.000000	66.360379
918.000000	66.206221
917.000000	65.979417
916.000000	65.712014
915.000000	65.435151
914.000000	65.187042
913.000000	65.003664
912.000000	64.893661
911.000000	64.836335
910.000000	64.802183
909.000000	64.760597
908.000000	64.671489
907.000000	64.492998
906.000000	64.207252
905.000000	63.824827
904.000000	63.365087
903.000000	62.851009
902.000000	62.317305
901.000000	61.802882
900.000000	61.327324
899.000000	60.885484
898.000000	60.463738
897.000000	60.043143
896.000000	59.591259
895.000000	59.070235
894.000000	58.457677
893.000000	57.750877
892.000000	56.951099
891.000000	56.063090
890.000000	55.106911
889.000000	54.111202
888.000000	53.096181
887.000000	52.069680
886.000000	51.036936
885.000000	49.999469
884.000000	48.944742
883.000000	47.851914
882.000000	46.705343
881.000000	45.496008
880.000000	44.215048
879.000000	42.857263
878.000000	41.432599
877.000000	39.963586
876.000000	38.475254
875.000000	36.992738
874.000000	35.542757
873.000000	34.148034
872.000000	32.821262
871.000000	31.566582
870.000000	30.381424
869.000000	29.258355
868.000000	28.186380
867.000000	27.156599
866.000000	26.165892
865.000000	25.214052
864.000000	24.305119
863.000000	23.446558
862.000000	22.646290
861.000000	21.910701
860.000000	21.243150
859.000000	20.644919
858.000000	20.110735
857.000000	19.628238
856.000000	19.185329
855.000000	18.772883
854.000000	18.384147
853.000000	18.014233
852.000000	17.664571
851.000000	17.345325
850.000000	17.067747
849.000000	16.840885
848.000000	16.674153
847.000000	16.577272
846.000000	16.556116
845.000000	16.608472
844.000000	16.730153
843.000000	16.918672
842.000000	17.168610
841.000000	17.471473
840.000000	17.820119
839.000000	18.215272
838.000000	18.662721
837.000000	19.167137
836.000000	19.734813
835.000000	20.375294
834.000000	21.093426
833.000000	21.869244
832.000000	22.638549
831.000000	23.256384
830.000000	23.464741
829.000000	22.917886
828.000000	21.356291
827.000000	18.877402
826.000000	16.034831
825.000000	13.593610
824.000000	12.107956
823.000000	11.697135
822.000000	12.162053
821.000000	13.231552
820.000000	14.666762
819.000000	16.243309
818.000000	17.771440
817.000000	19.150630
816.000000	20.379267
815.000000	21.486704
814.000000	22.488725
813.000000	23.396936
812.000000	24.230872
811.000000	25.004044
810.000000	25.721700
809.000000	26.398021
808.000000	27.055047
807.000000	27.705111
806.000000	28.347936
805.000000	28.985986
804.000000	29.623874
803.000000	30.251843
802.000000	30.849537
801.000000	31.406124
800.000000	31.924108
799.000000	32.407217
798.000000	32.860788
797.000000	33.302112
796.000000	33.753039
795.000000	34.223662
794.000000	34.714491
793.000000	35.228552
792.000000	35.767136
791.000000	36.318477
790.000000	36.864747
789.000000	37.396464
788.000000	37.909166
787.000000	38.393716
786.000000	38.843838
785.000000	39.267096
784.000000	39.676513
783.000000	40.077487
782.000000	40.473794
781.000000	40.877305
780.000000	41.299575
779.000000	41.740486
778.000000	42.194860
777.000000	42.661487
776.000000	43.134954
775.000000	43.597692
774.000000	44.032231
773.000000	44.433344
772.000000	44.799414
771.000000	45.124171
770.000000	45.408411
769.000000	45.669779
768.000000	45.929211
767.000000	46.198107
766.000000	46.486718
765.000000	46.810987
764.000000	47.177457
763.000000	47.570701
762.000000	47.966455
761.000000	48.346923
760.000000	48.694019
759.000000	48.983732
758.000000	49.203173
757.000000	49.364696
756.000000	49.494002
755.000000	49.616031
754.000000	49.760422
753.000000	49.962859
752.000000	50.244807
751.000000	50.599019
750.000000	51.001988
749.000000	51.427029
748.000000	51.837398
747.000000	52.186484
746.000000	52.443727
745.000000	52.612321
744.000000	52.714489
743.000000	52.775610
742.000000	52.831596
741.000000	52.931082
740.000000	53.111049
739.000000	53.377172
738.000000	53.713668
737.000000	54.095451
736.000000	54.480536
735.000000	54.810743
734.000000	55.039779
733.000000	55.153924
732.000000	55.160928
731.000000	55.079872
730.000000	54.951691
729.000000	54.836923
728.000000	54.784685
727.000000	54.813156
726.000000	54.923276
725.000000	55.110141
724.000000	55.348980
723.000000	55.590987
722.000000	55.791610
721.000000	55.932973
720.000000	56.013319
719.000000	56.038344
718.000000	56.036569
717.000000	56.061489
716.000000	56.160150
715.000000	56.350233
714.000000	56.633029
713.000000	57.004451
712.000000	57.438865
711.000000	57.883606
710.000000	58.289627
709.000000	58.633923
708.000000	58.905869
707.000000	59.098439
706.000000	59.228711
705.000000	59.343752
704.000000	59.487414
703.000000	59.674678
702.000000	59.907502
701.000000	60.189958
700.000000	60.510486
699.000000	60.834373
698.000000	61.131489
697.000000	61.394372
696.000000	61.618560
695.000000	61.791764
694.000000	61.919651
693.000000	62.035888
692.000000	62.166744
691.000000	62.311333
690.000000	62.470146
689.000000	62.662255
688.000000	62.891993
687.000000	63.127090
686.000000	63.337914
685.000000	63.529769
684.000000	63.715242
683.000000	63.887623
682.000000	64.046518
681.000000	64.216673
680.000000	64.413957
679.000000	64.620121
678.000000	64.816061
677.000000	65.004624
676.000000	65.183967
675.000000	65.336311
674.000000	65.460432
673.000000	65.585740
672.000000	65.736430
671.000000	65.912594
670.000000	66.126308
669.000000	66.421549
668.000000	66.770293
667.000000	67.045076
666.000000	67.222757
665.000000	67.351381
664.000000	67.452606
663.000000	67.528335
662.000000	67.581669
661.000000	67.632768
660.000000	67.709257
659.000000	67.833429
658.000000	68.023979
657.000000	68.287982
656.000000	68.606378
655.000000	68.940310
654.000000	69.251868
653.000000	69.513626
652.000000	69.704372
651.000000	69.812824
650.000000	69.854044
649.000000	69.867089
648.000000	69.891233
647.000000	69.957492
646.000000	70.098445
645.000000	70.341675
644.000000	70.679443
643.000000	71.059508
642.000000	71.418889
641.000000	71.716363
640.000000	71.926847
639.000000	72.033626
638.000000	72.046334
637.000000	72.009614
636.000000	71.981230
635.000000	72.011898
634.000000	72.143942
633.000000	72.400276
632.000000	72.761838
631.000000	73.171640
630.000000	73.569527
629.000000	73.910328
628.000000	74.153703
627.000000	74.272160
626.000000	74.285115
625.000000	74.255213
624.000000	74.235761
623.000000	74.249114
622.000000	74.319431
621.000000	74.483703
620.000000	74.750327
619.000000	75.079679
618.000000	75.420840
617.000000	75.741688
616.000000	76.010449
615.000000	76.187767
614.000000	76.262073
613.000000	76.266070
612.000000	76.239438
611.000000	76.204079
610.000000	76.179135
609.000000	76.176178
608.000000	76.162399
607.000000	76.047040
606.000000	75.720766
605.000000	75.065187
604.000000	73.905500
603.000000	72.003380
602.000000	69.096571
601.000000	64.990557
600.000000	59.699270
599.000000	53.616428
598.000000	47.530956
597.000000	42.362773
596.000000	38.826324
595.000000	37.233449
594.000000	37.468344
593.000000	39.108593
592.000000	41.650291
591.000000	44.624195
590.000000	47.635677
589.000000	50.444633
588.000000	52.968421
587.000000	55.214648
586.000000	57.217629
585.000000	59.018729
584.000000	60.643519
583.000000	62.098104
582.000000	63.399666
581.000000	64.591318
580.000000	65.700293
579.000000	66.699389
578.000000	67.561797
577.000000	68.313863
576.000000	68.999018
575.000000	69.624171
574.000000	70.173989
573.000000	70.657599
572.000000	71.093071
571.000000	71.478888
570.000000	71.820477
569.000000	72.151555
568.000000	72.496746
567.000000	72.842894
566.000000	73.173930
565.000000	73.502336
564.000000	73.835096
563.000000	74.148998
562.000000	74.427868
561.000000	74.686956
560.000000	74.934448
559.000000	75.147988
558.000000	75.318712
557.000000	75.474503
556.000000	75.634764
555.000000	75.786058
554.000000	75.927818
553.000000	76.093853
552.000000	76.302398
551.000000	76.528409
550.000000	76.749711
549.000000	76.973800
548.000000	77.195863
547.000000	77.384365
546.000000	77.535118
545.000000	77.685156
544.000000	77.844290
543.000000	77.975728
542.000000	78.068713
541.000000	78.170858
540.000000	78.317027
539.000000	78.486704
538.000000	78.660967
537.000000	78.862327
536.000000	79.100991
535.000000	79.337177
534.000000	79.533890
533.000000	79.699651
532.000000	79.840737
531.000000	79.925533
530.000000	79.938817
529.000000	79.915296
528.000000	79.889980
527.000000	79.874432
526.000000	79.906872
525.000000	80.040460
524.000000	80.244923
523.000000	80.400191
522.000000	80.408680
521.000000	80.239993
520.000000	79.864721
519.000000	79.231463
518.000000	78.359680
517.000000	77.399505
516.000000	76.534705
515.000000	75.883852
514.000000	75.514426
513.000000	75.469036
512.000000	75.710443
511.000000	76.092574
510.000000	76.438605
509.000000	76.620687
508.000000	76.524779
507.000000	76.019573
506.000000	75.023209
505.000000	73.540252
504.000000	71.618605
503.000000	69.397861
502.000000	67.248414
501.000000	65.656365
500.000000	64.882960
499.000000	64.865219
498.000000	65.409016
497.000000	66.304325
496.000000	67.308894
495.000000	68.180906
494.000000	68.790660
493.000000	69.184050
492.000000	69.497498
491.000000	69.859635
490.000000	70.369854
489.000000	71.088695
488.000000	71.988022
487.000000	72.960649
486.000000	73.916144
485.000000	74.829933
484.000000	75.678393
483.000000	76.399389
482.000000	76.973436
481.000000	77.465299
480.000000	77.932718
479.000000	78.374003
478.000000	78.796520
477.000000	79.248522
476.000000	79.728990
475.000000	80.149308
474.000000	80.456793
473.000000	80.718934
472.000000	81.004528
471.000000	81.241486
470.000000	81.338905
469.000000	81.362467
468.000000	81.444293
467.000000	81.634547
466.000000	81.893469
465.000000	82.177554
464.000000	82.439138
463.000000	82.596466
462.000000	82.612831
461.000000	82.546234
460.000000	82.436068
459.000000	82.239555
458.000000	81.987328
457.000000	81.863515
456.000000	81.938818
455.000000	82.078676
454.000000	82.190958
453.000000	82.315399
452.000000	82.465770
451.000000	82.496483
450.000000	82.235684
449.000000	81.667550
448.000000	80.879387
447.000000	79.943968
446.000000	78.914561
445.000000	77.835638
444.000000	76.656839
443.000000	75.205838
442.000000	73.323091
441.000000	70.986127
440.000000	68.240061
439.000000	65.147328
438.000000	61.876856
437.000000	58.800953
436.000000	56.398675
435.000000	55.000041
434.000000	54.629105
433.000000	55.132906
432.000000	56.376982
431.000000	58.189714
430.000000	60.326095
429.000000	62.595424
428.000000	64.862632
427.000000	66.939661
426.000000	68.672416
425.000000	70.127097
424.000000	71.458106
423.000000	72.664713
422.000000	73.677385
421.000000	74.605389
420.000000	75.670902
419.000000	77.025129
418.000000	78.564048
417.000000	79.918735
416.000000	80.894964
415.000000	81.439074
414.000000	81.542990
413.000000	81.428738
412.000000	81.367528
411.000000	81.384789
410.000000	81.456599
409.000000	81.759251
408.000000	82.394352
407.000000	83.113432
406.000000	83.638684
405.000000	84.020701
404.000000	84.326490
403.000000	84.294521
402.000000	83.713302
401.000000	82.841595
400.000000	82.036693
