PE IR       SUBTECH     SPECTRUM    ASCII       PEDS        4.00        
   -1
23MS101_nitrito.asc
24/09/05
15:53:12.00
24/09/05
15:53:12.00
Administrator
Sample 1102 By Administrator Date Thursday, September 05 2024
400.000000
#HDR
-1
-1
#GR
cm-1
%T
1.0
0.0
4000.000000
-1.000000
3601
8
68.519233
7.102519
#DATA
4000.000000	50.983142
3999.000000	51.028735
3998.000000	51.073382
3997.000000	51.116948
3996.000000	51.159653
3995.000000	51.201934
3994.000000	51.244389
3993.000000	51.287812
3992.000000	51.332816
3991.000000	51.379262
3990.000000	51.426332
3989.000000	51.473313
3988.000000	51.520237
3987.000000	51.567542
3986.000000	51.615188
3985.000000	51.662467
3984.000000	51.708540
3983.000000	51.752924
3982.000000	51.795385
3981.000000	51.835784
3980.000000	51.874438
3979.000000	51.912347
3978.000000	51.950672
3977.000000	51.990026
3976.000000	52.030281
3975.000000	52.071200
3974.000000	52.112852
3973.000000	52.155395
3972.000000	52.198879
3971.000000	52.243071
3970.000000	52.287625
3969.000000	52.331914
3968.000000	52.374852
3967.000000	52.415322
3966.000000	52.452943
3965.000000	52.488575
3964.000000	52.523970
3963.000000	52.560634
3962.000000	52.598604
3961.000000	52.636860
3960.000000	52.675017
3959.000000	52.713815
3958.000000	52.754396
3957.000000	52.796785
3956.000000	52.839668
3955.000000	52.881493
3954.000000	52.921116
3953.000000	52.958282
3952.000000	52.993755
3951.000000	53.029336
3950.000000	53.066883
3949.000000	53.106314
3948.000000	53.144827
3947.000000	53.179205
3946.000000	53.209676
3945.000000	53.241284
3944.000000	53.280679
3943.000000	53.330340
3942.000000	53.385849
3941.000000	53.440639
3940.000000	53.492356
3939.000000	53.542040
3938.000000	53.590384
3937.000000	53.635820
3936.000000	53.676474
3935.000000	53.713154
3934.000000	53.748346
3933.000000	53.784157
3932.000000	53.820723
3931.000000	53.857302
3930.000000	53.894084
3929.000000	53.930836
3928.000000	53.967886
3927.000000	54.007626
3926.000000	54.053524
3925.000000	54.105985
3924.000000	54.159757
3923.000000	54.208698
3922.000000	54.251538
3921.000000	54.290974
3920.000000	54.329697
3919.000000	54.368622
3918.000000	54.407691
3917.000000	54.446261
3916.000000	54.483630
3915.000000	54.521174
3914.000000	54.562586
3913.000000	54.610646
3912.000000	54.664681
3911.000000	54.719160
3910.000000	54.767736
3909.000000	54.806068
3908.000000	54.833035
3907.000000	54.852449
3906.000000	54.871849
3905.000000	54.897202
3904.000000	54.925404
3903.000000	54.946915
3902.000000	54.959438
3901.000000	54.972492
3900.000000	54.998106
3899.000000	55.040188
3898.000000	55.093816
3897.000000	55.151755
3896.000000	55.209666
3895.000000	55.265412
3894.000000	55.320803
3893.000000	55.379920
3892.000000	55.443538
3891.000000	55.501799
3890.000000	55.543485
3889.000000	55.568803
3888.000000	55.588728
3887.000000	55.616553
3886.000000	55.654818
3885.000000	55.690450
3884.000000	55.713219
3883.000000	55.729593
3882.000000	55.757639
3881.000000	55.808824
3880.000000	55.874073
3879.000000	55.934156
3878.000000	55.980213
3877.000000	56.017266
3876.000000	56.055694
3875.000000	56.099912
3874.000000	56.142787
3873.000000	56.174530
3872.000000	56.197389
3871.000000	56.224302
3870.000000	56.258629
3869.000000	56.286995
3868.000000	56.302568
3867.000000	56.316506
3866.000000	56.345547
3865.000000	56.395993
3864.000000	56.459624
3863.000000	56.524126
3862.000000	56.584919
3861.000000	56.641044
3860.000000	56.690399
3859.000000	56.728732
3858.000000	56.750632
3857.000000	56.753084
3856.000000	56.743259
3855.000000	56.745231
3854.000000	56.774767
3853.000000	56.803823
3852.000000	56.813996
3851.000000	56.833762
3850.000000	56.888930
3849.000000	56.976523
3848.000000	57.078255
3847.000000	57.176608
3846.000000	57.262520
3845.000000	57.333290
3844.000000	57.387845
3843.000000	57.424876
3842.000000	57.445804
3841.000000	57.455654
3840.000000	57.464724
3839.000000	57.482307
3838.000000	57.507835
3837.000000	57.535568
3836.000000	57.565163
3835.000000	57.602767
3834.000000	57.654042
3833.000000	57.718846
3832.000000	57.790972
3831.000000	57.861432
3830.000000	57.923767
3829.000000	57.978112
3828.000000	58.030716
3827.000000	58.084475
3826.000000	58.133213
3825.000000	58.166603
3824.000000	58.183646
3823.000000	58.198634
3822.000000	58.228873
3821.000000	58.268249
3820.000000	58.294397
3819.000000	58.304695
3818.000000	58.318769
3817.000000	58.358350
3816.000000	58.423234
3815.000000	58.492692
3814.000000	58.553549
3813.000000	58.610498
3812.000000	58.670603
3811.000000	58.731207
3810.000000	58.784071
3809.000000	58.827998
3808.000000	58.869667
3807.000000	58.908013
3806.000000	58.931360
3805.000000	58.934507
3804.000000	58.930694
3803.000000	58.942997
3802.000000	58.983675
3801.000000	59.035020
3800.000000	59.075942
3799.000000	59.111638
3798.000000	59.160019
3797.000000	59.228697
3796.000000	59.306816
3795.000000	59.378468
3794.000000	59.437983
3793.000000	59.490299
3792.000000	59.541281
3791.000000	59.591963
3790.000000	59.639827
3789.000000	59.682699
3788.000000	59.721174
3787.000000	59.759014
3786.000000	59.800354
3785.000000	59.845033
3784.000000	59.888004
3783.000000	59.924676
3782.000000	59.956609
3781.000000	59.990640
3780.000000	60.031866
3779.000000	60.076015
3778.000000	60.114606
3777.000000	60.146042
3776.000000	60.176820
3775.000000	60.211870
3774.000000	60.248779
3773.000000	60.283231
3772.000000	60.317568
3771.000000	60.357034
3770.000000	60.398884
3769.000000	60.433055
3768.000000	60.457843
3767.000000	60.484237
3766.000000	60.521701
3765.000000	60.567229
3764.000000	60.610142
3763.000000	60.644268
3762.000000	60.672852
3761.000000	60.702241
3760.000000	60.736090
3759.000000	60.772959
3758.000000	60.808699
3757.000000	60.839171
3756.000000	60.860830
3755.000000	60.873542
3754.000000	60.882305
3753.000000	60.894174
3752.000000	60.912774
3751.000000	60.932143
3750.000000	60.941157
3749.000000	60.937330
3748.000000	60.924972
3747.000000	60.913397
3746.000000	60.923413
3745.000000	60.972328
3744.000000	61.041050
3743.000000	61.102046
3742.000000	61.159854
3741.000000	61.226892
3740.000000	61.299854
3739.000000	61.363438
3738.000000	61.407620
3737.000000	61.438922
3736.000000	61.468713
3735.000000	61.500614
3734.000000	61.534036
3733.000000	61.570301
3732.000000	61.610528
3731.000000	61.652454
3730.000000	61.692660
3729.000000	61.731004
3728.000000	61.770724
3727.000000	61.814518
3726.000000	61.858744
3725.000000	61.898279
3724.000000	61.933869
3723.000000	61.970397
3722.000000	62.010594
3721.000000	62.051460
3720.000000	62.090233
3719.000000	62.126541
3718.000000	62.159518
3717.000000	62.185322
3716.000000	62.198572
3715.000000	62.197850
3714.000000	62.187083
3713.000000	62.174072
3712.000000	62.165331
3711.000000	62.162499
3710.000000	62.166341
3709.000000	62.179765
3708.000000	62.205692
3707.000000	62.241792
3706.000000	62.279832
3705.000000	62.309996
3704.000000	62.328606
3703.000000	62.339321
3702.000000	62.346034
3701.000000	62.346716
3700.000000	62.339498
3699.000000	62.328518
3698.000000	62.319563
3697.000000	62.313474
3696.000000	62.304738
3695.000000	62.287029
3694.000000	62.257316
3693.000000	62.215376
3692.000000	62.163910
3691.000000	62.110335
3690.000000	62.061502
3689.000000	62.012863
3688.000000	61.956703
3687.000000	61.899041
3686.000000	61.851827
3685.000000	61.818715
3684.000000	61.793880
3683.000000	61.765739
3682.000000	61.723154
3681.000000	61.662653
3680.000000	61.585307
3679.000000	61.490003
3678.000000	61.373897
3677.000000	61.242359
3676.000000	61.108111
3675.000000	60.972277
3674.000000	60.834873
3673.000000	60.701370
3672.000000	60.574022
3671.000000	60.453137
3670.000000	60.335527
3669.000000	60.214564
3668.000000	60.092132
3667.000000	59.976241
3666.000000	59.868805
3665.000000	59.762625
3664.000000	59.648653
3663.000000	59.521405
3662.000000	59.379782
3661.000000	59.226056
3660.000000	59.059735
3659.000000	58.876031
3658.000000	58.669110
3657.000000	58.440628
3656.000000	58.202241
3655.000000	57.968646
3654.000000	57.746723
3653.000000	57.529204
3652.000000	57.300841
3651.000000	57.048751
3650.000000	56.766228
3649.000000	56.456566
3648.000000	56.142299
3647.000000	55.857769
3646.000000	55.622015
3645.000000	55.427118
3644.000000	55.251623
3643.000000	55.075060
3642.000000	54.884394
3641.000000	54.674384
3640.000000	54.446480
3639.000000	54.206573
3638.000000	53.960062
3637.000000	53.709206
3636.000000	53.454780
3635.000000	53.199883
3634.000000	52.950074
3633.000000	52.706990
3632.000000	52.461421
3631.000000	52.193672
3630.000000	51.887948
3629.000000	51.549822
3628.000000	51.212344
3627.000000	50.916961
3626.000000	50.679325
3625.000000	50.485085
3624.000000	50.310201
3623.000000	50.132895
3622.000000	49.935056
3621.000000	49.705149
3620.000000	49.444686
3619.000000	49.169110
3618.000000	48.899654
3617.000000	48.652411
3616.000000	48.430182
3615.000000	48.224170
3614.000000	48.022400
3613.000000	47.817267
3612.000000	47.606409
3611.000000	47.388093
3610.000000	47.158251
3609.000000	46.916846
3608.000000	46.675435
3607.000000	46.449966
3606.000000	46.247880
3605.000000	46.065285
3604.000000	45.892353
3603.000000	45.719150
3602.000000	45.538603
3601.000000	45.349300
3600.000000	45.155603
3599.000000	44.963482
3598.000000	44.773258
3597.000000	44.580832
3596.000000	44.383039
3595.000000	44.182010
3594.000000	43.983659
3593.000000	43.794982
3592.000000	43.619477
3591.000000	43.451274
3590.000000	43.274870
3589.000000	43.076430
3588.000000	42.857429
3587.000000	42.634613
3586.000000	42.427695
3585.000000	42.247461
3584.000000	42.092499
3583.000000	41.952640
3582.000000	41.815079
3581.000000	41.671113
3580.000000	41.518732
3579.000000	41.359638
3578.000000	41.194985
3577.000000	41.025813
3576.000000	40.854871
3575.000000	40.685060
3574.000000	40.517879
3573.000000	40.355402
3572.000000	40.200843
3571.000000	40.053485
3570.000000	39.904075
3569.000000	39.738925
3568.000000	39.551228
3567.000000	39.347838
3566.000000	39.145913
3565.000000	38.962724
3564.000000	38.805259
3563.000000	38.667288
3562.000000	38.536332
3561.000000	38.403256
3560.000000	38.266176
3559.000000	38.126654
3558.000000	37.985724
3557.000000	37.844208
3556.000000	37.703296
3555.000000	37.562130
3554.000000	37.417413
3553.000000	37.268136
3552.000000	37.118660
3551.000000	36.974359
3550.000000	36.835413
3549.000000	36.696401
3548.000000	36.551479
3547.000000	36.398403
3546.000000	36.239978
3545.000000	36.083206
3544.000000	35.935807
3543.000000	35.801144
3542.000000	35.677133
3541.000000	35.559561
3540.000000	35.444697
3539.000000	35.329138
3538.000000	35.210221
3537.000000	35.088742
3536.000000	34.968612
3535.000000	34.852671
3534.000000	34.739949
3533.000000	34.628212
3532.000000	34.516325
3531.000000	34.403046
3530.000000	34.286250
3529.000000	34.165247
3528.000000	34.042262
3527.000000	33.920053
3526.000000	33.799843
3525.000000	33.682805
3524.000000	33.571404
3523.000000	33.467330
3522.000000	33.369672
3521.000000	33.276367
3520.000000	33.185605
3519.000000	33.095200
3518.000000	33.002391
3517.000000	32.906065
3516.000000	32.807586
3515.000000	32.708891
3514.000000	32.610919
3513.000000	32.514152
3512.000000	32.418273
3511.000000	32.321114
3510.000000	32.220703
3509.000000	32.119289
3508.000000	32.022374
3507.000000	31.932040
3506.000000	31.844034
3505.000000	31.752901
3504.000000	31.657751
3503.000000	31.561569
3502.000000	31.467478
3501.000000	31.377386
3500.000000	31.291809
3499.000000	31.209082
3498.000000	31.126130
3497.000000	31.041483
3496.000000	30.956363
3495.000000	30.872443
3494.000000	30.790275
3493.000000	30.710458
3492.000000	30.633831
3491.000000	30.559358
3490.000000	30.483989
3489.000000	30.405975
3488.000000	30.326884
3487.000000	30.249449
3486.000000	30.174701
3485.000000	30.101651
3484.000000	30.027713
3483.000000	29.949482
3482.000000	29.865793
3481.000000	29.780793
3480.000000	29.701624
3479.000000	29.631699
3478.000000	29.568260
3477.000000	29.506653
3476.000000	29.444447
3475.000000	29.380842
3474.000000	29.314961
3473.000000	29.246603
3472.000000	29.176951
3471.000000	29.107338
3470.000000	29.038741
3469.000000	28.972666
3468.000000	28.910600
3467.000000	28.851994
3466.000000	28.794637
3465.000000	28.737331
3464.000000	28.680214
3463.000000	28.622686
3462.000000	28.563788
3461.000000	28.504958
3460.000000	28.449539
3459.000000	28.398538
3458.000000	28.349362
3457.000000	28.299595
3456.000000	28.249314
3455.000000	28.199170
3454.000000	28.148716
3453.000000	28.098025
3452.000000	28.048443
3451.000000	28.000279
3450.000000	27.951612
3449.000000	27.900476
3448.000000	27.846798
3447.000000	27.791883
3446.000000	27.737753
3445.000000	27.686980
3444.000000	27.640834
3443.000000	27.597262
3442.000000	27.552761
3441.000000	27.506294
3440.000000	27.459295
3439.000000	27.412380
3438.000000	27.364812
3437.000000	27.317250
3436.000000	27.271683
3435.000000	27.228322
3434.000000	27.185070
3433.000000	27.140647
3432.000000	27.095773
3431.000000	27.051121
3430.000000	27.006743
3429.000000	26.963523
3428.000000	26.922509
3427.000000	26.882553
3426.000000	26.841136
3425.000000	26.797474
3424.000000	26.752328
3423.000000	26.705064
3422.000000	26.653879
3421.000000	26.599162
3420.000000	26.543757
3419.000000	26.489424
3418.000000	26.435592
3417.000000	26.381556
3416.000000	26.327348
3415.000000	26.272387
3414.000000	26.215793
3413.000000	26.158152
3412.000000	26.100499
3411.000000	26.041917
3410.000000	25.980702
3409.000000	25.917431
3408.000000	25.854014
3407.000000	25.789810
3406.000000	25.721624
3405.000000	25.647558
3404.000000	25.568293
3403.000000	25.485219
3402.000000	25.400058
3401.000000	25.315814
3400.000000	25.234646
3399.000000	25.154516
3398.000000	25.070967
3397.000000	24.982210
3396.000000	24.889496
3395.000000	24.793015
3394.000000	24.691134
3393.000000	24.584196
3392.000000	24.475440
3391.000000	24.366837
3390.000000	24.256982
3389.000000	24.143712
3388.000000	24.026225
3387.000000	23.903944
3386.000000	23.775809
3385.000000	23.641939
3384.000000	23.503631
3383.000000	23.361549
3382.000000	23.215673
3381.000000	23.066837
3380.000000	22.916118
3379.000000	22.762550
3378.000000	22.603985
3377.000000	22.440144
3376.000000	22.272226
3375.000000	22.099867
3374.000000	21.921045
3373.000000	21.735168
3372.000000	21.543850
3371.000000	21.348317
3370.000000	21.148985
3369.000000	20.947180
3368.000000	20.744515
3367.000000	20.540383
3366.000000	20.332418
3365.000000	20.119669
3364.000000	19.902743
3363.000000	19.681303
3362.000000	19.454431
3361.000000	19.223128
3360.000000	18.989638
3359.000000	18.754145
3358.000000	18.514814
3357.000000	18.271242
3356.000000	18.024624
3355.000000	17.775006
3354.000000	17.521422
3353.000000	17.264884
3352.000000	17.008456
3351.000000	16.753948
3350.000000	16.500978
3349.000000	16.249038
3348.000000	15.997728
3347.000000	15.745317
3346.000000	15.490028
3345.000000	15.232822
3344.000000	14.976325
3343.000000	14.721296
3342.000000	14.466786
3341.000000	14.213243
3340.000000	13.962571
3339.000000	13.715406
3338.000000	13.471146
3337.000000	13.230246
3336.000000	12.993808
3335.000000	12.761346
3334.000000	12.531755
3333.000000	12.306004
3332.000000	12.085911
3331.000000	11.871066
3330.000000	11.659628
3329.000000	11.451315
3328.000000	11.247197
3327.000000	11.047314
3326.000000	10.851706
3325.000000	10.662575
3324.000000	10.482059
3323.000000	10.309047
3322.000000	10.140928
3321.000000	9.977553
3320.000000	9.820579
3319.000000	9.669740
3318.000000	9.523726
3317.000000	9.383127
3316.000000	9.249265
3315.000000	9.121108
3314.000000	8.996360
3313.000000	8.874995
3312.000000	8.758230
3311.000000	8.645090
3310.000000	8.533792
3309.000000	8.425415
3308.000000	8.323247
3307.000000	8.229050
3306.000000	8.142820
3305.000000	8.065173
3304.000000	7.996041
3303.000000	7.932484
3302.000000	7.870961
3301.000000	7.810899
3300.000000	7.753364
3299.000000	7.697482
3298.000000	7.641853
3297.000000	7.588120
3296.000000	7.539188
3295.000000	7.495024
3294.000000	7.453483
3293.000000	7.414463
3292.000000	7.379762
3291.000000	7.349378
3290.000000	7.321712
3289.000000	7.296502
3288.000000	7.274570
3287.000000	7.255371
3286.000000	7.237532
3285.000000	7.221218
3284.000000	7.206997
3283.000000	7.193710
3282.000000	7.180244
3281.000000	7.168034
3280.000000	7.158950
3279.000000	7.151845
3278.000000	7.144263
3277.000000	7.136148
3276.000000	7.128799
3275.000000	7.121677
3274.000000	7.113610
3273.000000	7.106162
3272.000000	7.102519
3271.000000	7.103768
3270.000000	7.108948
3269.000000	7.117376
3268.000000	7.128019
3267.000000	7.138098
3266.000000	7.145414
3265.000000	7.151126
3264.000000	7.157582
3263.000000	7.164623
3262.000000	7.170862
3261.000000	7.176860
3260.000000	7.184039
3259.000000	7.191850
3258.000000	7.199008
3257.000000	7.206292
3256.000000	7.215134
3255.000000	7.224875
3254.000000	7.234231
3253.000000	7.244062
3252.000000	7.255699
3251.000000	7.268016
3250.000000	7.279175
3249.000000	7.289874
3248.000000	7.301875
3247.000000	7.314618
3246.000000	7.326294
3245.000000	7.337045
3244.000000	7.348281
3243.000000	7.359951
3242.000000	7.371360
3241.000000	7.383397
3240.000000	7.397211
3239.000000	7.411711
3238.000000	7.424909
3237.000000	7.436602
3236.000000	7.447631
3235.000000	7.458060
3234.000000	7.468354
3233.000000	7.480519
3232.000000	7.495448
3231.000000	7.510723
3230.000000	7.523572
3229.000000	7.534345
3228.000000	7.544782
3227.000000	7.554914
3226.000000	7.564271
3225.000000	7.574148
3224.000000	7.585701
3223.000000	7.597456
3222.000000	7.607404
3221.000000	7.615978
3220.000000	7.624519
3219.000000	7.632625
3218.000000	7.639532
3217.000000	7.646143
3216.000000	7.653076
3215.000000	7.658732
3214.000000	7.661896
3213.000000	7.664250
3212.000000	7.667522
3211.000000	7.670330
3210.000000	7.670781
3209.000000	7.670065
3208.000000	7.670431
3207.000000	7.671481
3206.000000	7.671490
3205.000000	7.670627
3204.000000	7.669823
3203.000000	7.668255
3202.000000	7.664854
3201.000000	7.660573
3200.000000	7.656375
3199.000000	7.650720
3198.000000	7.642006
3197.000000	7.631676
3196.000000	7.622021
3195.000000	7.612700
3194.000000	7.602311
3193.000000	7.591558
3192.000000	7.581904
3191.000000	7.572763
3190.000000	7.562946
3189.000000	7.553144
3188.000000	7.544173
3187.000000	7.534447
3186.000000	7.522112
3185.000000	7.508149
3184.000000	7.494666
3183.000000	7.481794
3182.000000	7.468872
3181.000000	7.456711
3180.000000	7.445897
3179.000000	7.434665
3178.000000	7.421445
3177.000000	7.407842
3176.000000	7.396310
3175.000000	7.386598
3174.000000	7.377217
3173.000000	7.368507
3172.000000	7.361307
3171.000000	7.354385
3170.000000	7.346163
3169.000000	7.337505
3168.000000	7.330125
3167.000000	7.323712
3166.000000	7.317268
3165.000000	7.311569
3164.000000	7.307683
3163.000000	7.304719
3162.000000	7.301580
3161.000000	7.299326
3160.000000	7.299276
3159.000000	7.300497
3158.000000	7.301575
3157.000000	7.302922
3156.000000	7.305035
3155.000000	7.306632
3154.000000	7.307237
3153.000000	7.309633
3152.000000	7.316740
3151.000000	7.327827
3150.000000	7.340270
3149.000000	7.353229
3148.000000	7.367032
3147.000000	7.380921
3146.000000	7.394313
3145.000000	7.408574
3144.000000	7.424813
3143.000000	7.441636
3142.000000	7.457488
3141.000000	7.473627
3140.000000	7.492334
3139.000000	7.513887
3138.000000	7.537637
3137.000000	7.563987
3136.000000	7.592773
3135.000000	7.621608
3134.000000	7.648425
3133.000000	7.674339
3132.000000	7.701765
3131.000000	7.731483
3130.000000	7.763551
3129.000000	7.798857
3128.000000	7.837425
3127.000000	7.877005
3126.000000	7.915648
3125.000000	7.953817
3124.000000	7.992004
3123.000000	8.028844
3122.000000	8.063962
3121.000000	8.100212
3120.000000	8.140401
3119.000000	8.183791
3118.000000	8.228545
3117.000000	8.275389
3116.000000	8.326105
3115.000000	8.380325
3114.000000	8.436382
3113.000000	8.493634
3112.000000	8.551503
3111.000000	8.608296
3110.000000	8.663618
3109.000000	8.720068
3108.000000	8.780074
3107.000000	8.842683
3106.000000	8.905681
3105.000000	8.968803
3104.000000	9.032394
3103.000000	9.095220
3102.000000	9.156587
3101.000000	9.218888
3100.000000	9.285300
3099.000000	9.356054
3098.000000	9.429240
3097.000000	9.503669
3096.000000	9.578660
3095.000000	9.652839
3094.000000	9.725585
3093.000000	9.798435
3092.000000	9.873138
3091.000000	9.949587
3090.000000	10.027224
3089.000000	10.106455
3088.000000	10.187033
3087.000000	10.267237
3086.000000	10.346648
3085.000000	10.427747
3084.000000	10.512538
3083.000000	10.599579
3082.000000	10.686470
3081.000000	10.773259
3080.000000	10.861388
3079.000000	10.951290
3078.000000	11.043169
3077.000000	11.138143
3076.000000	11.236116
3075.000000	11.334343
3074.000000	11.430364
3073.000000	11.524780
3072.000000	11.619243
3071.000000	11.713578
3070.000000	11.807211
3069.000000	11.901627
3068.000000	11.998886
3067.000000	12.099009
3066.000000	12.200769
3065.000000	12.303728
3064.000000	12.407582
3063.000000	12.511027
3062.000000	12.613262
3061.000000	12.715235
3060.000000	12.817732
3059.000000	12.919718
3058.000000	13.020180
3057.000000	13.120127
3056.000000	13.221025
3055.000000	13.322786
3054.000000	13.424951
3053.000000	13.528370
3052.000000	13.634071
3051.000000	13.741634
3050.000000	13.849975
3049.000000	13.958328
3048.000000	14.065447
3047.000000	14.169684
3046.000000	14.271191
3045.000000	14.372366
3044.000000	14.475022
3043.000000	14.578844
3042.000000	14.683559
3041.000000	14.790306
3040.000000	14.899308
3039.000000	15.008322
3038.000000	15.115150
3037.000000	15.220130
3036.000000	15.324898
3035.000000	15.430355
3034.000000	15.536962
3033.000000	15.645071
3032.000000	15.753681
3031.000000	15.860741
3030.000000	15.965821
3029.000000	16.070559
3028.000000	16.175598
3027.000000	16.279497
3026.000000	16.381869
3025.000000	16.484957
3024.000000	16.590391
3023.000000	16.696737
3022.000000	16.802069
3021.000000	16.906762
3020.000000	17.011796
3019.000000	17.116340
3018.000000	17.219109
3017.000000	17.320468
3016.000000	17.421402
3015.000000	17.522019
3014.000000	17.622706
3013.000000	17.725133
3012.000000	17.830411
3011.000000	17.937700
3010.000000	18.045839
3009.000000	18.154716
3008.000000	18.263846
3007.000000	18.371595
3006.000000	18.477343
3005.000000	18.582678
3004.000000	18.689029
3003.000000	18.795614
3002.000000	18.900974
3001.000000	19.004790
3000.000000	19.107176
2999.000000	19.208052
2998.000000	19.308400
2997.000000	19.410047
2996.000000	19.512947
2995.000000	19.614810
2994.000000	19.714876
2993.000000	19.815901
2992.000000	19.920685
2991.000000	20.028605
2990.000000	20.137236
2989.000000	20.245442
2988.000000	20.353028
2987.000000	20.459167
2986.000000	20.563138
2985.000000	20.665358
2984.000000	20.766149
2983.000000	20.864992
2982.000000	20.962424
2981.000000	21.060978
2980.000000	21.162539
2979.000000	21.266108
2978.000000	21.369725
2977.000000	21.473132
2976.000000	21.577102
2975.000000	21.681694
2974.000000	21.786789
2973.000000	21.892876
2972.000000	21.999702
2971.000000	22.105399
2970.000000	22.208477
2969.000000	22.309481
2968.000000	22.409374
2967.000000	22.507778
2966.000000	22.604183
2965.000000	22.699479
2964.000000	22.794782
2963.000000	22.890089
2962.000000	22.985490
2961.000000	23.082149
2960.000000	23.180618
2959.000000	23.279552
2958.000000	23.377428
2957.000000	23.474058
2956.000000	23.569283
2955.000000	23.662143
2954.000000	23.752899
2953.000000	23.843932
2952.000000	23.936729
2951.000000	24.029486
2950.000000	24.119664
2949.000000	24.207550
2948.000000	24.295638
2947.000000	24.385799
2946.000000	24.478803
2945.000000	24.575295
2944.000000	24.675100
2943.000000	24.776220
2942.000000	24.876093
2941.000000	24.973499
2940.000000	25.068231
2939.000000	25.160025
2938.000000	25.248996
2937.000000	25.336090
2936.000000	25.421898
2935.000000	25.505929
2934.000000	25.588238
2933.000000	25.670545
2932.000000	25.754504
2931.000000	25.839967
2930.000000	25.926082
2929.000000	26.012837
2928.000000	26.100125
2927.000000	26.186605
2926.000000	26.271017
2925.000000	26.353572
2924.000000	26.434800
2923.000000	26.514219
2922.000000	26.591581
2921.000000	26.668261
2920.000000	26.746013
2919.000000	26.825348
2918.000000	26.906225
2917.000000	26.989164
2916.000000	27.074209
2915.000000	27.159782
2914.000000	27.243874
2913.000000	27.325756
2912.000000	27.405666
2911.000000	27.483838
2910.000000	27.560743
2909.000000	27.637287
2908.000000	27.713688
2907.000000	27.788855
2906.000000	27.861629
2905.000000	27.931891
2904.000000	27.999830
2903.000000	28.065559
2902.000000	28.129905
2901.000000	28.195111
2900.000000	28.263124
2899.000000	28.334034
2898.000000	28.406923
2897.000000	28.480717
2896.000000	28.553687
2895.000000	28.623504
2894.000000	28.689138
2893.000000	28.751816
2892.000000	28.813064
2891.000000	28.872821
2890.000000	28.930366
2889.000000	28.985923
2888.000000	29.040179
2887.000000	29.093168
2886.000000	29.144837
2885.000000	29.195895
2884.000000	29.246988
2883.000000	29.297733
2882.000000	29.347484
2881.000000	29.396237
2880.000000	29.443863
2879.000000	29.489387
2878.000000	29.532192
2877.000000	29.573166
2876.000000	29.613578
2875.000000	29.653473
2874.000000	29.692274
2873.000000	29.730375
2872.000000	29.769341
2871.000000	29.811360
2870.000000	29.859297
2869.000000	29.916311
2868.000000	29.983998
2867.000000	30.061280
2866.000000	30.145958
2865.000000	30.236578
2864.000000	30.332062
2863.000000	30.430611
2862.000000	30.530247
2861.000000	30.629871
2860.000000	30.728912
2859.000000	30.826565
2858.000000	30.922403
2857.000000	31.017086
2856.000000	31.111426
2855.000000	31.205359
2854.000000	31.298679
2853.000000	31.392100
2852.000000	31.486586
2851.000000	31.582095
2850.000000	31.677806
2849.000000	31.773027
2848.000000	31.867106
2847.000000	31.959035
2846.000000	32.047982
2845.000000	32.133823
2844.000000	32.216570
2843.000000	32.295942
2842.000000	32.372265
2841.000000	32.447137
2840.000000	32.522265
2839.000000	32.598053
2838.000000	32.674017
2837.000000	32.750088
2836.000000	32.826682
2835.000000	32.903867
2834.000000	32.981277
2833.000000	33.058528
2832.000000	33.135047
2831.000000	33.209840
2830.000000	33.282149
2829.000000	33.352082
2828.000000	33.420039
2827.000000	33.485936
2826.000000	33.549658
2825.000000	33.611866
2824.000000	33.673715
2823.000000	33.736058
2822.000000	33.799465
2821.000000	33.864598
2820.000000	33.931801
2819.000000	34.000564
2818.000000	34.069965
2817.000000	34.139359
2816.000000	34.208153
2815.000000	34.275442
2814.000000	34.340609
2813.000000	34.404007
2812.000000	34.466462
2811.000000	34.528347
2810.000000	34.589671
2809.000000	34.650721
2808.000000	34.711985
2807.000000	34.773753
2806.000000	34.836347
2805.000000	34.900330
2804.000000	34.965855
2803.000000	35.032151
2802.000000	35.098289
2801.000000	35.164104
2800.000000	35.229732
2799.000000	35.294624
2798.000000	35.357753
2797.000000	35.418601
2796.000000	35.477374
2795.000000	35.534520
2794.000000	35.590729
2793.000000	35.647116
2792.000000	35.704615
2791.000000	35.763246
2790.000000	35.822494
2789.000000	35.882151
2788.000000	35.942158
2787.000000	36.001919
2786.000000	36.060511
2785.000000	36.117519
2784.000000	36.173155
2783.000000	36.227754
2782.000000	36.281677
2781.000000	36.335440
2780.000000	36.389201
2779.000000	36.442329
2778.000000	36.494166
2777.000000	36.545055
2776.000000	36.596028
2775.000000	36.647702
2774.000000	36.700132
2773.000000	36.753447
2772.000000	36.807714
2771.000000	36.862229
2770.000000	36.915751
2769.000000	36.967570
2768.000000	37.017803
2767.000000	37.066762
2766.000000	37.114707
2765.000000	37.162138
2764.000000	37.209619
2763.000000	37.257287
2762.000000	37.305117
2761.000000	37.353538
2760.000000	37.403054
2759.000000	37.453321
2758.000000	37.503370
2757.000000	37.552769
2756.000000	37.601813
2755.000000	37.650564
2754.000000	37.698512
2753.000000	37.745332
2752.000000	37.791162
2751.000000	37.835978
2750.000000	37.879416
2749.000000	37.921429
2748.000000	37.962549
2747.000000	38.003327
2746.000000	38.044177
2745.000000	38.085876
2744.000000	38.129383
2743.000000	38.174823
2742.000000	38.221201
2741.000000	38.267317
2740.000000	38.312399
2739.000000	38.355754
2738.000000	38.396654
2737.000000	38.434966
2736.000000	38.471368
2735.000000	38.506651
2734.000000	38.541249
2733.000000	38.575615
2732.000000	38.610363
2731.000000	38.645711
2730.000000	38.681461
2729.000000	38.717789
2728.000000	38.755395
2727.000000	38.794473
2726.000000	38.834112
2725.000000	38.873125
2724.000000	38.910943
2723.000000	38.947390
2722.000000	38.982117
2721.000000	39.014796
2720.000000	39.045571
2719.000000	39.074970
2718.000000	39.103697
2717.000000	39.132659
2716.000000	39.162655
2715.000000	39.193823
2714.000000	39.225816
2713.000000	39.258621
2712.000000	39.292630
2711.000000	39.327682
2710.000000	39.362694
2709.000000	39.396481
2708.000000	39.428379
2707.000000	39.457830
2706.000000	39.484142
2705.000000	39.507221
2704.000000	39.527922
2703.000000	39.547203
2702.000000	39.565412
2701.000000	39.582656
2700.000000	39.599373
2699.000000	39.616067
2698.000000	39.632951
2697.000000	39.650236
2696.000000	39.668195
2695.000000	39.686624
2694.000000	39.704722
2693.000000	39.721840
2692.000000	39.737820
2691.000000	39.752282
2690.000000	39.764285
2689.000000	39.773148
2688.000000	39.779086
2687.000000	39.782845
2686.000000	39.785297
2685.000000	39.787773
2684.000000	39.791943
2683.000000	39.798656
2682.000000	39.807358
2681.000000	39.817087
2680.000000	39.827449
2679.000000	39.838275
2678.000000	39.849097
2677.000000	39.859624
2676.000000	39.870261
2675.000000	39.881485
2674.000000	39.893109
2673.000000	39.904813
2672.000000	39.917001
2671.000000	39.930785
2670.000000	39.947453
2669.000000	39.968320
2668.000000	39.994822
2667.000000	40.027988
2666.000000	40.068178
2665.000000	40.115465
2664.000000	40.169585
2663.000000	40.229516
2662.000000	40.293379
2661.000000	40.359361
2660.000000	40.426440
2659.000000	40.493790
2658.000000	40.560373
2657.000000	40.625516
2656.000000	40.689406
2655.000000	40.752545
2654.000000	40.815057
2653.000000	40.876981
2652.000000	40.938684
2651.000000	41.000400
2650.000000	41.061851
2649.000000	41.122928
2648.000000	41.184166
2647.000000	41.245924
2646.000000	41.307484
2645.000000	41.367516
2644.000000	41.425106
2643.000000	41.479705
2642.000000	41.530692
2641.000000	41.577716
2640.000000	41.621000
2639.000000	41.660923
2638.000000	41.697644
2637.000000	41.731806
2636.000000	41.765027
2635.000000	41.798742
2634.000000	41.833117
2633.000000	41.867581
2632.000000	41.901863
2631.000000	41.935783
2630.000000	41.968545
2629.000000	41.999287
2628.000000	42.027891
2627.000000	42.054491
2626.000000	42.078708
2625.000000	42.100096
2624.000000	42.119049
2623.000000	42.136314
2622.000000	42.152034
2621.000000	42.166200
2620.000000	42.179585
2619.000000	42.193387
2618.000000	42.208194
2617.000000	42.223960
2616.000000	42.240679
2615.000000	42.258181
2614.000000	42.275610
2613.000000	42.291839
2612.000000	42.306091
2611.000000	42.317662
2610.000000	42.325476
2609.000000	42.328818
2608.000000	42.328166
2607.000000	42.324420
2606.000000	42.317920
2605.000000	42.308679
2604.000000	42.297118
2603.000000	42.283775
2602.000000	42.268579
2601.000000	42.251448
2600.000000	42.233068
2599.000000	42.214401
2598.000000	42.195994
2597.000000	42.178500
2596.000000	42.163318
2595.000000	42.151877
2594.000000	42.144734
2593.000000	42.142139
2592.000000	42.145325
2591.000000	42.156073
2590.000000	42.175634
2589.000000	42.204858
2588.000000	42.244498
2587.000000	42.295012
2586.000000	42.355730
2585.000000	42.425227
2584.000000	42.502391
2583.000000	42.585949
2582.000000	42.674037
2581.000000	42.764696
2580.000000	42.856756
2579.000000	42.949681
2578.000000	43.042611
2577.000000	43.134771
2576.000000	43.226250
2575.000000	43.317471
2574.000000	43.408193
2573.000000	43.497883
2572.000000	43.586769
2571.000000	43.675515
2570.000000	43.764126
2569.000000	43.852108
2568.000000	43.939489
2567.000000	44.026578
2566.000000	44.112936
2565.000000	44.197583
2564.000000	44.279910
2563.000000	44.359585
2562.000000	44.435854
2561.000000	44.508143
2560.000000	44.577216
2559.000000	44.644482
2558.000000	44.710579
2557.000000	44.775500
2556.000000	44.839782
2555.000000	44.904409
2554.000000	44.969544
2553.000000	45.034541
2552.000000	45.098890
2551.000000	45.162106
2550.000000	45.223189
2549.000000	45.281304
2548.000000	45.336874
2547.000000	45.390754
2546.000000	45.442587
2545.000000	45.491248
2544.000000	45.536280
2543.000000	45.577857
2542.000000	45.615698
2541.000000	45.649273
2540.000000	45.679051
2539.000000	45.705833
2538.000000	45.729297
2537.000000	45.748319
2536.000000	45.762115
2535.000000	45.770167
2534.000000	45.770926
2533.000000	45.762446
2532.000000	45.744233
2531.000000	45.717035
2530.000000	45.681771
2529.000000	45.639462
2528.000000	45.592136
2527.000000	45.542599
2526.000000	45.493305
2525.000000	45.446750
2524.000000	45.406184
2523.000000	45.374603
2522.000000	45.353273
2521.000000	45.342586
2520.000000	45.343286
2519.000000	45.356061
2518.000000	45.380443
2517.000000	45.415044
2516.000000	45.459186
2515.000000	45.512229
2514.000000	45.572412
2513.000000	45.637814
2512.000000	45.707598
2511.000000	45.781740
2510.000000	45.859427
2509.000000	45.939364
2508.000000	46.021188
2507.000000	46.104757
2506.000000	46.188724
2505.000000	46.271115
2504.000000	46.350970
2503.000000	46.427869
2502.000000	46.500405
2501.000000	46.566858
2500.000000	46.627344
2499.000000	46.683713
2498.000000	46.737362
2497.000000	46.788897
2496.000000	46.839229
2495.000000	46.889352
2494.000000	46.939147
2493.000000	46.987836
2492.000000	47.035594
2491.000000	47.083051
2490.000000	47.129660
2489.000000	47.174148
2488.000000	47.216145
2487.000000	47.255939
2486.000000	47.292894
2485.000000	47.325861
2484.000000	47.354915
2483.000000	47.380906
2482.000000	47.404058
2481.000000	47.424679
2480.000000	47.444821
2479.000000	47.467373
2478.000000	47.493597
2477.000000	47.523123
2476.000000	47.555623
2475.000000	47.590586
2474.000000	47.625921
2473.000000	47.658896
2472.000000	47.688356
2471.000000	47.714431
2470.000000	47.736647
2469.000000	47.754445
2468.000000	47.769066
2467.000000	47.782865
2466.000000	47.796930
2465.000000	47.811179
2464.000000	47.826472
2463.000000	47.844461
2462.000000	47.865633
2461.000000	47.889452
2460.000000	47.916195
2459.000000	47.946545
2458.000000	47.979566
2457.000000	48.012851
2456.000000	48.044438
2455.000000	48.072859
2454.000000	48.095976
2453.000000	48.112169
2452.000000	48.122659
2451.000000	48.130728
2450.000000	48.138740
2449.000000	48.147860
2448.000000	48.160015
2447.000000	48.177651
2446.000000	48.201393
2445.000000	48.229900
2444.000000	48.261788
2443.000000	48.295980
2442.000000	48.330480
2441.000000	48.362988
2440.000000	48.392786
2439.000000	48.420143
2438.000000	48.444170
2437.000000	48.463202
2436.000000	48.477149
2435.000000	48.487441
2434.000000	48.495180
2433.000000	48.501416
2432.000000	48.508871
2431.000000	48.521120
2430.000000	48.540074
2429.000000	48.565887
2428.000000	48.598692
2427.000000	48.638105
2426.000000	48.681192
2425.000000	48.723410
2424.000000	48.761640
2423.000000	48.794737
2422.000000	48.821797
2421.000000	48.842296
2420.000000	48.857727
2419.000000	48.870800
2418.000000	48.883090
2417.000000	48.895357
2416.000000	48.909709
2415.000000	48.928976
2414.000000	48.954166
2413.000000	48.984563
2412.000000	49.019916
2411.000000	49.060045
2410.000000	49.102684
2409.000000	49.144123
2408.000000	49.181969
2407.000000	49.215255
2406.000000	49.242418
2405.000000	49.261891
2404.000000	49.274721
2403.000000	49.284328
2402.000000	49.293668
2401.000000	49.304799
2400.000000	49.320538
2399.000000	49.343767
2398.000000	49.374886
2397.000000	49.412179
2396.000000	49.454331
2395.000000	49.500441
2394.000000	49.547984
2393.000000	49.593442
2392.000000	49.635169
2391.000000	49.673306
2390.000000	49.707290
2389.000000	49.735893
2388.000000	49.759790
2387.000000	49.781522
2386.000000	49.803189
2385.000000	49.826491
2384.000000	49.854507
2383.000000	49.890968
2382.000000	49.937286
2381.000000	49.992587
2380.000000	50.056194
2379.000000	50.127354
2378.000000	50.203024
2377.000000	50.278212
2376.000000	50.349926
2375.000000	50.417417
2374.000000	50.479426
2373.000000	50.534209
2372.000000	50.582261
2371.000000	50.626781
2370.000000	50.670103
2369.000000	50.712458
2368.000000	50.755752
2367.000000	50.804661
2366.000000	50.861222
2365.000000	50.921510
2364.000000	50.983895
2363.000000	51.052052
2362.000000	51.122474
2361.000000	51.189375
2360.000000	51.252033
2359.000000	51.309188
2358.000000	51.362589
2357.000000	51.407826
2356.000000	51.444881
2355.000000	51.480640
2354.000000	51.516712
2353.000000	51.557035
2352.000000	51.608767
2351.000000	51.690248
2350.000000	51.801508
2349.000000	51.910320
2348.000000	51.989980
2347.000000	52.033733
2346.000000	52.069846
2345.000000	52.124212
2344.000000	52.200315
2343.000000	52.282970
2342.000000	52.348308
2341.000000	52.399674
2340.000000	52.444186
2339.000000	52.490062
2338.000000	52.538425
2337.000000	52.589463
2336.000000	52.644268
2335.000000	52.706846
2334.000000	52.774737
2333.000000	52.846343
2332.000000	52.917365
2331.000000	52.991381
2330.000000	53.067397
2329.000000	53.136594
2328.000000	53.201308
2327.000000	53.257007
2326.000000	53.307557
2325.000000	53.350081
2324.000000	53.389898
2323.000000	53.437394
2322.000000	53.491281
2321.000000	53.551435
2320.000000	53.611698
2319.000000	53.676154
2318.000000	53.742730
2317.000000	53.809522
2316.000000	53.873575
2315.000000	53.935173
2314.000000	53.994206
2313.000000	54.048602
2312.000000	54.098654
2311.000000	54.144482
2310.000000	54.186714
2309.000000	54.224281
2308.000000	54.260735
2307.000000	54.300675
2306.000000	54.346867
2305.000000	54.398860
2304.000000	54.456354
2303.000000	54.519896
2302.000000	54.586651
2301.000000	54.652271
2300.000000	54.714499
2299.000000	54.772764
2298.000000	54.825689
2297.000000	54.870647
2296.000000	54.909678
2295.000000	54.946286
2294.000000	54.983255
2293.000000	55.019945
2292.000000	55.058171
2291.000000	55.100716
2290.000000	55.148650
2289.000000	55.200530
2288.000000	55.256226
2287.000000	55.316533
2286.000000	55.379306
2285.000000	55.440059
2284.000000	55.495805
2283.000000	55.545758
2282.000000	55.587909
2281.000000	55.620617
2280.000000	55.645993
2279.000000	55.669396
2278.000000	55.694032
2277.000000	55.721162
2276.000000	55.753164
2275.000000	55.792966
2274.000000	55.840119
2273.000000	55.891188
2272.000000	55.944477
2271.000000	55.999530
2270.000000	56.053412
2269.000000	56.101379
2268.000000	56.141566
2267.000000	56.174943
2266.000000	56.201062
2265.000000	56.218299
2264.000000	56.228525
2263.000000	56.236302
2262.000000	56.244728
2261.000000	56.255078
2260.000000	56.270585
2259.000000	56.295510
2258.000000	56.329755
2257.000000	56.369613
2256.000000	56.412073
2255.000000	56.455386
2254.000000	56.494818
2253.000000	56.524069
2252.000000	56.540746
2251.000000	56.546648
2250.000000	56.542927
2249.000000	56.529830
2248.000000	56.510801
2247.000000	56.491407
2246.000000	56.474723
2245.000000	56.461027
2244.000000	56.452458
2243.000000	56.452478
2242.000000	56.460901
2241.000000	56.473750
2240.000000	56.487961
2239.000000	56.501738
2238.000000	56.510658
2237.000000	56.508505
2236.000000	56.492604
2235.000000	56.464337
2234.000000	56.424879
2233.000000	56.375278
2232.000000	56.320243
2231.000000	56.267014
2230.000000	56.219896
2229.000000	56.180060
2228.000000	56.149671
2227.000000	56.131328
2226.000000	56.123408
2225.000000	56.120626
2224.000000	56.119286
2223.000000	56.117658
2222.000000	56.111817
2221.000000	56.096243
2220.000000	56.069030
2219.000000	56.032096
2218.000000	55.986710
2217.000000	55.933492
2216.000000	55.876806
2215.000000	55.824083
2214.000000	55.780510
2213.000000	55.748137
2212.000000	55.729427
2211.000000	55.726594
2210.000000	55.737212
2209.000000	55.755057
2208.000000	55.775344
2207.000000	55.795373
2206.000000	55.810759
2205.000000	55.816375
2204.000000	55.811208
2203.000000	55.797954
2202.000000	55.778193
2201.000000	55.752683
2200.000000	55.725787
2199.000000	55.704412
2198.000000	55.692406
2197.000000	55.690373
2196.000000	55.700401
2195.000000	55.725447
2194.000000	55.763892
2193.000000	55.809328
2192.000000	55.856028
2191.000000	55.900141
2190.000000	55.936304
2189.000000	55.958684
2188.000000	55.966189
2187.000000	55.962250
2186.000000	55.949541
2185.000000	55.929708
2184.000000	55.907568
2183.000000	55.890095
2182.000000	55.880726
2181.000000	55.879295
2180.000000	55.886888
2179.000000	55.905571
2178.000000	55.933364
2177.000000	55.964557
2176.000000	55.995127
2175.000000	56.023045
2174.000000	56.043686
2173.000000	56.050762
2172.000000	56.042643
2171.000000	56.023056
2170.000000	55.995704
2169.000000	55.963218
2168.000000	55.931056
2167.000000	55.906557
2166.000000	55.893458
2165.000000	55.891584
2164.000000	55.901432
2163.000000	55.923860
2162.000000	55.955277
2161.000000	55.988501
2160.000000	56.018856
2159.000000	56.044967
2158.000000	56.063995
2157.000000	56.071887
2156.000000	56.068553
2155.000000	56.057683
2154.000000	56.041361
2153.000000	56.019960
2152.000000	55.997135
2151.000000	55.979470
2150.000000	55.970846
2149.000000	55.971722
2148.000000	55.983429
2147.000000	56.007470
2146.000000	56.040431
2145.000000	56.074743
2144.000000	56.104947
2143.000000	56.128632
2142.000000	56.142239
2141.000000	56.141966
2140.000000	56.129249
2139.000000	56.110065
2138.000000	56.088580
2137.000000	56.066375
2136.000000	56.047218
2135.000000	56.036596
2134.000000	56.036034
2133.000000	56.043211
2132.000000	56.057443
2131.000000	56.079761
2130.000000	56.107717
2129.000000	56.135693
2128.000000	56.160542
2127.000000	56.181841
2126.000000	56.196975
2125.000000	56.201779
2124.000000	56.196400
2123.000000	56.185247
2122.000000	56.171322
2121.000000	56.155913
2120.000000	56.143501
2119.000000	56.140849
2118.000000	56.150878
2117.000000	56.172214
2116.000000	56.203919
2115.000000	56.245104
2114.000000	56.290488
2113.000000	56.332610
2112.000000	56.368916
2111.000000	56.401381
2110.000000	56.429858
2109.000000	56.452154
2108.000000	56.470178
2107.000000	56.489519
2106.000000	56.512748
2105.000000	56.539246
2104.000000	56.571380
2103.000000	56.614333
2102.000000	56.669604
2101.000000	56.734539
2100.000000	56.808158
2099.000000	56.891077
2098.000000	56.979420
2097.000000	57.065398
2096.000000	57.144392
2095.000000	57.215761
2094.000000	57.277748
2093.000000	57.328525
2092.000000	57.372030
2091.000000	57.415750
2090.000000	57.462479
2089.000000	57.510502
2088.000000	57.561177
2087.000000	57.618778
2086.000000	57.682809
2085.000000	57.747699
2084.000000	57.810253
2083.000000	57.870617
2082.000000	57.925846
2081.000000	57.970122
2080.000000	58.001776
2079.000000	58.023164
2078.000000	58.033923
2077.000000	58.031685
2076.000000	58.019255
2075.000000	58.003889
2074.000000	57.989258
2073.000000	57.975204
2072.000000	57.965064
2071.000000	57.964585
2070.000000	57.973144
2069.000000	57.984280
2068.000000	57.995745
2067.000000	58.011007
2066.000000	58.029526
2065.000000	58.043888
2064.000000	58.049168
2063.000000	58.047740
2062.000000	58.043295
2061.000000	58.037588
2060.000000	58.034323
2059.000000	58.039374
2058.000000	58.055246
2057.000000	58.081020
2056.000000	58.118142
2055.000000	58.169810
2054.000000	58.234449
2053.000000	58.306059
2052.000000	58.381494
2051.000000	58.460980
2050.000000	58.541109
2049.000000	58.615520
2048.000000	58.683300
2047.000000	58.748689
2046.000000	58.812645
2045.000000	58.873300
2044.000000	58.935241
2043.000000	59.008920
2042.000000	59.099125
2041.000000	59.202445
2040.000000	59.316831
2039.000000	59.444700
2038.000000	59.585069
2037.000000	59.731167
2036.000000	59.878043
2035.000000	60.024632
2034.000000	60.167159
2033.000000	60.299254
2032.000000	60.420249
2031.000000	60.535715
2030.000000	60.648578
2029.000000	60.757852
2028.000000	60.866761
2027.000000	60.983000
2026.000000	61.109696
2025.000000	61.244220
2024.000000	61.386773
2023.000000	61.540218
2022.000000	61.700034
2021.000000	61.855529
2020.000000	62.003349
2019.000000	62.149335
2018.000000	62.293897
2017.000000	62.426739
2016.000000	62.540318
2015.000000	62.637852
2014.000000	62.725034
2013.000000	62.804713
2012.000000	62.882644
2011.000000	62.968002
2010.000000	63.064716
2009.000000	63.170186
2008.000000	63.283559
2007.000000	63.406488
2006.000000	63.534767
2005.000000	63.658478
2004.000000	63.772629
2003.000000	63.878551
2002.000000	63.974409
2001.000000	64.054574
2000.000000	64.119425
1999.000000	64.177391
1998.000000	64.233146
1997.000000	64.282101
1996.000000	64.321398
1995.000000	64.359035
1994.000000	64.408163
1993.000000	64.475122
1992.000000	64.556482
1991.000000	64.645653
1990.000000	64.737224
1989.000000	64.827851
1988.000000	64.916387
1987.000000	64.999643
1986.000000	65.069337
1985.000000	65.119054
1984.000000	65.152690
1983.000000	65.179182
1982.000000	65.202010
1981.000000	65.221285
1980.000000	65.242172
1979.000000	65.273070
1978.000000	65.315839
1977.000000	65.365811
1976.000000	65.421555
1975.000000	65.486253
1974.000000	65.559096
1973.000000	65.632801
1972.000000	65.700075
1971.000000	65.756244
1970.000000	65.797944
1969.000000	65.827116
1968.000000	65.851830
1967.000000	65.875352
1966.000000	65.890440
1965.000000	65.891834
1964.000000	65.889394
1963.000000	65.899994
1962.000000	65.929058
1961.000000	65.969670
1960.000000	66.017040
1959.000000	66.071566
1958.000000	66.129370
1957.000000	66.183053
1956.000000	66.231097
1955.000000	66.275616
1954.000000	66.312507
1953.000000	66.335479
1952.000000	66.347712
1951.000000	66.356562
1950.000000	66.362033
1949.000000	66.363515
1948.000000	66.369088
1947.000000	66.384104
1946.000000	66.399197
1945.000000	66.407506
1944.000000	66.425324
1943.000000	66.470643
1942.000000	66.531590
1941.000000	66.582298
1940.000000	66.616372
1939.000000	66.644239
1938.000000	66.667999
1937.000000	66.677635
1936.000000	66.671370
1935.000000	66.660778
1934.000000	66.652353
1933.000000	66.642897
1932.000000	66.634572
1931.000000	66.635165
1930.000000	66.645708
1929.000000	66.661494
1928.000000	66.680898
1927.000000	66.701506
1926.000000	66.713746
1925.000000	66.720726
1924.000000	66.746956
1923.000000	66.799889
1922.000000	66.846662
1921.000000	66.849395
1920.000000	66.812412
1919.000000	66.774295
1918.000000	66.750069
1917.000000	66.722071
1916.000000	66.687442
1915.000000	66.663589
1914.000000	66.655225
1913.000000	66.650106
1912.000000	66.644149
1911.000000	66.647416
1910.000000	66.660694
1909.000000	66.668147
1908.000000	66.661722
1907.000000	66.650137
1906.000000	66.636970
1905.000000	66.617147
1904.000000	66.593974
1903.000000	66.576419
1902.000000	66.563308
1901.000000	66.545869
1900.000000	66.524769
1899.000000	66.508254
1898.000000	66.495769
1897.000000	66.485550
1896.000000	66.491063
1895.000000	66.523436
1894.000000	66.565423
1893.000000	66.586317
1892.000000	66.582280
1891.000000	66.579643
1890.000000	66.588195
1889.000000	66.586395
1888.000000	66.566133
1887.000000	66.546202
1886.000000	66.539192
1885.000000	66.540287
1884.000000	66.544851
1883.000000	66.554887
1882.000000	66.567251
1881.000000	66.573224
1880.000000	66.573582
1879.000000	66.578415
1878.000000	66.586915
1877.000000	66.587972
1876.000000	66.586656
1875.000000	66.602426
1874.000000	66.633946
1873.000000	66.651039
1872.000000	66.628085
1871.000000	66.576345
1870.000000	66.532432
1869.000000	66.507540
1868.000000	66.487770
1867.000000	66.473068
1866.000000	66.465546
1865.000000	66.457101
1864.000000	66.447286
1863.000000	66.442467
1862.000000	66.436833
1861.000000	66.416147
1860.000000	66.381766
1859.000000	66.349210
1858.000000	66.322294
1857.000000	66.291197
1856.000000	66.256874
1855.000000	66.232449
1854.000000	66.220112
1853.000000	66.206405
1852.000000	66.182853
1851.000000	66.162358
1850.000000	66.163263
1849.000000	66.181178
1848.000000	66.189124
1847.000000	66.155865
1846.000000	66.076985
1845.000000	65.987822
1844.000000	65.916891
1843.000000	65.863281
1842.000000	65.814918
1841.000000	65.757842
1840.000000	65.696793
1839.000000	65.650783
1838.000000	65.619930
1837.000000	65.592269
1836.000000	65.575634
1835.000000	65.584569
1834.000000	65.601380
1833.000000	65.579730
1832.000000	65.507555
1831.000000	65.435824
1830.000000	65.388611
1829.000000	65.328735
1828.000000	65.236055
1827.000000	65.130492
1826.000000	65.037587
1825.000000	64.954909
1824.000000	64.870580
1823.000000	64.795943
1822.000000	64.739876
1821.000000	64.689952
1820.000000	64.638639
1819.000000	64.596960
1818.000000	64.568664
1817.000000	64.537962
1816.000000	64.493972
1815.000000	64.441583
1814.000000	64.379841
1813.000000	64.296623
1812.000000	64.195365
1811.000000	64.094460
1810.000000	63.997889
1809.000000	63.899780
1808.000000	63.811745
1807.000000	63.754038
1806.000000	63.721779
1805.000000	63.689707
1804.000000	63.648252
1803.000000	63.611219
1802.000000	63.582185
1801.000000	63.536341
1800.000000	63.463331
1799.000000	63.391430
1798.000000	63.343386
1797.000000	63.307310
1796.000000	63.256772
1795.000000	63.170047
1794.000000	63.046904
1793.000000	62.911676
1792.000000	62.786279
1791.000000	62.690153
1790.000000	62.633522
1789.000000	62.599114
1788.000000	62.569392
1787.000000	62.546176
1786.000000	62.529589
1785.000000	62.502975
1784.000000	62.451792
1783.000000	62.382886
1782.000000	62.310957
1781.000000	62.233826
1780.000000	62.145373
1779.000000	62.059759
1778.000000	61.992540
1777.000000	61.934347
1776.000000	61.860878
1775.000000	61.757875
1774.000000	61.654965
1773.000000	61.594386
1772.000000	61.550351
1771.000000	61.484804
1770.000000	61.403617
1769.000000	61.322818
1768.000000	61.261202
1767.000000	61.225820
1766.000000	61.195440
1765.000000	61.128388
1764.000000	61.005728
1763.000000	60.863620
1762.000000	60.736745
1761.000000	60.619124
1760.000000	60.507045
1759.000000	60.410133
1758.000000	60.339408
1757.000000	60.291734
1756.000000	60.245640
1755.000000	60.193571
1754.000000	60.131482
1753.000000	60.047398
1752.000000	59.948564
1751.000000	59.848806
1750.000000	59.741085
1749.000000	59.610753
1748.000000	59.456881
1747.000000	59.297508
1746.000000	59.151644
1745.000000	59.022642
1744.000000	58.908062
1743.000000	58.798722
1742.000000	58.669917
1741.000000	58.517150
1740.000000	58.381672
1739.000000	58.289801
1738.000000	58.213617
1737.000000	58.068482
1736.000000	57.802194
1735.000000	57.514789
1734.000000	57.269243
1733.000000	57.030814
1732.000000	56.822127
1731.000000	56.650528
1730.000000	56.479134
1729.000000	56.279588
1728.000000	56.057263
1727.000000	55.844114
1726.000000	55.648806
1725.000000	55.456573
1724.000000	55.277278
1723.000000	55.137785
1722.000000	55.015523
1721.000000	54.827914
1720.000000	54.521652
1719.000000	54.169706
1718.000000	53.845009
1717.000000	53.504950
1716.000000	53.146243
1715.000000	52.821107
1714.000000	52.526485
1713.000000	52.235437
1712.000000	51.953854
1711.000000	51.707840
1710.000000	51.494158
1709.000000	51.270763
1708.000000	51.005132
1707.000000	50.719151
1706.000000	50.444812
1705.000000	50.175832
1704.000000	49.931493
1703.000000	49.686975
1702.000000	49.332161
1701.000000	48.822118
1700.000000	48.215675
1699.000000	47.670411
1698.000000	47.266430
1697.000000	46.907550
1696.000000	46.514739
1695.000000	46.122772
1694.000000	45.805866
1693.000000	45.549470
1692.000000	45.293159
1691.000000	45.015807
1690.000000	44.714565
1689.000000	44.384271
1688.000000	44.048013
1687.000000	43.703700
1686.000000	43.312355
1685.000000	42.850214
1684.000000	42.266947
1683.000000	41.668086
1682.000000	41.221644
1681.000000	40.895379
1680.000000	40.611237
1679.000000	40.340215
1678.000000	40.056125
1677.000000	39.708401
1676.000000	39.272074
1675.000000	38.796423
1674.000000	38.372936
1673.000000	38.031372
1672.000000	37.706790
1671.000000	37.330715
1670.000000	36.869902
1669.000000	36.344442
1668.000000	35.853157
1667.000000	35.478426
1666.000000	35.191048
1665.000000	34.897533
1664.000000	34.540693
1663.000000	34.129391
1662.000000	33.707325
1661.000000	33.322438
1660.000000	32.997845
1659.000000	32.740482
1658.000000	32.532545
1657.000000	32.344939
1656.000000	32.108367
1655.000000	31.761888
1654.000000	31.294243
1653.000000	30.661649
1652.000000	30.087383
1651.000000	29.838414
1650.000000	29.773412
1649.000000	29.674535
1648.000000	29.458136
1647.000000	29.122023
1646.000000	28.733033
1645.000000	28.398375
1644.000000	28.165075
1643.000000	28.003898
1642.000000	27.870719
1641.000000	27.730605
1640.000000	27.580467
1639.000000	27.437363
1638.000000	27.287888
1637.000000	27.084977
1636.000000	26.781633
1635.000000	26.428512
1634.000000	26.162202
1633.000000	26.023825
1632.000000	25.961060
1631.000000	25.923246
1630.000000	25.874139
1629.000000	25.792422
1628.000000	25.685690
1627.000000	25.587963
1626.000000	25.514416
1625.000000	25.439940
1624.000000	25.341915
1623.000000	25.231926
1622.000000	25.145973
1621.000000	25.107121
1620.000000	25.102848
1619.000000	25.106585
1618.000000	25.104753
1617.000000	25.086059
1616.000000	25.055026
1615.000000	25.059995
1614.000000	25.124807
1613.000000	25.219280
1612.000000	25.311395
1611.000000	25.390308
1610.000000	25.458556
1609.000000	25.519714
1608.000000	25.578574
1607.000000	25.644287
1606.000000	25.723789
1605.000000	25.814206
1604.000000	25.910699
1603.000000	26.016462
1602.000000	26.134358
1601.000000	26.259049
1600.000000	26.385727
1599.000000	26.516725
1598.000000	26.652204
1597.000000	26.783932
1596.000000	26.905411
1595.000000	27.018484
1594.000000	27.125716
1593.000000	27.225981
1592.000000	27.321181
1591.000000	27.418453
1590.000000	27.521468
1589.000000	27.627474
1588.000000	27.736118
1587.000000	27.851689
1586.000000	27.975406
1585.000000	28.102465
1584.000000	28.227622
1583.000000	28.352843
1582.000000	28.482313
1581.000000	28.608238
1580.000000	28.714086
1579.000000	28.788252
1578.000000	28.837284
1577.000000	28.881793
1576.000000	28.924645
1575.000000	28.981595
1574.000000	29.090353
1573.000000	29.241335
1572.000000	29.390097
1571.000000	29.516849
1570.000000	29.624322
1569.000000	29.714916
1568.000000	29.807273
1567.000000	29.924505
1566.000000	30.065111
1565.000000	30.216739
1564.000000	30.367447
1563.000000	30.527468
1562.000000	30.692028
1561.000000	30.787759
1560.000000	30.866362
1559.000000	30.917368
1558.000000	30.873912
1557.000000	30.896802
1556.000000	31.033841
1555.000000	31.231364
1554.000000	31.456524
1553.000000	31.681354
1552.000000	31.900010
1551.000000	32.126309
1550.000000	32.368220
1549.000000	32.609248
1548.000000	32.838188
1547.000000	33.060619
1546.000000	33.292534
1545.000000	33.539142
1544.000000	33.776632
1543.000000	33.973464
1542.000000	34.137564
1541.000000	34.343462
1540.000000	34.617727
1539.000000	34.934071
1538.000000	35.303444
1537.000000	35.704399
1536.000000	36.092508
1535.000000	36.470318
1534.000000	36.870109
1533.000000	37.262469
1532.000000	37.616931
1531.000000	37.968615
1530.000000	38.336115
1529.000000	38.705116
1528.000000	39.075929
1527.000000	39.471870
1526.000000	39.893408
1525.000000	40.299170
1524.000000	40.661481
1523.000000	41.036468
1522.000000	41.513502
1521.000000	42.054520
1520.000000	42.552780
1519.000000	42.992248
1518.000000	43.421982
1517.000000	43.863551
1516.000000	44.280718
1515.000000	44.655516
1514.000000	45.011600
1513.000000	45.367530
1512.000000	45.731833
1511.000000	46.094267
1510.000000	46.418987
1509.000000	46.684856
1508.000000	47.013534
1507.000000	47.472346
1506.000000	47.934622
1505.000000	48.369054
1504.000000	48.815939
1503.000000	49.290963
1502.000000	49.787497
1501.000000	50.270608
1500.000000	50.695915
1499.000000	51.066573
1498.000000	51.429590
1497.000000	51.812933
1496.000000	52.220342
1495.000000	52.658665
1494.000000	53.105706
1493.000000	53.507609
1492.000000	53.857586
1491.000000	54.229635
1490.000000	54.646654
1489.000000	55.021509
1488.000000	55.321676
1487.000000	55.598309
1486.000000	55.861738
1485.000000	56.075595
1484.000000	56.229335
1483.000000	56.351942
1482.000000	56.450012
1481.000000	56.489493
1480.000000	56.464262
1479.000000	56.398827
1478.000000	56.272968
1477.000000	56.029389
1476.000000	55.657011
1475.000000	55.168876
1474.000000	54.502833
1473.000000	53.526577
1472.000000	52.244335
1471.000000	50.854977
1470.000000	49.445318
1469.000000	47.913504
1468.000000	46.154247
1467.000000	44.074196
1466.000000	41.528569
1465.000000	38.477610
1464.000000	35.242196
1463.000000	32.277145
1462.000000	29.702544
1461.000000	27.379081
1460.000000	25.191578
1459.000000	23.064304
1458.000000	20.860877
1457.000000	18.606223
1456.000000	16.772839
1455.000000	15.691862
1454.000000	15.143426
1453.000000	14.846520
1452.000000	14.734421
1451.000000	14.833525
1450.000000	15.136867
1449.000000	15.633603
1448.000000	16.351307
1447.000000	17.271344
1446.000000	18.313479
1445.000000	19.433623
1444.000000	20.648776
1443.000000	21.961784
1442.000000	23.325143
1441.000000	24.682389
1440.000000	26.008697
1439.000000	27.323562
1438.000000	28.706876
1437.000000	30.241717
1436.000000	31.842899
1435.000000	33.321063
1434.000000	34.638458
1433.000000	35.888614
1432.000000	37.132235
1431.000000	38.350762
1430.000000	39.498821
1429.000000	40.549044
1428.000000	41.474249
1427.000000	42.254743
1426.000000	42.927147
1425.000000	43.557466
1424.000000	44.144686
1423.000000	44.635289
1422.000000	45.023887
1421.000000	45.357533
1420.000000	45.694077
1419.000000	46.057457
1418.000000	46.434460
1417.000000	46.828143
1416.000000	47.237411
1415.000000	47.650013
1414.000000	48.075591
1413.000000	48.528251
1412.000000	48.991742
1411.000000	49.435401
1410.000000	49.853634
1409.000000	50.252711
1408.000000	50.614907
1407.000000	50.914934
1406.000000	51.168776
1405.000000	51.413628
1404.000000	51.647461
1403.000000	51.850657
1402.000000	52.032186
1401.000000	52.217567
1400.000000	52.414300
1399.000000	52.604949
1398.000000	52.780498
1397.000000	52.949394
1396.000000	53.099821
1395.000000	53.201184
1394.000000	53.253235
1393.000000	53.281008
1392.000000	53.275811
1391.000000	53.199617
1390.000000	53.032139
1389.000000	52.768975
1388.000000	52.399312
1387.000000	51.943086
1386.000000	51.516754
1385.000000	51.278827
1384.000000	51.308251
1383.000000	51.579765
1382.000000	51.993049
1381.000000	52.411444
1380.000000	52.716852
1379.000000	52.856754
1378.000000	52.852073
1377.000000	52.751684
1376.000000	52.584249
1375.000000	52.363775
1374.000000	52.114454
1373.000000	51.866684
1372.000000	51.632198
1371.000000	51.398610
1370.000000	51.159750
1369.000000	50.920620
1368.000000	50.675154
1367.000000	50.413401
1366.000000	50.132911
1365.000000	49.824337
1364.000000	49.465937
1363.000000	49.042523
1362.000000	48.569019
1361.000000	48.084243
1360.000000	47.615004
1359.000000	47.174369
1358.000000	46.787331
1357.000000	46.485301
1356.000000	46.284084
1355.000000	46.183888
1354.000000	46.173845
1353.000000	46.219930
1352.000000	46.262173
1351.000000	46.236586
1350.000000	46.097941
1349.000000	45.815151
1348.000000	45.358705
1347.000000	44.712521
1346.000000	43.882715
1345.000000	42.885023
1344.000000	41.735176
1343.000000	40.449141
1342.000000	39.040371
1341.000000	37.512001
1340.000000	35.868830
1339.000000	34.148349
1338.000000	32.409915
1337.000000	30.682798
1336.000000	28.956680
1335.000000	27.224160
1334.000000	25.501213
1333.000000	23.809736
1332.000000	22.173189
1331.000000	20.631986
1330.000000	19.234004
1329.000000	18.002056
1328.000000	16.931493
1327.000000	16.008620
1326.000000	15.210441
1325.000000	14.500174
1324.000000	13.844284
1323.000000	13.235550
1322.000000	12.681660
1321.000000	12.183361
1320.000000	11.747005
1319.000000	11.402412
1318.000000	11.191128
1317.000000	11.140501
1316.000000	11.261987
1315.000000	11.565688
1314.000000	12.050230
1313.000000	12.692994
1312.000000	13.464229
1311.000000	14.341390
1310.000000	15.307246
1309.000000	16.338288
1308.000000	17.408749
1307.000000	18.499040
1306.000000	19.591287
1305.000000	20.665229
1304.000000	21.703766
1303.000000	22.699780
1302.000000	23.652530
1301.000000	24.559254
1300.000000	25.412288
1299.000000	26.203659
1298.000000	26.926767
1297.000000	27.575764
1296.000000	28.154371
1295.000000	28.687065
1294.000000	29.216913
1293.000000	29.787541
1292.000000	30.426619
1291.000000	31.143324
1290.000000	31.931754
1289.000000	32.771190
1288.000000	33.627229
1287.000000	34.459635
1286.000000	35.231980
1285.000000	35.910475
1284.000000	36.460834
1283.000000	36.855244
1282.000000	37.078137
1281.000000	37.125494
1280.000000	36.998197
1279.000000	36.708138
1278.000000	36.288772
1277.000000	35.787092
1276.000000	35.255532
1275.000000	34.754229
1274.000000	34.350133
1273.000000	34.103435
1272.000000	34.057392
1271.000000	34.235819
1270.000000	34.644132
1269.000000	35.267528
1268.000000	36.068967
1267.000000	37.003473
1266.000000	38.027957
1265.000000	39.101029
1264.000000	40.181926
1263.000000	41.235597
1262.000000	42.242700
1261.000000	43.193866
1260.000000	44.075432
1259.000000	44.871484
1258.000000	45.579370
1257.000000	46.205500
1256.000000	46.750421
1255.000000	47.210573
1254.000000	47.588372
1253.000000	47.891060
1252.000000	48.115223
1251.000000	48.250207
1250.000000	48.294842
1249.000000	48.253826
1248.000000	48.127296
1247.000000	47.913045
1246.000000	47.618627
1245.000000	47.258049
1244.000000	46.835494
1243.000000	46.350061
1242.000000	45.807266
1241.000000	45.215320
1240.000000	44.577297
1239.000000	43.896017
1238.000000	43.185540
1237.000000	42.465602
1236.000000	41.750631
1235.000000	41.053185
1234.000000	40.390773
1233.000000	39.779323
1232.000000	39.225985
1231.000000	38.735562
1230.000000	38.316225
1229.000000	37.976681
1228.000000	37.719103
1227.000000	37.542274
1226.000000	37.447514
1225.000000	37.432142
1224.000000	37.487203
1223.000000	37.601958
1222.000000	37.769134
1221.000000	37.984124
1220.000000	38.239187
1219.000000	38.528152
1218.000000	38.850549
1217.000000	39.206599
1216.000000	39.592357
1215.000000	40.001677
1214.000000	40.432334
1213.000000	40.882813
1212.000000	41.345931
1211.000000	41.813152
1210.000000	42.281971
1209.000000	42.753394
1208.000000	43.224219
1207.000000	43.689259
1206.000000	44.148978
1205.000000	44.606772
1204.000000	45.060382
1203.000000	45.504477
1202.000000	45.940336
1201.000000	46.374389
1200.000000	46.809329
1199.000000	47.245435
1198.000000	47.688132
1197.000000	48.143894
1196.000000	48.609302
1195.000000	49.073640
1194.000000	49.530379
1193.000000	49.976522
1192.000000	50.404237
1191.000000	50.805016
1190.000000	51.182151
1189.000000	51.547333
1188.000000	51.905829
1187.000000	52.256745
1186.000000	52.603922
1185.000000	52.954160
1184.000000	53.305200
1183.000000	53.647318
1182.000000	53.977364
1181.000000	54.299545
1180.000000	54.614668
1179.000000	54.920596
1178.000000	55.219957
1177.000000	55.514411
1176.000000	55.792160
1175.000000	56.035501
1174.000000	56.239576
1173.000000	56.411014
1172.000000	56.554474
1171.000000	56.673828
1170.000000	56.783214
1169.000000	56.900494
1168.000000	57.029453
1167.000000	57.162665
1166.000000	57.297538
1165.000000	57.435368
1164.000000	57.568752
1163.000000	57.685926
1162.000000	57.786647
1161.000000	57.878632
1160.000000	57.960738
1159.000000	58.025074
1158.000000	58.071858
1157.000000	58.107586
1156.000000	58.131422
1155.000000	58.139989
1154.000000	58.143747
1153.000000	58.162758
1152.000000	58.208202
1151.000000	58.281975
1150.000000	58.389910
1149.000000	58.536927
1148.000000	58.711652
1147.000000	58.891387
1146.000000	59.062180
1145.000000	59.220937
1144.000000	59.361634
1143.000000	59.477756
1142.000000	59.576612
1141.000000	59.674124
1140.000000	59.775796
1139.000000	59.877949
1138.000000	59.984425
1137.000000	60.105688
1136.000000	60.243678
1135.000000	60.394428
1134.000000	60.563130
1133.000000	60.760366
1132.000000	60.983263
1131.000000	61.214860
1130.000000	61.440143
1129.000000	61.647685
1128.000000	61.818634
1127.000000	61.933343
1126.000000	61.991001
1125.000000	62.006163
1124.000000	61.990372
1123.000000	61.951198
1122.000000	61.904125
1121.000000	61.866687
1120.000000	61.839063
1119.000000	61.807855
1118.000000	61.765416
1117.000000	61.709490
1116.000000	61.629427
1115.000000	61.508719
1114.000000	61.341126
1113.000000	61.126425
1112.000000	60.850790
1111.000000	60.492883
1110.000000	60.042242
1109.000000	59.500056
1108.000000	58.866139
1107.000000	58.139680
1106.000000	57.335064
1105.000000	56.472053
1104.000000	55.556134
1103.000000	54.580355
1102.000000	53.535158
1101.000000	52.409103
1100.000000	51.178869
1099.000000	49.818823
1098.000000	48.318462
1097.000000	46.675642
1096.000000	44.889164
1095.000000	42.960955
1094.000000	40.902258
1093.000000	38.732221
1092.000000	36.470479
1091.000000	34.145560
1090.000000	31.797525
1089.000000	29.469966
1088.000000	27.205243
1087.000000	25.047478
1086.000000	23.034874
1085.000000	21.190892
1084.000000	19.529724
1083.000000	18.056169
1082.000000	16.766204
1081.000000	15.643485
1080.000000	14.669476
1079.000000	13.833469
1078.000000	13.117627
1077.000000	12.499053
1076.000000	11.960810
1075.000000	11.494789
1074.000000	11.093526
1073.000000	10.742741
1072.000000	10.434667
1071.000000	10.170773
1070.000000	9.948688
1069.000000	9.760429
1068.000000	9.601815
1067.000000	9.476227
1066.000000	9.383446
1065.000000	9.316603
1064.000000	9.275449
1063.000000	9.266688
1062.000000	9.291837
1061.000000	9.345350
1060.000000	9.426426
1059.000000	9.542568
1058.000000	9.696000
1057.000000	9.881490
1056.000000	10.098843
1055.000000	10.354119
1054.000000	10.648844
1053.000000	10.976481
1052.000000	11.334150
1051.000000	11.726435
1050.000000	12.153078
1049.000000	12.607905
1048.000000	13.088934
1047.000000	13.600620
1046.000000	14.144871
1045.000000	14.718081
1044.000000	15.321434
1043.000000	15.961467
1042.000000	16.640880
1041.000000	17.357730
1040.000000	18.111221
1039.000000	18.903868
1038.000000	19.734271
1037.000000	20.595325
1036.000000	21.481441
1035.000000	22.389047
1034.000000	23.312466
1033.000000	24.243030
1032.000000	25.173418
1031.000000	26.099879
1030.000000	27.019657
1029.000000	27.930371
1028.000000	28.832160
1027.000000	29.728695
1026.000000	30.624859
1025.000000	31.524051
1024.000000	32.426632
1023.000000	33.330351
1022.000000	34.232018
1021.000000	35.126980
1020.000000	36.008456
1019.000000	36.869010
1018.000000	37.703649
1017.000000	38.510264
1016.000000	39.286053
1015.000000	40.029330
1014.000000	40.743614
1013.000000	41.435928
1012.000000	42.112220
1011.000000	42.776992
1010.000000	43.437324
1009.000000	44.100304
1008.000000	44.766302
1007.000000	45.430699
1006.000000	46.090091
1005.000000	46.741474
1004.000000	47.376559
1003.000000	47.984404
1002.000000	48.560909
1001.000000	49.107701
1000.000000	49.624871
999.000000	50.112914
998.000000	50.579883
997.000000	51.038706
996.000000	51.496650
995.000000	51.955947
994.000000	52.422155
993.000000	52.901022
992.000000	53.388798
991.000000	53.874472
990.000000	54.350896
989.000000	54.814734
988.000000	55.256982
987.000000	55.666903
986.000000	56.043824
985.000000	56.395224
984.000000	56.725309
983.000000	57.035937
982.000000	57.337775
981.000000	57.646281
980.000000	57.967154
979.000000	58.297403
978.000000	58.638173
977.000000	58.993819
976.000000	59.359128
975.000000	59.720096
974.000000	60.067797
973.000000	60.398379
972.000000	60.702311
971.000000	60.967592
970.000000	61.194020
969.000000	61.392820
968.000000	61.572214
967.000000	61.737910
966.000000	61.904895
965.000000	62.093094
964.000000	62.310731
963.000000	62.553246
962.000000	62.815977
961.000000	63.094285
960.000000	63.372621
959.000000	63.629573
958.000000	63.854349
957.000000	64.046841
956.000000	64.203909
955.000000	64.319965
954.000000	64.401526
953.000000	64.464315
952.000000	64.517666
951.000000	64.565777
950.000000	64.621573
949.000000	64.703965
948.000000	64.821513
947.000000	64.971422
946.000000	65.151542
945.000000	65.357683
944.000000	65.570239
943.000000	65.759658
942.000000	65.906585
941.000000	66.005414
940.000000	66.051362
939.000000	66.043450
938.000000	65.997948
937.000000	65.941651
936.000000	65.891888
935.000000	65.855140
934.000000	65.841449
933.000000	65.862598
932.000000	65.917205
931.000000	65.992939
930.000000	66.082461
929.000000	66.181947
928.000000	66.276038
927.000000	66.340181
926.000000	66.358965
925.000000	66.326862
924.000000	66.235830
923.000000	66.079917
922.000000	65.870897
921.000000	65.635659
920.000000	65.397211
919.000000	65.171897
918.000000	64.979055
917.000000	64.834249
916.000000	64.732923
915.000000	64.653674
914.000000	64.576280
913.000000	64.484822
912.000000	64.357595
911.000000	64.172883
910.000000	63.923978
909.000000	63.614936
908.000000	63.245633
907.000000	62.814131
906.000000	62.333099
905.000000	61.825566
904.000000	61.307161
903.000000	60.787401
902.000000	60.281834
901.000000	59.806898
900.000000	59.362250
899.000000	58.930224
898.000000	58.491055
897.000000	58.025163
896.000000	57.506157
895.000000	56.908133
894.000000	56.220861
893.000000	55.450063
892.000000	54.603189
891.000000	53.689643
890.000000	52.729170
889.000000	51.744536
888.000000	50.749220
887.000000	49.747874
886.000000	48.745878
885.000000	47.747447
884.000000	46.746611
883.000000	45.730355
882.000000	44.687452
881.000000	43.608299
880.000000	42.480952
879.000000	41.295333
878.000000	40.051176
877.000000	38.754964
876.000000	37.414314
875.000000	36.041344
874.000000	34.655907
873.000000	33.280242
872.000000	31.931621
871.000000	30.622020
870.000000	29.358843
869.000000	28.143785
868.000000	26.972167
867.000000	25.836532
866.000000	24.730186
865.000000	23.647360
864.000000	22.585705
863.000000	21.546196
862.000000	20.531007
861.000000	19.544201
860.000000	18.593785
859.000000	17.693885
858.000000	16.860286
857.000000	16.108278
856.000000	15.456730
855.000000	14.923213
854.000000	14.518254
853.000000	14.240739
852.000000	14.078430
851.000000	14.009557
850.000000	14.000551
849.000000	14.016457
848.000000	14.032766
847.000000	14.037936
846.000000	14.029359
845.000000	14.010395
844.000000	13.992053
843.000000	13.989453
842.000000	14.015423
841.000000	14.080898
840.000000	14.196763
839.000000	14.371079
838.000000	14.604471
837.000000	14.891431
836.000000	15.225958
835.000000	15.599003
834.000000	15.994781
833.000000	16.395316
832.000000	16.791206
831.000000	17.191181
830.000000	17.621433
829.000000	18.114580
828.000000	18.689345
827.000000	19.334721
826.000000	20.018221
825.000000	20.710731
824.000000	21.402614
823.000000	22.098345
822.000000	22.803213
821.000000	23.518348
820.000000	24.239461
819.000000	24.956068
818.000000	25.654512
817.000000	26.324117
816.000000	26.958293
815.000000	27.553038
814.000000	28.109248
813.000000	28.635302
812.000000	29.144279
811.000000	29.648163
810.000000	30.157266
809.000000	30.681282
808.000000	31.226200
807.000000	31.791648
806.000000	32.373727
805.000000	32.968000
804.000000	33.567094
803.000000	34.159869
802.000000	34.737720
801.000000	35.298667
800.000000	35.842582
799.000000	36.367543
798.000000	36.873895
797.000000	37.367340
796.000000	37.854419
795.000000	38.340566
794.000000	38.834718
793.000000	39.348631
792.000000	39.887067
791.000000	40.443125
790.000000	41.005054
789.000000	41.561521
788.000000	42.098812
787.000000	42.602186
786.000000	43.064970
785.000000	43.490650
784.000000	43.884873
783.000000	44.252360
782.000000	44.603298
781.000000	44.952529
780.000000	45.308578
779.000000	45.670834
778.000000	46.038756
777.000000	46.415665
776.000000	46.800957
775.000000	47.187400
774.000000	47.568936
773.000000	47.942529
772.000000	48.300034
771.000000	48.628204
770.000000	48.919958
769.000000	49.178322
768.000000	49.407769
767.000000	49.612773
766.000000	49.806936
765.000000	50.012343
764.000000	50.245259
763.000000	50.509153
762.000000	50.802047
761.000000	51.119330
760.000000	51.446308
759.000000	51.759215
758.000000	52.039524
757.000000	52.280416
756.000000	52.479080
755.000000	52.633168
754.000000	52.748064
753.000000	52.836354
752.000000	52.906877
751.000000	52.963484
750.000000	53.015105
749.000000	53.076660
748.000000	53.157317
747.000000	53.258139
746.000000	53.381556
745.000000	53.530571
744.000000	53.695029
743.000000	53.850476
742.000000	53.974558
741.000000	54.055764
740.000000	54.085900
739.000000	54.059326
738.000000	53.985135
737.000000	53.888639
736.000000	53.795887
735.000000	53.724679
734.000000	53.691519
733.000000	53.712729
732.000000	53.793232
731.000000	53.923644
730.000000	54.092822
729.000000	54.293289
728.000000	54.512268
727.000000	54.730247
726.000000	54.933356
725.000000	55.116842
724.000000	55.273787
723.000000	55.394382
722.000000	55.480604
721.000000	55.550204
720.000000	55.621858
719.000000	55.707694
718.000000	55.822497
717.000000	55.985983
716.000000	56.208257
715.000000	56.481881
714.000000	56.791058
713.000000	57.117257
712.000000	57.433625
711.000000	57.709463
710.000000	57.928302
709.000000	58.091852
708.000000	58.205614
707.000000	58.274095
706.000000	58.311920
705.000000	58.343635
704.000000	58.387170
703.000000	58.448527
702.000000	58.535299
701.000000	58.661002
700.000000	58.831113
699.000000	59.037675
698.000000	59.271034
697.000000	59.522865
696.000000	59.773111
695.000000	59.990713
694.000000	60.154086
693.000000	60.259651
692.000000	60.309267
691.000000	60.305915
690.000000	60.266331
689.000000	60.222146
688.000000	60.200092
687.000000	60.211952
686.000000	60.267103
685.000000	60.376624
684.000000	60.537265
683.000000	60.727772
682.000000	60.928930
681.000000	61.131225
680.000000	61.319178
679.000000	61.468225
678.000000	61.566117
677.000000	61.616952
676.000000	61.625571
675.000000	61.592302
674.000000	61.529686
673.000000	61.468864
672.000000	61.438185
671.000000	61.450746
670.000000	61.516842
669.000000	61.660883
668.000000	61.883362
667.000000	62.098796
666.000000	62.233470
665.000000	62.318992
664.000000	62.394064
663.000000	62.457675
662.000000	62.495163
661.000000	62.499210
660.000000	62.469291
659.000000	62.410806
658.000000	62.342747
657.000000	62.288797
656.000000	62.263113
655.000000	62.269627
654.000000	62.311488
653.000000	62.390999
652.000000	62.501586
651.000000	62.630671
650.000000	62.767726
649.000000	62.901829
648.000000	63.014432
647.000000	63.086038
646.000000	63.111190
645.000000	63.097301
644.000000	63.051125
643.000000	62.978757
642.000000	62.896943
641.000000	62.829508
640.000000	62.791320
639.000000	62.787371
638.000000	62.822196
637.000000	62.895758
636.000000	62.991460
635.000000	63.083005
634.000000	63.155604
633.000000	63.209134
632.000000	63.242193
631.000000	63.249040
630.000000	63.233013
629.000000	63.206283
628.000000	63.174539
627.000000	63.136481
626.000000	63.099115
625.000000	63.077153
624.000000	63.076391
623.000000	63.092219
622.000000	63.125514
621.000000	63.182920
620.000000	63.259475
619.000000	63.337541
618.000000	63.405053
617.000000	63.460217
616.000000	63.496149
615.000000	63.499463
614.000000	63.468655
613.000000	63.418726
612.000000	63.364699
611.000000	63.316112
610.000000	63.285959
609.000000	63.286650
608.000000	63.313930
607.000000	63.350085
606.000000	63.385627
605.000000	63.422153
604.000000	63.454614
603.000000	63.469500
602.000000	63.463339
601.000000	63.444564
600.000000	63.413584
599.000000	63.358687
598.000000	63.276877
597.000000	63.178917
596.000000	63.073060
595.000000	62.964975
594.000000	62.875660
593.000000	62.837333
592.000000	62.863148
591.000000	62.936250
590.000000	63.032912
589.000000	63.140546
588.000000	63.245302
587.000000	63.326332
586.000000	63.373337
585.000000	63.393922
584.000000	63.396873
583.000000	63.384759
582.000000	63.368422
581.000000	63.367703
580.000000	63.389913
579.000000	63.424469
578.000000	63.465803
577.000000	63.519421
576.000000	63.580788
575.000000	63.629935
574.000000	63.656808
573.000000	63.670903
572.000000	63.678239
571.000000	63.671892
570.000000	63.649668
569.000000	63.618630
568.000000	63.576233
567.000000	63.511291
566.000000	63.429087
565.000000	63.354562
564.000000	63.305425
563.000000	63.282629
562.000000	63.287564
561.000000	63.323568
560.000000	63.375837
559.000000	63.412413
558.000000	63.412246
557.000000	63.374554
556.000000	63.301475
555.000000	63.195916
554.000000	63.079057
553.000000	62.982956
552.000000	62.920839
551.000000	62.883904
550.000000	62.866538
549.000000	62.872450
548.000000	62.896981
547.000000	62.929166
546.000000	62.974762
545.000000	63.050816
544.000000	63.153252
543.000000	63.254273
542.000000	63.334856
541.000000	63.396124
540.000000	63.433241
539.000000	63.427028
538.000000	63.372013
537.000000	63.291353
536.000000	63.214146
535.000000	63.158911
534.000000	63.142516
533.000000	63.177837
532.000000	63.257454
531.000000	63.357755
530.000000	63.462926
529.000000	63.568901
528.000000	63.663050
527.000000	63.722463
526.000000	63.742652
525.000000	63.742664
524.000000	63.731512
523.000000	63.696229
522.000000	63.628893
521.000000	63.539006
520.000000	63.434501
519.000000	63.314551
518.000000	63.189375
517.000000	63.083278
516.000000	63.005454
515.000000	62.941486
514.000000	62.874568
513.000000	62.789442
512.000000	62.657501
511.000000	62.445389
510.000000	62.145169
509.000000	61.774495
508.000000	61.347556
507.000000	60.873658
506.000000	60.380707
505.000000	59.904812
504.000000	59.454798
503.000000	59.020589
502.000000	58.615845
501.000000	58.279856
500.000000	58.036703
499.000000	57.880712
498.000000	57.808497
497.000000	57.830214
496.000000	57.947874
495.000000	58.145699
494.000000	58.402106
493.000000	58.701279
492.000000	59.022399
491.000000	59.338386
490.000000	59.639075
489.000000	59.937618
488.000000	60.249802
487.000000	60.579007
486.000000	60.923446
485.000000	61.278538
484.000000	61.622946
483.000000	61.918681
482.000000	62.141630
481.000000	62.298443
480.000000	62.400005
479.000000	62.443886
478.000000	62.434393
477.000000	62.396344
476.000000	62.352576
475.000000	62.306915
474.000000	62.265442
473.000000	62.255636
472.000000	62.300668
471.000000	62.395659
470.000000	62.542674
469.000000	62.762133
468.000000	63.051394
467.000000	63.364121
466.000000	63.650664
465.000000	63.897726
464.000000	64.106333
463.000000	64.267591
462.000000	64.381837
461.000000	64.469793
460.000000	64.531424
459.000000	64.533074
458.000000	64.465772
457.000000	64.377023
456.000000	64.315687
455.000000	64.293905
454.000000	64.321481
453.000000	64.426444
452.000000	64.608695
451.000000	64.813540
450.000000	64.998642
449.000000	65.174237
448.000000	65.350570
447.000000	65.495045
446.000000	65.575821
445.000000	65.604253
444.000000	65.603388
443.000000	65.580769
442.000000	65.553920
441.000000	65.559716
440.000000	65.611384
439.000000	65.690657
438.000000	65.794720
437.000000	65.953085
436.000000	66.171635
435.000000	66.405992
434.000000	66.622875
433.000000	66.829688
432.000000	67.011525
431.000000	67.112126
430.000000	67.111488
429.000000	67.060329
428.000000	67.001614
427.000000	66.923675
426.000000	66.829074
425.000000	66.772017
424.000000	66.778895
423.000000	66.796450
422.000000	66.781994
421.000000	66.774463
420.000000	66.817643
419.000000	66.891502
418.000000	66.945080
417.000000	66.994577
416.000000	67.057755
415.000000	67.083366
414.000000	67.055045
413.000000	67.035103
412.000000	67.052565
411.000000	67.053826
410.000000	67.026420
409.000000	67.071600
408.000000	67.254810
407.000000	67.493706
406.000000	67.689795
405.000000	67.880984
404.000000	68.125684
403.000000	68.349238
402.000000	68.448965
401.000000	68.468823
400.000000	68.519233
