PE IR       SUBTECH     SPECTRUM    ASCII       PEDS        4.00        
   -1
23MS121_nitrito.asc
24/09/05
16:48:39.00
24/09/05
16:48:39.00
Administrator
Sample 1112 By Administrator Date Thursday, September 05 2024
400.000000
#HDR
-1
-1
#GR
cm-1
%T
1.0
0.0
4000.000000
-1.000000
3601
8
87.828453
6.209207
#DATA
4000.000000	71.487501
3999.000000	71.535560
3998.000000	71.584652
3997.000000	71.635213
3996.000000	71.687265
3995.000000	71.740251
3994.000000	71.793331
3993.000000	71.845850
3992.000000	71.897502
3991.000000	71.948103
3990.000000	71.997451
3989.000000	72.045642
3988.000000	72.093348
3987.000000	72.141551
3986.000000	72.191011
3985.000000	72.241888
3984.000000	72.293710
3983.000000	72.345456
3982.000000	72.395811
3981.000000	72.443620
3980.000000	72.488411
3979.000000	72.530784
3978.000000	72.572007
3977.000000	72.613067
3976.000000	72.654283
3975.000000	72.695475
3974.000000	72.736686
3973.000000	72.778748
3972.000000	72.822919
3971.000000	72.870018
3970.000000	72.919615
3969.000000	72.970430
3968.000000	73.020987
3967.000000	73.069901
3966.000000	73.115875
3965.000000	73.158049
3964.000000	73.196680
3963.000000	73.232987
3962.000000	73.268499
3961.000000	73.304250
3960.000000	73.340949
3959.000000	73.379725
3958.000000	73.421749
3957.000000	73.467803
3956.000000	73.517633
3955.000000	73.569859
3954.000000	73.622249
3953.000000	73.671829
3952.000000	73.715785
3951.000000	73.752750
3950.000000	73.783989
3949.000000	73.812704
3948.000000	73.841743
3947.000000	73.872566
3946.000000	73.906288
3945.000000	73.944733
3944.000000	73.989551
3943.000000	74.040085
3942.000000	74.093805
3941.000000	74.148662
3940.000000	74.204960
3939.000000	74.264344
3938.000000	74.325076
3937.000000	74.381492
3936.000000	74.428686
3935.000000	74.466683
3934.000000	74.500249
3933.000000	74.533965
3932.000000	74.569942
3931.000000	74.608119
3930.000000	74.648030
3929.000000	74.691227
3928.000000	74.740271
3927.000000	74.796540
3926.000000	74.857014
3925.000000	74.915037
3924.000000	74.965765
3923.000000	75.008704
3922.000000	75.045797
3921.000000	75.079591
3920.000000	75.112395
3919.000000	75.146187
3918.000000	75.181615
3917.000000	75.218610
3916.000000	75.257757
3915.000000	75.300407
3914.000000	75.348476
3913.000000	75.403636
3912.000000	75.465420
3911.000000	75.530514
3910.000000	75.592229
3909.000000	75.645600
3908.000000	75.690237
3907.000000	75.727896
3906.000000	75.758568
3905.000000	75.779158
3904.000000	75.789963
3903.000000	75.798190
3902.000000	75.813710
3901.000000	75.844427
3900.000000	75.891880
3899.000000	75.950063
3898.000000	76.010125
3897.000000	76.066159
3896.000000	76.118136
3895.000000	76.170766
3894.000000	76.227301
3893.000000	76.286906
3892.000000	76.342899
3891.000000	76.386620
3890.000000	76.413125
3889.000000	76.428412
3888.000000	76.449694
3887.000000	76.492095
3886.000000	76.552091
3885.000000	76.609536
3884.000000	76.648125
3883.000000	76.672168
3882.000000	76.700594
3881.000000	76.746342
3880.000000	76.803605
3879.000000	76.855881
3878.000000	76.896305
3877.000000	76.935294
3876.000000	76.985309
3875.000000	77.042215
3874.000000	77.087920
3873.000000	77.112959
3872.000000	77.128968
3871.000000	77.155099
3870.000000	77.196949
3869.000000	77.242505
3868.000000	77.277676
3867.000000	77.305480
3866.000000	77.340258
3865.000000	77.388710
3864.000000	77.443321
3863.000000	77.491932
3862.000000	77.531587
3861.000000	77.571691
3860.000000	77.618141
3859.000000	77.667629
3858.000000	77.714685
3857.000000	77.759881
3856.000000	77.806442
3855.000000	77.849370
3854.000000	77.886785
3853.000000	77.930066
3852.000000	77.975507
3851.000000	78.010324
3850.000000	78.039525
3849.000000	78.077114
3848.000000	78.128693
3847.000000	78.189883
3846.000000	78.252649
3845.000000	78.311961
3844.000000	78.364108
3843.000000	78.403885
3842.000000	78.430438
3841.000000	78.451679
3840.000000	78.475924
3839.000000	78.509597
3838.000000	78.554548
3837.000000	78.604246
3836.000000	78.649588
3835.000000	78.688971
3834.000000	78.730290
3833.000000	78.780944
3832.000000	78.838968
3831.000000	78.897191
3830.000000	78.951386
3829.000000	79.004000
3828.000000	79.059454
3827.000000	79.115413
3826.000000	79.161739
3825.000000	79.193502
3824.000000	79.218879
3823.000000	79.253705
3822.000000	79.304062
3821.000000	79.355795
3820.000000	79.389436
3819.000000	79.405260
3818.000000	79.428153
3817.000000	79.481255
3816.000000	79.560609
3815.000000	79.640859
3814.000000	79.702921
3813.000000	79.746459
3812.000000	79.781821
3811.000000	79.818149
3810.000000	79.858361
3809.000000	79.901737
3808.000000	79.946486
3807.000000	79.987974
3806.000000	80.018618
3805.000000	80.037200
3804.000000	80.057384
3803.000000	80.101032
3802.000000	80.170668
3801.000000	80.244045
3800.000000	80.298255
3799.000000	80.332756
3798.000000	80.367584
3797.000000	80.417541
3796.000000	80.478132
3795.000000	80.534821
3794.000000	80.581024
3793.000000	80.620848
3792.000000	80.662346
3791.000000	80.709710
3790.000000	80.760160
3789.000000	80.808517
3788.000000	80.853701
3787.000000	80.899383
3786.000000	80.948782
3785.000000	80.999597
3784.000000	81.046249
3783.000000	81.087062
3782.000000	81.125814
3781.000000	81.167356
3780.000000	81.212409
3779.000000	81.257701
3778.000000	81.299228
3777.000000	81.337162
3776.000000	81.375222
3775.000000	81.416560
3774.000000	81.460725
3773.000000	81.505770
3772.000000	81.551789
3771.000000	81.600505
3770.000000	81.651032
3769.000000	81.698073
3768.000000	81.738261
3767.000000	81.777776
3766.000000	81.825101
3765.000000	81.877636
3764.000000	81.925582
3763.000000	81.966112
3762.000000	82.005175
3761.000000	82.047732
3760.000000	82.092168
3759.000000	82.135525
3758.000000	82.174836
3757.000000	82.209087
3756.000000	82.240709
3755.000000	82.273595
3754.000000	82.310496
3753.000000	82.350129
3752.000000	82.391538
3751.000000	82.438090
3750.000000	82.486844
3749.000000	82.524062
3748.000000	82.544879
3747.000000	82.565294
3746.000000	82.604682
3745.000000	82.666736
3744.000000	82.740557
3743.000000	82.806900
3742.000000	82.854693
3741.000000	82.893017
3740.000000	82.936499
3739.000000	82.991274
3738.000000	83.048440
3737.000000	83.092643
3736.000000	83.120251
3735.000000	83.142944
3734.000000	83.178198
3733.000000	83.235292
3732.000000	83.309014
3731.000000	83.383034
3730.000000	83.442820
3729.000000	83.488058
3728.000000	83.528683
3727.000000	83.571170
3726.000000	83.614875
3725.000000	83.657865
3724.000000	83.703382
3723.000000	83.757067
3722.000000	83.820546
3721.000000	83.889295
3720.000000	83.957108
3719.000000	84.022588
3718.000000	84.083422
3717.000000	84.134739
3716.000000	84.174213
3715.000000	84.204053
3714.000000	84.230239
3713.000000	84.258015
3712.000000	84.290601
3711.000000	84.330441
3710.000000	84.378805
3709.000000	84.436436
3708.000000	84.501193
3707.000000	84.568023
3706.000000	84.632196
3705.000000	84.690501
3704.000000	84.741633
3703.000000	84.785968
3702.000000	84.825898
3701.000000	84.863691
3700.000000	84.899638
3699.000000	84.935878
3698.000000	84.976436
3697.000000	85.021698
3696.000000	85.068047
3695.000000	85.111422
3694.000000	85.150218
3693.000000	85.185836
3692.000000	85.219245
3691.000000	85.250462
3690.000000	85.284165
3689.000000	85.331731
3688.000000	85.394964
3687.000000	85.458314
3686.000000	85.508858
3685.000000	85.547336
3684.000000	85.580108
3683.000000	85.611940
3682.000000	85.643367
3681.000000	85.670332
3680.000000	85.688311
3679.000000	85.696315
3678.000000	85.700238
3677.000000	85.706895
3676.000000	85.722788
3675.000000	85.751508
3674.000000	85.779845
3673.000000	85.795621
3672.000000	85.807169
3671.000000	85.827684
3670.000000	85.857341
3669.000000	85.886942
3668.000000	85.909938
3667.000000	85.929011
3666.000000	85.950973
3665.000000	85.977447
3664.000000	86.004436
3663.000000	86.029165
3662.000000	86.050371
3661.000000	86.065898
3660.000000	86.073975
3659.000000	86.072724
3658.000000	86.061317
3657.000000	86.041133
3656.000000	86.018157
3655.000000	85.996641
3654.000000	85.973977
3653.000000	85.947285
3652.000000	85.915489
3651.000000	85.872443
3650.000000	85.810812
3649.000000	85.740257
3648.000000	85.687433
3647.000000	85.669136
3646.000000	85.676876
3645.000000	85.691269
3644.000000	85.699767
3643.000000	85.698642
3642.000000	85.684646
3641.000000	85.654853
3640.000000	85.611539
3639.000000	85.561209
3638.000000	85.508913
3637.000000	85.455591
3636.000000	85.402588
3635.000000	85.352459
3634.000000	85.305069
3633.000000	85.255598
3632.000000	85.197594
3631.000000	85.125772
3630.000000	85.039094
3629.000000	84.952114
3628.000000	84.888018
3627.000000	84.850786
3626.000000	84.827905
3625.000000	84.809101
3624.000000	84.787534
3623.000000	84.756092
3622.000000	84.707645
3621.000000	84.638401
3620.000000	84.553832
3619.000000	84.470012
3618.000000	84.400978
3617.000000	84.347879
3616.000000	84.304328
3615.000000	84.261839
3614.000000	84.211709
3613.000000	84.149526
3612.000000	84.077739
3611.000000	84.002112
3610.000000	83.928380
3609.000000	83.861675
3608.000000	83.805787
3607.000000	83.762151
3606.000000	83.728547
3605.000000	83.700688
3604.000000	83.673956
3603.000000	83.642480
3602.000000	83.601141
3601.000000	83.549190
3600.000000	83.490949
3599.000000	83.430297
3598.000000	83.366306
3597.000000	83.295840
3596.000000	83.220486
3595.000000	83.145936
3594.000000	83.078701
3593.000000	83.021661
3592.000000	82.971174
3591.000000	82.918935
3590.000000	82.855565
3589.000000	82.776589
3588.000000	82.690130
3587.000000	82.615049
3586.000000	82.563939
3585.000000	82.533747
3584.000000	82.513104
3583.000000	82.490695
3582.000000	82.458396
3581.000000	82.412756
3580.000000	82.356343
3579.000000	82.294603
3578.000000	82.231608
3577.000000	82.168763
3576.000000	82.106389
3575.000000	82.044674
3574.000000	81.982759
3573.000000	81.919643
3572.000000	81.854145
3571.000000	81.783076
3570.000000	81.700089
3569.000000	81.600045
3568.000000	81.488166
3567.000000	81.383463
3566.000000	81.304884
3565.000000	81.255881
3564.000000	81.226665
3563.000000	81.203312
3562.000000	81.172273
3561.000000	81.124470
3560.000000	81.059196
3559.000000	80.982651
3558.000000	80.901835
3557.000000	80.820777
3556.000000	80.740966
3555.000000	80.662777
3554.000000	80.586132
3553.000000	80.512300
3552.000000	80.444549
3551.000000	80.383843
3550.000000	80.325044
3549.000000	80.260471
3548.000000	80.186119
3547.000000	80.103844
3546.000000	80.018173
3545.000000	79.933373
3544.000000	79.852657
3543.000000	79.777302
3542.000000	79.705848
3541.000000	79.636224
3540.000000	79.568301
3539.000000	79.503401
3538.000000	79.442269
3537.000000	79.384789
3536.000000	79.330880
3535.000000	79.278661
3534.000000	79.223972
3533.000000	79.162871
3532.000000	79.093979
3531.000000	79.016969
3530.000000	78.930912
3529.000000	78.837338
3528.000000	78.743145
3527.000000	78.657022
3526.000000	78.583648
3525.000000	78.523433
3524.000000	78.475296
3523.000000	78.436444
3522.000000	78.401079
3521.000000	78.363525
3520.000000	78.321716
3519.000000	78.275073
3518.000000	78.221353
3517.000000	78.158490
3516.000000	78.088275
3515.000000	78.014587
3514.000000	77.938953
3513.000000	77.860204
3512.000000	77.777848
3511.000000	77.693828
3510.000000	77.611881
3509.000000	77.536659
3508.000000	77.471555
3507.000000	77.414954
3506.000000	77.359566
3505.000000	77.297647
3504.000000	77.226572
3503.000000	77.148093
3502.000000	77.063975
3501.000000	76.975495
3500.000000	76.885757
3499.000000	76.798253
3498.000000	76.713523
3497.000000	76.629910
3496.000000	76.547031
3495.000000	76.465853
3494.000000	76.386118
3493.000000	76.306352
3492.000000	76.225496
3491.000000	76.142287
3490.000000	76.054309
3489.000000	75.960246
3488.000000	75.862101
3487.000000	75.762862
3486.000000	75.662875
3485.000000	75.560550
3484.000000	75.455770
3483.000000	75.350398
3482.000000	75.246572
3481.000000	75.146213
3480.000000	75.050129
3479.000000	74.955477
3478.000000	74.855955
3477.000000	74.747221
3476.000000	74.631010
3475.000000	74.512100
3474.000000	74.393276
3473.000000	74.275795
3472.000000	74.162488
3471.000000	74.056241
3470.000000	73.955898
3469.000000	73.856478
3468.000000	73.752746
3467.000000	73.641003
3466.000000	73.519104
3465.000000	73.387615
3464.000000	73.250501
3463.000000	73.112319
3462.000000	72.975207
3461.000000	72.839641
3460.000000	72.706198
3459.000000	72.574768
3458.000000	72.443781
3457.000000	72.312518
3456.000000	72.182789
3455.000000	72.055780
3454.000000	71.929203
3453.000000	71.799480
3452.000000	71.665350
3451.000000	71.526675
3450.000000	71.381127
3449.000000	71.225756
3448.000000	71.061499
3447.000000	70.893435
3446.000000	70.726649
3445.000000	70.563958
3444.000000	70.406589
3443.000000	70.254101
3442.000000	70.103969
3441.000000	69.953851
3440.000000	69.803631
3439.000000	69.653203
3438.000000	69.499376
3437.000000	69.337162
3436.000000	69.163542
3435.000000	68.977854
3434.000000	68.780556
3433.000000	68.574350
3432.000000	68.365124
3431.000000	68.158615
3430.000000	67.955995
3429.000000	67.754750
3428.000000	67.552766
3427.000000	67.348952
3426.000000	67.141313
3425.000000	66.927361
3424.000000	66.705737
3423.000000	66.475499
3422.000000	66.234899
3421.000000	65.983543
3420.000000	65.724530
3419.000000	65.461873
3418.000000	65.197317
3417.000000	64.931344
3416.000000	64.665447
3415.000000	64.400663
3414.000000	64.134891
3413.000000	63.864401
3412.000000	63.586576
3411.000000	63.299613
3410.000000	63.001275
3409.000000	62.690135
3408.000000	62.367038
3407.000000	62.033161
3406.000000	61.688665
3405.000000	61.335224
3404.000000	60.977488
3403.000000	60.619638
3402.000000	60.261453
3401.000000	59.899038
3400.000000	59.527720
3399.000000	59.143074
3398.000000	58.742656
3397.000000	58.328712
3396.000000	57.906309
3395.000000	57.477382
3394.000000	57.038763
3393.000000	56.587717
3392.000000	56.125719
3391.000000	55.654553
3390.000000	55.173206
3389.000000	54.680630
3388.000000	54.178646
3387.000000	53.669133
3386.000000	53.151022
3385.000000	52.623193
3384.000000	52.086743
3383.000000	51.542403
3382.000000	50.988478
3381.000000	50.423342
3380.000000	49.847730
3379.000000	49.262176
3378.000000	48.665520
3377.000000	48.057901
3376.000000	47.441596
3375.000000	46.817643
3374.000000	46.184487
3373.000000	45.541885
3372.000000	44.892809
3371.000000	44.238866
3370.000000	43.577901
3369.000000	42.907567
3368.000000	42.228095
3367.000000	41.540202
3366.000000	40.843528
3365.000000	40.139360
3364.000000	39.431084
3363.000000	38.720457
3362.000000	38.006974
3361.000000	37.291389
3360.000000	36.575954
3359.000000	35.859884
3358.000000	35.139088
3357.000000	34.412280
3356.000000	33.682725
3355.000000	32.952858
3354.000000	32.221869
3353.000000	31.490240
3352.000000	30.762115
3351.000000	30.040996
3350.000000	29.326809
3349.000000	28.618730
3348.000000	27.916971
3347.000000	27.220375
3346.000000	26.526840
3345.000000	25.837303
3344.000000	25.155349
3343.000000	24.482040
3342.000000	23.815082
3341.000000	23.154297
3340.000000	22.503292
3339.000000	21.864789
3338.000000	21.238859
3337.000000	20.625885
3336.000000	20.027302
3335.000000	19.442532
3334.000000	18.869528
3333.000000	18.309421
3332.000000	17.765340
3331.000000	17.237009
3330.000000	16.720714
3329.000000	16.214627
3328.000000	15.720756
3327.000000	15.240921
3326.000000	14.775986
3325.000000	14.328506
3324.000000	13.900486
3323.000000	13.489592
3322.000000	13.091335
3321.000000	12.705249
3320.000000	12.334502
3319.000000	11.979424
3318.000000	11.637793
3317.000000	11.309655
3316.000000	10.996807
3315.000000	10.698192
3314.000000	10.410163
3313.000000	10.131820
3312.000000	9.864496
3311.000000	9.606956
3310.000000	9.357055
3309.000000	9.116700
3308.000000	8.890883
3307.000000	8.681862
3306.000000	8.488971
3305.000000	8.313142
3304.000000	8.154706
3303.000000	8.008769
3302.000000	7.868252
3301.000000	7.730888
3300.000000	7.598817
3299.000000	7.472150
3298.000000	7.349362
3297.000000	7.232627
3296.000000	7.126020
3295.000000	7.029399
3294.000000	6.939383
3293.000000	6.856127
3292.000000	6.783168
3291.000000	6.720354
3290.000000	6.663433
3289.000000	6.609957
3288.000000	6.560703
3287.000000	6.515698
3286.000000	6.473639
3285.000000	6.435444
3284.000000	6.402861
3283.000000	6.374389
3282.000000	6.347212
3281.000000	6.322059
3280.000000	6.301579
3279.000000	6.284751
3278.000000	6.268285
3277.000000	6.252470
3276.000000	6.240161
3275.000000	6.230978
3274.000000	6.221868
3273.000000	6.213203
3272.000000	6.209207
3271.000000	6.212334
3270.000000	6.221732
3269.000000	6.236246
3268.000000	6.254370
3267.000000	6.272352
3266.000000	6.286923
3265.000000	6.299431
3264.000000	6.313252
3263.000000	6.328286
3262.000000	6.342381
3261.000000	6.356189
3260.000000	6.371808
3259.000000	6.388245
3258.000000	6.403255
3257.000000	6.418509
3256.000000	6.437771
3255.000000	6.461111
3254.000000	6.485463
3253.000000	6.509659
3252.000000	6.534168
3251.000000	6.557269
3250.000000	6.576729
3249.000000	6.594490
3248.000000	6.614976
3247.000000	6.639424
3246.000000	6.665823
3245.000000	6.693102
3244.000000	6.721131
3243.000000	6.748071
3242.000000	6.772295
3241.000000	6.795735
3240.000000	6.821133
3239.000000	6.847198
3238.000000	6.870525
3237.000000	6.890728
3236.000000	6.909874
3235.000000	6.928873
3234.000000	6.948502
3233.000000	6.971743
3232.000000	7.000262
3231.000000	7.030280
3230.000000	7.056583
3229.000000	7.078897
3228.000000	7.100100
3227.000000	7.120444
3226.000000	7.138308
3225.000000	7.154739
3224.000000	7.172037
3223.000000	7.189317
3222.000000	7.204129
3221.000000	7.217113
3220.000000	7.230595
3219.000000	7.244028
3218.000000	7.255307
3217.000000	7.264951
3216.000000	7.274581
3215.000000	7.282932
3214.000000	7.287720
3213.000000	7.289992
3212.000000	7.292274
3211.000000	7.294087
3210.000000	7.293484
3209.000000	7.291108
3208.000000	7.288604
3207.000000	7.284818
3206.000000	7.277778
3205.000000	7.268723
3204.000000	7.259860
3203.000000	7.250151
3202.000000	7.237461
3201.000000	7.222829
3200.000000	7.208403
3199.000000	7.193001
3198.000000	7.174157
3197.000000	7.152630
3196.000000	7.130673
3195.000000	7.107897
3194.000000	7.082961
3193.000000	7.057304
3192.000000	7.032961
3191.000000	7.008674
3190.000000	6.982416
3189.000000	6.955544
3188.000000	6.930269
3187.000000	6.905214
3186.000000	6.877768
3185.000000	6.848785
3184.000000	6.820616
3183.000000	6.792708
3182.000000	6.763446
3181.000000	6.734126
3180.000000	6.706808
3179.000000	6.680339
3178.000000	6.652756
3177.000000	6.625508
3176.000000	6.601043
3175.000000	6.578386
3174.000000	6.555306
3173.000000	6.532592
3172.000000	6.512010
3171.000000	6.492377
3170.000000	6.471800
3169.000000	6.451553
3168.000000	6.433666
3167.000000	6.416980
3166.000000	6.399818
3165.000000	6.384007
3164.000000	6.372032
3163.000000	6.362675
3162.000000	6.353580
3161.000000	6.345742
3160.000000	6.341169
3159.000000	6.338566
3158.000000	6.335553
3157.000000	6.332551
3156.000000	6.330611
3155.000000	6.328259
3154.000000	6.325009
3153.000000	6.325285
3152.000000	6.333814
3151.000000	6.349372
3150.000000	6.367268
3149.000000	6.385692
3148.000000	6.405411
3147.000000	6.425730
3146.000000	6.445623
3145.000000	6.466675
3144.000000	6.490403
3143.000000	6.514770
3142.000000	6.537461
3141.000000	6.560715
3140.000000	6.588771
3139.000000	6.622392
3138.000000	6.659828
3137.000000	6.700666
3136.000000	6.744746
3135.000000	6.789586
3134.000000	6.832913
3133.000000	6.876201
3132.000000	6.922119
3131.000000	6.970777
3130.000000	7.021709
3129.000000	7.076519
3128.000000	7.135958
3127.000000	7.196974
3126.000000	7.256426
3125.000000	7.315116
3124.000000	7.374617
3123.000000	7.433515
3122.000000	7.490773
3121.000000	7.549747
3120.000000	7.614504
3119.000000	7.684589
3118.000000	7.757711
3117.000000	7.834808
3116.000000	7.918062
3115.000000	8.006277
3114.000000	8.096129
3113.000000	8.186054
3112.000000	8.275396
3111.000000	8.362581
3110.000000	8.448042
3109.000000	8.536216
3108.000000	8.630681
3107.000000	8.729489
3106.000000	8.828646
3105.000000	8.927517
3104.000000	9.027185
3103.000000	9.126827
3102.000000	9.225986
3101.000000	9.327734
3100.000000	9.435349
3099.000000	9.547660
3098.000000	9.661457
3097.000000	9.776130
3096.000000	9.892170
3095.000000	10.007838
3094.000000	10.121276
3093.000000	10.234036
3092.000000	10.349005
3091.000000	10.466717
3090.000000	10.586674
3089.000000	10.709566
3088.000000	10.835037
3087.000000	10.960165
3086.000000	11.083604
3085.000000	11.208641
3084.000000	11.338487
3083.000000	11.471286
3082.000000	11.603526
3081.000000	11.735632
3080.000000	11.870556
3079.000000	12.009261
3078.000000	12.151268
3077.000000	12.297117
3076.000000	12.446274
3075.000000	12.595037
3074.000000	12.740332
3073.000000	12.883536
3072.000000	13.027275
3071.000000	13.170899
3070.000000	13.312946
3069.000000	13.455679
3068.000000	13.602965
3067.000000	13.755327
3066.000000	13.910520
3065.000000	14.067440
3064.000000	14.225998
3063.000000	14.384780
3062.000000	14.542226
3061.000000	14.698708
3060.000000	14.854816
3059.000000	15.009452
3058.000000	15.162235
3057.000000	15.315692
3056.000000	15.472061
3055.000000	15.629903
3054.000000	15.786837
3053.000000	15.943685
3052.000000	16.103050
3051.000000	16.265567
3050.000000	16.430095
3049.000000	16.595661
3048.000000	16.760683
3047.000000	16.922465
3046.000000	17.080188
3045.000000	17.236564
3044.000000	17.394363
3043.000000	17.553557
3042.000000	17.713871
3041.000000	17.877028
3040.000000	18.043401
3039.000000	18.209227
3038.000000	18.370641
3037.000000	18.528590
3036.000000	18.687061
3035.000000	18.848411
3034.000000	19.012916
3033.000000	19.180452
3032.000000	19.349474
3031.000000	19.516423
3030.000000	19.679064
3029.000000	19.838634
3028.000000	19.996684
3027.000000	20.152421
3026.000000	20.305729
3025.000000	20.459838
3024.000000	20.617617
3023.000000	20.777568
3022.000000	20.936669
3021.000000	21.095041
3020.000000	21.254524
3019.000000	21.414592
3018.000000	21.573094
3017.000000	21.729546
3016.000000	21.884757
3015.000000	22.038742
3014.000000	22.191876
3013.000000	22.346625
3012.000000	22.505197
3011.000000	22.666652
3010.000000	22.828563
3009.000000	22.990050
3008.000000	23.151060
3007.000000	23.310635
3006.000000	23.468408
3005.000000	23.626137
3004.000000	23.785320
3003.000000	23.944551
3002.000000	24.101326
3001.000000	24.254869
3000.000000	24.405560
2999.000000	24.553610
2998.000000	24.700235
2997.000000	24.847892
2996.000000	24.997171
2995.000000	25.145786
2994.000000	25.292987
2993.000000	25.442508
2992.000000	25.598264
2991.000000	25.759171
2990.000000	25.920926
2989.000000	26.080922
2988.000000	26.238570
2987.000000	26.392834
2986.000000	26.542752
2985.000000	26.689224
2984.000000	26.833658
2983.000000	26.976110
2982.000000	27.117172
2981.000000	27.259947
2980.000000	27.407330
2979.000000	27.558411
2978.000000	27.710119
2977.000000	27.861277
2976.000000	28.012726
2975.000000	28.164761
2974.000000	28.316892
2973.000000	28.468949
2972.000000	28.620215
2971.000000	28.768638
2970.000000	28.913120
2969.000000	29.055439
2968.000000	29.197821
2967.000000	29.340124
2966.000000	29.481411
2965.000000	29.622759
2964.000000	29.766059
2963.000000	29.911391
2962.000000	30.057869
2961.000000	30.205489
2960.000000	30.353864
2959.000000	30.500669
2958.000000	30.643608
2957.000000	30.782564
2956.000000	30.917989
2955.000000	31.049416
2954.000000	31.177884
2953.000000	31.307333
2952.000000	31.440435
2951.000000	31.574630
2950.000000	31.705412
2949.000000	31.832064
2948.000000	31.957443
2947.000000	32.083720
2946.000000	32.211435
2945.000000	32.341551
2944.000000	32.474951
2943.000000	32.610173
2942.000000	32.744299
2941.000000	32.876024
2940.000000	33.005884
2939.000000	33.134244
2938.000000	33.261169
2937.000000	33.387525
2936.000000	33.514048
2935.000000	33.639834
2934.000000	33.763729
2933.000000	33.886423
2932.000000	34.009437
2931.000000	34.132990
2930.000000	34.256676
2929.000000	34.381067
2928.000000	34.506575
2927.000000	34.631982
2926.000000	34.756143
2925.000000	34.879872
2924.000000	35.004064
2923.000000	35.127312
2922.000000	35.247733
2921.000000	35.365747
2920.000000	35.482681
2919.000000	35.598001
2918.000000	35.710428
2917.000000	35.820696
2916.000000	35.930580
2915.000000	36.039943
2914.000000	36.147130
2913.000000	36.251749
2912.000000	36.355092
2911.000000	36.458266
2910.000000	36.561753
2909.000000	36.666148
2908.000000	36.771444
2907.000000	36.875982
2906.000000	36.977563
2905.000000	37.075316
2904.000000	37.169076
2903.000000	37.258527
2902.000000	37.344314
2901.000000	37.429137
2900.000000	37.516507
2899.000000	37.608152
2898.000000	37.704113
2897.000000	37.803713
2896.000000	37.905003
2895.000000	38.004515
2894.000000	38.099619
2893.000000	38.190408
2892.000000	38.277673
2891.000000	38.360210
2890.000000	38.436031
2889.000000	38.505282
2888.000000	38.570017
2887.000000	38.631903
2886.000000	38.692018
2885.000000	38.752085
2884.000000	38.813739
2883.000000	38.876835
2882.000000	38.940065
2881.000000	39.002646
2880.000000	39.063821
2879.000000	39.121625
2878.000000	39.174288
2877.000000	39.222423
2876.000000	39.268088
2875.000000	39.312043
2874.000000	39.353826
2873.000000	39.394173
2872.000000	39.435839
2871.000000	39.482525
2870.000000	39.538363
2869.000000	39.607713
2868.000000	39.693184
2867.000000	39.793811
2866.000000	39.906402
2865.000000	40.027996
2864.000000	40.155876
2863.000000	40.286569
2862.000000	40.417012
2861.000000	40.546282
2860.000000	40.674614
2859.000000	40.801349
2858.000000	40.925813
2857.000000	41.049531
2856.000000	41.175407
2855.000000	41.304895
2854.000000	41.437509
2853.000000	41.572522
2852.000000	41.709227
2851.000000	41.845774
2850.000000	41.979600
2849.000000	42.108984
2848.000000	42.232919
2847.000000	42.350066
2846.000000	42.459555
2845.000000	42.562620
2844.000000	42.661914
2843.000000	42.759362
2842.000000	42.856074
2841.000000	42.953745
2840.000000	43.054077
2839.000000	43.156750
2838.000000	43.259594
2837.000000	43.360975
2836.000000	43.460724
2835.000000	43.558831
2834.000000	43.654772
2833.000000	43.748253
2832.000000	43.839375
2831.000000	43.927948
2830.000000	44.013860
2829.000000	44.098139
2828.000000	44.182390
2827.000000	44.267154
2826.000000	44.351963
2825.000000	44.436837
2824.000000	44.522407
2823.000000	44.608570
2822.000000	44.694314
2821.000000	44.778995
2820.000000	44.862621
2819.000000	44.944965
2818.000000	45.025680
2817.000000	45.105332
2816.000000	45.185122
2815.000000	45.265490
2814.000000	45.346119
2813.000000	45.427218
2812.000000	45.509455
2811.000000	45.592525
2810.000000	45.674999
2809.000000	45.755810
2808.000000	45.834816
2807.000000	45.911948
2806.000000	45.987088
2805.000000	46.060915
2804.000000	46.134687
2803.000000	46.208972
2802.000000	46.283623
2801.000000	46.359027
2800.000000	46.436207
2799.000000	46.515445
2798.000000	46.595785
2797.000000	46.675982
2796.000000	46.754938
2795.000000	46.831257
2794.000000	46.903645
2793.000000	46.972036
2792.000000	47.037529
2791.000000	47.101277
2790.000000	47.164294
2789.000000	47.228019
2788.000000	47.293734
2787.000000	47.361383
2786.000000	47.430065
2785.000000	47.499554
2784.000000	47.570059
2783.000000	47.640659
2782.000000	47.709410
2781.000000	47.775047
2780.000000	47.837289
2779.000000	47.895655
2778.000000	47.949704
2777.000000	48.000616
2776.000000	48.051021
2775.000000	48.102793
2774.000000	48.156243
2773.000000	48.211576
2772.000000	48.269537
2771.000000	48.330184
2770.000000	48.392423
2769.000000	48.455191
2768.000000	48.517799
2767.000000	48.578822
2766.000000	48.636135
2765.000000	48.688684
2764.000000	48.737184
2763.000000	48.782835
2762.000000	48.826588
2761.000000	48.869965
2760.000000	48.915050
2759.000000	48.962933
2758.000000	49.013307
2757.000000	49.065879
2756.000000	49.120765
2755.000000	49.177002
2754.000000	49.232092
2753.000000	49.283807
2752.000000	49.331427
2751.000000	49.374870
2750.000000	49.414000
2749.000000	49.449451
2748.000000	49.482981
2747.000000	49.516309
2746.000000	49.550579
2745.000000	49.587316
2744.000000	49.628409
2743.000000	49.674374
2742.000000	49.723642
2741.000000	49.774092
2740.000000	49.824202
2739.000000	49.872418
2738.000000	49.916849
2737.000000	49.956346
2736.000000	49.990963
2735.000000	50.021052
2734.000000	50.047183
2733.000000	50.071395
2732.000000	50.096929
2731.000000	50.125852
2730.000000	50.158206
2729.000000	50.193971
2728.000000	50.234133
2727.000000	50.278810
2726.000000	50.325703
2725.000000	50.371590
2724.000000	50.414427
2723.000000	50.453220
2722.000000	50.487132
2721.000000	50.516016
2720.000000	50.541084
2719.000000	50.564116
2718.000000	50.586716
2717.000000	50.610829
2716.000000	50.638675
2715.000000	50.671244
2714.000000	50.707710
2713.000000	50.746914
2712.000000	50.788309
2711.000000	50.830731
2710.000000	50.871506
2709.000000	50.907854
2708.000000	50.938495
2707.000000	50.963225
2706.000000	50.981990
2705.000000	50.995439
2704.000000	51.005308
2703.000000	51.013310
2702.000000	51.020386
2701.000000	51.027481
2700.000000	51.036052
2699.000000	51.046889
2698.000000	51.059220
2697.000000	51.071694
2696.000000	51.083263
2695.000000	51.092628
2694.000000	51.098068
2693.000000	51.098756
2692.000000	51.095456
2691.000000	51.089109
2690.000000	51.079840
2689.000000	51.067979
2688.000000	51.054860
2687.000000	51.041867
2686.000000	51.029542
2685.000000	51.018329
2684.000000	51.009041
2683.000000	51.001711
2682.000000	50.995045
2681.000000	50.987801
2680.000000	50.979738
2679.000000	50.970638
2678.000000	50.959710
2677.000000	50.946923
2676.000000	50.933836
2675.000000	50.922114
2674.000000	50.912140
2673.000000	50.903982
2672.000000	50.898694
2671.000000	50.897877
2670.000000	50.902720
2669.000000	50.914082
2668.000000	50.932805
2667.000000	50.958878
2666.000000	50.991386
2665.000000	51.029957
2664.000000	51.075191
2663.000000	51.127429
2662.000000	51.185709
2661.000000	51.248793
2660.000000	51.316268
2659.000000	51.387621
2658.000000	51.461506
2657.000000	51.536534
2656.000000	51.612019
2655.000000	51.687309
2654.000000	51.761186
2653.000000	51.832865
2652.000000	51.902705
2651.000000	51.971183
2650.000000	52.038085
2649.000000	52.103468
2648.000000	52.168392
2647.000000	52.233803
2646.000000	52.299473
2645.000000	52.364707
2644.000000	52.429152
2643.000000	52.491929
2642.000000	52.551088
2641.000000	52.604980
2640.000000	52.653290
2639.000000	52.696165
2638.000000	52.733250
2637.000000	52.764747
2636.000000	52.792538
2635.000000	52.818913
2634.000000	52.845131
2633.000000	52.871940
2632.000000	52.900468
2631.000000	52.931476
2630.000000	52.964327
2629.000000	52.997694
2628.000000	53.030391
2627.000000	53.060720
2626.000000	53.086182
2625.000000	53.105066
2624.000000	53.117806
2623.000000	53.125887
2622.000000	53.130367
2621.000000	53.132529
2620.000000	53.134687
2619.000000	53.139075
2618.000000	53.146575
2617.000000	53.157363
2616.000000	53.171811
2615.000000	53.189542
2614.000000	53.208444
2613.000000	53.225778
2612.000000	53.239600
2611.000000	53.248367
2610.000000	53.250184
2609.000000	53.243903
2608.000000	53.230326
2607.000000	53.211082
2606.000000	53.187346
2605.000000	53.160240
2604.000000	53.131585
2603.000000	53.103054
2602.000000	53.074978
2601.000000	53.047139
2600.000000	53.019640
2599.000000	52.992097
2598.000000	52.963059
2597.000000	52.931471
2596.000000	52.898182
2595.000000	52.865260
2594.000000	52.834732
2593.000000	52.808886
2592.000000	52.791092
2591.000000	52.784795
2590.000000	52.792404
2589.000000	52.815770
2588.000000	52.856137
2587.000000	52.913348
2586.000000	52.985102
2585.000000	53.068271
2584.000000	53.160550
2583.000000	53.259563
2582.000000	53.362380
2581.000000	53.466508
2580.000000	53.570979
2579.000000	53.675808
2578.000000	53.780844
2577.000000	53.886517
2576.000000	53.994437
2575.000000	54.105955
2574.000000	54.220696
2573.000000	54.337301
2572.000000	54.454924
2571.000000	54.572907
2570.000000	54.689849
2569.000000	54.804328
2568.000000	54.915972
2567.000000	55.024766
2566.000000	55.130112
2565.000000	55.231784
2564.000000	55.330921
2563.000000	55.428982
2562.000000	55.526328
2561.000000	55.622977
2560.000000	55.719780
2559.000000	55.817195
2558.000000	55.913858
2557.000000	56.007691
2556.000000	56.097753
2555.000000	56.183852
2554.000000	56.265107
2553.000000	56.340853
2552.000000	56.412179
2551.000000	56.480974
2550.000000	56.548198
2549.000000	56.614243
2548.000000	56.680280
2547.000000	56.747327
2546.000000	56.814460
2545.000000	56.879692
2544.000000	56.941745
2543.000000	56.999672
2542.000000	57.051451
2541.000000	57.094659
2540.000000	57.128580
2539.000000	57.153796
2538.000000	57.170747
2537.000000	57.180076
2536.000000	57.183246
2535.000000	57.181601
2534.000000	57.174597
2533.000000	57.160681
2532.000000	57.139183
2531.000000	57.109534
2530.000000	57.070415
2529.000000	57.020866
2528.000000	56.961997
2527.000000	56.896325
2526.000000	56.826206
2525.000000	56.755030
2524.000000	56.688618
2523.000000	56.633521
2522.000000	56.594094
2521.000000	56.572828
2520.000000	56.571661
2519.000000	56.591419
2518.000000	56.630473
2517.000000	56.685032
2516.000000	56.751546
2515.000000	56.826491
2514.000000	56.905645
2513.000000	56.985588
2512.000000	57.065173
2511.000000	57.144998
2510.000000	57.225483
2509.000000	57.307175
2508.000000	57.392014
2507.000000	57.481974
2506.000000	57.576915
2505.000000	57.674878
2504.000000	57.773789
2503.000000	57.871275
2502.000000	57.963675
2501.000000	58.047232
2500.000000	58.120214
2499.000000	58.182633
2498.000000	58.234536
2497.000000	58.276914
2496.000000	58.313130
2495.000000	58.347810
2494.000000	58.384590
2493.000000	58.425967
2492.000000	58.474317
2491.000000	58.530557
2490.000000	58.592269
2489.000000	58.654888
2488.000000	58.714239
2487.000000	58.766754
2486.000000	58.808622
2485.000000	58.837363
2484.000000	58.854145
2483.000000	58.862532
2482.000000	58.865928
2481.000000	58.867661
2480.000000	58.872341
2479.000000	58.884643
2478.000000	58.906778
2477.000000	58.938728
2476.000000	58.979700
2475.000000	59.027282
2474.000000	59.075940
2473.000000	59.119112
2472.000000	59.152670
2471.000000	59.175148
2470.000000	59.185752
2469.000000	59.184943
2468.000000	59.176270
2467.000000	59.165437
2466.000000	59.157515
2465.000000	59.156345
2464.000000	59.165472
2463.000000	59.186904
2462.000000	59.219240
2461.000000	59.258708
2460.000000	59.301733
2459.000000	59.344692
2458.000000	59.382636
2457.000000	59.410878
2456.000000	59.427902
2455.000000	59.434989
2454.000000	59.433985
2453.000000	59.427406
2452.000000	59.419875
2451.000000	59.416802
2450.000000	59.421480
2449.000000	59.434944
2448.000000	59.457558
2447.000000	59.488623
2446.000000	59.524991
2445.000000	59.562481
2444.000000	59.598140
2443.000000	59.629939
2442.000000	59.655391
2441.000000	59.672911
2440.000000	59.683922
2439.000000	59.691591
2438.000000	59.698197
2437.000000	59.705420
2436.000000	59.715943
2435.000000	59.732009
2434.000000	59.753010
2433.000000	59.776567
2432.000000	59.801270
2431.000000	59.826360
2430.000000	59.850062
2429.000000	59.870907
2428.000000	59.890118
2427.000000	59.910362
2426.000000	59.932626
2425.000000	59.956541
2424.000000	59.982686
2423.000000	60.012002
2422.000000	60.043521
2421.000000	60.075018
2420.000000	60.105340
2419.000000	60.133846
2418.000000	60.158545
2417.000000	60.177432
2416.000000	60.191313
2415.000000	60.202971
2414.000000	60.214323
2413.000000	60.226727
2412.000000	60.243178
2411.000000	60.267230
2410.000000	60.299934
2409.000000	60.339885
2408.000000	60.385359
2407.000000	60.434087
2406.000000	60.481517
2405.000000	60.522275
2404.000000	60.553321
2403.000000	60.574056
2402.000000	60.584382
2401.000000	60.585659
2400.000000	60.582817
2399.000000	60.582753
2398.000000	60.590677
2397.000000	60.609775
2396.000000	60.642983
2395.000000	60.691724
2394.000000	60.753295
2393.000000	60.821672
2392.000000	60.891010
2391.000000	60.956060
2390.000000	61.010767
2389.000000	61.049854
2388.000000	61.072321
2387.000000	61.081240
2386.000000	61.080924
2385.000000	61.076620
2384.000000	61.075913
2383.000000	61.086894
2382.000000	61.114490
2381.000000	61.160227
2380.000000	61.224371
2379.000000	61.305795
2378.000000	61.399320
2377.000000	61.496774
2376.000000	61.590556
2375.000000	61.674504
2374.000000	61.742570
2373.000000	61.790509
2372.000000	61.820134
2371.000000	61.838445
2370.000000	61.852882
2369.000000	61.870072
2368.000000	61.898549
2367.000000	61.946379
2366.000000	62.015298
2365.000000	62.101364
2364.000000	62.200223
2363.000000	62.306421
2362.000000	62.411269
2361.000000	62.505321
2360.000000	62.583965
2359.000000	62.648197
2358.000000	62.698537
2357.000000	62.736319
2356.000000	62.767693
2355.000000	62.799511
2354.000000	62.835216
2353.000000	62.877388
2352.000000	62.931829
2351.000000	63.000756
2350.000000	63.079343
2349.000000	63.163854
2348.000000	63.253041
2347.000000	63.346574
2346.000000	63.441638
2345.000000	63.532712
2344.000000	63.613934
2343.000000	63.680148
2342.000000	63.733550
2341.000000	63.779381
2340.000000	63.825939
2339.000000	63.881638
2338.000000	63.950335
2337.000000	64.032195
2336.000000	64.125730
2335.000000	64.227792
2334.000000	64.329688
2333.000000	64.422955
2332.000000	64.504898
2331.000000	64.577937
2330.000000	64.640405
2329.000000	64.693119
2328.000000	64.739725
2327.000000	64.788493
2326.000000	64.841675
2325.000000	64.899262
2324.000000	64.963742
2323.000000	65.038172
2322.000000	65.121742
2321.000000	65.208687
2320.000000	65.294592
2319.000000	65.375973
2318.000000	65.447485
2317.000000	65.505361
2316.000000	65.550840
2315.000000	65.590441
2314.000000	65.627953
2313.000000	65.667123
2312.000000	65.711937
2311.000000	65.767386
2310.000000	65.831932
2309.000000	65.901897
2308.000000	65.974341
2307.000000	66.048835
2306.000000	66.121392
2305.000000	66.187466
2304.000000	66.245551
2303.000000	66.298480
2302.000000	66.348005
2301.000000	66.396017
2300.000000	66.445964
2299.000000	66.502118
2298.000000	66.564029
2297.000000	66.629111
2296.000000	66.696150
2295.000000	66.765432
2294.000000	66.833594
2293.000000	66.895836
2292.000000	66.950681
2291.000000	67.000049
2290.000000	67.044626
2289.000000	67.084660
2288.000000	67.124027
2287.000000	67.168657
2286.000000	67.220999
2285.000000	67.279705
2284.000000	67.343858
2283.000000	67.412572
2282.000000	67.481588
2281.000000	67.544854
2280.000000	67.599677
2279.000000	67.646114
2278.000000	67.682777
2277.000000	67.708177
2276.000000	67.725822
2275.000000	67.743102
2274.000000	67.765394
2273.000000	67.795429
2272.000000	67.836899
2271.000000	67.893027
2270.000000	67.961487
2269.000000	68.035182
2268.000000	68.107848
2267.000000	68.174648
2266.000000	68.228996
2265.000000	68.264574
2264.000000	68.280925
2263.000000	68.282858
2262.000000	68.275121
2261.000000	68.262449
2260.000000	68.253247
2259.000000	68.257311
2258.000000	68.279393
2257.000000	68.318990
2256.000000	68.374737
2255.000000	68.443696
2254.000000	68.516905
2253.000000	68.581751
2252.000000	68.629144
2251.000000	68.654932
2250.000000	68.655713
2249.000000	68.631506
2248.000000	68.587787
2247.000000	68.535444
2246.000000	68.483818
2245.000000	68.439992
2244.000000	68.412556
2243.000000	68.409080
2242.000000	68.429630
2241.000000	68.466961
2240.000000	68.512725
2239.000000	68.558512
2238.000000	68.592738
2237.000000	68.603276
2236.000000	68.584683
2235.000000	68.538797
2234.000000	68.469355
2233.000000	68.381790
2232.000000	68.286985
2231.000000	68.199119
2230.000000	68.128231
2229.000000	68.079003
2228.000000	68.054415
2227.000000	68.054923
2226.000000	68.073861
2225.000000	68.099371
2224.000000	68.121309
2223.000000	68.132522
2222.000000	68.125176
2221.000000	68.092467
2220.000000	68.034851
2219.000000	67.959518
2218.000000	67.874336
2217.000000	67.786580
2216.000000	67.706427
2215.000000	67.644679
2214.000000	67.606380
2213.000000	67.590306
2212.000000	67.594069
2211.000000	67.614607
2210.000000	67.644443
2209.000000	67.673280
2208.000000	67.693890
2207.000000	67.702900
2206.000000	67.696882
2205.000000	67.673748
2204.000000	67.637575
2203.000000	67.596995
2202.000000	67.558569
2201.000000	67.526102
2200.000000	67.504620
2199.000000	67.499165
2198.000000	67.509583
2197.000000	67.531481
2196.000000	67.561966
2195.000000	67.599440
2194.000000	67.638981
2193.000000	67.673649
2192.000000	67.700821
2191.000000	67.722038
2190.000000	67.737468
2189.000000	67.745708
2188.000000	67.748599
2187.000000	67.750454
2186.000000	67.752466
2185.000000	67.753152
2184.000000	67.753619
2183.000000	67.757029
2182.000000	67.763066
2181.000000	67.768695
2180.000000	67.773968
2179.000000	67.781863
2178.000000	67.792680
2177.000000	67.804098
2176.000000	67.816390
2175.000000	67.831845
2174.000000	67.849193
2173.000000	67.863862
2172.000000	67.873620
2171.000000	67.878541
2170.000000	67.876126
2169.000000	67.862506
2168.000000	67.838927
2167.000000	67.811629
2166.000000	67.785480
2165.000000	67.762724
2164.000000	67.747259
2163.000000	67.744270
2162.000000	67.755143
2161.000000	67.777587
2160.000000	67.810012
2159.000000	67.850632
2158.000000	67.892741
2157.000000	67.926910
2156.000000	67.947848
2155.000000	67.954640
2154.000000	67.945717
2153.000000	67.919849
2152.000000	67.881919
2151.000000	67.841718
2150.000000	67.806978
2149.000000	67.782226
2148.000000	67.773155
2147.000000	67.784740
2146.000000	67.815324
2145.000000	67.857653
2144.000000	67.905230
2143.000000	67.952253
2142.000000	67.989595
2141.000000	68.007977
2140.000000	68.005312
2139.000000	67.985396
2138.000000	67.950591
2137.000000	67.902704
2136.000000	67.849788
2135.000000	67.804698
2134.000000	67.776010
2133.000000	67.766327
2132.000000	67.777661
2131.000000	67.811239
2130.000000	67.861509
2129.000000	67.917117
2128.000000	67.968677
2127.000000	68.010406
2126.000000	68.035381
2125.000000	68.036853
2124.000000	68.015361
2123.000000	67.978113
2122.000000	67.931720
2121.000000	67.881660
2120.000000	67.838277
2119.000000	67.814789
2118.000000	67.817967
2117.000000	67.845800
2116.000000	67.893870
2115.000000	67.957563
2114.000000	68.028030
2113.000000	68.093341
2112.000000	68.145777
2111.000000	68.183261
2110.000000	68.204086
2109.000000	68.207284
2108.000000	68.198328
2107.000000	68.188235
2106.000000	68.185865
2105.000000	68.196424
2104.000000	68.226343
2103.000000	68.281959
2102.000000	68.362788
2101.000000	68.461438
2100.000000	68.570842
2099.000000	68.685936
2098.000000	68.797587
2097.000000	68.893268
2096.000000	68.966812
2095.000000	69.021976
2094.000000	69.065636
2093.000000	69.103082
2092.000000	69.140370
2091.000000	69.184468
2090.000000	69.239068
2089.000000	69.304518
2088.000000	69.381865
2087.000000	69.471578
2086.000000	69.568193
2085.000000	69.662171
2084.000000	69.747317
2083.000000	69.821176
2082.000000	69.879020
2081.000000	69.914770
2080.000000	69.928528
2079.000000	69.927230
2078.000000	69.916679
2077.000000	69.899989
2076.000000	69.882233
2075.000000	69.869965
2074.000000	69.865428
2073.000000	69.864854
2072.000000	69.863391
2071.000000	69.858533
2070.000000	69.851008
2069.000000	69.845844
2068.000000	69.849163
2067.000000	69.858871
2066.000000	69.863348
2065.000000	69.854856
2064.000000	69.839501
2063.000000	69.828085
2062.000000	69.822308
2061.000000	69.818270
2060.000000	69.818666
2059.000000	69.831218
2058.000000	69.857082
2057.000000	69.891245
2056.000000	69.932311
2055.000000	69.982278
2054.000000	70.038717
2053.000000	70.095585
2052.000000	70.151117
2051.000000	70.208433
2050.000000	70.267941
2049.000000	70.325239
2048.000000	70.377807
2047.000000	70.428678
2046.000000	70.483784
2045.000000	70.549841
2044.000000	70.632982
2043.000000	70.733457
2042.000000	70.843448
2041.000000	70.955759
2040.000000	71.072263
2039.000000	71.198410
2038.000000	71.332874
2037.000000	71.469898
2036.000000	71.609339
2035.000000	71.754709
2034.000000	71.902995
2033.000000	72.046999
2032.000000	72.185300
2031.000000	72.321575
2030.000000	72.454409
2029.000000	72.578280
2028.000000	72.694543
2027.000000	72.811159
2026.000000	72.931990
2025.000000	73.052078
2024.000000	73.165940
2023.000000	73.275558
2022.000000	73.390569
2021.000000	73.525156
2020.000000	73.689951
2019.000000	73.879040
2018.000000	74.069592
2017.000000	74.240963
2016.000000	74.389418
2015.000000	74.519652
2014.000000	74.629703
2013.000000	74.715347
2012.000000	74.784594
2011.000000	74.854194
2010.000000	74.932529
2009.000000	75.018971
2008.000000	75.117047
2007.000000	75.232883
2006.000000	75.363995
2005.000000	75.499287
2004.000000	75.632770
2003.000000	75.763600
2002.000000	75.884204
2001.000000	75.983917
2000.000000	76.055408
1999.000000	76.090003
1998.000000	76.078359
1997.000000	76.032010
1996.000000	75.992822
1995.000000	75.998248
1994.000000	76.043531
1993.000000	76.104819
1992.000000	76.185336
1991.000000	76.305509
1990.000000	76.459977
1989.000000	76.615466
1988.000000	76.748662
1987.000000	76.859386
1986.000000	76.947936
1985.000000	77.004316
1984.000000	77.027139
1983.000000	77.029195
1982.000000	77.019374
1981.000000	77.001243
1980.000000	76.986469
1979.000000	76.992542
1978.000000	77.024414
1977.000000	77.075772
1976.000000	77.145000
1975.000000	77.230219
1974.000000	77.310854
1973.000000	77.358800
1972.000000	77.372444
1971.000000	77.380933
1970.000000	77.406793
1969.000000	77.439314
1968.000000	77.456943
1967.000000	77.458251
1966.000000	77.455206
1965.000000	77.455937
1964.000000	77.467350
1963.000000	77.496213
1962.000000	77.540126
1961.000000	77.589134
1960.000000	77.640603
1959.000000	77.700853
1958.000000	77.767566
1957.000000	77.826157
1956.000000	77.866499
1955.000000	77.890508
1954.000000	77.899754
1953.000000	77.887231
1952.000000	77.854289
1951.000000	77.816692
1950.000000	77.781616
1949.000000	77.737423
1948.000000	77.679443
1947.000000	77.633292
1946.000000	77.637274
1945.000000	77.698764
1944.000000	77.783262
1943.000000	77.858393
1942.000000	77.920661
1941.000000	77.974345
1940.000000	78.016540
1939.000000	78.040383
1938.000000	78.041754
1937.000000	78.027547
1936.000000	78.013879
1935.000000	78.013312
1934.000000	78.024408
1933.000000	78.033758
1932.000000	78.038943
1931.000000	78.045231
1930.000000	78.038644
1929.000000	77.989194
1928.000000	77.890256
1927.000000	77.788571
1926.000000	77.740547
1925.000000	77.746177
1924.000000	77.763074
1923.000000	77.775704
1922.000000	77.802880
1921.000000	77.853599
1920.000000	77.901366
1919.000000	77.916101
1918.000000	77.904991
1917.000000	77.890668
1916.000000	77.871266
1915.000000	77.827989
1914.000000	77.755997
1913.000000	77.676050
1912.000000	77.620136
1911.000000	77.600694
1910.000000	77.605315
1909.000000	77.619893
1908.000000	77.639634
1907.000000	77.668496
1906.000000	77.701333
1905.000000	77.723214
1904.000000	77.729306
1903.000000	77.722007
1902.000000	77.692451
1901.000000	77.627048
1900.000000	77.531801
1899.000000	77.442327
1898.000000	77.389878
1897.000000	77.366288
1896.000000	77.342277
1895.000000	77.310074
1894.000000	77.289567
1893.000000	77.308412
1892.000000	77.371411
1891.000000	77.443476
1890.000000	77.489460
1889.000000	77.511565
1888.000000	77.530227
1887.000000	77.551012
1886.000000	77.555014
1885.000000	77.524061
1884.000000	77.472086
1883.000000	77.430664
1882.000000	77.413480
1881.000000	77.415762
1880.000000	77.433966
1879.000000	77.469578
1878.000000	77.514621
1877.000000	77.545103
1876.000000	77.538769
1875.000000	77.488034
1874.000000	77.390740
1873.000000	77.255416
1872.000000	77.123021
1871.000000	77.033941
1870.000000	76.980058
1869.000000	76.948262
1868.000000	76.957090
1867.000000	77.013539
1866.000000	77.088963
1865.000000	77.150967
1864.000000	77.193953
1863.000000	77.229348
1862.000000	77.258367
1861.000000	77.269683
1860.000000	77.258375
1859.000000	77.227695
1858.000000	77.176346
1857.000000	77.103466
1856.000000	77.021369
1855.000000	76.942606
1854.000000	76.856888
1853.000000	76.757906
1852.000000	76.665754
1851.000000	76.611377
1850.000000	76.602831
1849.000000	76.626686
1848.000000	76.671893
1847.000000	76.718720
1846.000000	76.709285
1845.000000	76.601060
1844.000000	76.448455
1843.000000	76.334524
1842.000000	76.270215
1841.000000	76.220386
1840.000000	76.170828
1839.000000	76.137523
1838.000000	76.126050
1837.000000	76.120729
1836.000000	76.110578
1835.000000	76.091879
1834.000000	76.058942
1833.000000	76.024281
1832.000000	75.978752
1831.000000	75.866908
1830.000000	75.685783
1829.000000	75.507160
1828.000000	75.395222
1827.000000	75.342493
1826.000000	75.292531
1825.000000	75.233178
1824.000000	75.203284
1823.000000	75.213907
1822.000000	75.231484
1821.000000	75.231282
1820.000000	75.220140
1819.000000	75.204923
1818.000000	75.157688
1817.000000	75.047707
1816.000000	74.890937
1815.000000	74.731307
1814.000000	74.598016
1813.000000	74.482634
1812.000000	74.371362
1811.000000	74.282940
1810.000000	74.235086
1809.000000	74.206029
1808.000000	74.156392
1807.000000	74.067741
1806.000000	73.950729
1805.000000	73.837987
1804.000000	73.768225
1803.000000	73.733059
1802.000000	73.678125
1801.000000	73.568590
1800.000000	73.437162
1799.000000	73.342216
1798.000000	73.296692
1797.000000	73.264820
1796.000000	73.218081
1795.000000	73.164777
1794.000000	73.112208
1793.000000	73.035159
1792.000000	72.947498
1791.000000	72.893591
1790.000000	72.867736
1789.000000	72.833442
1788.000000	72.779439
1787.000000	72.707550
1786.000000	72.604311
1785.000000	72.474706
1784.000000	72.377773
1783.000000	72.353403
1782.000000	72.363557
1781.000000	72.338779
1780.000000	72.271536
1779.000000	72.200429
1778.000000	72.134972
1777.000000	72.063251
1776.000000	71.995507
1775.000000	71.942762
1774.000000	71.846895
1773.000000	71.648655
1772.000000	71.431978
1771.000000	71.333104
1770.000000	71.360333
1769.000000	71.408972
1768.000000	71.418990
1767.000000	71.412439
1766.000000	71.408837
1765.000000	71.391463
1764.000000	71.320298
1763.000000	71.149871
1762.000000	70.908461
1761.000000	70.681274
1760.000000	70.543239
1759.000000	70.488595
1758.000000	70.420397
1757.000000	70.283977
1756.000000	70.127762
1755.000000	70.007134
1754.000000	69.910026
1753.000000	69.793467
1752.000000	69.649677
1751.000000	69.530719
1750.000000	69.448496
1749.000000	69.340480
1748.000000	69.185330
1747.000000	69.035685
1746.000000	68.942943
1745.000000	68.897673
1744.000000	68.867193
1743.000000	68.839339
1742.000000	68.801066
1741.000000	68.714552
1740.000000	68.584338
1739.000000	68.473993
1738.000000	68.407320
1737.000000	68.342597
1736.000000	68.186898
1735.000000	67.839009
1734.000000	67.411590
1733.000000	67.101481
1732.000000	66.954674
1731.000000	66.881985
1730.000000	66.775345
1729.000000	66.601728
1728.000000	66.404096
1727.000000	66.231243
1726.000000	66.092423
1725.000000	65.953543
1724.000000	65.785565
1723.000000	65.579319
1722.000000	65.311371
1721.000000	64.985250
1720.000000	64.660667
1719.000000	64.332049
1718.000000	63.967391
1717.000000	63.609470
1716.000000	63.305020
1715.000000	63.059453
1714.000000	62.852927
1713.000000	62.659052
1712.000000	62.465258
1711.000000	62.264060
1710.000000	62.032126
1709.000000	61.762091
1708.000000	61.479089
1707.000000	61.187634
1706.000000	60.889620
1705.000000	60.656505
1704.000000	60.537289
1703.000000	60.394311
1702.000000	59.991291
1701.000000	59.273797
1700.000000	58.539689
1699.000000	58.153239
1698.000000	58.067237
1697.000000	57.901189
1696.000000	57.509426
1695.000000	57.052952
1694.000000	56.661685
1693.000000	56.317135
1692.000000	55.965478
1691.000000	55.584757
1690.000000	55.177367
1689.000000	54.788325
1688.000000	54.457372
1687.000000	54.219409
1686.000000	53.977117
1685.000000	53.445885
1684.000000	52.724026
1683.000000	52.181503
1682.000000	51.896329
1681.000000	51.702673
1680.000000	51.488546
1679.000000	51.255322
1678.000000	50.993771
1677.000000	50.614115
1676.000000	50.073635
1675.000000	49.492136
1674.000000	49.024055
1673.000000	48.685688
1672.000000	48.398143
1671.000000	48.057250
1670.000000	47.608531
1669.000000	47.111537
1668.000000	46.669948
1667.000000	46.323939
1666.000000	46.027110
1665.000000	45.695028
1664.000000	45.268289
1663.000000	44.773878
1662.000000	44.300406
1661.000000	43.891316
1660.000000	43.532784
1659.000000	43.208022
1658.000000	42.922624
1657.000000	42.690621
1656.000000	42.567641
1655.000000	42.403126
1654.000000	41.867276
1653.000000	41.102508
1652.000000	40.467873
1651.000000	40.076843
1650.000000	39.862183
1649.000000	39.715332
1648.000000	39.455975
1647.000000	39.040364
1646.000000	38.623772
1645.000000	38.293020
1644.000000	38.029815
1643.000000	37.799764
1642.000000	37.564153
1641.000000	37.300140
1640.000000	37.036500
1639.000000	36.842233
1638.000000	36.708717
1637.000000	36.462278
1636.000000	36.026984
1635.000000	35.577151
1634.000000	35.261074
1633.000000	35.053964
1632.000000	34.885775
1631.000000	34.727323
1630.000000	34.567619
1629.000000	34.385038
1628.000000	34.184845
1627.000000	34.004532
1626.000000	33.858547
1625.000000	33.706322
1624.000000	33.504550
1623.000000	33.285259
1622.000000	33.112234
1621.000000	33.002911
1620.000000	32.944792
1619.000000	32.919552
1618.000000	32.874179
1617.000000	32.772190
1616.000000	32.658565
1615.000000	32.599978
1614.000000	32.599396
1613.000000	32.609440
1612.000000	32.603544
1611.000000	32.597184
1610.000000	32.605603
1609.000000	32.613185
1608.000000	32.608626
1607.000000	32.608005
1606.000000	32.626669
1605.000000	32.661837
1604.000000	32.710718
1603.000000	32.782831
1602.000000	32.878750
1601.000000	32.979612
1600.000000	33.073778
1599.000000	33.170554
1598.000000	33.277839
1597.000000	33.383944
1596.000000	33.475455
1595.000000	33.555696
1594.000000	33.631396
1593.000000	33.698579
1592.000000	33.757400
1591.000000	33.821394
1590.000000	33.898823
1589.000000	33.983038
1588.000000	34.070204
1587.000000	34.172065
1586.000000	34.291470
1585.000000	34.414400
1584.000000	34.528722
1583.000000	34.632388
1582.000000	34.718992
1581.000000	34.782507
1580.000000	34.841995
1579.000000	34.935646
1578.000000	35.048720
1577.000000	35.104807
1576.000000	35.106674
1575.000000	35.132202
1574.000000	35.213856
1573.000000	35.322964
1572.000000	35.434327
1571.000000	35.535494
1570.000000	35.621485
1569.000000	35.713235
1568.000000	35.823780
1567.000000	35.949518
1566.000000	36.071278
1565.000000	36.181722
1564.000000	36.295627
1563.000000	36.416517
1562.000000	36.498110
1561.000000	36.658310
1560.000000	36.730469
1559.000000	36.661704
1558.000000	36.699213
1557.000000	36.855205
1556.000000	37.042550
1555.000000	37.215295
1554.000000	37.371419
1553.000000	37.545068
1552.000000	37.763695
1551.000000	38.017368
1550.000000	38.263680
1549.000000	38.466663
1548.000000	38.616730
1547.000000	38.759548
1546.000000	38.953135
1545.000000	39.199496
1544.000000	39.458461
1543.000000	39.755751
1542.000000	40.162540
1541.000000	40.583466
1540.000000	40.972314
1539.000000	41.386004
1538.000000	41.787078
1537.000000	42.134057
1536.000000	42.467446
1535.000000	42.835949
1534.000000	43.241677
1533.000000	43.671205
1532.000000	44.089570
1531.000000	44.467526
1530.000000	44.823764
1529.000000	45.199476
1528.000000	45.617166
1527.000000	46.064426
1526.000000	46.509384
1525.000000	46.924233
1524.000000	47.351982
1523.000000	47.845400
1522.000000	48.372660
1521.000000	48.886738
1520.000000	49.361886
1519.000000	49.847326
1518.000000	50.395866
1517.000000	50.969931
1516.000000	51.519774
1515.000000	52.004107
1514.000000	52.389424
1513.000000	52.669648
1512.000000	52.863971
1511.000000	53.042389
1510.000000	53.372539
1509.000000	54.085229
1508.000000	54.915678
1507.000000	55.603541
1506.000000	56.285752
1505.000000	56.916944
1504.000000	57.440830
1503.000000	57.937248
1502.000000	58.429184
1501.000000	58.885502
1500.000000	59.307769
1499.000000	59.747942
1498.000000	60.214152
1497.000000	60.648213
1496.000000	61.017118
1495.000000	61.317288
1494.000000	61.520112
1493.000000	61.635079
1492.000000	61.797510
1491.000000	62.138958
1490.000000	62.653269
1489.000000	63.234739
1488.000000	63.785095
1487.000000	64.278178
1486.000000	64.686322
1485.000000	64.970292
1484.000000	65.153105
1483.000000	65.288734
1482.000000	65.371364
1481.000000	65.352315
1480.000000	65.233088
1479.000000	65.061654
1478.000000	64.850937
1477.000000	64.572714
1476.000000	64.258095
1475.000000	63.979924
1474.000000	63.617628
1473.000000	62.898482
1472.000000	61.817884
1471.000000	60.594925
1470.000000	59.267931
1469.000000	57.705973
1468.000000	55.815469
1467.000000	53.515912
1466.000000	50.601663
1465.000000	46.982488
1464.000000	43.051433
1463.000000	39.343752
1462.000000	35.982749
1461.000000	32.831695
1460.000000	29.851406
1459.000000	27.001534
1458.000000	24.031522
1457.000000	20.999228
1456.000000	18.586619
1455.000000	17.149556
1454.000000	16.349167
1453.000000	15.841273
1452.000000	15.571311
1451.000000	15.590226
1450.000000	15.887155
1449.000000	16.440528
1448.000000	17.282195
1447.000000	18.381505
1446.000000	19.609806
1445.000000	20.893904
1444.000000	22.265739
1443.000000	23.742973
1442.000000	25.260186
1441.000000	26.739662
1440.000000	28.163029
1439.000000	29.587189
1438.000000	31.121913
1437.000000	32.855640
1436.000000	34.699096
1435.000000	36.412844
1434.000000	37.905036
1433.000000	39.275582
1432.000000	40.619370
1431.000000	41.922917
1430.000000	43.100477
1429.000000	44.077400
1428.000000	44.820723
1427.000000	45.349140
1426.000000	45.725974
1425.000000	46.004733
1424.000000	46.199528
1423.000000	46.310348
1422.000000	46.351014
1421.000000	46.395645
1420.000000	46.535483
1419.000000	46.823276
1418.000000	47.285281
1417.000000	47.899778
1416.000000	48.613349
1415.000000	49.387108
1414.000000	50.217752
1413.000000	51.129172
1412.000000	52.125330
1411.000000	53.161153
1410.000000	54.180613
1409.000000	55.159659
1408.000000	56.108496
1407.000000	57.055534
1406.000000	58.021081
1405.000000	58.997153
1404.000000	59.925312
1403.000000	60.719470
1402.000000	61.361084
1401.000000	61.920813
1400.000000	62.455713
1399.000000	62.966258
1398.000000	63.465133
1397.000000	63.988998
1396.000000	64.521894
1395.000000	64.999034
1394.000000	65.398384
1393.000000	65.728470
1392.000000	65.960268
1391.000000	66.059926
1390.000000	66.054510
1389.000000	65.989906
1388.000000	65.835028
1387.000000	65.549222
1386.000000	65.214506
1385.000000	64.977872
1384.000000	64.913665
1383.000000	65.005629
1382.000000	65.197441
1381.000000	65.408728
1380.000000	65.538704
1379.000000	65.515697
1378.000000	65.356400
1377.000000	65.148063
1376.000000	64.959755
1375.000000	64.778547
1374.000000	64.570109
1373.000000	64.336057
1372.000000	64.076346
1371.000000	63.786968
1370.000000	63.476117
1369.000000	63.140997
1368.000000	62.754624
1367.000000	62.295147
1366.000000	61.790529
1365.000000	61.309338
1364.000000	60.874643
1363.000000	60.438149
1362.000000	59.971145
1361.000000	59.486560
1360.000000	58.986118
1359.000000	58.477717
1358.000000	58.019275
1357.000000	57.695205
1356.000000	57.560172
1355.000000	57.620801
1354.000000	57.856409
1353.000000	58.217695
1352.000000	58.620511
1351.000000	58.972850
1350.000000	59.196978
1349.000000	59.226682
1348.000000	58.999518
1347.000000	58.471208
1346.000000	57.622991
1345.000000	56.452082
1344.000000	54.981116
1343.000000	53.278176
1342.000000	51.443996
1341.000000	49.544510
1340.000000	47.582782
1339.000000	45.559943
1338.000000	43.492960
1337.000000	41.363499
1336.000000	39.117217
1335.000000	36.725197
1334.000000	34.212727
1333.000000	31.628365
1332.000000	29.029811
1331.000000	26.501881
1330.000000	24.141312
1329.000000	22.008045
1328.000000	20.118189
1327.000000	18.468827
1326.000000	17.035793
1325.000000	15.768402
1324.000000	14.617145
1323.000000	13.568708
1322.000000	12.630707
1321.000000	11.801777
1320.000000	11.089009
1319.000000	10.528230
1318.000000	10.165444
1317.000000	10.025228
1316.000000	10.114985
1315.000000	10.446552
1314.000000	11.017437
1313.000000	11.794054
1312.000000	12.732926
1311.000000	13.802933
1310.000000	14.983712
1309.000000	16.249058
1308.000000	17.570631
1307.000000	18.927840
1306.000000	20.299655
1305.000000	21.659792
1304.000000	22.985338
1303.000000	24.264459
1302.000000	25.490640
1301.000000	26.655281
1300.000000	27.748767
1299.000000	28.764700
1298.000000	29.695852
1297.000000	30.530440
1296.000000	31.266753
1295.000000	31.931671
1294.000000	32.580354
1293.000000	33.276924
1292.000000	34.076364
1291.000000	35.017038
1290.000000	36.117208
1289.000000	37.368576
1288.000000	38.735556
1287.000000	40.168579
1286.000000	41.619778
1285.000000	43.050375
1284.000000	44.428219
1283.000000	45.728540
1282.000000	46.939015
1281.000000	48.056129
1280.000000	49.073604
1279.000000	49.984602
1278.000000	50.794401
1277.000000	51.515198
1276.000000	52.156667
1275.000000	52.732480
1274.000000	53.272965
1273.000000	53.817739
1272.000000	54.392701
1271.000000	55.008414
1270.000000	55.674766
1269.000000	56.400414
1268.000000	57.179716
1267.000000	57.994014
1266.000000	58.825819
1265.000000	59.659382
1264.000000	60.470490
1263.000000	61.234469
1262.000000	61.942555
1261.000000	62.594319
1260.000000	63.177471
1259.000000	63.674957
1258.000000	64.092235
1257.000000	64.452529
1256.000000	64.770787
1255.000000	65.052272
1254.000000	65.308230
1253.000000	65.552135
1252.000000	65.777350
1251.000000	65.960947
1250.000000	66.086563
1249.000000	66.143183
1248.000000	66.112569
1247.000000	65.976205
1246.000000	65.736288
1245.000000	65.412230
1244.000000	65.016510
1243.000000	64.557311
1242.000000	64.053997
1241.000000	63.529748
1240.000000	62.992792
1239.000000	62.438379
1238.000000	61.867804
1237.000000	61.287027
1236.000000	60.693285
1235.000000	60.081759
1234.000000	59.462053
1233.000000	58.854488
1232.000000	58.275651
1231.000000	57.741035
1230.000000	57.274192
1229.000000	56.902403
1228.000000	56.641423
1227.000000	56.496186
1226.000000	56.471199
1225.000000	56.563485
1224.000000	56.755867
1223.000000	57.023562
1222.000000	57.348088
1221.000000	57.718415
1220.000000	58.118347
1219.000000	58.530718
1218.000000	58.949588
1217.000000	59.378252
1216.000000	59.819548
1215.000000	60.276678
1214.000000	60.762328
1213.000000	61.290836
1212.000000	61.860717
1211.000000	62.456877
1210.000000	63.066841
1209.000000	63.681652
1208.000000	64.282711
1207.000000	64.845152
1206.000000	65.356337
1205.000000	65.818560
1204.000000	66.234215
1203.000000	66.606026
1202.000000	66.951886
1201.000000	67.299887
1200.000000	67.668225
1199.000000	68.062235
1198.000000	68.487610
1197.000000	68.948691
1196.000000	69.432239
1195.000000	69.911009
1194.000000	70.363651
1193.000000	70.776628
1192.000000	71.131520
1191.000000	71.410550
1190.000000	71.618824
1189.000000	71.782626
1188.000000	71.925217
1187.000000	72.062921
1186.000000	72.219878
1185.000000	72.424175
1184.000000	72.682929
1183.000000	72.974617
1182.000000	73.268386
1181.000000	73.538211
1180.000000	73.763859
1179.000000	73.937544
1178.000000	74.069719
1177.000000	74.173566
1176.000000	74.244973
1175.000000	74.274679
1174.000000	74.274129
1173.000000	74.269567
1172.000000	74.276994
1171.000000	74.300181
1170.000000	74.347128
1169.000000	74.426141
1168.000000	74.527211
1167.000000	74.627442
1166.000000	74.713313
1165.000000	74.780995
1164.000000	74.820003
1163.000000	74.818150
1162.000000	74.781964
1161.000000	74.731601
1160.000000	74.677706
1159.000000	74.622017
1158.000000	74.574970
1157.000000	74.551660
1156.000000	74.552087
1155.000000	74.564254
1154.000000	74.583358
1153.000000	74.608964
1152.000000	74.628072
1151.000000	74.623469
1150.000000	74.598357
1149.000000	74.572836
1148.000000	74.558581
1147.000000	74.555751
1146.000000	74.570556
1145.000000	74.613036
1144.000000	74.677625
1143.000000	74.745488
1142.000000	74.804946
1141.000000	74.851939
1140.000000	74.874564
1139.000000	74.859031
1138.000000	74.809539
1137.000000	74.744326
1136.000000	74.675132
1135.000000	74.608703
1134.000000	74.563456
1133.000000	74.562702
1132.000000	74.610912
1131.000000	74.693378
1130.000000	74.795586
1129.000000	74.904233
1128.000000	74.992475
1127.000000	75.026366
1126.000000	74.988323
1125.000000	74.876587
1124.000000	74.689444
1123.000000	74.429900
1122.000000	74.123108
1121.000000	73.809279
1120.000000	73.516368
1119.000000	73.256029
1118.000000	73.037602
1117.000000	72.863166
1116.000000	72.711272
1115.000000	72.541836
1114.000000	72.319488
1113.000000	72.017171
1112.000000	71.602990
1111.000000	71.051477
1110.000000	70.361730
1109.000000	69.554076
1108.000000	68.650537
1107.000000	67.668420
1106.000000	66.632559
1105.000000	65.563731
1104.000000	64.461248
1103.000000	63.308198
1102.000000	62.083664
1101.000000	60.763374
1100.000000	59.312133
1099.000000	57.695010
1098.000000	55.895397
1097.000000	53.909114
1096.000000	51.738897
1095.000000	49.395909
1094.000000	46.901775
1093.000000	44.284460
1092.000000	41.569796
1091.000000	38.790383
1090.000000	35.986457
1089.000000	33.198369
1088.000000	30.467309
1087.000000	27.841627
1086.000000	25.366001
1085.000000	23.070082
1084.000000	20.975967
1083.000000	19.096708
1082.000000	17.433729
1081.000000	15.972023
1080.000000	14.694197
1079.000000	13.591981
1078.000000	12.645028
1077.000000	11.824932
1076.000000	11.111775
1075.000000	10.496502
1074.000000	9.968974
1073.000000	9.509425
1072.000000	9.108319
1071.000000	8.768330
1070.000000	8.484960
1069.000000	8.246800
1068.000000	8.050256
1067.000000	7.902954
1066.000000	7.805363
1065.000000	7.746869
1064.000000	7.726192
1063.000000	7.751628
1062.000000	7.823619
1061.000000	7.932960
1060.000000	8.077459
1059.000000	8.265807
1058.000000	8.498646
1057.000000	8.767561
1056.000000	9.073195
1055.000000	9.425026
1054.000000	9.825542
1053.000000	10.267011
1052.000000	10.748557
1051.000000	11.279129
1050.000000	11.858835
1049.000000	12.479451
1048.000000	13.139801
1047.000000	13.846855
1046.000000	14.601999
1045.000000	15.398664
1044.000000	16.238254
1043.000000	17.129042
1042.000000	18.072137
1041.000000	19.062222
1040.000000	20.096851
1039.000000	21.177676
1038.000000	22.299677
1037.000000	23.451508
1036.000000	24.626901
1035.000000	25.822542
1034.000000	27.029204
1033.000000	28.232849
1032.000000	29.424887
1031.000000	30.604665
1030.000000	31.772582
1029.000000	32.927099
1028.000000	34.067546
1027.000000	35.195009
1026.000000	36.308915
1025.000000	37.407366
1024.000000	38.488567
1023.000000	39.550678
1022.000000	40.591849
1021.000000	41.609220
1020.000000	42.600183
1019.000000	43.563001
1018.000000	44.497425
1017.000000	45.404682
1016.000000	46.283704
1015.000000	47.132311
1014.000000	47.950465
1013.000000	48.739661
1012.000000	49.500841
1011.000000	50.234139
1010.000000	50.943079
1009.000000	51.633471
1008.000000	52.308126
1007.000000	52.968796
1006.000000	53.620248
1005.000000	54.267981
1004.000000	54.911506
1003.000000	55.545164
1002.000000	56.165646
1001.000000	56.770230
1000.000000	57.350657
999.000000	57.897020
998.000000	58.407166
997.000000	58.886571
996.000000	59.339017
995.000000	59.767689
994.000000	60.184169
993.000000	60.605096
992.000000	61.040575
991.000000	61.492414
990.000000	61.961705
989.000000	62.447688
988.000000	62.938735
987.000000	63.416008
986.000000	63.865894
985.000000	64.281255
984.000000	64.653655
983.000000	64.976013
982.000000	65.255143
981.000000	65.510044
980.000000	65.758628
979.000000	66.016148
978.000000	66.301508
977.000000	66.631060
976.000000	67.004399
975.000000	67.406039
974.000000	67.819977
973.000000	68.230678
972.000000	68.613936
971.000000	68.942501
970.000000	69.203561
969.000000	69.401355
968.000000	69.543891
967.000000	69.643315
966.000000	69.726909
965.000000	69.830749
964.000000	69.980428
963.000000	70.186580
962.000000	70.454346
961.000000	70.781486
960.000000	71.146689
959.000000	71.514024
958.000000	71.851013
957.000000	72.133636
956.000000	72.338786
955.000000	72.449866
954.000000	72.474580
953.000000	72.442520
952.000000	72.386515
951.000000	72.337701
950.000000	72.331747
949.000000	72.400829
948.000000	72.555681
947.000000	72.785545
946.000000	73.072873
945.000000	73.394674
944.000000	73.712228
943.000000	73.978615
942.000000	74.161898
941.000000	74.251987
940.000000	74.248590
939.000000	74.162551
938.000000	74.026497
937.000000	73.885588
936.000000	73.775709
935.000000	73.719496
934.000000	73.736732
933.000000	73.839268
932.000000	74.014954
931.000000	74.230904
930.000000	74.453374
929.000000	74.652669
928.000000	74.794552
927.000000	74.847777
926.000000	74.805120
925.000000	74.682265
924.000000	74.499294
923.000000	74.277168
922.000000	74.046533
921.000000	73.841862
920.000000	73.682453
919.000000	73.571055
918.000000	73.507098
917.000000	73.485379
916.000000	73.484233
915.000000	73.471374
914.000000	73.423237
913.000000	73.327747
912.000000	73.171909
911.000000	72.945853
910.000000	72.657034
909.000000	72.324951
908.000000	71.962976
907.000000	71.576437
906.000000	71.176388
905.000000	70.776065
904.000000	70.375436
903.000000	69.965444
902.000000	69.544081
901.000000	69.115800
900.000000	68.677203
899.000000	68.217423
898.000000	67.732319
897.000000	67.222644
896.000000	66.681149
895.000000	66.093951
894.000000	65.452416
893.000000	64.753889
892.000000	63.989898
891.000000	63.150172
890.000000	62.236253
889.000000	61.258907
888.000000	60.228502
887.000000	59.154856
886.000000	58.054371
885.000000	56.944440
884.000000	55.829805
883.000000	54.704328
882.000000	53.559360
881.000000	52.383394
880.000000	51.157619
879.000000	49.860257
878.000000	48.478703
877.000000	47.010850
876.000000	45.461204
875.000000	43.842821
874.000000	42.177621
873.000000	40.491711
872.000000	38.809255
871.000000	37.151100
870.000000	35.533187
869.000000	33.963361
868.000000	32.441426
867.000000	30.961911
866.000000	29.515690
865.000000	28.091331
864.000000	26.681570
863.000000	25.285624
862.000000	23.906516
861.000000	22.552252
860.000000	21.238431
859.000000	19.989150
858.000000	18.829201
857.000000	17.782800
856.000000	16.880877
855.000000	16.152114
854.000000	15.610950
853.000000	15.251079
852.000000	15.049937
851.000000	14.973852
850.000000	14.975048
849.000000	15.005623
848.000000	15.033864
847.000000	15.046035
846.000000	15.039783
845.000000	15.020921
844.000000	15.007350
843.000000	15.022458
842.000000	15.082940
841.000000	15.199683
840.000000	15.383816
839.000000	15.645622
838.000000	15.987776
837.000000	16.406141
836.000000	16.897430
835.000000	17.455634
834.000000	18.066966
833.000000	18.714608
832.000000	19.386172
831.000000	20.074959
830.000000	20.775894
829.000000	21.487612
828.000000	22.214944
827.000000	22.964866
826.000000	23.745506
825.000000	24.569826
824.000000	25.454658
823.000000	26.410069
822.000000	27.431123
821.000000	28.501685
820.000000	29.598451
819.000000	30.692145
818.000000	31.753774
817.000000	32.763891
816.000000	33.713315
815.000000	34.597843
814.000000	35.418610
813.000000	36.185820
812.000000	36.917462
811.000000	37.632852
810.000000	38.350408
809.000000	39.086928
808.000000	39.852400
807.000000	40.646993
806.000000	41.464567
805.000000	42.295384
804.000000	43.122467
803.000000	43.922157
802.000000	44.676180
801.000000	45.379909
800.000000	46.037422
799.000000	46.656504
798.000000	47.251860
797.000000	47.845142
796.000000	48.454590
795.000000	49.089702
794.000000	49.757326
793.000000	50.462558
792.000000	51.198274
791.000000	51.941558
790.000000	52.665386
789.000000	53.348043
788.000000	53.970695
787.000000	54.519909
786.000000	54.999331
785.000000	55.429655
784.000000	55.833108
783.000000	56.225160
782.000000	56.622682
781.000000	57.046288
780.000000	57.508069
779.000000	58.005095
778.000000	58.527246
777.000000	59.061754
776.000000	59.587269
775.000000	60.075765
774.000000	60.507995
773.000000	60.880590
772.000000	61.198298
771.000000	61.471015
770.000000	61.719949
769.000000	61.973851
768.000000	62.252651
767.000000	62.562659
766.000000	62.906685
765.000000	63.285331
764.000000	63.685932
763.000000	64.083481
762.000000	64.458037
761.000000	64.801676
760.000000	65.107462
759.000000	65.366568
758.000000	65.580797
757.000000	65.765797
756.000000	65.937692
755.000000	66.106501
754.000000	66.283337
753.000000	66.478420
752.000000	66.688037
751.000000	66.895400
750.000000	67.087200
749.000000	67.258885
748.000000	67.404215
747.000000	67.515467
746.000000	67.597454
745.000000	67.667893
744.000000	67.740465
743.000000	67.818823
742.000000	67.907730
741.000000	68.014444
740.000000	68.134408
739.000000	68.249612
738.000000	68.345291
737.000000	68.416042
736.000000	68.454934
735.000000	68.453564
734.000000	68.418679
733.000000	68.375407
732.000000	68.351107
731.000000	68.367172
730.000000	68.446763
729.000000	68.612449
728.000000	68.867741
727.000000	69.192394
726.000000	69.559469
725.000000	69.943607
724.000000	70.310944
723.000000	70.621499
722.000000	70.850957
721.000000	71.000398
720.000000	71.083261
719.000000	71.118058
718.000000	71.137572
717.000000	71.188971
716.000000	71.315387
715.000000	71.543163
714.000000	71.884262
713.000000	72.333268
712.000000	72.855793
711.000000	73.393783
710.000000	73.889853
709.000000	74.298499
708.000000	74.581444
707.000000	74.715877
706.000000	74.714171
705.000000	74.621842
704.000000	74.493006
703.000000	74.377949
702.000000	74.329017
701.000000	74.396992
700.000000	74.610358
699.000000	74.965476
698.000000	75.436143
697.000000	75.976304
696.000000	76.514395
695.000000	76.969781
694.000000	77.283661
693.000000	77.429210
692.000000	77.404196
691.000000	77.235068
690.000000	76.986836
689.000000	76.746138
688.000000	76.584181
687.000000	76.541498
686.000000	76.641563
685.000000	76.894671
684.000000	77.280274
683.000000	77.744972
682.000000	78.226066
681.000000	78.663023
680.000000	78.993286
679.000000	79.167000
678.000000	79.174314
677.000000	79.045581
676.000000	78.829439
675.000000	78.583008
674.000000	78.370068
673.000000	78.249924
672.000000	78.257118
671.000000	78.403433
670.000000	78.696640
669.000000	79.139864
668.000000	79.692825
667.000000	80.169229
666.000000	80.398161
665.000000	80.449236
664.000000	80.428320
663.000000	80.345830
662.000000	80.201481
661.000000	80.039498
660.000000	79.916918
659.000000	79.862382
658.000000	79.890343
657.000000	80.011119
656.000000	80.212057
655.000000	80.453733
654.000000	80.696793
653.000000	80.918569
652.000000	81.098126
651.000000	81.209597
650.000000	81.245851
649.000000	81.228958
648.000000	81.184755
647.000000	81.132295
646.000000	81.101788
645.000000	81.129134
644.000000	81.220342
643.000000	81.347077
642.000000	81.484539
641.000000	81.626571
640.000000	81.756867
639.000000	81.838015
638.000000	81.848729
637.000000	81.808681
636.000000	81.753097
635.000000	81.706681
634.000000	81.690432
633.000000	81.725345
632.000000	81.815700
631.000000	81.944348
630.000000	82.092218
629.000000	82.245584
628.000000	82.382703
627.000000	82.478338
626.000000	82.526079
625.000000	82.533745
624.000000	82.495562
623.000000	82.401267
622.000000	82.275241
621.000000	82.171491
620.000000	82.126380
619.000000	82.145361
618.000000	82.234013
617.000000	82.404157
616.000000	82.637282
615.000000	82.877281
614.000000	83.073440
613.000000	83.203503
612.000000	83.251804
611.000000	83.202672
610.000000	83.070932
609.000000	82.905824
608.000000	82.750137
607.000000	82.624838
606.000000	82.554535
605.000000	82.566308
604.000000	82.651813
603.000000	82.765412
602.000000	82.873565
601.000000	82.970015
600.000000	83.024425
599.000000	82.964211
598.000000	82.732890
597.000000	82.334668
596.000000	81.816735
595.000000	81.254086
594.000000	80.764155
593.000000	80.482660
592.000000	80.486959
591.000000	80.747641
590.000000	81.165975
589.000000	81.642609
588.000000	82.102507
587.000000	82.497449
586.000000	82.810098
585.000000	83.038058
584.000000	83.163184
583.000000	83.169137
582.000000	83.092022
581.000000	83.009617
580.000000	82.966058
579.000000	82.954631
578.000000	82.986098
577.000000	83.115757
576.000000	83.373864
575.000000	83.704414
574.000000	84.011595
573.000000	84.234657
572.000000	84.351507
571.000000	84.355598
570.000000	84.266367
569.000000	84.128450
568.000000	83.976859
567.000000	83.826132
566.000000	83.699884
565.000000	83.638633
564.000000	83.663164
563.000000	83.761666
562.000000	83.916862
561.000000	84.117135
560.000000	84.332380
559.000000	84.509240
558.000000	84.606720
557.000000	84.616949
556.000000	84.542789
555.000000	84.386310
554.000000	84.172881
553.000000	83.954436
552.000000	83.777187
551.000000	83.668327
550.000000	83.651481
549.000000	83.742075
548.000000	83.923787
547.000000	84.155968
546.000000	84.406885
545.000000	84.652764
544.000000	84.849722
543.000000	84.947346
542.000000	84.939477
541.000000	84.867659
540.000000	84.766712
539.000000	84.644751
538.000000	84.520403
537.000000	84.438431
536.000000	84.430022
535.000000	84.489752
534.000000	84.598522
533.000000	84.743513
532.000000	84.901521
531.000000	85.027877
530.000000	85.083889
529.000000	85.062621
528.000000	84.982294
527.000000	84.886321
526.000000	84.840338
525.000000	84.870474
524.000000	84.917189
523.000000	84.888037
522.000000	84.750395
521.000000	84.547869
520.000000	84.337273
519.000000	84.151041
518.000000	84.016435
517.000000	83.952102
516.000000	83.924028
515.000000	83.853619
514.000000	83.689143
513.000000	83.440582
512.000000	83.137745
511.000000	82.788047
510.000000	82.386764
509.000000	81.942126
508.000000	81.459497
507.000000	80.923743
506.000000	80.319160
505.000000	79.646193
504.000000	78.928217
503.000000	78.234722
502.000000	77.672100
501.000000	77.305402
500.000000	77.102885
499.000000	76.993829
498.000000	76.964078
497.000000	77.046478
496.000000	77.243512
495.000000	77.515058
494.000000	77.843303
493.000000	78.261509
492.000000	78.778890
491.000000	79.327464
490.000000	79.812417
489.000000	80.187005
488.000000	80.464890
487.000000	80.694896
486.000000	80.946309
485.000000	81.274854
484.000000	81.671806
483.000000	82.073216
482.000000	82.434260
481.000000	82.747481
480.000000	82.984961
479.000000	83.097779
478.000000	83.082326
477.000000	82.982482
476.000000	82.809938
475.000000	82.539781
474.000000	82.219591
473.000000	82.003692
472.000000	81.987672
471.000000	82.107410
470.000000	82.288099
469.000000	82.561465
468.000000	82.989933
467.000000	83.538459
466.000000	84.078003
465.000000	84.504735
464.000000	84.790459
463.000000	84.949075
462.000000	85.006439
461.000000	84.967343
460.000000	84.795179
459.000000	84.495839
458.000000	84.213465
457.000000	84.097977
456.000000	84.116416
455.000000	84.144662
454.000000	84.184150
453.000000	84.382872
452.000000	84.804392
451.000000	85.278949
450.000000	85.591141
449.000000	85.701899
448.000000	85.706783
447.000000	85.664974
446.000000	85.568647
445.000000	85.436466
444.000000	85.338896
443.000000	85.339640
442.000000	85.456286
441.000000	85.655869
440.000000	85.859814
439.000000	85.985182
438.000000	86.038125
437.000000	86.148294
436.000000	86.428180
435.000000	86.822464
434.000000	87.177499
433.000000	87.405989
432.000000	87.503992
431.000000	87.478253
430.000000	87.347695
429.000000	87.161739
428.000000	86.939918
427.000000	86.657674
426.000000	86.351204
425.000000	86.169425
424.000000	86.229360
423.000000	86.432083
422.000000	86.524537
421.000000	86.309788
420.000000	85.872544
419.000000	85.672055
418.000000	85.988795
417.000000	86.593033
416.000000	87.129420
415.000000	87.387737
414.000000	87.402684
413.000000	87.386548
412.000000	87.474588
411.000000	87.594518
410.000000	87.652855
409.000000	87.699513
408.000000	87.776160
407.000000	87.828453
406.000000	87.780843
405.000000	87.739157
404.000000	87.613180
403.000000	87.456832
402.000000	87.533629
401.000000	87.262920
400.000000	87.084147
