PE IR       SUBTECH     SPECTRUM    ASCII       PEDS        4.00        
   -1
23ms008_nitro.asc
24/09/10
16:19:40.00
24/09/10
16:19:40.00
Administrator
Sample 1158 By Administrator Date Tuesday, September 10 2024
400.000000
#HDR
-1
-1
#GR
cm-1
%T
1.0
0.0
4000.000000
-1.000000
3601
8
81.435322
1.375185
#DATA
4000.000000	42.439381
3999.000000	42.484112
3998.000000	42.527894
3997.000000	42.570926
3996.000000	42.613352
3995.000000	42.654992
3994.000000	42.695577
3993.000000	42.735345
3992.000000	42.775318
3991.000000	42.816750
3990.000000	42.860105
3989.000000	42.904610
3988.000000	42.948974
3987.000000	42.992448
3986.000000	43.034997
3985.000000	43.076529
3984.000000	43.116500
3983.000000	43.154522
3982.000000	43.191018
3981.000000	43.226934
3980.000000	43.262985
3979.000000	43.299405
3978.000000	43.336296
3977.000000	43.373964
3976.000000	43.412621
3975.000000	43.451830
3974.000000	43.490536
3973.000000	43.527784
3972.000000	43.563413
3971.000000	43.598116
3970.000000	43.632991
3969.000000	43.668837
3968.000000	43.705684
3967.000000	43.742984
3966.000000	43.780244
3965.000000	43.817421
3964.000000	43.854842
3963.000000	43.892732
3962.000000	43.930739
3961.000000	43.967938
3960.000000	44.003434
3959.000000	44.037095
3958.000000	44.069934
3957.000000	44.103475
3956.000000	44.138524
3955.000000	44.174749
3954.000000	44.211359
3953.000000	44.247767
3952.000000	44.283798
3951.000000	44.319696
3950.000000	44.356006
3949.000000	44.392750
3948.000000	44.428843
3947.000000	44.463028
3946.000000	44.495436
3945.000000	44.528258
3944.000000	44.564737
3943.000000	44.606931
3942.000000	44.653438
3941.000000	44.699860
3940.000000	44.742792
3939.000000	44.782673
3938.000000	44.822112
3937.000000	44.862222
3936.000000	44.901067
3935.000000	44.936020
3934.000000	44.967302
3933.000000	44.998222
3932.000000	45.031798
3931.000000	45.067631
3930.000000	45.103286
3929.000000	45.137968
3928.000000	45.173439
3927.000000	45.211975
3926.000000	45.253850
3925.000000	45.297401
3924.000000	45.340078
3923.000000	45.378811
3922.000000	45.412021
3921.000000	45.441702
3920.000000	45.472319
3919.000000	45.507101
3918.000000	45.545875
3917.000000	45.586836
3916.000000	45.628797
3915.000000	45.671229
3914.000000	45.713651
3913.000000	45.756003
3912.000000	45.798954
3911.000000	45.842049
3910.000000	45.883146
3909.000000	45.920446
3908.000000	45.954532
3907.000000	45.987026
3906.000000	46.018175
3905.000000	46.046133
3904.000000	46.069475
3903.000000	46.088317
3902.000000	46.104364
3901.000000	46.121567
3900.000000	46.145244
3899.000000	46.178985
3898.000000	46.220836
3897.000000	46.265341
3896.000000	46.310051
3895.000000	46.357481
3894.000000	46.410150
3893.000000	46.465714
3892.000000	46.518168
3891.000000	46.563438
3890.000000	46.601759
3889.000000	46.634408
3888.000000	46.661461
3887.000000	46.683304
3886.000000	46.704774
3885.000000	46.731139
3884.000000	46.759862
3883.000000	46.785032
3882.000000	46.809335
3881.000000	46.842922
3880.000000	46.890326
3879.000000	46.943197
3878.000000	46.988972
3877.000000	47.023812
3876.000000	47.054155
3875.000000	47.089684
3874.000000	47.134825
3873.000000	47.182623
3872.000000	47.218906
3871.000000	47.237684
3870.000000	47.250956
3869.000000	47.274723
3868.000000	47.308727
3867.000000	47.341209
3866.000000	47.368677
3865.000000	47.401435
3864.000000	47.449434
3863.000000	47.506581
3862.000000	47.557761
3861.000000	47.597515
3860.000000	47.634200
3859.000000	47.681084
3858.000000	47.746850
3857.000000	47.827363
3856.000000	47.902151
3855.000000	47.942462
3854.000000	47.939655
3853.000000	47.919211
3852.000000	47.906169
3851.000000	47.905625
3850.000000	47.922173
3849.000000	47.961739
3848.000000	48.023365
3847.000000	48.098090
3846.000000	48.173481
3845.000000	48.240355
3844.000000	48.295688
3843.000000	48.341372
3842.000000	48.381647
3841.000000	48.418166
3840.000000	48.448627
3839.000000	48.471345
3838.000000	48.489201
3837.000000	48.507934
3836.000000	48.532453
3835.000000	48.564308
3834.000000	48.603212
3833.000000	48.648452
3832.000000	48.699580
3831.000000	48.755221
3830.000000	48.810916
3829.000000	48.861983
3828.000000	48.908309
3827.000000	48.953984
3826.000000	49.003182
3825.000000	49.054871
3824.000000	49.100842
3823.000000	49.132543
3822.000000	49.153424
3821.000000	49.178891
3820.000000	49.216344
3819.000000	49.254490
3818.000000	49.281142
3817.000000	49.299250
3816.000000	49.325634
3815.000000	49.373363
3814.000000	49.434269
3813.000000	49.491181
3812.000000	49.541017
3811.000000	49.593631
3810.000000	49.653864
3809.000000	49.712507
3808.000000	49.756207
3807.000000	49.784921
3806.000000	49.811172
3805.000000	49.840875
3804.000000	49.867957
3803.000000	49.886598
3802.000000	49.903073
3801.000000	49.931569
3800.000000	49.973792
3799.000000	50.016675
3798.000000	50.055029
3797.000000	50.097372
3796.000000	50.152148
3795.000000	50.216695
3794.000000	50.279685
3793.000000	50.334165
3792.000000	50.383086
3791.000000	50.432551
3790.000000	50.483223
3789.000000	50.531333
3788.000000	50.574793
3787.000000	50.615422
3786.000000	50.656021
3785.000000	50.697658
3784.000000	50.739602
3783.000000	50.780172
3782.000000	50.817838
3781.000000	50.853748
3780.000000	50.892548
3779.000000	50.937602
3778.000000	50.986070
3777.000000	51.031715
3776.000000	51.072645
3775.000000	51.113217
3774.000000	51.158654
3773.000000	51.208483
3772.000000	51.256461
3771.000000	51.297673
3770.000000	51.333950
3769.000000	51.368961
3768.000000	51.402148
3767.000000	51.433292
3766.000000	51.467564
3765.000000	51.510917
3764.000000	51.562515
3763.000000	51.613692
3762.000000	51.656893
3761.000000	51.694235
3760.000000	51.734603
3759.000000	51.781294
3758.000000	51.827872
3757.000000	51.869416
3756.000000	51.908937
3755.000000	51.948750
3754.000000	51.985630
3753.000000	52.016257
3752.000000	52.042698
3751.000000	52.068138
3750.000000	52.091159
3749.000000	52.113067
3748.000000	52.142246
3747.000000	52.180846
3746.000000	52.219177
3745.000000	52.254781
3744.000000	52.302881
3743.000000	52.366277
3742.000000	52.426288
3741.000000	52.474776
3740.000000	52.520582
3739.000000	52.571487
3738.000000	52.624692
3737.000000	52.675222
3736.000000	52.729105
3735.000000	52.794556
3734.000000	52.863856
3733.000000	52.920571
3732.000000	52.963230
3731.000000	53.005911
3730.000000	53.058285
3729.000000	53.117299
3728.000000	53.176798
3727.000000	53.238268
3726.000000	53.306413
3725.000000	53.377054
3724.000000	53.439622
3723.000000	53.491649
3722.000000	53.541015
3721.000000	53.593828
3720.000000	53.649022
3719.000000	53.703597
3718.000000	53.756691
3717.000000	53.809708
3716.000000	53.863092
3715.000000	53.912828
3714.000000	53.953359
3713.000000	53.984668
3712.000000	54.015691
3711.000000	54.056370
3710.000000	54.106660
3709.000000	54.159855
3708.000000	54.212241
3707.000000	54.265886
3706.000000	54.323981
3705.000000	54.386019
3704.000000	54.449910
3703.000000	54.515995
3702.000000	54.586018
3701.000000	54.656858
3700.000000	54.720922
3699.000000	54.773755
3698.000000	54.818050
3697.000000	54.859982
3696.000000	54.903915
3695.000000	54.948177
3694.000000	54.988054
3693.000000	55.024498
3692.000000	55.065002
3691.000000	55.114221
3690.000000	55.166529
3689.000000	55.212883
3688.000000	55.251700
3687.000000	55.289649
3686.000000	55.332776
3685.000000	55.381332
3684.000000	55.433688
3683.000000	55.489579
3682.000000	55.547945
3681.000000	55.604923
3680.000000	55.658115
3679.000000	55.706599
3678.000000	55.744639
3677.000000	55.765817
3676.000000	55.782648
3675.000000	55.819086
3674.000000	55.870263
3673.000000	55.907740
3672.000000	55.921328
3671.000000	55.934283
3670.000000	55.983649
3669.000000	56.077648
3668.000000	56.183127
3667.000000	56.269692
3666.000000	56.337748
3665.000000	56.401693
3664.000000	56.470042
3663.000000	56.540971
3662.000000	56.607816
3661.000000	56.665188
3660.000000	56.710589
3659.000000	56.743686
3658.000000	56.767824
3657.000000	56.791588
3656.000000	56.823459
3655.000000	56.862038
3654.000000	56.896238
3653.000000	56.916209
3652.000000	56.919791
3651.000000	56.914929
3650.000000	56.917124
3649.000000	56.937523
3648.000000	56.975602
3647.000000	57.025628
3646.000000	57.082593
3645.000000	57.141310
3644.000000	57.199827
3643.000000	57.261417
3642.000000	57.329323
3641.000000	57.399891
3640.000000	57.463409
3639.000000	57.513061
3638.000000	57.549820
3637.000000	57.577363
3636.000000	57.597587
3635.000000	57.613441
3634.000000	57.631101
3633.000000	57.652554
3632.000000	57.669187
3631.000000	57.670592
3630.000000	57.665239
3629.000000	57.682586
3628.000000	57.733836
3627.000000	57.791695
3626.000000	57.830543
3625.000000	57.852613
3624.000000	57.871576
3623.000000	57.894869
3622.000000	57.918861
3621.000000	57.937167
3620.000000	57.953243
3619.000000	57.977496
3618.000000	58.009524
3617.000000	58.036688
3616.000000	58.051045
3615.000000	58.058141
3614.000000	58.070877
3613.000000	58.095755
3612.000000	58.125047
3611.000000	58.145804
3610.000000	58.156503
3609.000000	58.171801
3608.000000	58.208068
3607.000000	58.264855
3606.000000	58.325253
3605.000000	58.373568
3604.000000	58.407047
3603.000000	58.433093
3602.000000	58.459206
3601.000000	58.486130
3600.000000	58.509838
3599.000000	58.526144
3598.000000	58.534147
3597.000000	58.539035
3596.000000	58.550748
3595.000000	58.577112
3594.000000	58.616655
3593.000000	58.657560
3592.000000	58.685602
3591.000000	58.694371
3590.000000	58.689020
3589.000000	58.686417
3588.000000	58.707479
3587.000000	58.758168
3586.000000	58.820152
3585.000000	58.870254
3584.000000	58.902675
3583.000000	58.927483
3582.000000	58.955657
3581.000000	58.989594
3580.000000	59.025468
3579.000000	59.059218
3578.000000	59.089050
3577.000000	59.114702
3576.000000	59.137753
3575.000000	59.161240
3574.000000	59.186619
3573.000000	59.211400
3572.000000	59.229693
3571.000000	59.235926
3570.000000	59.228244
3569.000000	59.213789
3568.000000	59.211063
3567.000000	59.238016
3566.000000	59.291715
3565.000000	59.351132
3564.000000	59.400341
3563.000000	59.439846
3562.000000	59.478197
3561.000000	59.520798
3560.000000	59.566822
3559.000000	59.612457
3558.000000	59.653744
3557.000000	59.687589
3556.000000	59.713633
3555.000000	59.735430
3554.000000	59.758016
3553.000000	59.784069
3552.000000	59.812070
3551.000000	59.837680
3550.000000	59.857562
3549.000000	59.873585
3548.000000	59.894077
3547.000000	59.928607
3546.000000	59.978515
3545.000000	60.034134
3544.000000	60.083561
3543.000000	60.121938
3542.000000	60.151329
3541.000000	60.175747
3540.000000	60.199224
3539.000000	60.225921
3538.000000	60.258253
3537.000000	60.294979
3536.000000	60.332403
3535.000000	60.367144
3534.000000	60.397137
3533.000000	60.421399
3532.000000	60.440676
3531.000000	60.457341
3530.000000	60.473557
3529.000000	60.490608
3528.000000	60.510529
3527.000000	60.536263
3526.000000	60.568554
3525.000000	60.604476
3524.000000	60.640488
3523.000000	60.675026
3522.000000	60.707135
3521.000000	60.735257
3520.000000	60.759206
3519.000000	60.781529
3518.000000	60.804918
3517.000000	60.829324
3516.000000	60.852811
3515.000000	60.873702
3514.000000	60.890646
3513.000000	60.902441
3512.000000	60.910436
3511.000000	60.919903
3510.000000	60.935633
3509.000000	60.956273
3508.000000	60.975202
3507.000000	60.987150
3506.000000	60.992316
3505.000000	60.995168
3504.000000	61.000916
3503.000000	61.011952
3502.000000	61.026171
3501.000000	61.039351
3500.000000	61.049668
3499.000000	61.058402
3498.000000	61.066421
3497.000000	61.072184
3496.000000	61.073635
3495.000000	61.070020
3494.000000	61.060983
3493.000000	61.046007
3492.000000	61.026365
3491.000000	61.006086
3490.000000	60.989285
3489.000000	60.977304
3488.000000	60.968783
3487.000000	60.960497
3486.000000	60.947508
3485.000000	60.925648
3484.000000	60.896106
3483.000000	60.865624
3482.000000	60.839553
3481.000000	60.815642
3480.000000	60.786577
3479.000000	60.747810
3478.000000	60.701224
3477.000000	60.652554
3476.000000	60.607307
3475.000000	60.568031
3474.000000	60.533628
3473.000000	60.501253
3472.000000	60.468817
3471.000000	60.434507
3470.000000	60.394217
3469.000000	60.342216
3468.000000	60.275927
3467.000000	60.198529
3466.000000	60.116038
3465.000000	60.033700
3464.000000	59.955734
3463.000000	59.885127
3462.000000	59.820737
3461.000000	59.756185
3460.000000	59.684154
3459.000000	59.601577
3458.000000	59.510072
3457.000000	59.413079
3456.000000	59.313995
3455.000000	59.215424
3454.000000	59.118275
3453.000000	59.021781
3452.000000	58.925039
3451.000000	58.827333
3450.000000	58.726820
3449.000000	58.621145
3448.000000	58.510246
3447.000000	58.396391
3446.000000	58.280290
3445.000000	58.159693
3444.000000	58.033366
3443.000000	57.904316
3442.000000	57.777356
3441.000000	57.655047
3440.000000	57.536941
3439.000000	57.420695
3438.000000	57.301943
3437.000000	57.174302
3436.000000	57.032160
3435.000000	56.874086
3434.000000	56.703415
3433.000000	56.526220
3432.000000	56.348122
3431.000000	56.171226
3430.000000	55.993190
3429.000000	55.810230
3428.000000	55.621483
3427.000000	55.428980
3426.000000	55.233957
3425.000000	55.035070
3424.000000	54.830123
3423.000000	54.617913
3422.000000	54.397893
3421.000000	54.170217
3420.000000	53.936666
3419.000000	53.699871
3418.000000	53.461502
3417.000000	53.221937
3416.000000	52.981201
3415.000000	52.738108
3414.000000	52.488558
3413.000000	52.227477
3412.000000	51.952609
3411.000000	51.664986
3410.000000	51.365776
3409.000000	51.054881
3408.000000	50.733604
3407.000000	50.406101
3406.000000	50.077346
3405.000000	49.750753
3404.000000	49.426983
3403.000000	49.102885
3402.000000	48.770644
3401.000000	48.420507
3400.000000	48.046834
3399.000000	47.651630
3398.000000	47.242694
3397.000000	46.828659
3396.000000	46.414766
3395.000000	46.001477
3394.000000	45.585320
3393.000000	45.161610
3392.000000	44.726976
3391.000000	44.279801
3390.000000	43.820276
3389.000000	43.350106
3388.000000	42.871368
3387.000000	42.384521
3386.000000	41.888329
3385.000000	41.383001
3384.000000	40.871337
3383.000000	40.356100
3382.000000	39.837491
3381.000000	39.314190
3380.000000	38.785669
3379.000000	38.251643
3378.000000	37.710819
3377.000000	37.161903
3376.000000	36.604939
3375.000000	36.041043
3374.000000	35.471685
3373.000000	34.898979
3372.000000	34.325150
3371.000000	33.750077
3370.000000	33.171115
3369.000000	32.586087
3368.000000	31.995342
3367.000000	31.400495
3366.000000	30.802893
3365.000000	30.204292
3364.000000	29.606678
3363.000000	29.010138
3362.000000	28.412752
3361.000000	27.813663
3360.000000	27.214731
3359.000000	26.618422
3358.000000	26.025990
3357.000000	25.438518
3356.000000	24.857575
3355.000000	24.283507
3354.000000	23.714830
3353.000000	23.150021
3352.000000	22.588299
3351.000000	22.028794
3350.000000	21.471173
3349.000000	20.917584
3348.000000	20.371848
3347.000000	19.835895
3346.000000	19.309262
3345.000000	18.791713
3344.000000	18.283872
3343.000000	17.785406
3342.000000	17.294929
3341.000000	16.812305
3340.000000	16.338373
3339.000000	15.872392
3338.000000	15.412938
3337.000000	14.960947
3336.000000	14.519488
3335.000000	14.090143
3334.000000	13.672154
3333.000000	13.265405
3332.000000	12.870608
3331.000000	12.486993
3330.000000	12.112587
3329.000000	11.746684
3328.000000	11.390057
3327.000000	11.042337
3326.000000	10.702556
3325.000000	10.371891
3324.000000	10.052574
3323.000000	9.744806
3322.000000	9.447037
3321.000000	9.159037
3320.000000	8.881910
3319.000000	8.614925
3318.000000	8.356330
3317.000000	8.106207
3316.000000	7.865892
3315.000000	7.635067
3314.000000	7.411983
3313.000000	7.196504
3312.000000	6.989592
3311.000000	6.790495
3310.000000	6.598017
3309.000000	6.413384
3308.000000	6.239328
3307.000000	6.076606
3306.000000	5.924333
3305.000000	5.783189
3304.000000	5.654069
3303.000000	5.535005
3302.000000	5.422422
3301.000000	5.314926
3300.000000	5.213254
3299.000000	5.117035
3298.000000	5.025380
3297.000000	4.939722
3296.000000	4.862295
3295.000000	4.792707
3294.000000	4.728773
3293.000000	4.670356
3292.000000	4.619176
3291.000000	4.575041
3290.000000	4.535983
3289.000000	4.501026
3288.000000	4.470194
3287.000000	4.442512
3286.000000	4.416762
3285.000000	4.393893
3284.000000	4.375406
3283.000000	4.360431
3282.000000	4.347065
3281.000000	4.335430
3280.000000	4.326663
3279.000000	4.319817
3278.000000	4.312968
3277.000000	4.306431
3276.000000	4.301762
3275.000000	4.298593
3274.000000	4.295405
3273.000000	4.292666
3272.000000	4.292328
3271.000000	4.294958
3270.000000	4.300007
3269.000000	4.307666
3268.000000	4.317641
3267.000000	4.327429
3266.000000	4.334714
3265.000000	4.340501
3264.000000	4.347242
3263.000000	4.355039
3262.000000	4.362592
3261.000000	4.370303
3260.000000	4.379339
3259.000000	4.388888
3258.000000	4.397457
3257.000000	4.405910
3256.000000	4.416157
3255.000000	4.427904
3254.000000	4.439505
3253.000000	4.450967
3252.000000	4.463186
3251.000000	4.475363
3250.000000	4.486117
3249.000000	4.496213
3248.000000	4.507465
3247.000000	4.519945
3246.000000	4.532787
3245.000000	4.546444
3244.000000	4.561449
3243.000000	4.576234
3242.000000	4.589031
3241.000000	4.600685
3240.000000	4.612995
3239.000000	4.625504
3238.000000	4.636652
3237.000000	4.646752
3236.000000	4.657170
3235.000000	4.667880
3234.000000	4.678431
3233.000000	4.689950
3232.000000	4.703361
3231.000000	4.716954
3230.000000	4.728493
3229.000000	4.738464
3228.000000	4.748658
3227.000000	4.758995
3226.000000	4.768399
3225.000000	4.777395
3224.000000	4.786967
3223.000000	4.796152
3222.000000	4.803440
3221.000000	4.809336
3220.000000	4.815029
3219.000000	4.819868
3218.000000	4.822753
3217.000000	4.824554
3216.000000	4.826610
3215.000000	4.828344
3214.000000	4.828812
3213.000000	4.829049
3212.000000	4.830202
3211.000000	4.830922
3210.000000	4.829347
3209.000000	4.826080
3208.000000	4.822645
3207.000000	4.818560
3206.000000	4.812632
3205.000000	4.805643
3204.000000	4.798922
3203.000000	4.791741
3202.000000	4.782808
3201.000000	4.772848
3200.000000	4.763136
3199.000000	4.752889
3198.000000	4.740777
3197.000000	4.727522
3196.000000	4.714389
3195.000000	4.700638
3194.000000	4.685041
3193.000000	4.668387
3192.000000	4.651985
3191.000000	4.635214
3190.000000	4.617174
3189.000000	4.599051
3188.000000	4.582224
3187.000000	4.565633
3186.000000	4.547648
3185.000000	4.529003
3184.000000	4.511252
3183.000000	4.493940
3182.000000	4.475896
3181.000000	4.457736
3180.000000	4.440467
3179.000000	4.423198
3178.000000	4.404842
3177.000000	4.386534
3176.000000	4.369782
3175.000000	4.353816
3174.000000	4.337295
3173.000000	4.320977
3172.000000	4.306136
3171.000000	4.292028
3170.000000	4.277486
3169.000000	4.263405
3168.000000	4.251091
3167.000000	4.239727
3166.000000	4.228083
3165.000000	4.217110
3164.000000	4.208288
3163.000000	4.200962
3162.000000	4.193704
3161.000000	4.186834
3160.000000	4.181193
3159.000000	4.176065
3158.000000	4.170646
3157.000000	4.165841
3156.000000	4.162408
3155.000000	4.159149
3154.000000	4.155311
3153.000000	4.152964
3152.000000	4.154420
3151.000000	4.159111
3150.000000	4.165233
3149.000000	4.172611
3148.000000	4.181499
3147.000000	4.190461
3146.000000	4.198155
3145.000000	4.205598
3144.000000	4.214234
3143.000000	4.223472
3142.000000	4.232394
3141.000000	4.242198
3140.000000	4.254575
3139.000000	4.269274
3138.000000	4.285498
3137.000000	4.303784
3136.000000	4.324291
3135.000000	4.345124
3134.000000	4.364685
3133.000000	4.384072
3132.000000	4.404932
3131.000000	4.426878
3130.000000	4.449201
3129.000000	4.473052
3128.000000	4.499589
3127.000000	4.527684
3126.000000	4.555733
3125.000000	4.583948
3124.000000	4.612743
3123.000000	4.640973
3122.000000	4.668058
3121.000000	4.695952
3120.000000	4.726705
3119.000000	4.759790
3118.000000	4.794025
3117.000000	4.830124
3116.000000	4.869099
3115.000000	4.910077
3114.000000	4.951806
3113.000000	4.994519
3112.000000	5.038243
3111.000000	5.081343
3110.000000	5.122970
3109.000000	5.165044
3108.000000	5.209729
3107.000000	5.256785
3106.000000	5.305231
3105.000000	5.355465
3104.000000	5.407535
3103.000000	5.459573
3102.000000	5.510283
3101.000000	5.561134
3100.000000	5.614017
3099.000000	5.668511
3098.000000	5.723491
3097.000000	5.779399
3096.000000	5.836785
3095.000000	5.894651
3094.000000	5.952295
3093.000000	6.010934
3092.000000	6.071611
3091.000000	6.133405
3090.000000	6.195491
3089.000000	6.258789
3088.000000	6.323689
3087.000000	6.388415
3086.000000	6.451711
3085.000000	6.515089
3084.000000	6.580332
3083.000000	6.646877
3082.000000	6.713702
3081.000000	6.781636
3080.000000	6.851748
3079.000000	6.923451
3078.000000	6.996184
3077.000000	7.070864
3076.000000	7.147588
3075.000000	7.224034
3074.000000	7.298280
3073.000000	7.371284
3072.000000	7.444750
3071.000000	7.518562
3070.000000	7.592360
3069.000000	7.667473
3068.000000	7.745039
3067.000000	7.824060
3066.000000	7.903267
3065.000000	7.983091
3064.000000	8.063888
3063.000000	8.144238
3062.000000	8.223024
3061.000000	8.301285
3060.000000	8.380217
3059.000000	8.459277
3058.000000	8.538060
3057.000000	8.618016
3056.000000	8.700303
3055.000000	8.783790
3054.000000	8.867035
3053.000000	8.950315
3052.000000	9.033987
3051.000000	9.116871
3050.000000	9.198192
3049.000000	9.279217
3048.000000	9.361111
3047.000000	9.443084
3046.000000	9.524437
3045.000000	9.606500
3044.000000	9.690665
3043.000000	9.776333
3042.000000	9.862522
3041.000000	9.949594
3040.000000	10.037552
3039.000000	10.124539
3038.000000	10.208967
3037.000000	10.291546
3036.000000	10.373736
3035.000000	10.456014
3034.000000	10.539155
3033.000000	10.625080
3032.000000	10.714444
3031.000000	10.805129
3030.000000	10.894814
3029.000000	10.983332
3028.000000	11.071068
3027.000000	11.157111
3026.000000	11.240905
3025.000000	11.323899
3024.000000	11.407759
3023.000000	11.492510
3022.000000	11.577903
3021.000000	11.664827
3020.000000	11.753690
3019.000000	11.843062
3018.000000	11.931448
3017.000000	12.018847
3016.000000	12.105384
3015.000000	12.190290
3014.000000	12.273658
3013.000000	12.357356
3012.000000	12.442812
3011.000000	12.529702
3010.000000	12.617893
3009.000000	12.708510
3008.000000	12.801662
3007.000000	12.895210
3006.000000	12.987285
3005.000000	13.078123
3004.000000	13.168113
3003.000000	13.256142
3002.000000	13.341479
3001.000000	13.425333
3000.000000	13.509102
2999.000000	13.592937
2998.000000	13.677428
2997.000000	13.764506
2996.000000	13.854928
2995.000000	13.946701
2994.000000	14.037641
2993.000000	14.127774
2992.000000	14.217761
2991.000000	14.306883
2990.000000	14.394298
2989.000000	14.480588
2988.000000	14.566519
2987.000000	14.651904
2986.000000	14.737098
2985.000000	14.823829
2984.000000	14.913030
2983.000000	15.003415
2982.000000	15.093528
2981.000000	15.183493
2980.000000	15.273418
2979.000000	15.361984
2978.000000	15.448197
2977.000000	15.532961
2976.000000	15.617529
2975.000000	15.702084
2974.000000	15.787186
2973.000000	15.874728
2972.000000	15.965837
2971.000000	16.059238
2970.000000	16.153011
2969.000000	16.246371
2968.000000	16.338546
2967.000000	16.427897
2966.000000	16.513729
2965.000000	16.597393
2964.000000	16.680307
2963.000000	16.762664
2962.000000	16.845316
2961.000000	16.930633
2960.000000	17.019768
2959.000000	17.110870
2958.000000	17.201513
2957.000000	17.291009
2956.000000	17.378922
2955.000000	17.463643
2954.000000	17.544486
2953.000000	17.623432
2952.000000	17.702940
2951.000000	17.783441
2950.000000	17.864555
2949.000000	17.947041
2948.000000	18.031876
2947.000000	18.118800
2946.000000	18.207195
2945.000000	18.296975
2944.000000	18.387308
2943.000000	18.476042
2942.000000	18.561828
2941.000000	18.645539
2940.000000	18.728420
2939.000000	18.810461
2938.000000	18.891772
2937.000000	18.973872
2936.000000	19.058098
2935.000000	19.144061
2934.000000	19.230791
2933.000000	19.317777
2932.000000	19.403761
2931.000000	19.486443
2930.000000	19.564922
2929.000000	19.641006
2928.000000	19.716818
2927.000000	19.792732
2926.000000	19.868803
2925.000000	19.946228
2924.000000	20.025882
2923.000000	20.107058
2922.000000	20.188978
2921.000000	20.271778
2920.000000	20.354740
2919.000000	20.435433
2918.000000	20.512047
2917.000000	20.585109
2916.000000	20.655890
2915.000000	20.724944
2914.000000	20.793351
2913.000000	20.863459
2912.000000	20.936869
2911.000000	21.012961
2910.000000	21.090438
2909.000000	21.168830
2908.000000	21.247476
2907.000000	21.324663
2906.000000	21.399127
2905.000000	21.471230
2904.000000	21.541784
2903.000000	21.611185
2902.000000	21.680484
2901.000000	21.751783
2900.000000	21.826269
2899.000000	21.902969
2898.000000	21.980465
2897.000000	22.058067
2896.000000	22.134766
2895.000000	22.208727
2894.000000	22.279170
2893.000000	22.347468
2892.000000	22.415379
2891.000000	22.483487
2890.000000	22.552146
2889.000000	22.622377
2888.000000	22.694693
2887.000000	22.768333
2886.000000	22.842574
2885.000000	22.917482
2884.000000	22.992481
2883.000000	23.065728
2882.000000	23.136041
2881.000000	23.204208
2880.000000	23.271564
2879.000000	23.338727
2878.000000	23.406748
2877.000000	23.477845
2876.000000	23.553271
2875.000000	23.631225
2874.000000	23.708083
2873.000000	23.781144
2872.000000	23.849689
2871.000000	23.914607
2870.000000	23.977946
2869.000000	24.041902
2868.000000	24.107277
2867.000000	24.173504
2866.000000	24.240474
2865.000000	24.309115
2864.000000	24.379855
2863.000000	24.451856
2862.000000	24.524222
2861.000000	24.596459
2860.000000	24.667251
2859.000000	24.734667
2858.000000	24.798533
2857.000000	24.861136
2856.000000	24.924708
2855.000000	24.989666
2854.000000	25.056048
2853.000000	25.124843
2852.000000	25.196660
2851.000000	25.270340
2850.000000	25.343848
2849.000000	25.415429
2848.000000	25.483436
2847.000000	25.546774
2846.000000	25.606516
2845.000000	25.665799
2844.000000	25.727332
2843.000000	25.792081
2842.000000	25.860558
2841.000000	25.933219
2840.000000	26.008560
2839.000000	26.082769
2838.000000	26.152918
2837.000000	26.219383
2836.000000	26.284044
2835.000000	26.347552
2834.000000	26.409655
2833.000000	26.470938
2832.000000	26.532693
2831.000000	26.595827
2830.000000	26.661083
2829.000000	26.729524
2828.000000	26.801594
2827.000000	26.876263
2826.000000	26.951939
2825.000000	27.027555
2824.000000	27.102084
2823.000000	27.174063
2822.000000	27.242714
2821.000000	27.308902
2820.000000	27.374211
2819.000000	27.439753
2818.000000	27.506409
2817.000000	27.575154
2816.000000	27.646157
2815.000000	27.718303
2814.000000	27.790358
2813.000000	27.861762
2812.000000	27.931633
2811.000000	27.998117
2810.000000	28.059850
2809.000000	28.117439
2808.000000	28.172713
2807.000000	28.227262
2806.000000	28.282389
2805.000000	28.339409
2804.000000	28.398860
2803.000000	28.459971
2802.000000	28.521636
2801.000000	28.583203
2800.000000	28.643633
2799.000000	28.700937
2798.000000	28.753678
2797.000000	28.802586
2796.000000	28.849875
2795.000000	28.897597
2794.000000	28.947334
2793.000000	29.000555
2792.000000	29.057901
2791.000000	29.118343
2790.000000	29.179942
2789.000000	29.241193
2788.000000	29.301160
2787.000000	29.359014
2786.000000	29.414364
2785.000000	29.467721
2784.000000	29.519988
2783.000000	29.571797
2782.000000	29.623802
2781.000000	29.677009
2780.000000	29.731988
2779.000000	29.788070
2778.000000	29.843784
2777.000000	29.897590
2776.000000	29.947855
2775.000000	29.992808
2774.000000	30.031378
2773.000000	30.063836
2772.000000	30.091035
2771.000000	30.113607
2770.000000	30.132262
2769.000000	30.148042
2768.000000	30.161598
2767.000000	30.172520
2766.000000	30.180123
2765.000000	30.184416
2764.000000	30.185614
2763.000000	30.183390
2762.000000	30.177321
2761.000000	30.167845
2760.000000	30.156191
2759.000000	30.143608
2758.000000	30.131261
2757.000000	30.120296
2756.000000	30.111285
2755.000000	30.103848
2754.000000	30.097093
2753.000000	30.090038
2752.000000	30.081154
2751.000000	30.068217
2750.000000	30.049246
2749.000000	30.023218
2748.000000	29.989719
2747.000000	29.948417
2746.000000	29.899446
2745.000000	29.843774
2744.000000	29.782472
2743.000000	29.716408
2742.000000	29.647132
2741.000000	29.577311
2740.000000	29.509878
2739.000000	29.447253
2738.000000	29.391810
2737.000000	29.346652
2736.000000	29.315082
2735.000000	29.299740
2734.000000	29.302957
2733.000000	29.326521
2732.000000	29.370757
2731.000000	29.434340
2730.000000	29.514959
2729.000000	29.610257
2728.000000	29.717408
2727.000000	29.832938
2726.000000	29.953943
2725.000000	30.078458
2724.000000	30.204922
2723.000000	30.331804
2722.000000	30.457901
2721.000000	30.582396
2720.000000	30.704043
2719.000000	30.821025
2718.000000	30.931961
2717.000000	31.036200
2716.000000	31.132823
2715.000000	31.220540
2714.000000	31.298876
2713.000000	31.368820
2712.000000	31.431794
2711.000000	31.488234
2710.000000	31.538057
2709.000000	31.581491
2708.000000	31.618880
2707.000000	31.650447
2706.000000	31.676445
2705.000000	31.697457
2704.000000	31.713861
2703.000000	31.725560
2702.000000	31.732981
2701.000000	31.737488
2700.000000	31.740544
2699.000000	31.742897
2698.000000	31.745004
2697.000000	31.747591
2696.000000	31.750860
2695.000000	31.753825
2694.000000	31.755183
2693.000000	31.754486
2692.000000	31.751994
2691.000000	31.747784
2690.000000	31.741790
2689.000000	31.734366
2688.000000	31.726196
2687.000000	31.717941
2686.000000	31.710353
2685.000000	31.704292
2684.000000	31.700054
2683.000000	31.696974
2682.000000	31.694082
2681.000000	31.690847
2680.000000	31.687048
2679.000000	31.682606
2678.000000	31.678133
2677.000000	31.675057
2676.000000	31.674759
2675.000000	31.677896
2674.000000	31.684863
2673.000000	31.696404
2672.000000	31.713099
2671.000000	31.734847
2670.000000	31.761195
2669.000000	31.791540
2668.000000	31.824808
2667.000000	31.859322
2666.000000	31.893525
2665.000000	31.926432
2664.000000	31.957088
2663.000000	31.984425
2662.000000	32.008112
2661.000000	32.028880
2660.000000	32.047510
2659.000000	32.064055
2658.000000	32.078397
2657.000000	32.090994
2656.000000	32.102520
2655.000000	32.113272
2654.000000	32.123604
2653.000000	32.134466
2652.000000	32.146993
2651.000000	32.162127
2650.000000	32.181129
2649.000000	32.205862
2648.000000	32.238168
2647.000000	32.279090
2646.000000	32.329017
2645.000000	32.388215
2644.000000	32.456290
2643.000000	32.532026
2642.000000	32.613999
2641.000000	32.700911
2640.000000	32.791332
2639.000000	32.883264
2638.000000	32.974743
2637.000000	33.064458
2636.000000	33.151372
2635.000000	33.234173
2634.000000	33.311553
2633.000000	33.382685
2632.000000	33.447172
2631.000000	33.504931
2630.000000	33.556145
2629.000000	33.601409
2628.000000	33.641370
2627.000000	33.676435
2626.000000	33.707303
2625.000000	33.734975
2624.000000	33.760241
2623.000000	33.783198
2622.000000	33.803473
2621.000000	33.820839
2620.000000	33.834985
2619.000000	33.845262
2618.000000	33.850927
2617.000000	33.851356
2616.000000	33.846138
2615.000000	33.834949
2614.000000	33.817862
2613.000000	33.795399
2612.000000	33.767881
2611.000000	33.735491
2610.000000	33.699030
2609.000000	33.660405
2608.000000	33.622110
2607.000000	33.586538
2606.000000	33.556095
2605.000000	33.533508
2604.000000	33.521300
2603.000000	33.521060
2602.000000	33.533723
2601.000000	33.559473
2600.000000	33.597546
2599.000000	33.646442
2598.000000	33.704386
2597.000000	33.770006
2596.000000	33.841715
2595.000000	33.917557
2594.000000	33.996000
2593.000000	34.076099
2592.000000	34.157187
2591.000000	34.238496
2590.000000	34.319558
2589.000000	34.400520
2588.000000	34.481547
2587.000000	34.562537
2586.000000	34.643632
2585.000000	34.725624
2584.000000	34.809455
2583.000000	34.895517
2582.000000	34.983834
2581.000000	35.074462
2580.000000	35.167369
2579.000000	35.262207
2578.000000	35.358467
2577.000000	35.455711
2576.000000	35.553290
2575.000000	35.650096
2574.000000	35.744986
2573.000000	35.837357
2572.000000	35.927025
2571.000000	36.013788
2570.000000	36.097425
2569.000000	36.177831
2568.000000	36.254964
2567.000000	36.328335
2566.000000	36.396877
2565.000000	36.459364
2564.000000	36.514329
2563.000000	36.560193
2562.000000	36.595233
2561.000000	36.617715
2560.000000	36.626170
2559.000000	36.619123
2558.000000	36.596046
2557.000000	36.558153
2556.000000	36.508460
2555.000000	36.451639
2554.000000	36.393771
2553.000000	36.342463
2552.000000	36.306059
2551.000000	36.291746
2550.000000	36.303616
2549.000000	36.342471
2548.000000	36.406049
2547.000000	36.489878
2546.000000	36.588683
2545.000000	36.696801
2544.000000	36.809206
2543.000000	36.921889
2542.000000	37.031957
2541.000000	37.137759
2540.000000	37.238326
2539.000000	37.333076
2538.000000	37.421838
2537.000000	37.505001
2536.000000	37.583329
2535.000000	37.657770
2534.000000	37.729222
2533.000000	37.798451
2532.000000	37.865988
2531.000000	37.931762
2530.000000	37.995320
2529.000000	38.056150
2528.000000	38.113893
2527.000000	38.168426
2526.000000	38.219868
2525.000000	38.268844
2524.000000	38.316307
2523.000000	38.363054
2522.000000	38.409586
2521.000000	38.456224
2520.000000	38.503144
2519.000000	38.550079
2518.000000	38.596270
2517.000000	38.640914
2516.000000	38.683399
2515.000000	38.723322
2514.000000	38.760680
2513.000000	38.796210
2512.000000	38.831190
2511.000000	38.866582
2510.000000	38.902714
2509.000000	38.939737
2508.000000	38.977772
2507.000000	39.016342
2506.000000	39.054109
2505.000000	39.089725
2504.000000	39.122641
2503.000000	39.152867
2502.000000	39.180559
2501.000000	39.206297
2500.000000	39.231442
2499.000000	39.257555
2498.000000	39.285466
2497.000000	39.315234
2496.000000	39.346554
2495.000000	39.378680
2494.000000	39.410228
2493.000000	39.439594
2492.000000	39.465736
2491.000000	39.488365
2490.000000	39.507816
2489.000000	39.525196
2488.000000	39.542310
2487.000000	39.560928
2486.000000	39.582020
2485.000000	39.605749
2484.000000	39.631785
2483.000000	39.659128
2482.000000	39.686027
2481.000000	39.710632
2480.000000	39.731797
2479.000000	39.749214
2478.000000	39.763259
2477.000000	39.775201
2476.000000	39.787106
2475.000000	39.800830
2474.000000	39.817193
2473.000000	39.836226
2472.000000	39.857700
2471.000000	39.880879
2470.000000	39.904200
2469.000000	39.925915
2468.000000	39.944957
2467.000000	39.960942
2466.000000	39.973861
2465.000000	39.984465
2464.000000	39.994656
2463.000000	40.006677
2462.000000	40.021903
2461.000000	40.040607
2460.000000	40.062407
2459.000000	40.086235
2458.000000	40.110173
2457.000000	40.132110
2456.000000	40.150726
2455.000000	40.165676
2454.000000	40.177312
2453.000000	40.186839
2452.000000	40.196390
2451.000000	40.208145
2450.000000	40.223329
2449.000000	40.242245
2448.000000	40.264724
2447.000000	40.289838
2446.000000	40.315503
2445.000000	40.339218
2444.000000	40.359272
2443.000000	40.375061
2442.000000	40.386849
2441.000000	40.395969
2440.000000	40.404972
2439.000000	40.416623
2438.000000	40.432613
2437.000000	40.453385
2436.000000	40.478578
2435.000000	40.506891
2434.000000	40.535825
2433.000000	40.562496
2432.000000	40.584916
2431.000000	40.602299
2430.000000	40.614757
2429.000000	40.623604
2428.000000	40.631617
2427.000000	40.641987
2426.000000	40.656827
2425.000000	40.676865
2424.000000	40.701957
2423.000000	40.730995
2422.000000	40.761568
2421.000000	40.790668
2420.000000	40.815976
2419.000000	40.836273
2418.000000	40.851237
2417.000000	40.861789
2416.000000	40.870457
2415.000000	40.880527
2414.000000	40.894641
2413.000000	40.914313
2412.000000	40.940026
2411.000000	40.970757
2410.000000	41.003694
2409.000000	41.035413
2408.000000	41.063486
2407.000000	41.086745
2406.000000	41.104810
2405.000000	41.118533
2404.000000	41.130600
2403.000000	41.144491
2402.000000	41.162596
2401.000000	41.185700
2400.000000	41.213717
2399.000000	41.245907
2398.000000	41.280440
2397.000000	41.314766
2396.000000	41.346604
2395.000000	41.374389
2394.000000	41.397390
2393.000000	41.416465
2392.000000	41.434442
2391.000000	41.454789
2390.000000	41.479795
2389.000000	41.510190
2388.000000	41.545976
2387.000000	41.586223
2386.000000	41.628564
2385.000000	41.670081
2384.000000	41.708632
2383.000000	41.743650
2382.000000	41.775713
2381.000000	41.806899
2380.000000	41.841044
2379.000000	41.881941
2378.000000	41.931649
2377.000000	41.990290
2376.000000	42.057106
2375.000000	42.129820
2374.000000	42.204167
2373.000000	42.275186
2372.000000	42.339321
2371.000000	42.395079
2370.000000	42.441778
2369.000000	42.480385
2368.000000	42.514813
2367.000000	42.550761
2366.000000	42.592282
2365.000000	42.640353
2364.000000	42.696653
2363.000000	42.760721
2362.000000	42.826435
2361.000000	42.890514
2360.000000	42.951180
2359.000000	43.006776
2358.000000	43.057075
2357.000000	43.100317
2356.000000	43.141571
2355.000000	43.185283
2354.000000	43.233372
2353.000000	43.287369
2352.000000	43.347046
2351.000000	43.415252
2350.000000	43.483621
2349.000000	43.541648
2348.000000	43.588546
2347.000000	43.634418
2346.000000	43.695546
2345.000000	43.767495
2344.000000	43.835856
2343.000000	43.888416
2342.000000	43.927948
2341.000000	43.969803
2340.000000	44.019066
2339.000000	44.077516
2338.000000	44.140362
2337.000000	44.203623
2336.000000	44.262641
2335.000000	44.315488
2334.000000	44.361500
2333.000000	44.403839
2332.000000	44.445012
2331.000000	44.491323
2330.000000	44.542419
2329.000000	44.597287
2328.000000	44.657428
2327.000000	44.720149
2326.000000	44.788124
2325.000000	44.855072
2324.000000	44.921731
2323.000000	44.984675
2322.000000	45.040927
2321.000000	45.089191
2320.000000	45.129539
2319.000000	45.168671
2318.000000	45.209080
2317.000000	45.254338
2316.000000	45.305168
2315.000000	45.363862
2314.000000	45.429055
2313.000000	45.496215
2312.000000	45.560429
2311.000000	45.617419
2310.000000	45.666200
2309.000000	45.706187
2308.000000	45.741723
2307.000000	45.776911
2306.000000	45.816309
2305.000000	45.860696
2304.000000	45.911560
2303.000000	45.969006
2302.000000	46.031260
2301.000000	46.093798
2300.000000	46.152784
2299.000000	46.205789
2298.000000	46.251789
2297.000000	46.290132
2296.000000	46.323505
2295.000000	46.355499
2294.000000	46.390090
2293.000000	46.428399
2292.000000	46.472327
2291.000000	46.522264
2290.000000	46.576831
2289.000000	46.631563
2288.000000	46.682956
2287.000000	46.729119
2286.000000	46.769239
2285.000000	46.803094
2284.000000	46.832712
2283.000000	46.861987
2282.000000	46.894093
2281.000000	46.930825
2280.000000	46.973308
2279.000000	47.021972
2278.000000	47.074395
2277.000000	47.126494
2276.000000	47.175097
2275.000000	47.219233
2274.000000	47.258293
2273.000000	47.291980
2272.000000	47.322161
2271.000000	47.352321
2270.000000	47.385053
2269.000000	47.421144
2268.000000	47.461253
2267.000000	47.505686
2266.000000	47.552314
2265.000000	47.597025
2264.000000	47.636868
2263.000000	47.670950
2262.000000	47.699019
2261.000000	47.721000
2260.000000	47.738972
2259.000000	47.756538
2258.000000	47.775918
2257.000000	47.797303
2256.000000	47.820404
2255.000000	47.844779
2254.000000	47.867665
2253.000000	47.884663
2252.000000	47.892481
2251.000000	47.889946
2250.000000	47.876626
2249.000000	47.852588
2248.000000	47.820720
2247.000000	47.785181
2246.000000	47.747923
2245.000000	47.708525
2244.000000	47.666179
2243.000000	47.620032
2242.000000	47.567370
2241.000000	47.504568
2240.000000	47.430280
2239.000000	47.346297
2238.000000	47.255644
2237.000000	47.162463
2236.000000	47.073503
2235.000000	46.996722
2234.000000	46.937473
2233.000000	46.897163
2232.000000	46.875138
2231.000000	46.869103
2230.000000	46.873775
2229.000000	46.881896
2228.000000	46.887789
2227.000000	46.889002
2226.000000	46.884795
2225.000000	46.875817
2224.000000	46.865317
2223.000000	46.858100
2222.000000	46.857275
2221.000000	46.863115
2220.000000	46.874729
2219.000000	46.890445
2218.000000	46.906575
2217.000000	46.918330
2216.000000	46.922869
2215.000000	46.920036
2214.000000	46.910609
2213.000000	46.896270
2212.000000	46.881226
2211.000000	46.871091
2210.000000	46.869310
2209.000000	46.876219
2208.000000	46.890999
2207.000000	46.911922
2206.000000	46.934585
2205.000000	46.952902
2204.000000	46.962964
2203.000000	46.964392
2202.000000	46.958191
2201.000000	46.946025
2200.000000	46.931829
2199.000000	46.921178
2198.000000	46.917835
2197.000000	46.922327
2196.000000	46.933694
2195.000000	46.950023
2194.000000	46.966829
2193.000000	46.977656
2192.000000	46.977615
2191.000000	46.965196
2190.000000	46.941102
2189.000000	46.907941
2188.000000	46.871332
2187.000000	46.838487
2186.000000	46.814491
2185.000000	46.801076
2184.000000	46.798483
2183.000000	46.805934
2182.000000	46.819934
2181.000000	46.834844
2180.000000	46.846279
2179.000000	46.852778
2178.000000	46.854515
2177.000000	46.853013
2176.000000	46.852610
2175.000000	46.859596
2174.000000	46.878756
2173.000000	46.911679
2172.000000	46.957829
2171.000000	47.014706
2170.000000	47.076785
2169.000000	47.136998
2168.000000	47.190339
2167.000000	47.234876
2166.000000	47.270019
2165.000000	47.296741
2164.000000	47.319658
2163.000000	47.345769
2162.000000	47.380151
2161.000000	47.424409
2160.000000	47.478629
2159.000000	47.541665
2158.000000	47.609090
2157.000000	47.674029
2156.000000	47.731287
2155.000000	47.779021
2154.000000	47.816748
2153.000000	47.844922
2152.000000	47.867030
2151.000000	47.889046
2150.000000	47.915710
2149.000000	47.949116
2148.000000	47.990550
2147.000000	48.040430
2146.000000	48.095849
2145.000000	48.151093
2144.000000	48.201711
2143.000000	48.246083
2142.000000	48.283327
2141.000000	48.313106
2140.000000	48.338391
2139.000000	48.365398
2138.000000	48.399532
2137.000000	48.443138
2136.000000	48.496834
2135.000000	48.559724
2134.000000	48.627628
2133.000000	48.694103
2132.000000	48.754391
2131.000000	48.806570
2130.000000	48.849219
2129.000000	48.881560
2128.000000	48.906439
2127.000000	48.929941
2126.000000	48.957000
2125.000000	48.989505
2124.000000	49.028409
2123.000000	49.074181
2122.000000	49.124371
2121.000000	49.173778
2120.000000	49.218197
2119.000000	49.256122
2118.000000	49.287215
2117.000000	49.312423
2116.000000	49.335855
2115.000000	49.363188
2114.000000	49.397423
2113.000000	49.438359
2112.000000	49.485625
2111.000000	49.538701
2110.000000	49.593945
2109.000000	49.645332
2108.000000	49.688871
2107.000000	49.723545
2106.000000	49.748419
2105.000000	49.762877
2104.000000	49.769930
2103.000000	49.775423
2102.000000	49.782962
2101.000000	49.792709
2100.000000	49.804626
2099.000000	49.818635
2098.000000	49.831308
2097.000000	49.836229
2096.000000	49.828725
2095.000000	49.807686
2094.000000	49.773533
2093.000000	49.728735
2092.000000	49.680515
2091.000000	49.638587
2090.000000	49.608960
2089.000000	49.592489
2088.000000	49.588910
2087.000000	49.598226
2086.000000	49.617628
2085.000000	49.641397
2084.000000	49.665350
2083.000000	49.688523
2082.000000	49.710539
2081.000000	49.731321
2080.000000	49.753870
2079.000000	49.783571
2078.000000	49.823666
2077.000000	49.874233
2076.000000	49.935452
2075.000000	50.007526
2074.000000	50.086914
2073.000000	50.166794
2072.000000	50.242176
2071.000000	50.310967
2070.000000	50.370540
2069.000000	50.419318
2068.000000	50.463151
2067.000000	50.514837
2066.000000	50.584331
2065.000000	50.672040
2064.000000	50.772700
2063.000000	50.881254
2062.000000	50.992865
2061.000000	51.102063
2060.000000	51.205184
2059.000000	51.301182
2058.000000	51.389093
2057.000000	51.468092
2056.000000	51.541091
2055.000000	51.614451
2054.000000	51.692558
2053.000000	51.775911
2052.000000	51.864523
2051.000000	51.958214
2050.000000	52.053000
2049.000000	52.142221
2048.000000	52.222208
2047.000000	52.292747
2046.000000	52.352737
2045.000000	52.401734
2044.000000	52.446381
2043.000000	52.498946
2042.000000	52.567286
2041.000000	52.650295
2040.000000	52.743490
2039.000000	52.843408
2038.000000	52.945480
2037.000000	53.043743
2036.000000	53.135256
2035.000000	53.220807
2034.000000	53.300694
2033.000000	53.374523
2032.000000	53.445728
2031.000000	53.520966
2030.000000	53.603900
2029.000000	53.693902
2028.000000	53.790686
2027.000000	53.894517
2026.000000	54.001372
2025.000000	54.103943
2024.000000	54.197535
2023.000000	54.279606
2022.000000	54.345467
2021.000000	54.392945
2020.000000	54.432161
2019.000000	54.482866
2018.000000	54.558647
2017.000000	54.657810
2016.000000	54.770833
2015.000000	54.889549
2014.000000	55.006773
2013.000000	55.115831
2012.000000	55.214963
2011.000000	55.307352
2010.000000	55.395500
2009.000000	55.480209
2008.000000	55.565223
2007.000000	55.656628
2006.000000	55.756413
2005.000000	55.862355
2004.000000	55.973700
2003.000000	56.091376
2002.000000	56.212111
2001.000000	56.328977
2000.000000	56.439642
1999.000000	56.545723
1998.000000	56.642168
1997.000000	56.717829
1996.000000	56.771393
1995.000000	56.818589
1994.000000	56.880295
1993.000000	56.966942
1992.000000	57.074318
1991.000000	57.192197
1990.000000	57.312605
1989.000000	57.430414
1988.000000	57.542121
1987.000000	57.644140
1986.000000	57.731762
1985.000000	57.803535
1984.000000	57.866124
1983.000000	57.930154
1982.000000	58.000331
1981.000000	58.074420
1980.000000	58.151743
1979.000000	58.234378
1978.000000	58.319099
1977.000000	58.397182
1976.000000	58.464560
1975.000000	58.524208
1974.000000	58.576895
1973.000000	58.617638
1972.000000	58.643746
1971.000000	58.659805
1970.000000	58.674705
1969.000000	58.701994
1968.000000	58.758617
1967.000000	58.849094
1966.000000	58.954432
1965.000000	59.048125
1964.000000	59.119614
1963.000000	59.175519
1962.000000	59.223123
1961.000000	59.263105
1960.000000	59.297487
1959.000000	59.332821
1958.000000	59.373485
1957.000000	59.420655
1956.000000	59.478169
1955.000000	59.548557
1954.000000	59.623605
1953.000000	59.689349
1952.000000	59.739196
1951.000000	59.775018
1950.000000	59.797549
1949.000000	59.804775
1948.000000	59.800094
1947.000000	59.792590
1946.000000	59.789577
1945.000000	59.798852
1944.000000	59.836844
1943.000000	59.914547
1942.000000	60.014326
1941.000000	60.105292
1940.000000	60.174612
1939.000000	60.225783
1938.000000	60.260713
1937.000000	60.278945
1936.000000	60.289428
1935.000000	60.307996
1934.000000	60.341991
1933.000000	60.388024
1932.000000	60.441847
1931.000000	60.501995
1930.000000	60.562184
1929.000000	60.609313
1928.000000	60.630449
1927.000000	60.618298
1926.000000	60.577208
1925.000000	60.528504
1924.000000	60.504646
1923.000000	60.523205
1922.000000	60.574606
1921.000000	60.643142
1920.000000	60.720150
1919.000000	60.797000
1918.000000	60.858744
1917.000000	60.897340
1916.000000	60.925065
1915.000000	60.952661
1914.000000	60.967903
1913.000000	60.955358
1912.000000	60.926150
1911.000000	60.913328
1910.000000	60.938030
1909.000000	60.994863
1908.000000	61.068366
1907.000000	61.145467
1906.000000	61.214738
1905.000000	61.267872
1904.000000	61.305596
1903.000000	61.335375
1902.000000	61.359173
1901.000000	61.371489
1900.000000	61.370320
1899.000000	61.359984
1898.000000	61.347727
1897.000000	61.345359
1896.000000	61.365189
1895.000000	61.402680
1894.000000	61.433274
1893.000000	61.438062
1892.000000	61.423881
1891.000000	61.415619
1890.000000	61.425683
1889.000000	61.440190
1888.000000	61.449648
1887.000000	61.463689
1886.000000	61.488201
1885.000000	61.517299
1884.000000	61.545819
1883.000000	61.573792
1882.000000	61.597626
1881.000000	61.610926
1880.000000	61.616871
1879.000000	61.623814
1878.000000	61.632183
1877.000000	61.637985
1876.000000	61.639938
1875.000000	61.634062
1874.000000	61.611082
1873.000000	61.566769
1872.000000	61.506158
1871.000000	61.435894
1870.000000	61.373533
1869.000000	61.349343
1868.000000	61.378631
1867.000000	61.451792
1866.000000	61.539897
1865.000000	61.607770
1864.000000	61.642035
1863.000000	61.656243
1862.000000	61.665157
1861.000000	61.672019
1860.000000	61.680658
1859.000000	61.696575
1858.000000	61.712678
1857.000000	61.714133
1856.000000	61.698129
1855.000000	61.676289
1854.000000	61.652537
1853.000000	61.617308
1852.000000	61.569571
1851.000000	61.514688
1850.000000	61.448309
1849.000000	61.373509
1848.000000	61.324405
1847.000000	61.338337
1846.000000	61.398000
1845.000000	61.432023
1844.000000	61.396228
1843.000000	61.329030
1842.000000	61.287029
1841.000000	61.272694
1840.000000	61.258822
1839.000000	61.238195
1838.000000	61.227426
1837.000000	61.230769
1836.000000	61.226681
1835.000000	61.195104
1834.000000	61.130335
1833.000000	61.032293
1832.000000	60.908440
1831.000000	60.788288
1830.000000	60.694734
1829.000000	60.622517
1828.000000	60.580660
1827.000000	60.581567
1826.000000	60.605039
1825.000000	60.620552
1824.000000	60.623792
1823.000000	60.631418
1822.000000	60.635323
1821.000000	60.604204
1820.000000	60.530426
1819.000000	60.436496
1818.000000	60.341353
1817.000000	60.243076
1816.000000	60.137640
1815.000000	60.030172
1814.000000	59.924099
1813.000000	59.827767
1812.000000	59.762731
1811.000000	59.738199
1810.000000	59.731817
1809.000000	59.715742
1808.000000	59.683448
1807.000000	59.635902
1806.000000	59.563091
1805.000000	59.456280
1804.000000	59.333447
1803.000000	59.233849
1802.000000	59.182033
1801.000000	59.169838
1800.000000	59.169086
1799.000000	59.151697
1798.000000	59.102456
1797.000000	59.029363
1796.000000	58.964168
1795.000000	58.927366
1794.000000	58.894583
1793.000000	58.841448
1792.000000	58.789866
1791.000000	58.772163
1790.000000	58.790361
1789.000000	58.820434
1788.000000	58.838733
1787.000000	58.830040
1786.000000	58.776399
1785.000000	58.660561
1784.000000	58.497503
1783.000000	58.332923
1782.000000	58.194928
1781.000000	58.082953
1780.000000	57.987791
1779.000000	57.900408
1778.000000	57.797823
1777.000000	57.654631
1776.000000	57.493103
1775.000000	57.364800
1774.000000	57.272123
1773.000000	57.175863
1772.000000	57.066247
1771.000000	56.977952
1770.000000	56.940038
1769.000000	56.926451
1768.000000	56.888578
1767.000000	56.818819
1766.000000	56.746341
1765.000000	56.690613
1764.000000	56.644380
1763.000000	56.587229
1762.000000	56.491161
1761.000000	56.349363
1760.000000	56.207189
1759.000000	56.115477
1758.000000	56.060691
1757.000000	55.974813
1756.000000	55.831635
1755.000000	55.680262
1754.000000	55.550743
1753.000000	55.401977
1752.000000	55.188293
1751.000000	54.944437
1750.000000	54.750622
1749.000000	54.626793
1748.000000	54.536670
1747.000000	54.448429
1746.000000	54.344121
1745.000000	54.220880
1744.000000	54.107179
1743.000000	54.042271
1742.000000	54.018887
1741.000000	53.964560
1740.000000	53.809911
1739.000000	53.580192
1738.000000	53.361728
1737.000000	53.200883
1736.000000	53.043781
1735.000000	52.784611
1734.000000	52.412046
1733.000000	52.058655
1732.000000	51.853452
1731.000000	51.789939
1730.000000	51.775342
1729.000000	51.714874
1728.000000	51.580962
1727.000000	51.401826
1726.000000	51.184809
1725.000000	50.917316
1724.000000	50.605933
1723.000000	50.283035
1722.000000	49.964005
1721.000000	49.622969
1720.000000	49.219757
1719.000000	48.774562
1718.000000	48.379149
1717.000000	48.090759
1716.000000	47.905887
1715.000000	47.776003
1714.000000	47.623081
1713.000000	47.405706
1712.000000	47.137697
1711.000000	46.844566
1710.000000	46.525829
1709.000000	46.178014
1708.000000	45.819448
1707.000000	45.468821
1706.000000	45.116078
1705.000000	44.768347
1704.000000	44.510318
1703.000000	44.418311
1702.000000	44.344375
1701.000000	43.936487
1700.000000	43.181246
1699.000000	42.494774
1698.000000	42.132758
1697.000000	42.014198
1696.000000	41.887647
1695.000000	41.628017
1694.000000	41.343544
1693.000000	41.093734
1692.000000	40.835140
1691.000000	40.524830
1690.000000	40.147135
1689.000000	39.725178
1688.000000	39.321483
1687.000000	38.993593
1686.000000	38.698698
1685.000000	38.359218
1684.000000	37.965589
1683.000000	37.602255
1682.000000	37.357130
1681.000000	37.190346
1680.000000	37.034468
1679.000000	36.882438
1678.000000	36.741734
1677.000000	36.559199
1676.000000	36.237043
1675.000000	35.783334
1674.000000	35.332287
1673.000000	34.979597
1672.000000	34.712040
1671.000000	34.484236
1670.000000	34.257450
1669.000000	33.999891
1668.000000	33.730566
1667.000000	33.499064
1666.000000	33.306849
1665.000000	33.099353
1664.000000	32.825094
1663.000000	32.495945
1662.000000	32.162874
1661.000000	31.859972
1660.000000	31.586254
1659.000000	31.326200
1658.000000	31.058182
1657.000000	30.787451
1656.000000	30.541511
1655.000000	30.325092
1654.000000	30.082684
1653.000000	29.663284
1652.000000	29.170539
1651.000000	28.852200
1650.000000	28.657874
1649.000000	28.467706
1648.000000	28.269478
1647.000000	28.080676
1646.000000	27.885630
1645.000000	27.684679
1644.000000	27.502773
1643.000000	27.335557
1642.000000	27.153603
1641.000000	26.919343
1640.000000	26.637009
1639.000000	26.359531
1638.000000	26.126615
1637.000000	25.933864
1636.000000	25.732400
1635.000000	25.493968
1634.000000	25.277390
1633.000000	25.118269
1632.000000	24.989492
1631.000000	24.861460
1630.000000	24.707469
1629.000000	24.512307
1628.000000	24.290868
1627.000000	24.083911
1626.000000	23.914038
1625.000000	23.761392
1624.000000	23.602651
1623.000000	23.444533
1622.000000	23.306471
1621.000000	23.194716
1620.000000	23.105033
1619.000000	23.033377
1618.000000	22.966015
1617.000000	22.872461
1616.000000	22.750444
1615.000000	22.649347
1614.000000	22.594503
1613.000000	22.557104
1612.000000	22.508304
1611.000000	22.453702
1610.000000	22.416387
1609.000000	22.400243
1608.000000	22.392989
1607.000000	22.389721
1606.000000	22.386333
1605.000000	22.369790
1604.000000	22.336988
1603.000000	22.305498
1602.000000	22.290413
1601.000000	22.286030
1600.000000	22.283435
1599.000000	22.287770
1598.000000	22.304725
1597.000000	22.328052
1596.000000	22.352259
1595.000000	22.381537
1594.000000	22.414858
1593.000000	22.438409
1592.000000	22.444452
1591.000000	22.443990
1590.000000	22.449992
1589.000000	22.461494
1588.000000	22.474644
1587.000000	22.496007
1586.000000	22.530594
1585.000000	22.567875
1584.000000	22.596167
1583.000000	22.613790
1582.000000	22.613200
1581.000000	22.576267
1580.000000	22.502234
1579.000000	22.419920
1578.000000	22.363489
1577.000000	22.337639
1576.000000	22.312132
1575.000000	22.286473
1574.000000	22.292193
1573.000000	22.327258
1572.000000	22.360384
1571.000000	22.365847
1570.000000	22.343418
1569.000000	22.300743
1568.000000	22.254155
1567.000000	22.229290
1566.000000	22.226550
1565.000000	22.217525
1564.000000	22.197905
1563.000000	22.197319
1562.000000	22.257684
1561.000000	22.313472
1560.000000	22.332797
1559.000000	22.422899
1558.000000	22.537635
1557.000000	22.650487
1556.000000	22.797054
1555.000000	22.964852
1554.000000	23.128930
1553.000000	23.267930
1552.000000	23.404802
1551.000000	23.575488
1550.000000	23.794406
1549.000000	24.028207
1548.000000	24.236549
1547.000000	24.403611
1546.000000	24.529612
1545.000000	24.632037
1544.000000	24.731502
1543.000000	24.833746
1542.000000	24.954883
1541.000000	25.182639
1540.000000	25.540832
1539.000000	25.904776
1538.000000	26.223219
1537.000000	26.520199
1536.000000	26.807723
1535.000000	27.101489
1534.000000	27.416454
1533.000000	27.739154
1532.000000	28.035814
1531.000000	28.310757
1530.000000	28.582703
1529.000000	28.858361
1528.000000	29.154174
1527.000000	29.493350
1526.000000	29.864493
1525.000000	30.227081
1524.000000	30.572794
1523.000000	30.959108
1522.000000	31.446594
1521.000000	31.970545
1520.000000	32.421396
1519.000000	32.809538
1518.000000	33.225244
1517.000000	33.725092
1516.000000	34.270769
1515.000000	34.807329
1514.000000	35.322178
1513.000000	35.789962
1512.000000	36.173294
1511.000000	36.457644
1510.000000	36.672845
1509.000000	36.886344
1508.000000	37.321716
1507.000000	38.126867
1506.000000	38.964889
1505.000000	39.579673
1504.000000	40.058164
1503.000000	40.510146
1502.000000	40.989830
1501.000000	41.474319
1500.000000	41.922836
1499.000000	42.346937
1498.000000	42.804181
1497.000000	43.303716
1496.000000	43.775588
1495.000000	44.175241
1494.000000	44.511657
1493.000000	44.786076
1492.000000	44.995205
1491.000000	45.210647
1490.000000	45.554531
1489.000000	46.036109
1488.000000	46.558685
1487.000000	47.047220
1486.000000	47.462576
1485.000000	47.774194
1484.000000	47.987030
1483.000000	48.149367
1482.000000	48.304104
1481.000000	48.453455
1480.000000	48.587018
1479.000000	48.703166
1478.000000	48.781557
1477.000000	48.793324
1476.000000	48.753826
1475.000000	48.717579
1474.000000	48.711536
1473.000000	48.698356
1472.000000	48.611392
1471.000000	48.445713
1470.000000	48.231244
1469.000000	47.958707
1468.000000	47.614925
1467.000000	47.201451
1466.000000	46.691919
1465.000000	46.040017
1464.000000	45.274159
1463.000000	44.503140
1462.000000	43.769184
1461.000000	43.021478
1460.000000	42.231745
1459.000000	41.431664
1458.000000	40.615828
1457.000000	39.662251
1456.000000	38.613478
1455.000000	37.686209
1454.000000	36.846561
1453.000000	35.895987
1452.000000	34.757423
1451.000000	33.482016
1450.000000	32.086939
1449.000000	30.503117
1448.000000	28.743192
1447.000000	26.950907
1446.000000	25.213938
1445.000000	23.495754
1444.000000	21.765216
1443.000000	20.037014
1442.000000	18.311962
1441.000000	16.606636
1440.000000	14.996078
1439.000000	13.495107
1438.000000	11.945813
1437.000000	10.214950
1436.000000	8.520101
1435.000000	7.198019
1434.000000	6.242762
1433.000000	5.457436
1432.000000	4.775416
1431.000000	4.238135
1430.000000	3.837112
1429.000000	3.524725
1428.000000	3.329966
1427.000000	3.299026
1426.000000	3.392998
1425.000000	3.560129
1424.000000	3.828901
1423.000000	4.227100
1422.000000	4.702529
1421.000000	5.222372
1420.000000	5.864362
1419.000000	6.691674
1418.000000	7.597778
1417.000000	8.467003
1416.000000	9.343114
1415.000000	10.296004
1414.000000	11.301967
1413.000000	12.321561
1412.000000	13.383910
1411.000000	14.520946
1410.000000	15.691879
1409.000000	16.850771
1408.000000	18.020602
1407.000000	19.248262
1406.000000	20.544622
1405.000000	21.895252
1404.000000	23.269429
1403.000000	24.607288
1402.000000	25.863762
1401.000000	27.066827
1400.000000	28.286876
1399.000000	29.532260
1398.000000	30.743310
1397.000000	31.925764
1396.000000	33.180322
1395.000000	34.559535
1394.000000	35.977291
1393.000000	37.322871
1392.000000	38.575013
1391.000000	39.753023
1390.000000	40.866941
1389.000000	41.942215
1388.000000	43.016349
1387.000000	44.076341
1386.000000	45.056653
1385.000000	45.927484
1384.000000	46.705102
1383.000000	47.386887
1382.000000	47.945343
1381.000000	48.356808
1380.000000	48.591299
1379.000000	48.588791
1378.000000	48.285854
1377.000000	47.646416
1376.000000	46.639352
1375.000000	45.237687
1374.000000	43.468456
1373.000000	41.447489
1372.000000	39.341972
1371.000000	37.311708
1370.000000	35.527427
1369.000000	34.204755
1368.000000	33.540112
1367.000000	33.597470
1366.000000	34.299088
1365.000000	35.520581
1364.000000	37.161124
1363.000000	39.111736
1362.000000	41.184129
1361.000000	43.161050
1360.000000	44.907146
1359.000000	46.373327
1358.000000	47.541091
1357.000000	48.393926
1356.000000	48.906780
1355.000000	49.048327
1354.000000	48.796534
1353.000000	48.146260
1352.000000	47.108309
1351.000000	45.705723
1350.000000	43.976211
1349.000000	41.970023
1348.000000	39.730260
1347.000000	37.288658
1346.000000	34.674519
1345.000000	31.924733
1344.000000	29.095701
1343.000000	26.255630
1342.000000	23.464893
1341.000000	20.785736
1340.000000	18.318446
1339.000000	16.198128
1338.000000	14.530235
1337.000000	13.330531
1336.000000	12.537976
1335.000000	12.052961
1334.000000	11.741389
1333.000000	11.446969
1332.000000	11.030066
1331.000000	10.403308
1330.000000	9.543666
1329.000000	8.486308
1328.000000	7.314520
1327.000000	6.135372
1326.000000	5.040438
1325.000000	4.084644
1324.000000	3.298229
1323.000000	2.697665
1322.000000	2.273727
1321.000000	1.991462
1320.000000	1.816136
1319.000000	1.721580
1318.000000	1.676348
1317.000000	1.645077
1316.000000	1.609345
1315.000000	1.571939
1314.000000	1.534424
1313.000000	1.490753
1312.000000	1.443922
1311.000000	1.407137
1310.000000	1.385721
1309.000000	1.375185
1308.000000	1.380009
1307.000000	1.415100
1306.000000	1.485974
1305.000000	1.586526
1304.000000	1.716827
1303.000000	1.884411
1302.000000	2.087101
1301.000000	2.312276
1300.000000	2.555882
1299.000000	2.823256
1298.000000	3.111898
1297.000000	3.411872
1296.000000	3.722018
1295.000000	4.049444
1294.000000	4.392024
1293.000000	4.738400
1292.000000	5.084677
1291.000000	5.434443
1290.000000	5.782366
1289.000000	6.112951
1288.000000	6.412850
1287.000000	6.668548
1286.000000	6.856591
1285.000000	6.954084
1284.000000	6.964650
1283.000000	6.925152
1282.000000	6.886819
1281.000000	6.898585
1280.000000	7.001526
1279.000000	7.217304
1278.000000	7.535764
1277.000000	7.927051
1276.000000	8.365697
1275.000000	8.836211
1274.000000	9.322997
1273.000000	9.810482
1272.000000	10.293392
1271.000000	10.772184
1270.000000	11.240569
1269.000000	11.689275
1268.000000	12.118961
1267.000000	12.538040
1266.000000	12.950474
1265.000000	13.356038
1264.000000	13.759364
1263.000000	14.168128
1262.000000	14.582959
1261.000000	14.998759
1260.000000	15.412911
1259.000000	15.823203
1258.000000	16.222071
1257.000000	16.602318
1256.000000	16.966346
1255.000000	17.322360
1254.000000	17.675165
1253.000000	18.027613
1252.000000	18.386214
1251.000000	18.756890
1250.000000	19.137391
1249.000000	19.519987
1248.000000	19.898992
1247.000000	20.270325
1246.000000	20.627761
1245.000000	20.966581
1244.000000	21.288993
1243.000000	21.601477
1242.000000	21.908982
1241.000000	22.215895
1240.000000	22.528884
1239.000000	22.852811
1238.000000	23.185762
1237.000000	23.521491
1236.000000	23.854249
1235.000000	24.178380
1234.000000	24.486882
1233.000000	24.775511
1232.000000	25.046718
1231.000000	25.307268
1230.000000	25.564405
1229.000000	25.825633
1228.000000	26.098923
1227.000000	26.389170
1226.000000	26.695209
1225.000000	27.011519
1224.000000	27.330682
1223.000000	27.643764
1222.000000	27.942335
1221.000000	28.222962
1220.000000	28.488718
1219.000000	28.746080
1218.000000	29.002490
1217.000000	29.266002
1216.000000	29.543119
1215.000000	29.835448
1214.000000	30.139764
1213.000000	30.450694
1212.000000	30.760925
1211.000000	31.060283
1210.000000	31.339680
1209.000000	31.596913
1208.000000	31.837005
1207.000000	32.068272
1206.000000	32.300113
1205.000000	32.542496
1204.000000	32.802672
1203.000000	33.081296
1202.000000	33.373048
1201.000000	33.669216
1200.000000	33.958362
1199.000000	34.227144
1198.000000	34.464835
1197.000000	34.667426
1196.000000	34.834739
1195.000000	34.967608
1194.000000	35.067903
1193.000000	35.136570
1192.000000	35.169795
1191.000000	35.157617
1190.000000	35.093194
1189.000000	34.982937
1188.000000	34.848325
1187.000000	34.721798
1186.000000	34.639565
1185.000000	34.631194
1184.000000	34.709899
1183.000000	34.871907
1182.000000	35.103289
1181.000000	35.390020
1180.000000	35.719640
1179.000000	36.078241
1178.000000	36.451952
1177.000000	36.827201
1176.000000	37.189404
1175.000000	37.523831
1174.000000	37.821516
1173.000000	38.082421
1172.000000	38.312424
1171.000000	38.520930
1170.000000	38.722401
1169.000000	38.934034
1168.000000	39.166919
1167.000000	39.422336
1166.000000	39.696077
1165.000000	39.981096
1164.000000	40.264994
1163.000000	40.531847
1162.000000	40.771598
1161.000000	40.984309
1160.000000	41.174860
1159.000000	41.350335
1158.000000	41.523205
1157.000000	41.709234
1156.000000	41.917630
1155.000000	42.147073
1154.000000	42.392005
1153.000000	42.645535
1152.000000	42.895281
1151.000000	43.124957
1150.000000	43.324945
1149.000000	43.496962
1148.000000	43.646917
1147.000000	43.781534
1146.000000	43.913194
1145.000000	44.058150
1144.000000	44.225606
1143.000000	44.413291
1142.000000	44.614727
1141.000000	44.823063
1140.000000	45.026339
1139.000000	45.209163
1138.000000	45.363579
1137.000000	45.492877
1136.000000	45.603869
1135.000000	45.703266
1134.000000	45.802901
1133.000000	45.918117
1132.000000	46.056935
1131.000000	46.216703
1130.000000	46.391906
1129.000000	46.577252
1128.000000	46.762137
1127.000000	46.931914
1126.000000	47.078825
1125.000000	47.205304
1124.000000	47.316460
1123.000000	47.418180
1122.000000	47.522904
1121.000000	47.646173
1120.000000	47.793760
1119.000000	47.959526
1118.000000	48.136017
1117.000000	48.317830
1116.000000	48.494419
1115.000000	48.651589
1114.000000	48.784149
1113.000000	48.898693
1112.000000	49.002854
1111.000000	49.102298
1110.000000	49.208285
1109.000000	49.335079
1108.000000	49.486567
1107.000000	49.654146
1106.000000	49.828651
1105.000000	50.003786
1104.000000	50.167573
1103.000000	50.304180
1102.000000	50.408070
1101.000000	50.488166
1100.000000	50.554535
1099.000000	50.616060
1098.000000	50.687872
1097.000000	50.787946
1096.000000	50.922414
1095.000000	51.082346
1094.000000	51.256776
1093.000000	51.437660
1092.000000	51.612272
1091.000000	51.764931
1090.000000	51.891061
1089.000000	51.999399
1088.000000	52.098959
1087.000000	52.195676
1086.000000	52.301689
1085.000000	52.433026
1084.000000	52.593530
1083.000000	52.771501
1082.000000	52.953253
1081.000000	53.128862
1080.000000	53.284718
1079.000000	53.405658
1078.000000	53.489732
1077.000000	53.548394
1076.000000	53.591661
1075.000000	53.624542
1074.000000	53.655901
1073.000000	53.695959
1072.000000	53.738955
1071.000000	53.761235
1070.000000	53.737266
1069.000000	53.643841
1068.000000	53.454865
1067.000000	53.147206
1066.000000	52.722396
1065.000000	52.214819
1064.000000	51.678888
1063.000000	51.180260
1062.000000	50.792222
1061.000000	50.577761
1060.000000	50.561670
1059.000000	50.727230
1058.000000	51.032026
1057.000000	51.425132
1056.000000	51.853063
1055.000000	52.267073
1054.000000	52.641910
1053.000000	52.976311
1052.000000	53.277327
1051.000000	53.553341
1050.000000	53.820954
1049.000000	54.100321
1048.000000	54.397314
1047.000000	54.700539
1046.000000	54.996574
1045.000000	55.276214
1044.000000	55.524799
1043.000000	55.725669
1042.000000	55.877764
1041.000000	55.997554
1040.000000	56.102713
1039.000000	56.205798
1038.000000	56.323500
1037.000000	56.474456
1036.000000	56.662298
1035.000000	56.873079
1034.000000	57.090829
1033.000000	57.303961
1032.000000	57.496765
1031.000000	57.651801
1030.000000	57.766562
1029.000000	57.855490
1028.000000	57.934278
1027.000000	58.014648
1026.000000	58.113190
1025.000000	58.247642
1024.000000	58.419655
1023.000000	58.612988
1022.000000	58.810493
1021.000000	59.000173
1020.000000	59.166038
1019.000000	59.291177
1018.000000	59.374931
1017.000000	59.434092
1016.000000	59.485378
1015.000000	59.540633
1014.000000	59.616632
1013.000000	59.731152
1012.000000	59.884991
1011.000000	60.061053
1010.000000	60.241795
1009.000000	60.414975
1008.000000	60.563908
1007.000000	60.671035
1006.000000	60.735626
1005.000000	60.775193
1004.000000	60.808198
1003.000000	60.848023
1002.000000	60.911803
1001.000000	61.016448
1000.000000	61.161900
999.000000	61.330451
998.000000	61.504089
997.000000	61.669661
996.000000	61.809370
995.000000	61.904928
994.000000	61.956069
993.000000	61.981419
992.000000	62.000194
991.000000	62.026065
990.000000	62.076318
989.000000	62.168127
988.000000	62.301070
987.000000	62.456586
986.000000	62.615891
985.000000	62.766168
984.000000	62.890771
983.000000	62.972454
982.000000	63.011221
981.000000	63.025545
980.000000	63.034225
979.000000	63.050299
978.000000	63.090615
977.000000	63.172281
976.000000	63.295106
975.000000	63.440272
974.000000	63.588373
973.000000	63.725667
972.000000	63.834835
971.000000	63.898610
970.000000	63.917492
969.000000	63.910493
968.000000	63.896992
967.000000	63.891422
966.000000	63.912390
965.000000	63.977517
964.000000	64.085124
963.000000	64.214771
962.000000	64.346717
961.000000	64.468124
960.000000	64.562194
959.000000	64.611709
958.000000	64.617601
957.000000	64.599832
956.000000	64.578029
955.000000	64.564933
954.000000	64.576636
953.000000	64.628809
952.000000	64.718885
951.000000	64.826297
950.000000	64.932322
949.000000	65.025612
948.000000	65.090859
947.000000	65.112107
946.000000	65.091975
945.000000	65.051556
944.000000	65.010387
943.000000	64.980290
942.000000	64.975893
941.000000	65.010938
940.000000	65.080336
939.000000	65.161411
938.000000	65.234528
937.000000	65.289079
936.000000	65.311433
935.000000	65.287595
934.000000	65.221901
933.000000	65.137267
932.000000	65.054577
931.000000	64.986397
930.000000	64.947121
929.000000	64.948753
928.000000	64.983326
927.000000	65.025198
926.000000	65.052971
925.000000	65.054257
924.000000	65.012951
923.000000	64.913461
922.000000	64.761217
921.000000	64.582474
920.000000	64.401012
919.000000	64.229862
918.000000	64.082755
917.000000	63.971749
916.000000	63.890179
915.000000	63.812604
914.000000	63.714521
913.000000	63.579869
912.000000	63.390700
911.000000	63.131895
910.000000	62.809085
909.000000	62.447034
908.000000	62.068669
907.000000	61.687410
906.000000	61.317484
905.000000	60.970194
904.000000	60.637294
903.000000	60.294101
902.000000	59.918589
901.000000	59.496666
900.000000	59.011560
899.000000	58.447716
898.000000	57.809144
897.000000	57.116953
896.000000	56.390458
895.000000	55.641041
894.000000	54.879768
893.000000	54.115533
892.000000	53.340908
891.000000	52.534673
890.000000	51.678314
889.000000	50.759352
888.000000	49.765251
887.000000	48.686285
886.000000	47.527641
885.000000	46.307524
884.000000	45.041542
883.000000	43.740183
882.000000	42.413830
881.000000	41.070506
880.000000	39.709199
879.000000	38.322347
878.000000	36.905722
877.000000	35.459683
876.000000	33.986649
875.000000	32.494602
874.000000	31.001764
873.000000	29.531895
872.000000	28.106908
871.000000	26.745085
870.000000	25.459762
869.000000	24.259541
868.000000	23.146686
867.000000	22.118703
866.000000	21.170610
865.000000	20.294456
864.000000	19.484523
863.000000	18.737309
862.000000	18.049901
861.000000	17.420966
860.000000	16.850117
859.000000	16.338162
858.000000	15.882330
857.000000	15.476091
856.000000	15.114455
855.000000	14.793179
854.000000	14.507487
853.000000	14.252994
852.000000	14.029849
851.000000	13.843545
850.000000	13.698393
849.000000	13.597448
848.000000	13.546202
847.000000	13.551836
846.000000	13.619793
845.000000	13.751123
844.000000	13.947633
843.000000	14.213136
842.000000	14.547937
841.000000	14.948874
840.000000	15.412301
839.000000	15.938806
838.000000	16.530801
837.000000	17.187708
836.000000	17.907513
835.000000	18.687229
834.000000	19.517472
833.000000	20.366468
832.000000	21.160026
831.000000	21.732918
830.000000	21.787249
829.000000	20.929504
828.000000	18.893595
827.000000	15.869874
826.000000	12.612669
825.000000	10.111307
824.000000	9.029852
823.000000	9.392440
822.000000	10.746826
821.000000	12.568282
820.000000	14.497986
819.000000	16.345161
818.000000	18.027806
817.000000	19.533661
816.000000	20.893979
815.000000	22.137661
814.000000	23.280099
813.000000	24.339663
812.000000	25.339644
811.000000	26.288654
810.000000	27.182259
809.000000	28.022366
808.000000	28.816178
807.000000	29.564715
806.000000	30.266822
805.000000	30.932354
804.000000	31.573904
803.000000	32.190348
802.000000	32.777279
801.000000	33.345142
800.000000	33.912241
799.000000	34.486254
798.000000	35.066797
797.000000	35.657706
796.000000	36.259898
795.000000	36.860363
794.000000	37.443685
793.000000	38.006930
792.000000	38.551546
791.000000	39.071983
790.000000	39.566997
789.000000	40.051533
788.000000	40.542913
787.000000	41.044550
786.000000	41.553922
785.000000	42.074069
784.000000	42.603796
783.000000	43.127663
782.000000	43.629471
781.000000	44.106109
780.000000	44.557790
779.000000	44.978547
778.000000	45.368941
777.000000	45.745972
776.000000	46.127040
775.000000	46.514374
774.000000	46.905313
773.000000	47.303676
772.000000	47.708946
771.000000	48.106874
770.000000	48.482948
769.000000	48.834532
768.000000	49.160298
767.000000	49.453074
766.000000	49.714892
765.000000	49.964687
764.000000	50.219858
763.000000	50.482314
762.000000	50.751362
761.000000	51.033684
760.000000	51.328761
759.000000	51.619813
758.000000	51.891693
757.000000	52.144798
756.000000	52.382252
755.000000	52.600101
754.000000	52.801973
753.000000	53.006793
752.000000	53.229541
751.000000	53.468486
750.000000	53.719949
749.000000	53.988211
748.000000	54.269760
747.000000	54.545572
746.000000	54.801230
745.000000	55.039088
744.000000	55.260997
743.000000	55.458489
742.000000	55.631721
741.000000	55.799299
740.000000	55.975985
739.000000	56.157476
738.000000	56.337680
737.000000	56.521135
736.000000	56.705980
735.000000	56.873229
734.000000	57.007004
733.000000	57.108300
732.000000	57.178462
731.000000	57.209801
730.000000	57.205324
729.000000	57.187688
728.000000	57.175608
727.000000	57.169521
726.000000	57.170273
725.000000	57.191787
724.000000	57.242506
723.000000	57.313701
722.000000	57.399121
721.000000	57.507272
720.000000	57.641902
719.000000	57.791878
718.000000	57.954278
717.000000	58.146020
716.000000	58.377938
715.000000	58.638428
714.000000	58.915714
713.000000	59.213220
712.000000	59.528349
711.000000	59.838677
710.000000	60.126140
709.000000	60.393452
708.000000	60.644101
707.000000	60.870655
706.000000	61.076505
705.000000	61.284776
704.000000	61.509952
703.000000	61.740952
702.000000	61.966332
701.000000	62.192467
700.000000	62.421347
699.000000	62.637322
698.000000	62.831202
697.000000	63.014008
696.000000	63.192028
695.000000	63.353549
694.000000	63.496971
693.000000	63.644393
692.000000	63.808643
691.000000	63.976833
690.000000	64.142385
689.000000	64.323095
688.000000	64.526648
687.000000	64.727526
686.000000	64.904063
685.000000	65.066260
684.000000	65.224485
683.000000	65.366246
682.000000	65.488663
681.000000	65.618548
680.000000	65.774781
679.000000	65.942349
678.000000	66.109356
677.000000	66.288420
676.000000	66.481185
675.000000	66.667275
674.000000	66.835220
673.000000	66.991654
672.000000	67.138317
671.000000	67.276722
670.000000	67.440332
669.000000	67.693378
668.000000	68.018484
667.000000	68.240419
666.000000	68.293341
665.000000	68.302179
664.000000	68.366826
663.000000	68.494814
662.000000	68.649623
661.000000	68.801771
660.000000	68.942602
659.000000	69.069197
658.000000	69.186212
657.000000	69.306640
656.000000	69.435197
655.000000	69.569718
654.000000	69.714222
653.000000	69.876458
652.000000	70.055158
651.000000	70.237582
650.000000	70.412209
649.000000	70.573550
648.000000	70.712750
647.000000	70.819595
646.000000	70.899753
645.000000	70.975909
644.000000	71.062686
643.000000	71.156101
642.000000	71.256523
641.000000	71.379790
640.000000	71.533094
639.000000	71.700271
638.000000	71.861844
637.000000	72.013602
636.000000	72.155856
635.000000	72.281202
634.000000	72.387100
633.000000	72.482679
632.000000	72.572160
631.000000	72.650520
630.000000	72.723042
629.000000	72.808110
628.000000	72.913983
627.000000	73.034245
626.000000	73.169503
625.000000	73.328067
624.000000	73.495774
623.000000	73.633987
622.000000	73.722235
621.000000	73.775439
620.000000	73.809277
619.000000	73.823999
618.000000	73.833941
617.000000	73.877184
616.000000	73.974194
615.000000	74.104614
614.000000	74.238869
613.000000	74.363749
612.000000	74.461942
611.000000	74.500003
610.000000	74.452862
609.000000	74.310966
608.000000	74.049856
607.000000	73.611163
606.000000	72.929669
605.000000	71.930526
604.000000	70.471540
603.000000	68.325618
602.000000	65.214512
601.000000	60.914791
600.000000	55.429339
599.000000	49.192460
598.000000	43.095179
597.000000	38.185483
596.000000	35.252263
595.000000	34.557737
594.000000	35.809338
593.000000	38.364665
592.000000	41.570698
591.000000	44.932330
590.000000	48.126119
589.000000	51.011157
588.000000	53.576326
587.000000	55.854725
586.000000	57.870481
585.000000	59.643121
584.000000	61.187157
583.000000	62.519246
582.000000	63.678942
581.000000	64.729003
580.000000	65.707176
579.000000	66.591108
578.000000	67.358667
577.000000	68.038820
576.000000	68.671373
575.000000	69.250355
574.000000	69.744503
573.000000	70.154375
572.000000	70.501906
571.000000	70.799225
570.000000	71.066794
569.000000	71.347506
568.000000	71.666786
567.000000	72.003510
566.000000	72.325931
565.000000	72.630516
564.000000	72.915804
563.000000	73.157763
562.000000	73.343304
561.000000	73.495121
560.000000	73.637087
559.000000	73.768244
558.000000	73.895749
557.000000	74.052270
556.000000	74.255354
555.000000	74.481512
554.000000	74.703530
553.000000	74.917765
552.000000	75.114392
551.000000	75.261764
550.000000	75.349407
549.000000	75.407988
548.000000	75.465333
547.000000	75.526906
546.000000	75.613817
545.000000	75.766176
544.000000	75.983631
543.000000	76.214516
542.000000	76.422991
541.000000	76.619934
540.000000	76.805099
539.000000	76.938529
538.000000	77.000955
537.000000	77.030946
536.000000	77.069462
535.000000	77.117842
534.000000	77.178847
533.000000	77.285072
532.000000	77.451142
531.000000	77.638876
530.000000	77.803020
529.000000	77.930853
528.000000	78.013196
527.000000	78.030078
526.000000	77.997598
525.000000	77.960887
524.000000	77.913077
523.000000	77.785863
522.000000	77.535050
521.000000	77.172299
520.000000	76.704231
519.000000	76.105199
518.000000	75.387679
517.000000	74.646659
516.000000	73.990678
515.000000	73.483527
514.000000	73.168044
513.000000	73.080663
512.000000	73.196486
511.000000	73.404963
510.000000	73.573757
509.000000	73.608489
508.000000	73.417779
507.000000	72.880792
506.000000	71.898657
505.000000	70.441713
504.000000	68.543296
503.000000	66.357578
502.000000	64.260788
501.000000	62.727914
500.000000	62.038990
499.000000	62.178672
498.000000	62.974686
497.000000	64.191403
496.000000	65.540039
495.000000	66.735980
494.000000	67.610828
493.000000	68.178957
492.000000	68.564572
491.000000	68.903157
490.000000	69.310885
489.000000	69.869023
488.000000	70.578204
487.000000	71.369899
486.000000	72.193843
485.000000	73.059599
484.000000	73.962742
483.000000	74.825366
482.000000	75.566478
481.000000	76.172455
480.000000	76.643853
479.000000	76.957490
478.000000	77.132561
477.000000	77.257334
476.000000	77.390508
475.000000	77.508945
474.000000	77.616493
473.000000	77.825117
472.000000	78.207038
471.000000	78.631847
470.000000	78.926381
469.000000	79.073942
468.000000	79.142886
467.000000	79.157170
466.000000	79.111979
465.000000	79.048316
464.000000	79.017645
463.000000	79.028803
462.000000	79.086495
461.000000	79.210980
460.000000	79.368875
459.000000	79.466533
458.000000	79.487517
457.000000	79.506077
456.000000	79.497750
455.000000	79.345762
454.000000	79.038291
453.000000	78.723190
452.000000	78.542069
451.000000	78.458595
450.000000	78.347024
449.000000	78.154337
448.000000	77.866762
447.000000	77.400709
446.000000	76.641805
445.000000	75.522926
444.000000	73.982546
443.000000	71.954210
442.000000	69.465023
441.000000	66.662228
440.000000	63.689645
439.000000	60.653898
438.000000	57.725813
437.000000	55.231162
436.000000	53.547370
435.000000	52.880879
434.000000	53.165037
433.000000	54.197228
432.000000	55.806580
431.000000	57.799333
430.000000	59.952701
429.000000	62.143467
428.000000	64.332316
427.000000	66.431474
426.000000	68.348725
425.000000	70.124596
424.000000	71.800766
423.000000	73.220684
422.000000	74.180346
421.000000	74.716135
420.000000	75.030562
419.000000	75.409983
418.000000	76.054273
417.000000	76.891934
416.000000	77.790846
415.000000	78.612139
414.000000	79.262243
413.000000	79.816477
412.000000	80.327629
411.000000	80.634823
410.000000	80.619325
409.000000	80.472880
408.000000	80.406825
407.000000	80.363018
406.000000	80.275130
405.000000	80.380447
404.000000	80.759432
403.000000	81.193880
402.000000	81.398290
401.000000	81.431751
400.000000	81.435322
