PE IR       SUBTECH     SPECTRUM    ASCII       PEDS        4.00        
   -1
23MS125_nitro.asc
24/09/06
16:25:29.00
24/09/06
16:25:29.00
Administrator
Sample 1128 By Administrator Date Friday, September 06 2024
400.000000
#HDR
-1
-1
#GR
cm-1
%T
1.0
0.0
4000.000000
-1.000000
3601
8
85.716179
1.970716
#DATA
4000.000000	45.175556
3999.000000	45.214332
3998.000000	45.253737
3997.000000	45.293810
3996.000000	45.334439
3995.000000	45.375291
3994.000000	45.415749
3993.000000	45.455367
3992.000000	45.494341
3991.000000	45.533292
3990.000000	45.572366
3989.000000	45.610886
3988.000000	45.648412
3987.000000	45.685710
3986.000000	45.724074
3985.000000	45.763760
3984.000000	45.803733
3983.000000	45.842800
3982.000000	45.880368
3981.000000	45.916269
3980.000000	45.950562
3979.000000	45.983716
3978.000000	46.016807
3977.000000	46.051064
3976.000000	46.086851
3975.000000	46.123269
3974.000000	46.159092
3973.000000	46.193876
3972.000000	46.227895
3971.000000	46.261763
3970.000000	46.296199
3969.000000	46.331399
3968.000000	46.366435
3967.000000	46.399962
3966.000000	46.431450
3965.000000	46.461909
3964.000000	46.493397
3963.000000	46.527356
3962.000000	46.563567
3961.000000	46.600450
3960.000000	46.636139
3959.000000	46.670129
3958.000000	46.703779
3957.000000	46.738485
3956.000000	46.773664
3955.000000	46.807607
3954.000000	46.839513
3953.000000	46.870074
3952.000000	46.900570
3951.000000	46.932019
3950.000000	46.964473
3949.000000	46.995740
3948.000000	47.023183
3947.000000	47.047127
3946.000000	47.071448
3945.000000	47.101761
3944.000000	47.142395
3943.000000	47.192429
3942.000000	47.243847
3941.000000	47.287537
3940.000000	47.321634
3939.000000	47.352130
3938.000000	47.385498
3937.000000	47.422058
3936.000000	47.456486
3935.000000	47.485063
3934.000000	47.511429
3933.000000	47.542771
3932.000000	47.580939
3931.000000	47.619879
3930.000000	47.653219
3929.000000	47.681954
3928.000000	47.712439
3927.000000	47.749823
3926.000000	47.794803
3925.000000	47.844361
3924.000000	47.890860
3923.000000	47.924910
3922.000000	47.944723
3921.000000	47.959373
3920.000000	47.980388
3919.000000	48.011282
3918.000000	48.047699
3917.000000	48.086370
3916.000000	48.127106
3915.000000	48.168927
3914.000000	48.210051
3913.000000	48.252361
3912.000000	48.298931
3911.000000	48.348125
3910.000000	48.393897
3909.000000	48.432971
3908.000000	48.467116
3907.000000	48.498300
3906.000000	48.524021
3905.000000	48.539610
3904.000000	48.543540
3903.000000	48.538516
3902.000000	48.532572
3901.000000	48.537218
3900.000000	48.561723
3899.000000	48.606173
3898.000000	48.658365
3897.000000	48.706698
3896.000000	48.751305
3895.000000	48.801020
3894.000000	48.860817
3893.000000	48.925268
3892.000000	48.981278
3891.000000	49.021463
3890.000000	49.048233
3889.000000	49.065205
3888.000000	49.073040
3887.000000	49.078924
3886.000000	49.099642
3885.000000	49.140269
3884.000000	49.181709
3883.000000	49.207455
3882.000000	49.227532
3881.000000	49.262872
3880.000000	49.314766
3879.000000	49.363778
3878.000000	49.395284
3877.000000	49.413204
3876.000000	49.433609
3875.000000	49.473676
3874.000000	49.535205
3873.000000	49.595015
3872.000000	49.623703
3871.000000	49.620676
3870.000000	49.618348
3869.000000	49.639711
3868.000000	49.669868
3867.000000	49.685787
3866.000000	49.694755
3865.000000	49.727625
3864.000000	49.793203
3863.000000	49.862919
3862.000000	49.910477
3861.000000	49.940605
3860.000000	49.973867
3859.000000	50.029769
3858.000000	50.116180
3857.000000	50.219836
3856.000000	50.302550
3855.000000	50.324926
3854.000000	50.295857
3853.000000	50.260314
3852.000000	50.237979
3851.000000	50.228865
3850.000000	50.240223
3849.000000	50.279497
3848.000000	50.345667
3847.000000	50.426321
3846.000000	50.506290
3845.000000	50.576000
3844.000000	50.630243
3843.000000	50.670248
3842.000000	50.701291
3841.000000	50.725182
3840.000000	50.740988
3839.000000	50.751705
3838.000000	50.762715
3837.000000	50.780411
3836.000000	50.809227
3835.000000	50.848151
3834.000000	50.892866
3833.000000	50.940774
3832.000000	50.994183
3831.000000	51.054009
3830.000000	51.113839
3829.000000	51.167137
3828.000000	51.213813
3827.000000	51.260263
3826.000000	51.311762
3825.000000	51.361922
3824.000000	51.393256
3823.000000	51.399903
3822.000000	51.405434
3821.000000	51.438948
3820.000000	51.491971
3819.000000	51.531205
3818.000000	51.543307
3817.000000	51.546680
3816.000000	51.576517
3815.000000	51.644252
3814.000000	51.721001
3813.000000	51.779212
3812.000000	51.826203
3811.000000	51.883079
3810.000000	51.951501
3809.000000	52.010410
3808.000000	52.043577
3807.000000	52.062383
3806.000000	52.087154
3805.000000	52.116085
3804.000000	52.132828
3803.000000	52.135241
3802.000000	52.144641
3801.000000	52.179480
3800.000000	52.225588
3799.000000	52.260839
3798.000000	52.290139
3797.000000	52.334301
3796.000000	52.403094
3795.000000	52.484124
3794.000000	52.558079
3793.000000	52.619858
3792.000000	52.678389
3791.000000	52.739762
3790.000000	52.798553
3789.000000	52.846955
3788.000000	52.885095
3787.000000	52.919282
3786.000000	52.954586
3785.000000	52.991752
3784.000000	53.028767
3783.000000	53.062347
3782.000000	53.091350
3781.000000	53.122693
3780.000000	53.167143
3779.000000	53.224622
3778.000000	53.280781
3777.000000	53.323072
3776.000000	53.353172
3775.000000	53.383729
3774.000000	53.424354
3773.000000	53.470658
3772.000000	53.510368
3771.000000	53.541418
3770.000000	53.573145
3769.000000	53.608532
3768.000000	53.640815
3767.000000	53.669030
3766.000000	53.702435
3765.000000	53.749284
3764.000000	53.804144
3763.000000	53.849949
3762.000000	53.877897
3761.000000	53.901597
3760.000000	53.940514
3759.000000	53.990972
3758.000000	54.033646
3757.000000	54.066156
3756.000000	54.099306
3755.000000	54.132853
3754.000000	54.157670
3753.000000	54.173718
3752.000000	54.190723
3751.000000	54.205072
3750.000000	54.205022
3749.000000	54.208138
3748.000000	54.241926
3747.000000	54.296039
3746.000000	54.338424
3745.000000	54.369171
3744.000000	54.421643
3743.000000	54.497717
3742.000000	54.564979
3741.000000	54.613962
3740.000000	54.660724
3739.000000	54.712688
3738.000000	54.759691
3737.000000	54.801753
3736.000000	54.860879
3735.000000	54.942954
3734.000000	55.017689
3733.000000	55.062682
3732.000000	55.095957
3731.000000	55.145912
3730.000000	55.216375
3729.000000	55.289671
3728.000000	55.354072
3727.000000	55.418535
3726.000000	55.493661
3725.000000	55.569010
3724.000000	55.628742
3723.000000	55.677208
3722.000000	55.729146
3721.000000	55.788420
3720.000000	55.849026
3719.000000	55.905751
3718.000000	55.959079
3717.000000	56.014480
3716.000000	56.071073
3715.000000	56.118347
3714.000000	56.149270
3713.000000	56.172728
3712.000000	56.207304
3711.000000	56.257609
3710.000000	56.312452
3709.000000	56.364777
3708.000000	56.417155
3707.000000	56.476409
3706.000000	56.544877
3705.000000	56.617423
3704.000000	56.689045
3703.000000	56.761981
3702.000000	56.839661
3701.000000	56.915919
3700.000000	56.981179
3699.000000	57.033493
3698.000000	57.078691
3697.000000	57.125989
3696.000000	57.178714
3695.000000	57.227189
3694.000000	57.261134
3693.000000	57.286736
3692.000000	57.320985
3691.000000	57.370771
3690.000000	57.424268
3689.000000	57.466483
3688.000000	57.500228
3687.000000	57.542891
3686.000000	57.600243
3685.000000	57.663435
3684.000000	57.726601
3683.000000	57.788903
3682.000000	57.847373
3681.000000	57.898297
3680.000000	57.946085
3679.000000	57.992426
3678.000000	58.020433
3677.000000	58.018329
3676.000000	58.019494
3675.000000	58.060150
3674.000000	58.118267
3673.000000	58.153540
3672.000000	58.160143
3671.000000	58.178143
3670.000000	58.256719
3669.000000	58.383697
3668.000000	58.502554
3667.000000	58.591799
3666.000000	58.667977
3665.000000	58.749132
3664.000000	58.839847
3663.000000	58.933294
3662.000000	59.022059
3661.000000	59.103065
3660.000000	59.172689
3659.000000	59.222892
3658.000000	59.249339
3657.000000	59.261570
3656.000000	59.276512
3655.000000	59.298273
3654.000000	59.314883
3653.000000	59.313771
3652.000000	59.296791
3651.000000	59.285312
3650.000000	59.303059
3649.000000	59.347953
3648.000000	59.406512
3647.000000	59.479384
3646.000000	59.566847
3645.000000	59.658153
3644.000000	59.746580
3643.000000	59.834966
3642.000000	59.926911
3641.000000	60.016592
3640.000000	60.091945
3639.000000	60.150017
3638.000000	60.198932
3637.000000	60.244053
3636.000000	60.282400
3635.000000	60.314227
3634.000000	60.349333
3633.000000	60.389144
3632.000000	60.413922
3631.000000	60.403389
3630.000000	60.376866
3629.000000	60.385947
3628.000000	60.439492
3627.000000	60.500073
3626.000000	60.549657
3625.000000	60.596319
3624.000000	60.650146
3623.000000	60.711634
3622.000000	60.769151
3621.000000	60.813079
3620.000000	60.848675
3619.000000	60.883539
3618.000000	60.912313
3617.000000	60.929266
3616.000000	60.938628
3615.000000	60.952308
3614.000000	60.983247
3613.000000	61.030399
3612.000000	61.075642
3611.000000	61.104427
3610.000000	61.125458
3609.000000	61.165999
3608.000000	61.242668
3607.000000	61.340640
3606.000000	61.431637
3605.000000	61.501347
3604.000000	61.553589
3603.000000	61.600194
3602.000000	61.648577
3601.000000	61.697738
3600.000000	61.742360
3599.000000	61.776190
3598.000000	61.798806
3597.000000	61.819358
3596.000000	61.850058
3595.000000	61.896969
3594.000000	61.954505
3593.000000	62.006440
3592.000000	62.038170
3591.000000	62.045722
3590.000000	62.038905
3589.000000	62.044073
3588.000000	62.089723
3587.000000	62.173444
3586.000000	62.262316
3585.000000	62.332908
3584.000000	62.388161
3583.000000	62.441981
3582.000000	62.502838
3581.000000	62.568503
3580.000000	62.631844
3579.000000	62.688295
3578.000000	62.738107
3577.000000	62.783126
3576.000000	62.824989
3575.000000	62.864395
3574.000000	62.900956
3573.000000	62.931941
3572.000000	62.952837
3571.000000	62.959659
3570.000000	62.951362
3569.000000	62.939824
3568.000000	62.953309
3567.000000	63.011433
3566.000000	63.098243
3565.000000	63.183962
3564.000000	63.257053
3563.000000	63.324314
3562.000000	63.394390
3561.000000	63.467039
3560.000000	63.535506
3559.000000	63.595183
3558.000000	63.646699
3557.000000	63.692418
3556.000000	63.735225
3555.000000	63.780170
3554.000000	63.833374
3553.000000	63.896214
3552.000000	63.960564
3551.000000	64.013792
3550.000000	64.049261
3549.000000	64.072922
3548.000000	64.101528
3547.000000	64.151313
3546.000000	64.223456
3545.000000	64.303070
3544.000000	64.374657
3543.000000	64.434139
3542.000000	64.485890
3541.000000	64.534682
3540.000000	64.584477
3539.000000	64.639907
3538.000000	64.703580
3537.000000	64.771736
3536.000000	64.834729
3535.000000	64.884810
3534.000000	64.921721
3533.000000	64.951445
3532.000000	64.981463
3531.000000	65.016587
3530.000000	65.057016
3529.000000	65.100015
3528.000000	65.144362
3527.000000	65.192286
3526.000000	65.246716
3525.000000	65.307923
3524.000000	65.372857
3523.000000	65.435599
3522.000000	65.489942
3521.000000	65.534401
3520.000000	65.574722
3519.000000	65.619333
3518.000000	65.671674
3517.000000	65.728322
3516.000000	65.783918
3515.000000	65.835394
3514.000000	65.880043
3513.000000	65.913519
3512.000000	65.934986
3511.000000	65.951668
3510.000000	65.972252
3509.000000	65.997178
3508.000000	66.019920
3507.000000	66.037471
3506.000000	66.055637
3505.000000	66.084482
3504.000000	66.129426
3503.000000	66.185266
3502.000000	66.239305
3501.000000	66.281784
3500.000000	66.313228
3499.000000	66.340276
3498.000000	66.366395
3497.000000	66.388410
3496.000000	66.401321
3495.000000	66.403937
3494.000000	66.398682
3493.000000	66.388462
3492.000000	66.376747
3491.000000	66.369028
3490.000000	66.370486
3489.000000	66.382163
3488.000000	66.400408
3487.000000	66.418252
3486.000000	66.427553
3485.000000	66.423597
3484.000000	66.409933
3483.000000	66.396659
3482.000000	66.390105
3481.000000	66.385312
3480.000000	66.371057
3479.000000	66.341160
3478.000000	66.299061
3477.000000	66.253811
3476.000000	66.214385
3475.000000	66.185455
3474.000000	66.166174
3473.000000	66.153155
3472.000000	66.144264
3471.000000	66.137996
3470.000000	66.128980
3469.000000	66.107274
3468.000000	66.064678
3467.000000	66.000220
3466.000000	65.918869
3465.000000	65.828241
3464.000000	65.737995
3463.000000	65.657876
3462.000000	65.591319
3461.000000	65.532280
3460.000000	65.471149
3459.000000	65.402906
3458.000000	65.328518
3457.000000	65.250639
3456.000000	65.170778
3455.000000	65.089141
3454.000000	65.004047
3453.000000	64.912601
3452.000000	64.813571
3451.000000	64.708576
3450.000000	64.600154
3449.000000	64.490329
3448.000000	64.381268
3447.000000	64.273733
3446.000000	64.164301
3445.000000	64.047848
3444.000000	63.923567
3443.000000	63.795984
3442.000000	63.669558
3441.000000	63.545075
3440.000000	63.422302
3439.000000	63.302252
3438.000000	63.183764
3437.000000	63.060235
3436.000000	62.923376
3435.000000	62.769561
3434.000000	62.600858
3433.000000	62.422340
3432.000000	62.238823
3431.000000	62.051763
3430.000000	61.857772
3429.000000	61.651738
3428.000000	61.433279
3427.000000	61.207809
3426.000000	60.981336
3425.000000	60.756592
3424.000000	60.534306
3423.000000	60.315097
3422.000000	60.097585
3421.000000	59.876968
3420.000000	59.647613
3419.000000	59.406148
3418.000000	59.151651
3417.000000	58.884670
3416.000000	58.607334
3415.000000	58.321943
3414.000000	58.028088
3413.000000	57.723776
3412.000000	57.409941
3411.000000	57.091506
3410.000000	56.772351
3409.000000	56.451081
3408.000000	56.123715
3407.000000	55.788206
3406.000000	55.445283
3405.000000	55.096597
3404.000000	54.742643
3403.000000	54.381083
3402.000000	54.005142
3401.000000	53.605891
3400.000000	53.178930
3399.000000	52.729048
3398.000000	52.268198
3397.000000	51.808558
3396.000000	51.356699
3395.000000	50.912482
3394.000000	50.470638
3393.000000	50.023227
3392.000000	49.561861
3391.000000	49.079616
3390.000000	48.574007
3389.000000	48.048580
3388.000000	47.510661
3387.000000	46.965903
3386.000000	46.415266
3385.000000	45.858333
3384.000000	45.296768
3383.000000	44.733250
3382.000000	44.168325
3381.000000	43.600292
3380.000000	43.027589
3379.000000	42.449029
3378.000000	41.862748
3377.000000	41.266862
3376.000000	40.660979
3375.000000	40.046419
3374.000000	39.425532
3373.000000	38.801527
3372.000000	38.177554
3371.000000	37.553892
3370.000000	36.927432
3369.000000	36.294720
3368.000000	35.654828
3367.000000	35.008985
3366.000000	34.359071
3365.000000	33.707875
3364.000000	33.058746
3363.000000	32.413288
3362.000000	31.770500
3361.000000	31.128966
3360.000000	30.488574
3359.000000	29.849681
3358.000000	29.212663
3357.000000	28.579181
3356.000000	27.952050
3355.000000	27.332713
3354.000000	26.720565
3353.000000	26.114991
3352.000000	25.515785
3351.000000	24.921529
3350.000000	24.330068
3349.000000	23.741513
3348.000000	23.158844
3347.000000	22.584677
3346.000000	22.019942
3345.000000	21.465548
3344.000000	20.922577
3343.000000	20.390641
3342.000000	19.868279
3341.000000	19.355725
3340.000000	18.854463
3339.000000	18.363781
3338.000000	17.880981
3337.000000	17.404892
3336.000000	16.936997
3335.000000	16.478713
3334.000000	16.030308
3333.000000	15.593052
3332.000000	15.168697
3331.000000	14.756831
3330.000000	14.355316
3329.000000	13.963358
3328.000000	13.582232
3327.000000	13.212326
3326.000000	12.852714
3325.000000	12.503434
3324.000000	12.164971
3323.000000	11.836183
3322.000000	11.515094
3321.000000	11.201868
3320.000000	10.898560
3319.000000	10.605602
3318.000000	10.322096
3317.000000	10.048306
3316.000000	9.785287
3315.000000	9.532523
3314.000000	9.288301
3313.000000	9.052413
3312.000000	8.825447
3311.000000	8.606274
3310.000000	8.393630
3309.000000	8.188842
3308.000000	7.994659
3307.000000	7.811797
3306.000000	7.639401
3305.000000	7.478136
3304.000000	7.328720
3303.000000	7.189115
3302.000000	7.056062
3301.000000	6.928609
3300.000000	6.807584
3299.000000	6.692399
3298.000000	6.582058
3297.000000	6.478083
3296.000000	6.382714
3295.000000	6.295575
3294.000000	6.214894
3293.000000	6.141146
3292.000000	6.076070
3291.000000	6.018673
3290.000000	5.966332
3289.000000	5.918359
3288.000000	5.875560
3287.000000	5.837197
3286.000000	5.801473
3285.000000	5.768631
3284.000000	5.739917
3283.000000	5.714654
3282.000000	5.691367
3281.000000	5.670639
3280.000000	5.653920
3279.000000	5.640314
3278.000000	5.627791
3277.000000	5.616555
3276.000000	5.607967
3275.000000	5.601330
3274.000000	5.594938
3273.000000	5.589541
3272.000000	5.587586
3271.000000	5.589604
3270.000000	5.594205
3269.000000	5.600620
3268.000000	5.608513
3267.000000	5.616414
3266.000000	5.623137
3265.000000	5.629849
3264.000000	5.638195
3263.000000	5.647457
3262.000000	5.656199
3261.000000	5.665069
3260.000000	5.675284
3259.000000	5.685910
3258.000000	5.695534
3257.000000	5.705329
3256.000000	5.717375
3255.000000	5.731319
3254.000000	5.745441
3253.000000	5.759643
3252.000000	5.774464
3251.000000	5.788682
3250.000000	5.801037
3249.000000	5.813128
3248.000000	5.827568
3247.000000	5.844354
3246.000000	5.861707
3245.000000	5.879150
3244.000000	5.897026
3243.000000	5.914303
3242.000000	5.929910
3241.000000	5.944993
3240.000000	5.961133
3239.000000	5.977401
3238.000000	5.991865
3237.000000	6.004777
3236.000000	6.017841
3235.000000	6.031635
3234.000000	6.046156
3233.000000	6.062379
3232.000000	6.080549
3231.000000	6.098345
3230.000000	6.113411
3229.000000	6.126360
3228.000000	6.138951
3227.000000	6.150928
3226.000000	6.161228
3225.000000	6.170724
3224.000000	6.180917
3223.000000	6.191347
3222.000000	6.200796
3221.000000	6.209653
3220.000000	6.218657
3219.000000	6.226794
3218.000000	6.232955
3217.000000	6.238115
3216.000000	6.243457
3215.000000	6.248001
3214.000000	6.250395
3213.000000	6.251438
3212.000000	6.252317
3211.000000	6.252120
3210.000000	6.249647
3209.000000	6.245914
3208.000000	6.242432
3207.000000	6.238613
3206.000000	6.233277
3205.000000	6.227044
3204.000000	6.220693
3203.000000	6.213018
3202.000000	6.202785
3201.000000	6.191036
3200.000000	6.179157
3199.000000	6.166375
3198.000000	6.151650
3197.000000	6.136111
3196.000000	6.121084
3195.000000	6.105620
3194.000000	6.088442
3193.000000	6.070506
3192.000000	6.053156
3191.000000	6.035528
3190.000000	6.016322
3189.000000	5.996243
3188.000000	5.976305
3187.000000	5.955647
3186.000000	5.933485
3185.000000	5.911261
3184.000000	5.890415
3183.000000	5.870003
3182.000000	5.848925
3181.000000	5.828403
3180.000000	5.809699
3179.000000	5.791480
3178.000000	5.772089
3177.000000	5.752482
3176.000000	5.734311
3175.000000	5.717053
3174.000000	5.699622
3173.000000	5.682843
3172.000000	5.667760
3171.000000	5.653489
3170.000000	5.639207
3169.000000	5.626246
3168.000000	5.615760
3167.000000	5.606305
3166.000000	5.596345
3165.000000	5.587047
3164.000000	5.580031
3163.000000	5.574442
3162.000000	5.568768
3161.000000	5.563692
3160.000000	5.560502
3159.000000	5.558565
3158.000000	5.556856
3157.000000	5.556054
3156.000000	5.556950
3155.000000	5.558750
3154.000000	5.561221
3153.000000	5.566363
3152.000000	5.575463
3151.000000	5.586664
3150.000000	5.597710
3149.000000	5.608930
3148.000000	5.621273
3147.000000	5.633768
3146.000000	5.645552
3145.000000	5.658175
3144.000000	5.673211
3143.000000	5.689680
3142.000000	5.706227
3141.000000	5.723878
3140.000000	5.744129
3139.000000	5.766271
3138.000000	5.789075
3137.000000	5.813051
3136.000000	5.838794
3135.000000	5.865083
3134.000000	5.890836
3133.000000	5.917112
3132.000000	5.945003
3131.000000	5.973687
3130.000000	6.002621
3129.000000	6.033274
3128.000000	6.066609
3127.000000	6.100999
3126.000000	6.134801
3125.000000	6.168759
3124.000000	6.203745
3123.000000	6.238622
3122.000000	6.272616
3121.000000	6.307487
3120.000000	6.345035
3119.000000	6.384605
3118.000000	6.425339
3117.000000	6.468423
3116.000000	6.514767
3115.000000	6.562748
3114.000000	6.610463
3113.000000	6.658191
3112.000000	6.706627
3111.000000	6.755099
3110.000000	6.803603
3109.000000	6.854079
3108.000000	6.907456
3107.000000	6.961729
3106.000000	7.015062
3105.000000	7.068435
3104.000000	7.123148
3103.000000	7.178362
3102.000000	7.233403
3101.000000	7.289922
3100.000000	7.349364
3099.000000	7.410490
3098.000000	7.471787
3097.000000	7.533937
3096.000000	7.597559
3095.000000	7.660992
3094.000000	7.722782
3093.000000	7.784303
3092.000000	7.847593
3091.000000	7.912555
3090.000000	7.978374
3089.000000	8.045519
3088.000000	8.114237
3087.000000	8.183217
3086.000000	8.251787
3085.000000	8.321420
3084.000000	8.393072
3083.000000	8.465207
3082.000000	8.536468
3081.000000	8.608039
3080.000000	8.681407
3079.000000	8.755982
3078.000000	8.830884
3077.000000	8.906826
3076.000000	8.984225
3075.000000	9.061752
3074.000000	9.138656
3073.000000	9.216252
3072.000000	9.295252
3071.000000	9.373947
3070.000000	9.451151
3069.000000	9.528566
3068.000000	9.608058
3067.000000	9.688810
3066.000000	9.769262
3065.000000	9.849770
3064.000000	9.931200
3063.000000	10.012942
3062.000000	10.094355
3061.000000	10.176227
3060.000000	10.258996
3059.000000	10.341535
3058.000000	10.423362
3057.000000	10.505946
3056.000000	10.590024
3055.000000	10.673894
3054.000000	10.756214
3053.000000	10.838298
3052.000000	10.921752
3051.000000	11.005895
3050.000000	11.089406
3049.000000	11.172514
3048.000000	11.255776
3047.000000	11.338712
3046.000000	11.421396
3045.000000	11.505408
3044.000000	11.591555
3043.000000	11.678523
3042.000000	11.765242
3041.000000	11.852355
3040.000000	11.939869
3039.000000	12.025790
3038.000000	12.108983
3037.000000	12.191304
3036.000000	12.275095
3035.000000	12.360537
3034.000000	12.447025
3033.000000	12.534925
3032.000000	12.624108
3031.000000	12.712842
3030.000000	12.800003
3029.000000	12.886594
3028.000000	12.973541
3027.000000	13.060022
3026.000000	13.145463
3025.000000	13.231037
3024.000000	13.317520
3023.000000	13.403723
3022.000000	13.488718
3021.000000	13.573590
3020.000000	13.659358
3019.000000	13.745123
3018.000000	13.829949
3017.000000	13.914631
3016.000000	14.000026
3015.000000	14.085546
3014.000000	14.170907
3013.000000	14.257418
3012.000000	14.345888
3011.000000	14.435078
3010.000000	14.523651
3009.000000	14.611899
3008.000000	14.700227
3007.000000	14.787931
3006.000000	14.874830
3005.000000	14.962170
3004.000000	15.050458
3003.000000	15.138152
3002.000000	15.223865
3001.000000	15.308185
3000.000000	15.392225
2999.000000	15.476147
2998.000000	15.560195
2997.000000	15.645197
2996.000000	15.730979
2995.000000	15.816282
2994.000000	15.901257
2993.000000	15.987897
2992.000000	16.076838
2991.000000	16.165966
2990.000000	16.253455
2989.000000	16.339958
2988.000000	16.426451
2987.000000	16.512163
2986.000000	16.596165
2985.000000	16.679032
2984.000000	16.761496
2983.000000	16.843437
2982.000000	16.925542
2981.000000	17.009877
2980.000000	17.097206
2979.000000	17.185547
2978.000000	17.272888
2977.000000	17.359574
2976.000000	17.446690
2975.000000	17.533953
2974.000000	17.620680
2973.000000	17.707059
2972.000000	17.793095
2971.000000	17.877969
2970.000000	17.961723
2969.000000	18.045869
2968.000000	18.131107
2967.000000	18.216225
2966.000000	18.300425
2965.000000	18.384813
2964.000000	18.470345
2963.000000	18.556180
2962.000000	18.641360
2961.000000	18.726186
2960.000000	18.810694
2959.000000	18.893763
2958.000000	18.974945
2957.000000	19.055321
2956.000000	19.135540
2955.000000	19.215131
2954.000000	19.294657
2953.000000	19.376020
2952.000000	19.459352
2951.000000	19.542001
2950.000000	19.622095
2949.000000	19.700895
2948.000000	19.780301
2947.000000	19.860360
2946.000000	19.940755
2945.000000	20.022456
2944.000000	20.106015
2943.000000	20.190035
2942.000000	20.273045
2941.000000	20.355365
2940.000000	20.437652
2939.000000	20.519351
2938.000000	20.599973
2937.000000	20.680214
2936.000000	20.760343
2935.000000	20.839059
2934.000000	20.915451
2933.000000	20.990631
2932.000000	21.066157
2931.000000	21.142354
2930.000000	21.219207
2929.000000	21.297125
2928.000000	21.375599
2927.000000	21.452951
2926.000000	21.528636
2925.000000	21.604026
2924.000000	21.679840
2923.000000	21.754715
2922.000000	21.827520
2921.000000	21.899114
2920.000000	21.970596
2919.000000	22.041726
2918.000000	22.112212
2917.000000	22.182873
2916.000000	22.254373
2915.000000	22.326393
2914.000000	22.398924
2913.000000	22.472708
2912.000000	22.547615
2911.000000	22.622282
2910.000000	22.696068
2909.000000	22.769744
2908.000000	22.843474
2907.000000	22.915988
2906.000000	22.986541
2905.000000	23.055993
2904.000000	23.125080
2903.000000	23.193425
2902.000000	23.260857
2901.000000	23.328421
2900.000000	23.396992
2899.000000	23.466248
2898.000000	23.536374
2897.000000	23.607967
2896.000000	23.680223
2895.000000	23.750847
2894.000000	23.818885
2893.000000	23.885834
2892.000000	23.953104
2891.000000	24.020144
2890.000000	24.086014
2889.000000	24.151032
2888.000000	24.215803
2887.000000	24.280259
2886.000000	24.344719
2885.000000	24.410361
2884.000000	24.477586
2883.000000	24.545286
2882.000000	24.612603
2881.000000	24.679984
2880.000000	24.747731
2879.000000	24.815240
2878.000000	24.882716
2877.000000	24.951945
2876.000000	25.023882
2875.000000	25.096547
2874.000000	25.166558
2873.000000	25.232018
2872.000000	25.293309
2871.000000	25.352275
2870.000000	25.411409
2869.000000	25.472630
2868.000000	25.535803
2867.000000	25.599164
2866.000000	25.661666
2865.000000	25.723967
2864.000000	25.787001
2863.000000	25.850903
2862.000000	25.915610
2861.000000	25.980984
2860.000000	26.045917
2859.000000	26.108915
2858.000000	26.170118
2857.000000	26.231327
2856.000000	26.293570
2855.000000	26.356104
2854.000000	26.418165
2853.000000	26.480040
2852.000000	26.542034
2851.000000	26.603986
2850.000000	26.666146
2849.000000	26.728917
2848.000000	26.791458
2847.000000	26.852352
2846.000000	26.912063
2845.000000	26.972927
2844.000000	27.036471
2843.000000	27.102516
2842.000000	27.170957
2841.000000	27.241843
2840.000000	27.312978
2839.000000	27.379989
2838.000000	27.440413
2837.000000	27.496152
2836.000000	27.550760
2835.000000	27.605961
2834.000000	27.661887
2833.000000	27.718914
2832.000000	27.777608
2831.000000	27.837943
2830.000000	27.899930
2829.000000	27.964190
2828.000000	28.030923
2827.000000	28.099141
2826.000000	28.167686
2825.000000	28.236109
2824.000000	28.303937
2823.000000	28.370199
2822.000000	28.434502
2821.000000	28.497570
2820.000000	28.560063
2819.000000	28.621878
2818.000000	28.683145
2817.000000	28.744745
2816.000000	28.807190
2815.000000	28.870160
2814.000000	28.933754
2813.000000	28.998870
2812.000000	29.065499
2811.000000	29.131738
2810.000000	29.195443
2809.000000	29.256025
2808.000000	29.313991
2807.000000	29.369838
2806.000000	29.424109
2805.000000	29.477528
2804.000000	29.530311
2803.000000	29.582180
2802.000000	29.633589
2801.000000	29.685892
2800.000000	29.739588
2799.000000	29.793423
2798.000000	29.846013
2797.000000	29.897429
2796.000000	29.948516
2795.000000	29.999665
2794.000000	30.051030
2793.000000	30.103074
2792.000000	30.156023
2791.000000	30.209366
2790.000000	30.262511
2789.000000	30.315313
2788.000000	30.367645
2787.000000	30.419292
2786.000000	30.470729
2785.000000	30.523105
2784.000000	30.576899
2783.000000	30.631305
2782.000000	30.685303
2781.000000	30.738490
2780.000000	30.790544
2779.000000	30.840955
2778.000000	30.889795
2777.000000	30.937712
2776.000000	30.984609
2775.000000	31.029130
2774.000000	31.070026
2773.000000	31.107249
2772.000000	31.141139
2771.000000	31.171507
2770.000000	31.197973
2769.000000	31.220361
2768.000000	31.238337
2767.000000	31.251361
2766.000000	31.259587
2765.000000	31.264050
2764.000000	31.265563
2763.000000	31.264415
2762.000000	31.261390
2761.000000	31.258050
2760.000000	31.255434
2759.000000	31.253283
2758.000000	31.251032
2757.000000	31.248497
2756.000000	31.245102
2755.000000	31.239579
2754.000000	31.231084
2753.000000	31.219816
2752.000000	31.205864
2751.000000	31.188467
2750.000000	31.167031
2749.000000	31.141832
2748.000000	31.113163
2747.000000	31.080537
2746.000000	31.043404
2745.000000	31.001885
2744.000000	30.956065
2743.000000	30.905640
2742.000000	30.850842
2741.000000	30.792922
2740.000000	30.733441
2739.000000	30.674103
2738.000000	30.617757
2737.000000	30.568633
2736.000000	30.530691
2735.000000	30.506551
2734.000000	30.498586
2733.000000	30.509137
2732.000000	30.539121
2731.000000	30.587490
2730.000000	30.652372
2729.000000	30.732257
2728.000000	30.824826
2727.000000	30.926064
2726.000000	31.031968
2725.000000	31.140124
2724.000000	31.249563
2723.000000	31.359750
2722.000000	31.470260
2721.000000	31.580872
2720.000000	31.690963
2719.000000	31.799290
2718.000000	31.904719
2717.000000	32.006484
2716.000000	32.103441
2715.000000	32.194021
2714.000000	32.277094
2713.000000	32.352361
2712.000000	32.419713
2711.000000	32.478853
2710.000000	32.530282
2709.000000	32.575490
2708.000000	32.615717
2707.000000	32.651386
2706.000000	32.682759
2705.000000	32.710611
2704.000000	32.735446
2703.000000	32.756797
2702.000000	32.774113
2701.000000	32.787451
2700.000000	32.797060
2699.000000	32.802911
2698.000000	32.805236
2697.000000	32.805138
2696.000000	32.803907
2695.000000	32.802324
2694.000000	32.800941
2693.000000	32.800347
2692.000000	32.800729
2691.000000	32.801622
2690.000000	32.802463
2689.000000	32.802802
2688.000000	32.801713
2687.000000	32.797894
2686.000000	32.790842
2685.000000	32.781411
2684.000000	32.770912
2683.000000	32.760315
2682.000000	32.750579
2681.000000	32.742818
2680.000000	32.737569
2679.000000	32.734550
2678.000000	32.733543
2677.000000	32.734738
2676.000000	32.737938
2675.000000	32.742229
2674.000000	32.746899
2673.000000	32.752150
2672.000000	32.758529
2671.000000	32.766605
2670.000000	32.777520
2669.000000	32.792843
2668.000000	32.813404
2667.000000	32.838680
2666.000000	32.867629
2665.000000	32.899246
2664.000000	32.931883
2663.000000	32.963130
2662.000000	32.990997
2661.000000	33.014640
2660.000000	33.033710
2659.000000	33.047856
2658.000000	33.057315
2657.000000	33.063373
2656.000000	33.067704
2655.000000	33.071727
2654.000000	33.076911
2653.000000	33.084809
2652.000000	33.096338
2651.000000	33.111665
2650.000000	33.131059
2649.000000	33.155081
2648.000000	33.183964
2647.000000	33.217551
2646.000000	33.256184
2645.000000	33.301014
2644.000000	33.352730
2643.000000	33.411173
2642.000000	33.476190
2641.000000	33.547824
2640.000000	33.625451
2639.000000	33.707182
2638.000000	33.790877
2637.000000	33.874968
2636.000000	33.957900
2635.000000	34.037702
2634.000000	34.112589
2633.000000	34.181502
2632.000000	34.243843
2631.000000	34.299426
2630.000000	34.348858
2629.000000	34.393620
2628.000000	34.435151
2627.000000	34.474190
2626.000000	34.511297
2625.000000	34.546950
2624.000000	34.581067
2623.000000	34.612828
2622.000000	34.641317
2621.000000	34.666085
2620.000000	34.686668
2619.000000	34.702406
2618.000000	34.712941
2617.000000	34.718301
2616.000000	34.718585
2615.000000	34.713832
2614.000000	34.704623
2613.000000	34.692030
2612.000000	34.676450
2611.000000	34.657414
2610.000000	34.634587
2609.000000	34.608490
2608.000000	34.580055
2607.000000	34.550112
2606.000000	34.519961
2605.000000	34.491798
2604.000000	34.468122
2603.000000	34.451215
2602.000000	34.443534
2601.000000	34.447398
2600.000000	34.464034
2599.000000	34.493230
2598.000000	34.533842
2597.000000	34.584503
2596.000000	34.642991
2595.000000	34.706296
2594.000000	34.771897
2593.000000	34.838252
2592.000000	34.904511
2591.000000	34.970117
2590.000000	35.035234
2589.000000	35.100940
2588.000000	35.168376
2587.000000	35.238359
2586.000000	35.311714
2585.000000	35.389246
2584.000000	35.470934
2583.000000	35.555489
2582.000000	35.641188
2581.000000	35.726686
2580.000000	35.811037
2579.000000	35.893670
2578.000000	35.974658
2577.000000	36.054646
2576.000000	36.134206
2575.000000	36.213600
2574.000000	36.293255
2573.000000	36.373907
2572.000000	36.455864
2571.000000	36.538436
2570.000000	36.620199
2569.000000	36.699340
2568.000000	36.773832
2567.000000	36.841591
2566.000000	36.901005
2565.000000	36.951308
2564.000000	36.992073
2563.000000	37.023231
2562.000000	37.045257
2561.000000	37.059043
2560.000000	37.065376
2559.000000	37.064152
2558.000000	37.055075
2557.000000	37.038459
2556.000000	37.015525
2555.000000	36.988667
2554.000000	36.961558
2553.000000	36.938987
2552.000000	36.926007
2551.000000	36.927025
2550.000000	36.945085
2549.000000	36.981714
2548.000000	37.036353
2547.000000	37.106627
2546.000000	37.189585
2545.000000	37.281943
2544.000000	37.380331
2543.000000	37.481321
2542.000000	37.581894
2541.000000	37.679961
2540.000000	37.774007
2539.000000	37.862925
2538.000000	37.946194
2537.000000	38.024002
2536.000000	38.096968
2535.000000	38.166009
2534.000000	38.232232
2533.000000	38.296692
2532.000000	38.360082
2531.000000	38.422558
2530.000000	38.484143
2529.000000	38.544692
2528.000000	38.603511
2527.000000	38.659404
2526.000000	38.711267
2525.000000	38.758845
2524.000000	38.802714
2523.000000	38.843917
2522.000000	38.883879
2521.000000	38.924200
2520.000000	38.966198
2519.000000	39.010433
2518.000000	39.056740
2517.000000	39.104519
2516.000000	39.152683
2515.000000	39.199618
2514.000000	39.243614
2513.000000	39.283520
2512.000000	39.319001
2511.000000	39.350255
2510.000000	39.378005
2509.000000	39.403744
2508.000000	39.429531
2507.000000	39.457305
2506.000000	39.488280
2505.000000	39.522901
2504.000000	39.560992
2503.000000	39.601737
2502.000000	39.643671
2501.000000	39.684891
2500.000000	39.723350
2499.000000	39.757179
2498.000000	39.785153
2497.000000	39.807326
2496.000000	39.825070
2495.000000	39.840490
2494.000000	39.855783
2493.000000	39.872894
2492.000000	39.893363
2491.000000	39.918048
2490.000000	39.946965
2489.000000	39.979389
2488.000000	40.013919
2487.000000	40.048457
2486.000000	40.080561
2485.000000	40.108277
2484.000000	40.130777
2483.000000	40.148251
2482.000000	40.161583
2481.000000	40.172285
2480.000000	40.182361
2479.000000	40.193798
2478.000000	40.207956
2477.000000	40.225522
2476.000000	40.246698
2475.000000	40.271110
2474.000000	40.297575
2473.000000	40.324261
2472.000000	40.349213
2471.000000	40.370919
2470.000000	40.388753
2469.000000	40.403178
2468.000000	40.415437
2467.000000	40.426863
2466.000000	40.438498
2465.000000	40.451268
2464.000000	40.466111
2463.000000	40.483481
2462.000000	40.502906
2461.000000	40.523237
2460.000000	40.543221
2459.000000	40.561761
2458.000000	40.578030
2457.000000	40.591911
2456.000000	40.604249
2455.000000	40.616368
2454.000000	40.629347
2453.000000	40.643922
2452.000000	40.660778
2451.000000	40.680380
2450.000000	40.702435
2449.000000	40.725774
2448.000000	40.748806
2447.000000	40.769979
2446.000000	40.787998
2445.000000	40.802094
2444.000000	40.812418
2443.000000	40.820114
2442.000000	40.827038
2441.000000	40.835343
2440.000000	40.846972
2439.000000	40.863120
2438.000000	40.884028
2437.000000	40.909202
2436.000000	40.937530
2435.000000	40.967151
2434.000000	40.995589
2433.000000	41.020481
2432.000000	41.040293
2431.000000	41.054421
2430.000000	41.063092
2429.000000	41.067721
2428.000000	41.070991
2427.000000	41.075991
2426.000000	41.085127
2425.000000	41.099834
2424.000000	41.120754
2423.000000	41.147555
2422.000000	41.178675
2421.000000	41.211673
2420.000000	41.243997
2419.000000	41.273277
2418.000000	41.297366
2417.000000	41.314901
2416.000000	41.326129
2415.000000	41.332905
2414.000000	41.337848
2413.000000	41.343630
2412.000000	41.352692
2411.000000	41.366930
2410.000000	41.387305
2409.000000	41.413696
2408.000000	41.444893
2407.000000	41.478672
2406.000000	41.512209
2405.000000	41.543044
2404.000000	41.569808
2403.000000	41.592035
2402.000000	41.609771
2401.000000	41.623833
2400.000000	41.636123
2399.000000	41.649031
2398.000000	41.664504
2397.000000	41.683808
2396.000000	41.707698
2395.000000	41.736113
2394.000000	41.767846
2393.000000	41.801058
2392.000000	41.834189
2391.000000	41.866217
2390.000000	41.896541
2389.000000	41.925226
2388.000000	41.953397
2387.000000	41.982724
2386.000000	42.014688
2385.000000	42.050617
2384.000000	42.091709
2383.000000	42.138801
2382.000000	42.191666
2381.000000	42.249205
2380.000000	42.309993
2379.000000	42.371929
2378.000000	42.432417
2377.000000	42.489477
2376.000000	42.542683
2375.000000	42.592439
2374.000000	42.639252
2373.000000	42.684324
2372.000000	42.730255
2371.000000	42.779848
2370.000000	42.833663
2369.000000	42.890335
2368.000000	42.948293
2367.000000	43.006121
2366.000000	43.061568
2365.000000	43.112327
2364.000000	43.159501
2363.000000	43.204429
2362.000000	43.246789
2361.000000	43.288639
2360.000000	43.331026
2359.000000	43.375386
2358.000000	43.422235
2357.000000	43.470307
2356.000000	43.521629
2355.000000	43.575543
2354.000000	43.631012
2353.000000	43.686277
2352.000000	43.741839
2351.000000	43.801227
2350.000000	43.859595
2349.000000	43.912021
2348.000000	43.958098
2347.000000	44.006258
2346.000000	44.064636
2345.000000	44.126500
2344.000000	44.183299
2343.000000	44.230351
2342.000000	44.274401
2341.000000	44.322644
2340.000000	44.374987
2339.000000	44.429847
2338.000000	44.483757
2337.000000	44.534709
2336.000000	44.582061
2335.000000	44.627667
2334.000000	44.674192
2333.000000	44.722874
2332.000000	44.772210
2331.000000	44.822864
2330.000000	44.872162
2329.000000	44.922279
2328.000000	44.974770
2327.000000	45.031630
2326.000000	45.094809
2325.000000	45.160540
2324.000000	45.228369
2323.000000	45.293769
2322.000000	45.354767
2321.000000	45.408525
2320.000000	45.455018
2319.000000	45.497620
2318.000000	45.538937
2317.000000	45.582466
2316.000000	45.629625
2315.000000	45.682499
2314.000000	45.739492
2313.000000	45.797812
2312.000000	45.854434
2311.000000	45.908727
2310.000000	45.960926
2309.000000	46.010729
2308.000000	46.058674
2307.000000	46.105401
2306.000000	46.151905
2305.000000	46.197671
2304.000000	46.243112
2303.000000	46.288668
2302.000000	46.334249
2301.000000	46.378925
2300.000000	46.422423
2299.000000	46.465650
2298.000000	46.508773
2297.000000	46.551109
2296.000000	46.592659
2295.000000	46.634554
2294.000000	46.677864
2293.000000	46.722082
2292.000000	46.767053
2291.000000	46.812736
2290.000000	46.859015
2289.000000	46.904632
2288.000000	46.949048
2287.000000	46.992206
2286.000000	47.033945
2285.000000	47.073687
2284.000000	47.112049
2283.000000	47.150465
2282.000000	47.189577
2281.000000	47.229013
2280.000000	47.269035
2279.000000	47.310848
2278.000000	47.354791
2277.000000	47.400120
2276.000000	47.446257
2275.000000	47.493374
2274.000000	47.540797
2273.000000	47.587094
2272.000000	47.631647
2271.000000	47.674797
2270.000000	47.716299
2269.000000	47.755190
2268.000000	47.791648
2267.000000	47.827108
2266.000000	47.862309
2265.000000	47.896963
2264.000000	47.931314
2263.000000	47.966311
2262.000000	48.001990
2261.000000	48.037196
2260.000000	48.071557
2259.000000	48.105415
2258.000000	48.138138
2257.000000	48.168002
2256.000000	48.194203
2255.000000	48.217131
2254.000000	48.236290
2253.000000	48.250238
2252.000000	48.258391
2251.000000	48.261513
2250.000000	48.259744
2249.000000	48.252266
2248.000000	48.239153
2247.000000	48.221274
2246.000000	48.198460
2245.000000	48.169452
2244.000000	48.133910
2243.000000	48.092594
2242.000000	48.045501
2241.000000	47.991894
2240.000000	47.932194
2239.000000	47.868183
2238.000000	47.801298
2237.000000	47.732799
2236.000000	47.665746
2235.000000	47.604625
2234.000000	47.552715
2233.000000	47.511210
2232.000000	47.480901
2231.000000	47.462416
2230.000000	47.454600
2229.000000	47.454548
2228.000000	47.459714
2227.000000	47.468624
2226.000000	47.479284
2225.000000	47.489119
2224.000000	47.496806
2223.000000	47.502522
2222.000000	47.506145
2221.000000	47.506976
2220.000000	47.505517
2219.000000	47.503524
2218.000000	47.501920
2217.000000	47.500371
2216.000000	47.499215
2215.000000	47.499829
2214.000000	47.502670
2213.000000	47.506755
2212.000000	47.511493
2211.000000	47.517192
2210.000000	47.523414
2209.000000	47.528735
2208.000000	47.532683
2207.000000	47.536232
2206.000000	47.539995
2205.000000	47.543634
2204.000000	47.547397
2203.000000	47.552386
2202.000000	47.558870
2201.000000	47.565961
2200.000000	47.573217
2199.000000	47.580875
2198.000000	47.588301
2197.000000	47.594036
2196.000000	47.597665
2195.000000	47.599873
2194.000000	47.600514
2193.000000	47.598501
2192.000000	47.593847
2191.000000	47.587851
2190.000000	47.581088
2189.000000	47.573163
2188.000000	47.564646
2187.000000	47.557114
2186.000000	47.550908
2185.000000	47.544847
2184.000000	47.538521
2183.000000	47.532988
2182.000000	47.528906
2181.000000	47.526059
2180.000000	47.525077
2179.000000	47.527643
2178.000000	47.534545
2177.000000	47.545373
2176.000000	47.560498
2175.000000	47.581193
2174.000000	47.607423
2173.000000	47.637404
2172.000000	47.669801
2171.000000	47.704464
2170.000000	47.740616
2169.000000	47.776631
2168.000000	47.812173
2167.000000	47.848469
2166.000000	47.885883
2165.000000	47.923338
2164.000000	47.960636
2163.000000	47.999128
2162.000000	48.039409
2161.000000	48.080396
2160.000000	48.121363
2159.000000	48.162841
2158.000000	48.204847
2157.000000	48.246300
2156.000000	48.286909
2155.000000	48.327707
2154.000000	48.369134
2153.000000	48.410461
2152.000000	48.451569
2151.000000	48.493137
2150.000000	48.534582
2149.000000	48.574034
2148.000000	48.610896
2147.000000	48.646307
2146.000000	48.680904
2145.000000	48.714200
2144.000000	48.746534
2143.000000	48.779664
2142.000000	48.814755
2141.000000	48.851780
2140.000000	48.891370
2139.000000	48.934972
2138.000000	48.982775
2137.000000	49.033473
2136.000000	49.086262
2135.000000	49.140773
2134.000000	49.194922
2133.000000	49.245427
2132.000000	49.291010
2131.000000	49.332802
2130.000000	49.371366
2129.000000	49.406217
2128.000000	49.438511
2127.000000	49.471288
2126.000000	49.506452
2125.000000	49.543969
2124.000000	49.584242
2123.000000	49.628500
2122.000000	49.676364
2121.000000	49.725441
2120.000000	49.773786
2119.000000	49.820422
2118.000000	49.863557
2117.000000	49.901486
2116.000000	49.935633
2115.000000	49.969596
2114.000000	50.004812
2113.000000	50.040083
2112.000000	50.075481
2111.000000	50.113307
2110.000000	50.154660
2109.000000	50.198438
2108.000000	50.244120
2107.000000	50.292098
2106.000000	50.340347
2105.000000	50.384199
2104.000000	50.420690
2103.000000	50.449927
2102.000000	50.472045
2101.000000	50.486078
2100.000000	50.492717
2099.000000	50.494916
2098.000000	50.494398
2097.000000	50.491273
2096.000000	50.486687
2095.000000	50.482183
2094.000000	50.476551
2093.000000	50.467037
2092.000000	50.454564
2091.000000	50.443873
2090.000000	50.437798
2089.000000	50.434961
2088.000000	50.433900
2087.000000	50.435758
2086.000000	50.441730
2085.000000	50.451559
2084.000000	50.466054
2083.000000	50.487481
2082.000000	50.516269
2081.000000	50.550229
2080.000000	50.587866
2079.000000	50.629601
2078.000000	50.674169
2077.000000	50.718673
2076.000000	50.762616
2075.000000	50.808706
2074.000000	50.859099
2073.000000	50.912903
2072.000000	50.970165
2071.000000	51.033105
2070.000000	51.100948
2069.000000	51.168364
2068.000000	51.231966
2067.000000	51.295408
2066.000000	51.364741
2065.000000	51.440935
2064.000000	51.519604
2063.000000	51.596218
2062.000000	51.668974
2061.000000	51.738889
2060.000000	51.809441
2059.000000	51.884685
2058.000000	51.966190
2057.000000	52.053161
2056.000000	52.145201
2055.000000	52.242269
2054.000000	52.341792
2053.000000	52.438433
2052.000000	52.528445
2051.000000	52.611274
2050.000000	52.685730
2049.000000	52.749497
2048.000000	52.804289
2047.000000	52.855825
2046.000000	52.907219
2045.000000	52.957984
2044.000000	53.010950
2043.000000	53.074631
2042.000000	53.155794
2041.000000	53.253288
2040.000000	53.360676
2039.000000	53.471166
2038.000000	53.578402
2037.000000	53.677024
2036.000000	53.765645
2035.000000	53.846490
2034.000000	53.921243
2033.000000	53.991114
2032.000000	54.059791
2031.000000	54.132982
2030.000000	54.213428
2029.000000	54.300475
2028.000000	54.394952
2027.000000	54.498350
2026.000000	54.608593
2025.000000	54.719573
2024.000000	54.827508
2023.000000	54.931240
2022.000000	55.024962
2021.000000	55.100154
2020.000000	55.156844
2019.000000	55.207891
2018.000000	55.268729
2017.000000	55.346369
2016.000000	55.439270
2015.000000	55.543016
2014.000000	55.652649
2013.000000	55.764147
2012.000000	55.876466
2011.000000	55.990049
2010.000000	56.102964
2009.000000	56.212236
2008.000000	56.318304
2007.000000	56.422806
2006.000000	56.525306
2005.000000	56.623608
2004.000000	56.719991
2003.000000	56.819591
2002.000000	56.923194
2001.000000	57.029617
2000.000000	57.138478
1999.000000	57.252151
1998.000000	57.369593
1997.000000	57.480924
1996.000000	57.574788
1995.000000	57.648571
1994.000000	57.711167
1993.000000	57.777053
1992.000000	57.855816
1991.000000	57.945764
1990.000000	58.040476
1989.000000	58.139378
1988.000000	58.247966
1987.000000	58.365551
1986.000000	58.480743
1985.000000	58.582918
1984.000000	58.673460
1983.000000	58.758127
1982.000000	58.835221
1981.000000	58.901009
1980.000000	58.957871
1979.000000	59.014073
1978.000000	59.073562
1977.000000	59.134736
1976.000000	59.199791
1975.000000	59.274162
1974.000000	59.357616
1973.000000	59.442706
1972.000000	59.522184
1971.000000	59.589519
1970.000000	59.635990
1969.000000	59.660593
1968.000000	59.681703
1967.000000	59.721888
1966.000000	59.781071
1965.000000	59.841449
1964.000000	59.895691
1963.000000	59.952687
1962.000000	60.019218
1961.000000	60.091748
1960.000000	60.166943
1959.000000	60.245823
1958.000000	60.323376
1957.000000	60.390526
1956.000000	60.447017
1955.000000	60.499927
1954.000000	60.548807
1953.000000	60.585024
1952.000000	60.610899
1951.000000	60.637197
1950.000000	60.666552
1949.000000	60.697212
1948.000000	60.734601
1947.000000	60.785452
1946.000000	60.840998
1945.000000	60.885029
1944.000000	60.921281
1943.000000	60.971534
1942.000000	61.039847
1941.000000	61.104112
1940.000000	61.149948
1939.000000	61.184508
1938.000000	61.214266
1937.000000	61.235617
1936.000000	61.250421
1935.000000	61.273831
1934.000000	61.316701
1933.000000	61.373377
1932.000000	61.439403
1931.000000	61.511947
1930.000000	61.583585
1929.000000	61.645753
1928.000000	61.691721
1927.000000	61.717578
1926.000000	61.709613
1925.000000	61.667744
1924.000000	61.628957
1923.000000	61.634963
1922.000000	61.686969
1921.000000	61.752907
1920.000000	61.814323
1919.000000	61.876610
1918.000000	61.938969
1917.000000	61.988249
1916.000000	62.022397
1915.000000	62.056676
1914.000000	62.096569
1913.000000	62.122367
1912.000000	62.121001
1911.000000	62.106716
1910.000000	62.107190
1909.000000	62.134773
1908.000000	62.182019
1907.000000	62.243300
1906.000000	62.308309
1905.000000	62.365806
1904.000000	62.414828
1903.000000	62.457515
1902.000000	62.495749
1901.000000	62.527219
1900.000000	62.548420
1899.000000	62.560515
1898.000000	62.561328
1897.000000	62.553562
1896.000000	62.557729
1895.000000	62.593197
1894.000000	62.652044
1893.000000	62.705075
1892.000000	62.733539
1891.000000	62.744227
1890.000000	62.752124
1889.000000	62.756415
1888.000000	62.748263
1887.000000	62.732266
1886.000000	62.720945
1885.000000	62.719550
1884.000000	62.728527
1883.000000	62.747429
1882.000000	62.776406
1881.000000	62.815109
1880.000000	62.861422
1879.000000	62.915503
1878.000000	62.970489
1877.000000	63.010501
1876.000000	63.030396
1875.000000	63.036281
1874.000000	63.028477
1873.000000	63.002052
1872.000000	62.956408
1871.000000	62.891981
1870.000000	62.813603
1869.000000	62.751233
1868.000000	62.743176
1867.000000	62.796847
1866.000000	62.890533
1865.000000	62.992456
1864.000000	63.075577
1863.000000	63.126987
1862.000000	63.144910
1861.000000	63.133300
1860.000000	63.102169
1859.000000	63.064345
1858.000000	63.027465
1857.000000	62.991859
1856.000000	62.961938
1855.000000	62.946758
1854.000000	62.950726
1853.000000	62.970897
1852.000000	62.989674
1851.000000	62.998202
1850.000000	62.999119
1849.000000	62.993343
1848.000000	62.986507
1847.000000	62.989267
1846.000000	62.999658
1845.000000	62.982761
1844.000000	62.918081
1843.000000	62.835382
1842.000000	62.769211
1841.000000	62.728061
1840.000000	62.709174
1839.000000	62.706435
1838.000000	62.706810
1837.000000	62.706096
1836.000000	62.711664
1835.000000	62.725915
1834.000000	62.741352
1833.000000	62.739262
1832.000000	62.694792
1831.000000	62.612177
1830.000000	62.524382
1829.000000	62.446114
1828.000000	62.375906
1827.000000	62.320348
1826.000000	62.280183
1825.000000	62.240242
1824.000000	62.194855
1823.000000	62.156472
1822.000000	62.130644
1821.000000	62.099799
1820.000000	62.046306
1819.000000	61.977708
1818.000000	61.907234
1817.000000	61.844496
1816.000000	61.792875
1815.000000	61.742480
1814.000000	61.680574
1813.000000	61.599879
1812.000000	61.519132
1811.000000	61.458804
1810.000000	61.405461
1809.000000	61.345093
1808.000000	61.287130
1807.000000	61.240979
1806.000000	61.190847
1805.000000	61.116673
1804.000000	61.023514
1803.000000	60.935831
1802.000000	60.882024
1801.000000	60.864256
1800.000000	60.863517
1799.000000	60.857589
1798.000000	60.834860
1797.000000	60.807705
1796.000000	60.794880
1795.000000	60.796349
1794.000000	60.775069
1793.000000	60.684077
1792.000000	60.549331
1791.000000	60.438788
1790.000000	60.372061
1789.000000	60.335315
1788.000000	60.317000
1787.000000	60.308538
1786.000000	60.295526
1785.000000	60.271995
1784.000000	60.234915
1783.000000	60.169184
1782.000000	60.076857
1781.000000	59.965473
1780.000000	59.847277
1779.000000	59.732659
1778.000000	59.611263
1777.000000	59.467000
1776.000000	59.300364
1775.000000	59.153636
1774.000000	59.064285
1773.000000	59.010036
1772.000000	58.957522
1771.000000	58.895322
1770.000000	58.812352
1769.000000	58.726478
1768.000000	58.674137
1767.000000	58.650696
1766.000000	58.614972
1765.000000	58.541135
1764.000000	58.440617
1763.000000	58.326451
1762.000000	58.196102
1761.000000	58.046107
1760.000000	57.901245
1759.000000	57.788682
1758.000000	57.716861
1757.000000	57.666422
1756.000000	57.597953
1755.000000	57.494685
1754.000000	57.360592
1753.000000	57.205875
1752.000000	57.029470
1751.000000	56.843501
1750.000000	56.668300
1749.000000	56.513363
1748.000000	56.383881
1747.000000	56.280270
1746.000000	56.188413
1745.000000	56.085424
1744.000000	55.994778
1743.000000	55.956077
1742.000000	55.938981
1741.000000	55.861821
1740.000000	55.701031
1739.000000	55.507069
1738.000000	55.306641
1737.000000	55.092394
1736.000000	54.874349
1735.000000	54.618708
1734.000000	54.318224
1733.000000	54.062814
1732.000000	53.889229
1731.000000	53.763008
1730.000000	53.656151
1729.000000	53.535174
1728.000000	53.370675
1727.000000	53.171208
1726.000000	52.946113
1725.000000	52.676805
1724.000000	52.390026
1723.000000	52.150255
1722.000000	51.959735
1721.000000	51.742641
1720.000000	51.426029
1719.000000	51.010071
1718.000000	50.576421
1717.000000	50.231152
1716.000000	50.002790
1715.000000	49.827927
1714.000000	49.629592
1713.000000	49.379442
1712.000000	49.098475
1711.000000	48.816742
1710.000000	48.548853
1709.000000	48.288306
1708.000000	48.007298
1707.000000	47.691222
1706.000000	47.355202
1705.000000	47.042740
1704.000000	46.800053
1703.000000	46.668251
1702.000000	46.612162
1701.000000	46.346913
1700.000000	45.726320
1699.000000	45.017767
1698.000000	44.433208
1697.000000	44.027389
1696.000000	43.774148
1695.000000	43.564069
1694.000000	43.339781
1693.000000	43.073055
1692.000000	42.769124
1691.000000	42.452604
1690.000000	42.115366
1689.000000	41.749312
1688.000000	41.374727
1687.000000	41.061234
1686.000000	40.814796
1685.000000	40.506948
1684.000000	40.109353
1683.000000	39.725654
1682.000000	39.387187
1681.000000	39.084161
1680.000000	38.841871
1679.000000	38.671592
1678.000000	38.542902
1677.000000	38.389476
1676.000000	38.132453
1675.000000	37.772857
1674.000000	37.407537
1673.000000	37.084178
1672.000000	36.789333
1671.000000	36.496071
1670.000000	36.172271
1669.000000	35.819253
1668.000000	35.484692
1667.000000	35.220439
1666.000000	35.020653
1665.000000	34.827649
1664.000000	34.583527
1663.000000	34.279675
1662.000000	33.962312
1661.000000	33.659328
1660.000000	33.371612
1659.000000	33.114813
1658.000000	32.884031
1657.000000	32.641359
1656.000000	32.375013
1655.000000	32.114763
1654.000000	31.805087
1653.000000	31.406114
1652.000000	31.082562
1651.000000	30.918088
1650.000000	30.774787
1649.000000	30.554152
1648.000000	30.262480
1647.000000	29.960708
1646.000000	29.693549
1645.000000	29.457954
1644.000000	29.239958
1643.000000	29.026818
1642.000000	28.823227
1641.000000	28.626411
1640.000000	28.424715
1639.000000	28.225506
1638.000000	28.040300
1637.000000	27.855450
1636.000000	27.638039
1635.000000	27.399008
1634.000000	27.173924
1633.000000	26.964055
1632.000000	26.767888
1631.000000	26.594351
1630.000000	26.428908
1629.000000	26.241986
1628.000000	26.039579
1627.000000	25.860558
1626.000000	25.721248
1625.000000	25.587572
1624.000000	25.425262
1623.000000	25.252609
1622.000000	25.104496
1621.000000	24.971978
1620.000000	24.829616
1619.000000	24.687454
1618.000000	24.564175
1617.000000	24.453495
1616.000000	24.352666
1615.000000	24.276630
1614.000000	24.219402
1613.000000	24.162575
1612.000000	24.102793
1611.000000	24.045362
1610.000000	23.996721
1609.000000	23.954698
1608.000000	23.916020
1607.000000	23.884000
1606.000000	23.860934
1605.000000	23.834019
1604.000000	23.793946
1603.000000	23.758240
1602.000000	23.743934
1601.000000	23.742444
1600.000000	23.739867
1599.000000	23.740882
1598.000000	23.752404
1597.000000	23.764722
1596.000000	23.770107
1595.000000	23.778560
1594.000000	23.797591
1593.000000	23.814560
1592.000000	23.817773
1591.000000	23.816755
1590.000000	23.824907
1589.000000	23.837401
1588.000000	23.845115
1587.000000	23.854505
1586.000000	23.874450
1585.000000	23.900489
1584.000000	23.917947
1583.000000	23.930208
1582.000000	23.948979
1581.000000	23.957370
1580.000000	23.921371
1579.000000	23.842402
1578.000000	23.765232
1577.000000	23.723889
1576.000000	23.718325
1575.000000	23.739416
1574.000000	23.772390
1573.000000	23.796516
1572.000000	23.812363
1571.000000	23.820068
1570.000000	23.812328
1569.000000	23.791486
1568.000000	23.760890
1567.000000	23.738915
1566.000000	23.739246
1565.000000	23.748345
1564.000000	23.742053
1563.000000	23.733545
1562.000000	23.779407
1561.000000	23.893636
1560.000000	23.944182
1559.000000	23.983150
1558.000000	24.098249
1557.000000	24.193101
1556.000000	24.255074
1555.000000	24.351502
1554.000000	24.506407
1553.000000	24.664646
1552.000000	24.782609
1551.000000	24.896859
1550.000000	25.057724
1549.000000	25.255182
1548.000000	25.441011
1547.000000	25.600133
1546.000000	25.750397
1545.000000	25.910482
1544.000000	26.084104
1543.000000	26.260894
1542.000000	26.423956
1541.000000	26.607908
1540.000000	26.892415
1539.000000	27.246357
1538.000000	27.576823
1537.000000	27.844500
1536.000000	28.068229
1535.000000	28.300617
1534.000000	28.584550
1533.000000	28.908111
1532.000000	29.218669
1531.000000	29.509456
1530.000000	29.809562
1529.000000	30.122002
1528.000000	30.443341
1527.000000	30.795503
1526.000000	31.186362
1525.000000	31.560957
1524.000000	31.871891
1523.000000	32.175307
1522.000000	32.596944
1521.000000	33.152084
1520.000000	33.691966
1519.000000	34.125665
1518.000000	34.518726
1517.000000	34.971605
1516.000000	35.484570
1515.000000	35.983664
1514.000000	36.449437
1513.000000	36.893906
1512.000000	37.303459
1511.000000	37.643786
1510.000000	37.900390
1509.000000	38.117835
1508.000000	38.465573
1507.000000	39.183451
1506.000000	40.089415
1505.000000	40.811172
1504.000000	41.309098
1503.000000	41.719988
1502.000000	42.164615
1501.000000	42.664149
1500.000000	43.144735
1499.000000	43.561312
1498.000000	43.962098
1497.000000	44.415737
1496.000000	44.927846
1495.000000	45.440635
1494.000000	45.897830
1493.000000	46.275995
1492.000000	46.581609
1491.000000	46.859647
1490.000000	47.199561
1489.000000	47.628394
1488.000000	48.087824
1487.000000	48.534137
1486.000000	48.946059
1485.000000	49.304355
1484.000000	49.593497
1483.000000	49.843425
1482.000000	50.094998
1481.000000	50.347479
1480.000000	50.578814
1479.000000	50.784077
1478.000000	50.952322
1477.000000	51.045616
1476.000000	51.063521
1475.000000	51.055281
1474.000000	51.063737
1473.000000	51.081527
1472.000000	51.079528
1471.000000	51.034524
1470.000000	50.923865
1469.000000	50.732664
1468.000000	50.469696
1467.000000	50.127885
1466.000000	49.648627
1465.000000	48.980508
1464.000000	48.196959
1463.000000	47.459165
1462.000000	46.814030
1461.000000	46.181290
1460.000000	45.482909
1459.000000	44.697601
1458.000000	43.781456
1457.000000	42.689192
1456.000000	41.576655
1455.000000	40.613321
1454.000000	39.688694
1453.000000	38.620575
1452.000000	37.389066
1451.000000	36.069099
1450.000000	34.649605
1449.000000	33.024976
1448.000000	31.208167
1447.000000	29.364572
1446.000000	27.591223
1445.000000	25.830469
1444.000000	24.031156
1443.000000	22.213906
1442.000000	20.388607
1441.000000	18.578185
1440.000000	16.868133
1439.000000	15.284431
1438.000000	13.647122
1437.000000	11.784336
1436.000000	9.948833
1435.000000	8.539552
1434.000000	7.532407
1433.000000	6.690558
1432.000000	5.943865
1431.000000	5.345896
1430.000000	4.889833
1429.000000	4.524382
1428.000000	4.290141
1427.000000	4.241380
1426.000000	4.330227
1425.000000	4.496252
1424.000000	4.773483
1423.000000	5.190091
1422.000000	5.675905
1421.000000	6.190791
1420.000000	6.832594
1419.000000	7.679731
1418.000000	8.592460
1417.000000	9.420267
1416.000000	10.225362
1415.000000	11.108895
1414.000000	12.053783
1413.000000	13.015352
1412.000000	14.029097
1411.000000	15.138832
1410.000000	16.296692
1409.000000	17.439472
1408.000000	18.589923
1407.000000	19.800096
1406.000000	21.077295
1405.000000	22.406103
1404.000000	23.765501
1403.000000	25.100484
1402.000000	26.362555
1401.000000	27.590653
1400.000000	28.877358
1399.000000	30.229965
1398.000000	31.545367
1397.000000	32.792283
1396.000000	34.085829
1395.000000	35.508406
1394.000000	36.974183
1393.000000	38.352147
1392.000000	39.623736
1391.000000	40.833862
1390.000000	42.011621
1389.000000	43.187233
1388.000000	44.398954
1387.000000	45.624026
1386.000000	46.761129
1385.000000	47.743882
1384.000000	48.587322
1383.000000	49.311581
1382.000000	49.898048
1381.000000	50.325806
1380.000000	50.587900
1379.000000	50.662811
1378.000000	50.510849
1377.000000	50.088346
1376.000000	49.333693
1375.000000	48.186010
1374.000000	46.664974
1373.000000	44.890096
1372.000000	43.003213
1371.000000	41.107972
1370.000000	39.323059
1369.000000	37.841712
1368.000000	36.876639
1367.000000	36.534887
1366.000000	36.784934
1365.000000	37.544506
1364.000000	38.755550
1363.000000	40.359911
1362.000000	42.209152
1361.000000	44.083542
1360.000000	45.817014
1359.000000	47.334234
1358.000000	48.601623
1357.000000	49.591298
1356.000000	50.271012
1355.000000	50.610349
1354.000000	50.591578
1353.000000	50.204797
1352.000000	49.446015
1351.000000	48.310362
1350.000000	46.807719
1349.000000	44.969332
1348.000000	42.828901
1347.000000	40.419633
1346.000000	37.783517
1345.000000	34.982046
1344.000000	32.100025
1343.000000	29.221293
1342.000000	26.398626
1341.000000	23.673801
1340.000000	21.138781
1339.000000	18.940686
1338.000000	17.191207
1337.000000	15.889253
1336.000000	14.952499
1335.000000	14.279041
1334.000000	13.755648
1333.000000	13.260997
1332.000000	12.693183
1331.000000	11.991771
1330.000000	11.134989
1329.000000	10.129700
1328.000000	9.017438
1327.000000	7.871016
1326.000000	6.764862
1325.000000	5.752390
1324.000000	4.873977
1323.000000	4.162716
1322.000000	3.623628
1321.000000	3.228067
1320.000000	2.943089
1319.000000	2.745144
1318.000000	2.605096
1317.000000	2.487821
1316.000000	2.376570
1315.000000	2.279123
1314.000000	2.200076
1313.000000	2.130385
1312.000000	2.067544
1311.000000	2.020815
1310.000000	1.992348
1309.000000	1.974305
1308.000000	1.970716
1307.000000	1.999808
1306.000000	2.069876
1305.000000	2.174987
1304.000000	2.315804
1303.000000	2.501953
1302.000000	2.730916
1301.000000	2.985653
1300.000000	3.258077
1299.000000	3.552731
1298.000000	3.866548
1297.000000	4.187190
1296.000000	4.511934
1295.000000	4.848870
1294.000000	5.196975
1293.000000	5.544590
1292.000000	5.887939
1291.000000	6.231712
1290.000000	6.569847
1289.000000	6.884241
1288.000000	7.162190
1287.000000	7.397221
1286.000000	7.575805
1285.000000	7.682740
1284.000000	7.724589
1283.000000	7.733988
1282.000000	7.749093
1281.000000	7.801753
1280.000000	7.921537
1279.000000	8.128685
1278.000000	8.417632
1277.000000	8.763776
1276.000000	9.147184
1275.000000	9.558293
1274.000000	9.985390
1273.000000	10.414472
1272.000000	10.842940
1271.000000	11.276344
1270.000000	11.712203
1269.000000	12.141000
1268.000000	12.560744
1267.000000	12.976561
1266.000000	13.387287
1265.000000	13.786136
1264.000000	14.173604
1263.000000	14.557518
1262.000000	14.940708
1261.000000	15.321197
1260.000000	15.702161
1259.000000	16.089282
1258.000000	16.480250
1257.000000	16.867965
1256.000000	17.251757
1255.000000	17.634868
1254.000000	18.014170
1253.000000	18.382835
1252.000000	18.740605
1251.000000	19.092320
1250.000000	19.439125
1249.000000	19.779888
1248.000000	20.118714
1247.000000	20.462582
1246.000000	20.813174
1245.000000	21.168126
1244.000000	21.527529
1243.000000	21.891612
1242.000000	22.254430
1241.000000	22.607439
1240.000000	22.947597
1239.000000	23.276041
1238.000000	23.592163
1237.000000	23.895283
1236.000000	24.189941
1235.000000	24.483590
1234.000000	24.780239
1233.000000	25.081320
1232.000000	25.389955
1231.000000	25.708669
1230.000000	26.034382
1229.000000	26.360317
1228.000000	26.681804
1227.000000	26.996649
1226.000000	27.302391
1225.000000	27.597629
1224.000000	27.884489
1223.000000	28.166950
1222.000000	28.448289
1221.000000	28.732199
1220.000000	29.023934
1219.000000	29.327290
1218.000000	29.641699
1217.000000	29.963553
1216.000000	30.288130
1215.000000	30.609243
1214.000000	30.920159
1213.000000	31.217036
1212.000000	31.500105
1211.000000	31.771106
1210.000000	32.032610
1209.000000	32.290070
1208.000000	32.551494
1207.000000	32.823638
1206.000000	33.109517
1205.000000	33.409307
1204.000000	33.720522
1203.000000	34.036722
1202.000000	34.348801
1201.000000	34.648187
1200.000000	34.928278
1199.000000	35.184270
1198.000000	35.414596
1197.000000	35.622241
1196.000000	35.811131
1195.000000	35.983095
1194.000000	36.137642
1193.000000	36.271104
1192.000000	36.374777
1191.000000	36.434296
1190.000000	36.437501
1189.000000	36.383440
1188.000000	36.285181
1187.000000	36.168790
1186.000000	36.068469
1185.000000	36.017285
1184.000000	36.036551
1183.000000	36.131759
1182.000000	36.296090
1181.000000	36.519787
1180.000000	36.794626
1179.000000	37.112790
1178.000000	37.466725
1177.000000	37.846409
1176.000000	38.237641
1175.000000	38.623073
1174.000000	38.987323
1173.000000	39.320653
1172.000000	39.617869
1171.000000	39.878511
1170.000000	40.110279
1169.000000	40.327965
1168.000000	40.545454
1167.000000	40.772169
1166.000000	41.016025
1165.000000	41.283508
1164.000000	41.574274
1163.000000	41.879703
1162.000000	42.189001
1161.000000	42.492669
1160.000000	42.779776
1159.000000	43.039685
1158.000000	43.269871
1157.000000	43.477540
1156.000000	43.671799
1155.000000	43.859952
1154.000000	44.052066
1153.000000	44.259774
1152.000000	44.487599
1151.000000	44.730709
1150.000000	44.982459
1149.000000	45.237699
1148.000000	45.487105
1147.000000	45.717336
1146.000000	45.920694
1145.000000	46.098565
1144.000000	46.254929
1143.000000	46.394246
1142.000000	46.527587
1141.000000	46.671404
1140.000000	46.836166
1139.000000	47.022553
1138.000000	47.228701
1137.000000	47.452368
1136.000000	47.683959
1135.000000	47.906548
1134.000000	48.107157
1133.000000	48.281714
1132.000000	48.428850
1131.000000	48.548892
1130.000000	48.651139
1129.000000	48.753305
1128.000000	48.870561
1127.000000	49.011599
1126.000000	49.184184
1125.000000	49.393758
1124.000000	49.633673
1123.000000	49.885667
1122.000000	50.132395
1121.000000	50.362033
1120.000000	50.561543
1119.000000	50.718657
1118.000000	50.834244
1117.000000	50.923205
1116.000000	51.001937
1115.000000	51.083632
1114.000000	51.185290
1113.000000	51.325455
1112.000000	51.510634
1111.000000	51.732034
1110.000000	51.977272
1109.000000	52.234332
1108.000000	52.484260
1107.000000	52.703338
1106.000000	52.877832
1105.000000	53.007900
1104.000000	53.097493
1103.000000	53.152836
1102.000000	53.190934
1101.000000	53.236523
1100.000000	53.306727
1099.000000	53.407405
1098.000000	53.543190
1097.000000	53.717399
1096.000000	53.920130
1095.000000	54.129597
1094.000000	54.328272
1093.000000	54.507893
1092.000000	54.660063
1091.000000	54.777395
1090.000000	54.866426
1089.000000	54.946199
1088.000000	55.031853
1087.000000	55.130759
1086.000000	55.253035
1085.000000	55.409973
1084.000000	55.598966
1083.000000	55.802529
1082.000000	56.004183
1081.000000	56.193680
1080.000000	56.357816
1079.000000	56.482742
1078.000000	56.569586
1077.000000	56.633183
1076.000000	56.684938
1075.000000	56.729632
1074.000000	56.776578
1073.000000	56.837459
1072.000000	56.908436
1071.000000	56.968823
1070.000000	56.998247
1069.000000	56.980215
1068.000000	56.893242
1067.000000	56.714482
1066.000000	56.440334
1065.000000	56.093062
1064.000000	55.707300
1063.000000	55.325837
1062.000000	55.004153
1061.000000	54.798737
1060.000000	54.741233
1059.000000	54.832944
1058.000000	55.056133
1057.000000	55.381961
1056.000000	55.767548
1055.000000	56.161261
1054.000000	56.524623
1053.000000	56.838527
1052.000000	57.092650
1051.000000	57.284301
1050.000000	57.430746
1049.000000	57.565303
1048.000000	57.715668
1047.000000	57.895882
1046.000000	58.116242
1045.000000	58.383122
1044.000000	58.685819
1043.000000	58.998109
1042.000000	59.296252
1041.000000	59.564617
1040.000000	59.785944
1039.000000	59.944060
1038.000000	60.041408
1037.000000	60.100216
1036.000000	60.144173
1035.000000	60.193369
1034.000000	60.273473
1033.000000	60.410659
1032.000000	60.612124
1031.000000	60.863960
1030.000000	61.147694
1029.000000	61.445417
1028.000000	61.729674
1027.000000	61.967747
1026.000000	62.142184
1025.000000	62.255518
1024.000000	62.315726
1023.000000	62.334235
1022.000000	62.338019
1021.000000	62.362722
1020.000000	62.430545
1019.000000	62.546014
1018.000000	62.710511
1017.000000	62.922583
1016.000000	63.163480
1015.000000	63.400151
1014.000000	63.607230
1013.000000	63.773723
1012.000000	63.890784
1011.000000	63.953191
1010.000000	63.975372
1009.000000	63.988005
1008.000000	64.015540
1007.000000	64.070528
1006.000000	64.165704
1005.000000	64.311569
1004.000000	64.499668
1003.000000	64.704329
1002.000000	64.903145
1001.000000	65.082391
1000.000000	65.225263
999.000000	65.315206
998.000000	65.354900
997.000000	65.366413
996.000000	65.371375
995.000000	65.385870
994.000000	65.431515
993.000000	65.530476
992.000000	65.684998
991.000000	65.876045
990.000000	66.082209
989.000000	66.285621
988.000000	66.460849
987.000000	66.579728
986.000000	66.632986
985.000000	66.633935
984.000000	66.600797
983.000000	66.551536
982.000000	66.515053
981.000000	66.525849
980.000000	66.602152
979.000000	66.740914
978.000000	66.932799
977.000000	67.163632
976.000000	67.401852
975.000000	67.604088
974.000000	67.740543
973.000000	67.802538
972.000000	67.789755
971.000000	67.709921
970.000000	67.592154
969.000000	67.481111
968.000000	67.412486
967.000000	67.406159
966.000000	67.477279
965.000000	67.633258
964.000000	67.855793
963.000000	68.103961
962.000000	68.337673
961.000000	68.526870
960.000000	68.641925
959.000000	68.660228
958.000000	68.587247
957.000000	68.455840
956.000000	68.302648
955.000000	68.159330
954.000000	68.062852
953.000000	68.048791
952.000000	68.128244
951.000000	68.284096
950.000000	68.490893
949.000000	68.720626
948.000000	68.932785
947.000000	69.081766
946.000000	69.143122
945.000000	69.118488
944.000000	69.018523
943.000000	68.860135
942.000000	68.679618
941.000000	68.525716
940.000000	68.432600
939.000000	68.412384
938.000000	68.468333
937.000000	68.595108
936.000000	68.764008
935.000000	68.929452
934.000000	69.055074
933.000000	69.122196
932.000000	69.116166
931.000000	69.028593
930.000000	68.874981
929.000000	68.691596
928.000000	68.510890
927.000000	68.353749
926.000000	68.242025
925.000000	68.194145
924.000000	68.204708
923.000000	68.244637
922.000000	68.284410
921.000000	68.302152
920.000000	68.272429
919.000000	68.170645
918.000000	67.994618
917.000000	67.764328
916.000000	67.501206
915.000000	67.222391
914.000000	66.951947
913.000000	66.715480
912.000000	66.518318
911.000000	66.345039
910.000000	66.178117
909.000000	66.001550
908.000000	65.789240
907.000000	65.510542
906.000000	65.153413
905.000000	64.726646
904.000000	64.241178
903.000000	63.708443
902.000000	63.152159
901.000000	62.602539
900.000000	62.073905
899.000000	61.559994
898.000000	61.050248
897.000000	60.531234
896.000000	59.976213
895.000000	59.351280
894.000000	58.635369
893.000000	57.825876
892.000000	56.924790
891.000000	55.938450
890.000000	54.888026
889.000000	53.802732
888.000000	52.704039
887.000000	51.601496
886.000000	50.500007
885.000000	49.397285
884.000000	48.274902
883.000000	47.105680
882.000000	45.867998
881.000000	44.549424
880.000000	43.143482
879.000000	41.653209
878.000000	40.098602
877.000000	38.510429
876.000000	36.919335
875.000000	35.352643
874.000000	33.834685
873.000000	32.382574
872.000000	31.003970
871.000000	29.699835
870.000000	28.464465
869.000000	27.288195
868.000000	26.161411
867.000000	25.079839
866.000000	24.044433
865.000000	23.057072
864.000000	22.124521
863.000000	21.257308
862.000000	20.463027
861.000000	19.743784
860.000000	19.098433
859.000000	18.525956
858.000000	18.019228
857.000000	17.564074
856.000000	17.149183
855.000000	16.768651
854.000000	16.417898
853.000000	16.091723
852.000000	15.791316
851.000000	15.527564
850.000000	15.310385
849.000000	15.144536
848.000000	15.035584
847.000000	14.992223
846.000000	15.020503
845.000000	15.118156
844.000000	15.282127
843.000000	15.512905
842.000000	15.807800
841.000000	16.159735
840.000000	16.563148
839.000000	17.020417
838.000000	17.536242
837.000000	18.110930
836.000000	18.745964
835.000000	19.446923
834.000000	20.214225
833.000000	21.024730
832.000000	21.816310
831.000000	22.445528
830.000000	22.640462
829.000000	22.021531
828.000000	20.301923
827.000000	17.599960
826.000000	14.551361
825.000000	12.024702
824.000000	10.634347
823.000000	10.478180
822.000000	11.273307
821.000000	12.662174
820.000000	14.365434
819.000000	16.170091
818.000000	17.920229
817.000000	19.537634
816.000000	21.021165
815.000000	22.388961
814.000000	23.646879
813.000000	24.800490
812.000000	25.864068
811.000000	26.846178
810.000000	27.749629
809.000000	28.588667
808.000000	29.386836
807.000000	30.162280
806.000000	30.926825
805.000000	31.696594
804.000000	32.483192
803.000000	33.274922
802.000000	34.045293
801.000000	34.776649
800.000000	35.463591
799.000000	36.101492
798.000000	36.689968
797.000000	37.244829
796.000000	37.789742
795.000000	38.340277
794.000000	38.906741
793.000000	39.502716
792.000000	40.135750
791.000000	40.795235
790.000000	41.461701
789.000000	42.120888
788.000000	42.758695
787.000000	43.354722
786.000000	43.896438
785.000000	44.391983
784.000000	44.858294
783.000000	45.306475
782.000000	45.749229
781.000000	46.208497
780.000000	46.701202
779.000000	47.225466
778.000000	47.769755
777.000000	48.324161
776.000000	48.872421
775.000000	49.386348
774.000000	49.843399
773.000000	50.241335
772.000000	50.588124
771.000000	50.891880
770.000000	51.170604
769.000000	51.456627
768.000000	51.776661
767.000000	52.137176
766.000000	52.535678
765.000000	52.970345
764.000000	53.427064
763.000000	53.871807
762.000000	54.270309
761.000000	54.606416
760.000000	54.874308
759.000000	55.071516
758.000000	55.211908
757.000000	55.330541
756.000000	55.463284
755.000000	55.632482
754.000000	55.857261
753.000000	56.156887
752.000000	56.530930
751.000000	56.950350
750.000000	57.378979
749.000000	57.789975
748.000000	58.155399
747.000000	58.442670
746.000000	58.638256
745.000000	58.760356
744.000000	58.838331
743.000000	58.896030
742.000000	58.962572
741.000000	59.076177
740.000000	59.260540
739.000000	59.510754
738.000000	59.810766
737.000000	60.146044
736.000000	60.488993
735.000000	60.793951
734.000000	61.023936
733.000000	61.169077
732.000000	61.231054
731.000000	61.212311
730.000000	61.132319
729.000000	61.032556
728.000000	60.950859
727.000000	60.906084
726.000000	60.913259
725.000000	60.991050
724.000000	61.141264
723.000000	61.339923
722.000000	61.561597
721.000000	61.794957
720.000000	62.025988
719.000000	62.231804
718.000000	62.406833
717.000000	62.573845
716.000000	62.756110
715.000000	62.959486
714.000000	63.190936
713.000000	63.467816
712.000000	63.793085
711.000000	64.142409
710.000000	64.490468
709.000000	64.828133
708.000000	65.143702
707.000000	65.415417
706.000000	65.638845
705.000000	65.838483
704.000000	66.038035
703.000000	66.240818
702.000000	66.451860
701.000000	66.691379
700.000000	66.968249
699.000000	67.265010
698.000000	67.561974
697.000000	67.851935
696.000000	68.118070
695.000000	68.326836
694.000000	68.462829
693.000000	68.545837
692.000000	68.598983
691.000000	68.632328
690.000000	68.671539
689.000000	68.767948
688.000000	68.953802
687.000000	69.212830
686.000000	69.518129
685.000000	69.862118
684.000000	70.225477
683.000000	70.557015
682.000000	70.814849
681.000000	70.995819
680.000000	71.105395
679.000000	71.136855
678.000000	71.106223
677.000000	71.066428
676.000000	71.063947
675.000000	71.116720
674.000000	71.242645
673.000000	71.469732
672.000000	71.796472
671.000000	72.184808
670.000000	72.614030
669.000000	73.086714
668.000000	73.503162
667.000000	73.699069
666.000000	73.705548
665.000000	73.644106
664.000000	73.570324
663.000000	73.502382
662.000000	73.460638
661.000000	73.474892
660.000000	73.565983
659.000000	73.737126
658.000000	73.983926
657.000000	74.293343
656.000000	74.632906
655.000000	74.961119
654.000000	75.247985
653.000000	75.480325
652.000000	75.651921
651.000000	75.761193
650.000000	75.821589
649.000000	75.856976
648.000000	75.882216
647.000000	75.904389
646.000000	75.942631
645.000000	76.025809
644.000000	76.162227
643.000000	76.331117
642.000000	76.512814
641.000000	76.706455
640.000000	76.909597
639.000000	77.104504
638.000000	77.277490
637.000000	77.433964
636.000000	77.583861
635.000000	77.728320
634.000000	77.869691
633.000000	78.013729
632.000000	78.152804
631.000000	78.267759
630.000000	78.353119
629.000000	78.419712
628.000000	78.471393
627.000000	78.507697
626.000000	78.552746
625.000000	78.647887
624.000000	78.804960
623.000000	78.998230
622.000000	79.210041
621.000000	79.447883
620.000000	79.705132
619.000000	79.942493
618.000000	80.125009
617.000000	80.248084
616.000000	80.311866
615.000000	80.304130
614.000000	80.226876
613.000000	80.109449
612.000000	79.978375
611.000000	79.844026
610.000000	79.721443
609.000000	79.625423
608.000000	79.531628
607.000000	79.360938
606.000000	79.010955
605.000000	78.357231
604.000000	77.205033
603.000000	75.287044
602.000000	72.305728
601.000000	68.030305
600.000000	62.454962
599.000000	56.000149
598.000000	49.541705
597.000000	44.124011
596.000000	40.574174
595.000000	39.254017
594.000000	40.010249
593.000000	42.317724
592.000000	45.559878
591.000000	49.183898
590.000000	52.755442
589.000000	56.032447
588.000000	58.939960
587.000000	61.479397
586.000000	63.668743
585.000000	65.541420
584.000000	67.129482
583.000000	68.460499
582.000000	69.586044
581.000000	70.591713
580.000000	71.544640
579.000000	72.444838
578.000000	73.277028
577.000000	74.063307
576.000000	74.827709
575.000000	75.544590
574.000000	76.165731
573.000000	76.681185
572.000000	77.103557
571.000000	77.431723
570.000000	77.674141
569.000000	77.869778
568.000000	78.053347
567.000000	78.228554
566.000000	78.399156
565.000000	78.592314
564.000000	78.821716
563.000000	79.066967
562.000000	79.312543
561.000000	79.572064
560.000000	79.849401
559.000000	80.113385
558.000000	80.339611
557.000000	80.539446
556.000000	80.722862
555.000000	80.872818
554.000000	80.982386
553.000000	81.073789
552.000000	81.156993
551.000000	81.212564
550.000000	81.240031
549.000000	81.274683
548.000000	81.336502
547.000000	81.413000
546.000000	81.510359
545.000000	81.663714
544.000000	81.874235
543.000000	82.095155
542.000000	82.300109
541.000000	82.511981
540.000000	82.736952
539.000000	82.929016
538.000000	83.050646
537.000000	83.116311
536.000000	83.144829
535.000000	83.124786
534.000000	83.061206
533.000000	83.004107
532.000000	82.989831
531.000000	83.004544
530.000000	83.037026
529.000000	83.110115
528.000000	83.233801
527.000000	83.383353
526.000000	83.549320
525.000000	83.736461
524.000000	83.890168
523.000000	83.895829
522.000000	83.680187
521.000000	83.254270
520.000000	82.647839
519.000000	81.868982
518.000000	80.967366
517.000000	80.079712
516.000000	79.348924
515.000000	78.845452
514.000000	78.592055
513.000000	78.598593
512.000000	78.816804
511.000000	79.111957
510.000000	79.328096
509.000000	79.353841
508.000000	79.090172
507.000000	78.436713
506.000000	77.355655
505.000000	75.882966
504.000000	74.068449
503.000000	72.024904
502.000000	70.070645
501.000000	68.633517
500.000000	67.946666
499.000000	67.962193
498.000000	68.523899
497.000000	69.457828
496.000000	70.542954
495.000000	71.538966
494.000000	72.299527
493.000000	72.836419
492.000000	73.241098
491.000000	73.597969
490.000000	73.977310
489.000000	74.441541
488.000000	75.001630
487.000000	75.619417
486.000000	76.279072
485.000000	77.009422
484.000000	77.808465
483.000000	78.612052
482.000000	79.376726
481.000000	80.114758
480.000000	80.811730
479.000000	81.393980
478.000000	81.817856
477.000000	82.124009
476.000000	82.354106
475.000000	82.485287
474.000000	82.516395
473.000000	82.550195
472.000000	82.693165
471.000000	82.910990
470.000000	83.119463
469.000000	83.330943
468.000000	83.586376
467.000000	83.846756
466.000000	84.025930
465.000000	84.091961
464.000000	84.045749
463.000000	83.879693
462.000000	83.643207
461.000000	83.449889
460.000000	83.346726
459.000000	83.262258
458.000000	83.159520
457.000000	83.128930
456.000000	83.192887
455.000000	83.234104
454.000000	83.183056
453.000000	83.100592
452.000000	83.053632
451.000000	82.971664
450.000000	82.728928
449.000000	82.301853
448.000000	81.737730
447.000000	81.043629
446.000000	80.185963
445.000000	79.132827
444.000000	77.806404
443.000000	76.078310
442.000000	73.895205
441.000000	71.351845
440.000000	68.577536
439.000000	65.665158
438.000000	62.757161
437.000000	60.164086
436.000000	58.294211
435.000000	57.411391
434.000000	57.487954
433.000000	58.345108
432.000000	59.838650
431.000000	61.785203
430.000000	63.929815
429.000000	66.094873
428.000000	68.199394
427.000000	70.134543
426.000000	71.810352
425.000000	73.310215
424.000000	74.759235
423.000000	76.094235
422.000000	77.166895
421.000000	78.028287
420.000000	78.851231
419.000000	79.791357
418.000000	80.879447
417.000000	81.911208
416.000000	82.723533
415.000000	83.219485
414.000000	83.382065
413.000000	83.414669
412.000000	83.515790
411.000000	83.623210
410.000000	83.654344
409.000000	83.770953
408.000000	84.123598
407.000000	84.545707
406.000000	84.869675
405.000000	85.175600
404.000000	85.541047
403.000000	85.716179
402.000000	85.432115
401.000000	84.795682
400.000000	84.032213
