PE IR       SUBTECH     SPECTRUM    ASCII       PEDS        4.00        
   -1
23ms240_nitrito.asc
24/09/02
16:40:30.00
24/09/02
16:40:30.00
Administrator
Sample 1081 By Administrator Date Monday, September 02 2024
400.000000
#HDR
-1
-1
#GR
cm-1
%T
1.0
0.0
4000.000000
-1.000000
3601
8
75.192022
3.616481
#DATA
4000.000000	57.167710
3999.000000	57.228394
3998.000000	57.286803
3997.000000	57.342828
3996.000000	57.397070
3995.000000	57.450621
3994.000000	57.505040
3993.000000	57.561725
3992.000000	57.620745
3991.000000	57.680561
3990.000000	57.739450
3989.000000	57.796927
3988.000000	57.853449
3987.000000	57.909287
3986.000000	57.964362
3985.000000	58.018955
3984.000000	58.073830
3983.000000	58.129658
3982.000000	58.186606
3981.000000	58.244418
3980.000000	58.302599
3979.000000	58.360383
3978.000000	58.416466
3977.000000	58.469536
3976.000000	58.519503
3975.000000	58.568081
3974.000000	58.617665
3973.000000	58.669702
3972.000000	58.724110
3971.000000	58.779294
3970.000000	58.832945
3969.000000	58.883514
3968.000000	58.931434
3967.000000	58.978622
3966.000000	59.027244
3965.000000	59.078515
3964.000000	59.132347
3963.000000	59.187614
3962.000000	59.242350
3961.000000	59.294719
3960.000000	59.344345
3959.000000	59.391504
3958.000000	59.436182
3957.000000	59.478684
3956.000000	59.520964
3955.000000	59.565753
3954.000000	59.614883
3953.000000	59.668781
3952.000000	59.726761
3951.000000	59.787382
3950.000000	59.848438
3949.000000	59.907377
3948.000000	59.961759
3947.000000	60.011710
3946.000000	60.061593
3945.000000	60.116072
3944.000000	60.174377
3943.000000	60.231266
3942.000000	60.283946
3941.000000	60.335083
3940.000000	60.388391
3939.000000	60.442930
3938.000000	60.495278
3937.000000	60.545914
3936.000000	60.601184
3935.000000	60.666245
3934.000000	60.737359
3933.000000	60.804732
3932.000000	60.861787
3931.000000	60.910019
3930.000000	60.954599
3929.000000	60.998789
3928.000000	61.045327
3927.000000	61.097746
3926.000000	61.155894
3925.000000	61.213964
3924.000000	61.269139
3923.000000	61.326538
3922.000000	61.390326
3921.000000	61.456139
3920.000000	61.517717
3919.000000	61.575476
3918.000000	61.632183
3917.000000	61.684048
3916.000000	61.726264
3915.000000	61.762964
3914.000000	61.803356
3913.000000	61.849459
3912.000000	61.897662
3911.000000	61.945360
3910.000000	61.994386
3909.000000	62.046212
3908.000000	62.102426
3907.000000	62.166580
3906.000000	62.242448
3905.000000	62.326946
3904.000000	62.410470
3903.000000	62.486847
3902.000000	62.556184
3901.000000	62.616762
3900.000000	62.660662
3899.000000	62.685056
3898.000000	62.702027
3897.000000	62.726695
3896.000000	62.764228
3895.000000	62.811340
3894.000000	62.867433
3893.000000	62.933257
3892.000000	63.003160
3891.000000	63.061207
3890.000000	63.103364
3889.000000	63.147986
3888.000000	63.214556
3887.000000	63.297023
3886.000000	63.367200
3885.000000	63.409884
3884.000000	63.445536
3883.000000	63.499172
3882.000000	63.566690
3881.000000	63.625220
3880.000000	63.663089
3879.000000	63.691233
3878.000000	63.730054
3877.000000	63.787884
3876.000000	63.854266
3875.000000	63.909000
3874.000000	63.944724
3873.000000	63.982851
3872.000000	64.051608
3871.000000	64.143442
3870.000000	64.216337
3869.000000	64.250544
3868.000000	64.278954
3867.000000	64.335822
3866.000000	64.408857
3865.000000	64.464070
3864.000000	64.499322
3863.000000	64.540195
3862.000000	64.596504
3861.000000	64.652290
3860.000000	64.694924
3859.000000	64.721690
3858.000000	64.736821
3857.000000	64.753208
3856.000000	64.798538
3855.000000	64.891943
3854.000000	65.005102
3853.000000	65.088348
3852.000000	65.139778
3851.000000	65.188379
3850.000000	65.241622
3849.000000	65.290167
3848.000000	65.334855
3847.000000	65.387676
3846.000000	65.454191
3845.000000	65.527898
3844.000000	65.600573
3843.000000	65.665501
3842.000000	65.723520
3841.000000	65.781365
3840.000000	65.844090
3839.000000	65.909795
3838.000000	65.975454
3837.000000	66.036506
3836.000000	66.090041
3835.000000	66.137645
3834.000000	66.185058
3833.000000	66.235512
3832.000000	66.285746
3831.000000	66.333720
3830.000000	66.385111
3829.000000	66.445822
3828.000000	66.514172
3827.000000	66.577539
3826.000000	66.626459
3825.000000	66.672040
3824.000000	66.739589
3823.000000	66.834508
3822.000000	66.927065
3821.000000	66.982205
3820.000000	67.009267
3819.000000	67.049928
3818.000000	67.120823
3817.000000	67.197703
3816.000000	67.245686
3815.000000	67.267014
3814.000000	67.299020
3813.000000	67.357871
3812.000000	67.420895
3811.000000	67.469379
3810.000000	67.515394
3809.000000	67.583698
3808.000000	67.673869
3807.000000	67.754689
3806.000000	67.808613
3805.000000	67.856691
3804.000000	67.924106
3803.000000	68.004457
3802.000000	68.070033
3801.000000	68.110447
3800.000000	68.155109
3799.000000	68.229720
3798.000000	68.317176
3797.000000	68.385242
3796.000000	68.425337
3795.000000	68.458774
3794.000000	68.506743
3793.000000	68.567336
3792.000000	68.625659
3791.000000	68.677781
3790.000000	68.731848
3789.000000	68.793660
3788.000000	68.860568
3787.000000	68.928307
3786.000000	68.994818
3785.000000	69.058368
3784.000000	69.119166
3783.000000	69.184040
3782.000000	69.259634
3781.000000	69.339370
3780.000000	69.408234
3779.000000	69.460538
3778.000000	69.507716
3777.000000	69.562950
3776.000000	69.626313
3775.000000	69.686505
3774.000000	69.739234
3773.000000	69.796018
3772.000000	69.869295
3771.000000	69.951191
3770.000000	70.024170
3769.000000	70.087707
3768.000000	70.156384
3767.000000	70.233439
3766.000000	70.304339
3765.000000	70.357060
3764.000000	70.402168
3763.000000	70.462991
3762.000000	70.545565
3761.000000	70.628812
3760.000000	70.695495
3759.000000	70.755002
3758.000000	70.820936
3757.000000	70.885580
3756.000000	70.940149
3755.000000	70.992523
3754.000000	71.053126
3753.000000	71.119043
3752.000000	71.185828
3751.000000	71.264297
3750.000000	71.355690
3749.000000	71.433383
3748.000000	71.486859
3747.000000	71.542558
3746.000000	71.622519
3745.000000	71.707572
3744.000000	71.765390
3743.000000	71.817788
3742.000000	71.906419
3741.000000	72.015377
3740.000000	72.105097
3739.000000	72.173143
3738.000000	72.246968
3737.000000	72.332173
3736.000000	72.404741
3735.000000	72.458431
3734.000000	72.514570
3733.000000	72.577843
3732.000000	72.629184
3731.000000	72.665165
3730.000000	72.705384
3729.000000	72.765530
3728.000000	72.838943
3727.000000	72.906452
3726.000000	72.962010
3725.000000	73.020773
3724.000000	73.092244
3723.000000	73.165364
3722.000000	73.228773
3721.000000	73.284545
3720.000000	73.341041
3719.000000	73.402685
3718.000000	73.466266
3717.000000	73.525243
3716.000000	73.582904
3715.000000	73.647727
3714.000000	73.718195
3713.000000	73.781863
3712.000000	73.834964
3711.000000	73.890743
3710.000000	73.958441
3709.000000	74.029989
3708.000000	74.094517
3707.000000	74.148526
3706.000000	74.195939
3705.000000	74.243985
3704.000000	74.295654
3703.000000	74.347779
3702.000000	74.395805
3701.000000	74.441203
3700.000000	74.489688
3699.000000	74.545587
3698.000000	74.603099
3697.000000	74.648679
3696.000000	74.680904
3695.000000	74.716543
3694.000000	74.767565
3693.000000	74.824238
3692.000000	74.873624
3691.000000	74.918051
3690.000000	74.967159
3689.000000	75.016448
3688.000000	75.052802
3687.000000	75.077421
3686.000000	75.103208
3685.000000	75.131360
3684.000000	75.150972
3683.000000	75.160537
3682.000000	75.169590
3681.000000	75.182235
3680.000000	75.186818
3679.000000	75.180410
3678.000000	75.180173
3677.000000	75.192022
3676.000000	75.189208
3675.000000	75.162246
3674.000000	75.147003
3673.000000	75.166343
3672.000000	75.190194
3671.000000	75.166231
3670.000000	75.083552
3669.000000	74.992746
3668.000000	74.939378
3667.000000	74.912052
3666.000000	74.876680
3665.000000	74.816838
3664.000000	74.739779
3663.000000	74.661063
3662.000000	74.586628
3661.000000	74.510355
3660.000000	74.425016
3659.000000	74.329668
3658.000000	74.222709
3657.000000	74.101050
3656.000000	73.971562
3655.000000	73.858797
3654.000000	73.780856
3653.000000	73.722510
3652.000000	73.639372
3651.000000	73.494266
3650.000000	73.294640
3649.000000	73.087219
3648.000000	72.901094
3647.000000	72.729018
3646.000000	72.560926
3645.000000	72.393166
3644.000000	72.218776
3643.000000	72.029151
3642.000000	71.823737
3641.000000	71.611879
3640.000000	71.404371
3639.000000	71.202900
3638.000000	71.002603
3637.000000	70.802261
3636.000000	70.603942
3635.000000	70.405528
3634.000000	70.202296
3633.000000	69.999077
3632.000000	69.804441
3631.000000	69.606660
3630.000000	69.372210
3629.000000	69.093377
3628.000000	68.821930
3627.000000	68.605733
3626.000000	68.430196
3625.000000	68.251483
3624.000000	68.048671
3623.000000	67.830048
3622.000000	67.607298
3621.000000	67.374913
3620.000000	67.124284
3619.000000	66.869620
3618.000000	66.636517
3617.000000	66.431267
3616.000000	66.238139
3615.000000	66.034921
3614.000000	65.809067
3613.000000	65.569627
3612.000000	65.338975
3611.000000	65.127054
3610.000000	64.919260
3609.000000	64.695356
3608.000000	64.457950
3607.000000	64.229333
3606.000000	64.020613
3605.000000	63.821434
3604.000000	63.616113
3603.000000	63.398805
3602.000000	63.173154
3601.000000	62.946161
3600.000000	62.725755
3599.000000	62.519050
3598.000000	62.323258
3597.000000	62.128518
3596.000000	61.930038
3595.000000	61.731601
3594.000000	61.538931
3593.000000	61.356336
3592.000000	61.184842
3591.000000	61.019911
3590.000000	60.849853
3589.000000	60.662060
3588.000000	60.458479
3587.000000	60.257998
3586.000000	60.074202
3585.000000	59.901605
3584.000000	59.726877
3583.000000	59.542498
3582.000000	59.348222
3581.000000	59.149004
3580.000000	58.952168
3579.000000	58.763239
3578.000000	58.581691
3577.000000	58.403579
3576.000000	58.227890
3575.000000	58.056467
3574.000000	57.890414
3573.000000	57.730214
3572.000000	57.577699
3571.000000	57.432135
3570.000000	57.286397
3569.000000	57.128154
3568.000000	56.951781
3567.000000	56.767748
3566.000000	56.592696
3565.000000	56.431075
3564.000000	56.275140
3563.000000	56.114857
3562.000000	55.944561
3561.000000	55.765896
3560.000000	55.586353
3559.000000	55.412508
3558.000000	55.245023
3557.000000	55.080716
3556.000000	54.917708
3555.000000	54.755198
3554.000000	54.590938
3553.000000	54.423666
3552.000000	54.257836
3551.000000	54.099973
3550.000000	53.950833
3549.000000	53.804049
3548.000000	53.652535
3547.000000	53.493779
3546.000000	53.329314
3545.000000	53.162028
3544.000000	52.994869
3543.000000	52.829170
3542.000000	52.663956
3541.000000	52.498874
3540.000000	52.336632
3539.000000	52.179844
3538.000000	52.026569
3537.000000	51.872886
3536.000000	51.719234
3535.000000	51.569713
3534.000000	51.425764
3533.000000	51.284804
3532.000000	51.144324
3531.000000	51.004196
3530.000000	50.864955
3529.000000	50.727548
3528.000000	50.594437
3527.000000	50.467670
3526.000000	50.344869
3525.000000	50.219892
3524.000000	50.088527
3523.000000	49.951853
3522.000000	49.813766
3521.000000	49.677294
3520.000000	49.543316
3519.000000	49.410862
3518.000000	49.278515
3517.000000	49.147012
3516.000000	49.019098
3515.000000	48.895278
3514.000000	48.772144
3513.000000	48.646827
3512.000000	48.519744
3511.000000	48.391633
3510.000000	48.261385
3509.000000	48.129183
3508.000000	47.998556
3507.000000	47.872163
3506.000000	47.747603
3505.000000	47.620446
3504.000000	47.489953
3503.000000	47.358744
3502.000000	47.228271
3501.000000	47.098019
3500.000000	46.967475
3499.000000	46.835528
3498.000000	46.699620
3497.000000	46.559181
3496.000000	46.418396
3495.000000	46.282058
3494.000000	46.150059
3493.000000	46.019224
3492.000000	45.888155
3491.000000	45.756916
3490.000000	45.624309
3489.000000	45.489155
3488.000000	45.352834
3487.000000	45.217623
3486.000000	45.083426
3485.000000	44.948887
3484.000000	44.814248
3483.000000	44.680441
3482.000000	44.546879
3481.000000	44.412488
3480.000000	44.277508
3479.000000	44.142172
3478.000000	44.005457
3477.000000	43.867303
3476.000000	43.730150
3475.000000	43.596041
3474.000000	43.463951
3473.000000	43.332088
3472.000000	43.200658
3471.000000	43.069777
3470.000000	42.937334
3469.000000	42.801739
3468.000000	42.664619
3467.000000	42.528440
3466.000000	42.393559
3465.000000	42.259620
3464.000000	42.127260
3463.000000	41.996043
3462.000000	41.863241
3461.000000	41.727065
3460.000000	41.589065
3459.000000	41.451419
3458.000000	41.314440
3457.000000	41.178787
3456.000000	41.046681
3455.000000	40.918391
3454.000000	40.790380
3453.000000	40.659304
3452.000000	40.525697
3451.000000	40.391597
3450.000000	40.256862
3449.000000	40.120468
3448.000000	39.983353
3447.000000	39.847571
3446.000000	39.713812
3445.000000	39.581394
3444.000000	39.449168
3443.000000	39.315213
3442.000000	39.177853
3441.000000	39.038338
3440.000000	38.899879
3439.000000	38.763016
3438.000000	38.624813
3437.000000	38.483691
3436.000000	38.341489
3435.000000	38.199584
3434.000000	38.056592
3433.000000	37.911509
3432.000000	37.765625
3431.000000	37.619513
3430.000000	37.471169
3429.000000	37.319315
3428.000000	37.165632
3427.000000	37.011652
3426.000000	36.856445
3425.000000	36.699168
3424.000000	36.540821
3423.000000	36.381426
3422.000000	36.218577
3421.000000	36.051235
3420.000000	35.882018
3419.000000	35.713368
3418.000000	35.544508
3417.000000	35.373933
3416.000000	35.201625
3415.000000	35.026721
3414.000000	34.846170
3413.000000	34.658565
3412.000000	34.466343
3411.000000	34.272160
3410.000000	34.075791
3409.000000	33.876447
3408.000000	33.675295
3407.000000	33.473125
3406.000000	33.268284
3405.000000	33.059134
3404.000000	32.845844
3403.000000	32.627999
3402.000000	32.403368
3401.000000	32.171348
3400.000000	31.934933
3399.000000	31.696994
3398.000000	31.457374
3397.000000	31.215220
3396.000000	30.970701
3395.000000	30.722443
3394.000000	30.466486
3393.000000	30.200587
3392.000000	29.927005
3391.000000	29.648800
3390.000000	29.366621
3389.000000	29.080503
3388.000000	28.791670
3387.000000	28.500243
3386.000000	28.203892
3385.000000	27.901305
3384.000000	27.593791
3383.000000	27.282111
3382.000000	26.964717
3381.000000	26.640847
3380.000000	26.312537
3379.000000	25.981483
3378.000000	25.646958
3377.000000	25.308432
3376.000000	24.966911
3375.000000	24.622311
3374.000000	24.272431
3373.000000	23.916177
3372.000000	23.555141
3371.000000	23.190427
3370.000000	22.821624
3369.000000	22.449665
3368.000000	22.077204
3367.000000	21.704849
3366.000000	21.330304
3365.000000	20.952507
3364.000000	20.572944
3363.000000	20.192115
3362.000000	19.808757
3361.000000	19.423601
3360.000000	19.039985
3359.000000	18.659267
3358.000000	18.279271
3357.000000	17.898636
3356.000000	17.518741
3355.000000	17.140259
3354.000000	16.761782
3353.000000	16.383239
3352.000000	16.007186
3351.000000	15.635559
3350.000000	15.268349
3349.000000	14.906031
3348.000000	14.549656
3347.000000	14.197676
3346.000000	13.846885
3345.000000	13.497167
3344.000000	13.151718
3343.000000	12.812272
3342.000000	12.477775
3341.000000	12.148325
3340.000000	11.826076
3339.000000	11.511564
3338.000000	11.203325
3337.000000	10.901371
3336.000000	10.607315
3335.000000	10.320593
3334.000000	10.038663
3333.000000	9.761584
3332.000000	9.491862
3331.000000	9.229893
3330.000000	8.973567
3329.000000	8.722444
3328.000000	8.478668
3327.000000	8.242983
3326.000000	8.014346
3325.000000	7.793379
3324.000000	7.581786
3323.000000	7.378693
3322.000000	7.181367
3321.000000	6.989667
3320.000000	6.805953
3319.000000	6.630125
3318.000000	6.459844
3317.000000	6.294767
3316.000000	6.136589
3315.000000	5.985078
3314.000000	5.838048
3313.000000	5.695433
3312.000000	5.558952
3311.000000	5.427987
3310.000000	5.300476
3309.000000	5.177192
3308.000000	5.061285
3307.000000	4.953733
3306.000000	4.853300
3305.000000	4.760673
3304.000000	4.677301
3303.000000	4.601103
3302.000000	4.527665
3301.000000	4.455480
3300.000000	4.386076
3299.000000	4.319414
3298.000000	4.253985
3297.000000	4.190970
3296.000000	4.133325
3295.000000	4.081155
3294.000000	4.032186
3293.000000	3.986607
3292.000000	3.946988
3291.000000	3.913220
3290.000000	3.882427
3289.000000	3.853300
3288.000000	3.826569
3287.000000	3.801620
3286.000000	3.776780
3285.000000	3.753009
3284.000000	3.732799
3283.000000	3.715964
3282.000000	3.700395
3281.000000	3.686226
3280.000000	3.675207
3279.000000	3.666412
3278.000000	3.657103
3277.000000	3.647369
3276.000000	3.639543
3275.000000	3.633544
3274.000000	3.627083
3273.000000	3.620384
3272.000000	3.616481
3271.000000	3.616829
3270.000000	3.620402
3269.000000	3.626535
3268.000000	3.634838
3267.000000	3.643004
3266.000000	3.648627
3265.000000	3.652822
3264.000000	3.658542
3263.000000	3.665950
3262.000000	3.673219
3261.000000	3.680598
3260.000000	3.689615
3259.000000	3.699285
3258.000000	3.707331
3257.000000	3.714607
3256.000000	3.724013
3255.000000	3.735801
3254.000000	3.747753
3253.000000	3.759347
3252.000000	3.771602
3251.000000	3.783600
3250.000000	3.793382
3249.000000	3.801838
3248.000000	3.811868
3247.000000	3.824095
3246.000000	3.837022
3245.000000	3.850512
3244.000000	3.865457
3243.000000	3.880684
3242.000000	3.894184
3241.000000	3.906596
3240.000000	3.919919
3239.000000	3.933512
3238.000000	3.945106
3237.000000	3.954814
3236.000000	3.964578
3235.000000	3.974668
3234.000000	3.984419
3233.000000	3.995322
3232.000000	4.009354
3231.000000	4.025074
3230.000000	4.039153
3229.000000	4.050999
3228.000000	4.062243
3227.000000	4.072878
3226.000000	4.081725
3225.000000	4.089795
3224.000000	4.099143
3223.000000	4.109163
3222.000000	4.117618
3221.000000	4.124587
3220.000000	4.131778
3219.000000	4.138872
3218.000000	4.144233
3217.000000	4.148348
3216.000000	4.152892
3215.000000	4.157345
3214.000000	4.159977
3213.000000	4.161326
3212.000000	4.163092
3211.000000	4.164658
3210.000000	4.164196
3209.000000	4.162160
3208.000000	4.160240
3207.000000	4.157969
3206.000000	4.153797
3205.000000	4.148471
3204.000000	4.143742
3203.000000	4.138947
3202.000000	4.132306
3201.000000	4.124448
3200.000000	4.117180
3199.000000	4.109894
3198.000000	4.100758
3197.000000	4.090246
3196.000000	4.080026
3195.000000	4.069572
3194.000000	4.057389
3193.000000	4.044318
3192.000000	4.032184
3191.000000	4.020274
3190.000000	4.006696
3189.000000	3.991933
3188.000000	3.977726
3187.000000	3.963702
3186.000000	3.948534
3185.000000	3.933146
3184.000000	3.919307
3183.000000	3.906345
3182.000000	3.892579
3181.000000	3.878586
3180.000000	3.865700
3179.000000	3.852823
3178.000000	3.838196
3177.000000	3.822944
3176.000000	3.809357
3175.000000	3.797100
3174.000000	3.784532
3173.000000	3.772232
3172.000000	3.761692
3171.000000	3.752040
3170.000000	3.741547
3169.000000	3.730978
3168.000000	3.722080
3167.000000	3.714189
3166.000000	3.705831
3165.000000	3.698059
3164.000000	3.692697
3163.000000	3.688820
3162.000000	3.684426
3161.000000	3.680169
3160.000000	3.677890
3159.000000	3.676945
3158.000000	3.675434
3157.000000	3.673577
3156.000000	3.672595
3155.000000	3.671876
3154.000000	3.670712
3153.000000	3.671297
3152.000000	3.676276
3151.000000	3.684764
3150.000000	3.694022
3149.000000	3.703567
3148.000000	3.714338
3147.000000	3.725545
3146.000000	3.735960
3145.000000	3.746787
3144.000000	3.759652
3143.000000	3.773289
3142.000000	3.785628
3141.000000	3.797868
3140.000000	3.813011
3139.000000	3.831601
3138.000000	3.852200
3137.000000	3.874517
3136.000000	3.898760
3135.000000	3.923365
3134.000000	3.946667
3133.000000	3.969788
3132.000000	3.994775
3131.000000	4.021348
3130.000000	4.048371
3129.000000	4.076718
3128.000000	4.107612
3127.000000	4.139687
3126.000000	4.170875
3125.000000	4.201607
3124.000000	4.233169
3123.000000	4.264784
3122.000000	4.295472
3121.000000	4.326979
3120.000000	4.361628
3119.000000	4.398829
3118.000000	4.437004
3117.000000	4.477137
3116.000000	4.521046
3115.000000	4.567740
3114.000000	4.614589
3113.000000	4.660737
3112.000000	4.706431
3111.000000	4.750920
3110.000000	4.794192
3109.000000	4.838961
3108.000000	4.887658
3107.000000	4.938943
3106.000000	4.990101
3105.000000	5.041122
3104.000000	5.093320
3103.000000	5.145995
3102.000000	5.197857
3101.000000	5.250103
3100.000000	5.304810
3099.000000	5.361523
3098.000000	5.418576
3097.000000	5.476224
3096.000000	5.535414
3095.000000	5.595051
3094.000000	5.653513
3093.000000	5.711503
3092.000000	5.770632
3091.000000	5.830684
3090.000000	5.890974
3089.000000	5.952559
3088.000000	6.016276
3087.000000	6.080402
3086.000000	6.143216
3085.000000	6.206212
3084.000000	6.271777
3083.000000	6.339324
3082.000000	6.406728
3081.000000	6.473905
3080.000000	6.542147
3079.000000	6.611481
3078.000000	6.681576
3077.000000	6.753640
3076.000000	6.828464
3075.000000	6.904150
3074.000000	6.978503
3073.000000	7.052033
3072.000000	7.126016
3071.000000	7.199473
3070.000000	7.271093
3069.000000	7.342459
3068.000000	7.416270
3067.000000	7.492788
3066.000000	7.570659
3065.000000	7.649721
3064.000000	7.730174
3063.000000	7.810647
3062.000000	7.889902
3061.000000	7.968979
3060.000000	8.049102
3059.000000	8.129141
3058.000000	8.207724
3057.000000	8.286139
3056.000000	8.366287
3055.000000	8.447409
3054.000000	8.527731
3053.000000	8.607759
3052.000000	8.689116
3051.000000	8.771534
3050.000000	8.853760
3049.000000	8.936066
3048.000000	9.019203
3047.000000	9.102219
3046.000000	9.183909
3045.000000	9.265098
3044.000000	9.347185
3043.000000	9.429919
3042.000000	9.512892
3041.000000	9.597439
3040.000000	9.684378
3039.000000	9.771518
3038.000000	9.856132
3037.000000	9.938547
3036.000000	10.020992
3035.000000	10.104383
3034.000000	10.188611
3033.000000	10.274275
3032.000000	10.361460
3031.000000	10.448221
3030.000000	10.532854
3029.000000	10.616272
3028.000000	10.700020
3027.000000	10.783667
3026.000000	10.866542
3025.000000	10.950127
3024.000000	11.035940
3023.000000	11.122636
3022.000000	11.207917
3021.000000	11.291845
3020.000000	11.375735
3019.000000	11.459254
3018.000000	11.541369
3017.000000	11.622837
3016.000000	11.705166
3015.000000	11.788290
3014.000000	11.871678
3013.000000	11.956444
3012.000000	12.043843
3011.000000	12.132847
3010.000000	12.221461
3009.000000	12.309325
3008.000000	12.396981
3007.000000	12.484025
3006.000000	12.570117
3005.000000	12.656413
3004.000000	12.743824
3003.000000	12.831118
3002.000000	12.916754
3001.000000	13.001220
3000.000000	13.085739
2999.000000	13.170256
2998.000000	13.254574
2997.000000	13.339733
2996.000000	13.426151
2995.000000	13.512249
2994.000000	13.597089
2993.000000	13.682539
2992.000000	13.770445
2991.000000	13.859487
2990.000000	13.947310
2989.000000	14.034091
2988.000000	14.121390
2987.000000	14.209067
2986.000000	14.295987
2985.000000	14.382375
2984.000000	14.468867
2983.000000	14.554540
2982.000000	14.638503
2981.000000	14.722249
2980.000000	14.807921
2979.000000	14.895244
2978.000000	14.982601
2977.000000	15.069992
2976.000000	15.158555
2975.000000	15.248175
2974.000000	15.337891
2973.000000	15.427645
2972.000000	15.517465
2971.000000	15.606047
2970.000000	15.692390
2969.000000	15.777865
2968.000000	15.864460
2967.000000	15.952073
2966.000000	16.039503
2965.000000	16.126829
2964.000000	16.214574
2963.000000	16.301844
2962.000000	16.387684
2961.000000	16.473016
2960.000000	16.558920
2959.000000	16.644374
2958.000000	16.727978
2957.000000	16.810571
2956.000000	16.893739
2955.000000	16.977170
2954.000000	17.059943
2953.000000	17.142934
2952.000000	17.227309
2951.000000	17.311791
2950.000000	17.394131
2949.000000	17.474314
2948.000000	17.554070
2947.000000	17.634277
2946.000000	17.715113
2945.000000	17.797595
2944.000000	17.882438
2943.000000	17.968172
2942.000000	18.052590
2941.000000	18.135380
2940.000000	18.217394
2939.000000	18.298502
2938.000000	18.378275
2937.000000	18.457728
2936.000000	18.538119
2935.000000	18.618857
2934.000000	18.698674
2933.000000	18.777770
2932.000000	18.856774
2931.000000	18.934842
2930.000000	19.011164
2929.000000	19.087233
2928.000000	19.165177
2927.000000	19.244773
2926.000000	19.324354
2925.000000	19.403467
2924.000000	19.482372
2923.000000	19.560116
2922.000000	19.635727
2921.000000	19.710324
2920.000000	19.785736
2919.000000	19.862007
2918.000000	19.938334
2917.000000	20.015200
2916.000000	20.093141
2915.000000	20.170361
2914.000000	20.243958
2913.000000	20.313004
2912.000000	20.378709
2911.000000	20.442506
2910.000000	20.505941
2909.000000	20.571355
2908.000000	20.640433
2907.000000	20.712329
2906.000000	20.784800
2905.000000	20.856495
2904.000000	20.926698
2903.000000	20.994106
2902.000000	21.057960
2901.000000	21.119595
2900.000000	21.181489
2899.000000	21.244748
2898.000000	21.309195
2897.000000	21.374548
2896.000000	21.439991
2895.000000	21.503636
2894.000000	21.564246
2893.000000	21.622734
2892.000000	21.680489
2891.000000	21.737359
2890.000000	21.792866
2889.000000	21.848156
2888.000000	21.904668
2887.000000	21.961746
2886.000000	22.017390
2885.000000	22.070623
2884.000000	22.121286
2883.000000	22.168508
2882.000000	22.211361
2881.000000	22.250489
2880.000000	22.287390
2879.000000	22.322717
2878.000000	22.356873
2877.000000	22.391220
2876.000000	22.426658
2875.000000	22.461612
2874.000000	22.493654
2873.000000	22.522858
2872.000000	22.552127
2871.000000	22.584740
2870.000000	22.623109
2869.000000	22.669150
2868.000000	22.723636
2867.000000	22.785320
2866.000000	22.852225
2865.000000	22.923541
2864.000000	22.999268
2863.000000	23.078821
2862.000000	23.161472
2861.000000	23.247339
2860.000000	23.336524
2859.000000	23.427904
2858.000000	23.520197
2857.000000	23.613287
2856.000000	23.707031
2855.000000	23.799818
2854.000000	23.889993
2853.000000	23.977909
2852.000000	24.065118
2851.000000	24.152286
2850.000000	24.239358
2849.000000	24.326661
2848.000000	24.414082
2847.000000	24.499961
2846.000000	24.582518
2845.000000	24.661833
2844.000000	24.739108
2843.000000	24.814785
2842.000000	24.888859
2841.000000	24.962142
2840.000000	25.035559
2839.000000	25.108861
2838.000000	25.181473
2837.000000	25.253845
2836.000000	25.326367
2835.000000	25.397742
2834.000000	25.466190
2833.000000	25.531857
2832.000000	25.596460
2831.000000	25.661138
2830.000000	25.726196
2829.000000	25.792295
2828.000000	25.860016
2827.000000	25.928407
2826.000000	25.995532
2825.000000	26.060363
2824.000000	26.123072
2823.000000	26.184000
2822.000000	26.243753
2821.000000	26.303803
2820.000000	26.365411
2819.000000	26.428143
2818.000000	26.490661
2817.000000	26.552518
2816.000000	26.613909
2815.000000	26.674302
2814.000000	26.732967
2813.000000	26.790566
2812.000000	26.848740
2811.000000	26.908358
2810.000000	26.969390
2809.000000	27.032017
2808.000000	27.096238
2807.000000	27.160711
2806.000000	27.223453
2805.000000	27.283742
2804.000000	27.342223
2803.000000	27.399616
2802.000000	27.456640
2801.000000	27.514742
2800.000000	27.575213
2799.000000	27.637597
2798.000000	27.700098
2797.000000	27.761350
2796.000000	27.820699
2795.000000	27.877375
2794.000000	27.931098
2793.000000	27.983370
2792.000000	28.036697
2791.000000	28.092400
2790.000000	28.150176
2789.000000	28.209343
2788.000000	28.269048
2787.000000	28.327537
2786.000000	28.382883
2785.000000	28.434718
2784.000000	28.484263
2783.000000	28.532857
2782.000000	28.581507
2781.000000	28.631488
2780.000000	28.683773
2779.000000	28.737734
2778.000000	28.791510
2777.000000	28.843609
2776.000000	28.893351
2775.000000	28.940257
2774.000000	28.984420
2773.000000	29.027403
2772.000000	29.071409
2771.000000	29.117529
2770.000000	29.165611
2769.000000	29.215323
2768.000000	29.266006
2767.000000	29.315897
2766.000000	29.363108
2765.000000	29.407502
2764.000000	29.450543
2763.000000	29.493547
2762.000000	29.537204
2761.000000	29.582337
2760.000000	29.629388
2759.000000	29.677127
2758.000000	29.723307
2757.000000	29.766784
2756.000000	29.808001
2755.000000	29.847697
2754.000000	29.886544
2753.000000	29.925903
2752.000000	29.967335
2751.000000	30.011044
2750.000000	30.055816
2749.000000	30.100407
2748.000000	30.143883
2747.000000	30.184930
2746.000000	30.222482
2745.000000	30.257310
2744.000000	30.291678
2743.000000	30.327267
2742.000000	30.364436
2741.000000	30.403278
2740.000000	30.443766
2739.000000	30.484616
2738.000000	30.523480
2737.000000	30.558859
2736.000000	30.591012
2735.000000	30.621041
2734.000000	30.650209
2733.000000	30.680226
2732.000000	30.712782
2731.000000	30.748181
2730.000000	30.785074
2729.000000	30.821545
2728.000000	30.855789
2727.000000	30.886204
2726.000000	30.912280
2725.000000	30.935644
2724.000000	30.959110
2723.000000	30.984521
2722.000000	31.012222
2721.000000	31.042091
2720.000000	31.073653
2719.000000	31.105195
2718.000000	31.134348
2717.000000	31.160031
2716.000000	31.183011
2715.000000	31.204687
2714.000000	31.226425
2713.000000	31.249820
2712.000000	31.276009
2711.000000	31.304247
2710.000000	31.332230
2709.000000	31.357959
2708.000000	31.380495
2707.000000	31.399316
2706.000000	31.414428
2705.000000	31.427340
2704.000000	31.440447
2703.000000	31.455001
2702.000000	31.470543
2701.000000	31.486089
2700.000000	31.500723
2699.000000	31.513019
2698.000000	31.521437
2697.000000	31.525884
2696.000000	31.527836
2695.000000	31.528831
2694.000000	31.529796
2693.000000	31.531653
2692.000000	31.535126
2691.000000	31.539472
2690.000000	31.542569
2689.000000	31.542597
2688.000000	31.538889
2687.000000	31.531519
2686.000000	31.521364
2685.000000	31.510646
2684.000000	31.501963
2683.000000	31.496217
2682.000000	31.492292
2681.000000	31.488582
2680.000000	31.483787
2679.000000	31.476540
2678.000000	31.465920
2677.000000	31.452831
2676.000000	31.439803
2675.000000	31.429192
2674.000000	31.422358
2673.000000	31.420307
2672.000000	31.423528
2671.000000	31.431135
2670.000000	31.441461
2669.000000	31.453800
2668.000000	31.468958
2667.000000	31.488043
2666.000000	31.512122
2665.000000	31.542926
2664.000000	31.582057
2663.000000	31.629358
2662.000000	31.682698
2661.000000	31.739629
2660.000000	31.798419
2659.000000	31.857485
2658.000000	31.915655
2657.000000	31.973246
2656.000000	32.031870
2655.000000	32.092845
2654.000000	32.156259
2653.000000	32.221497
2652.000000	32.287413
2651.000000	32.351922
2650.000000	32.412675
2649.000000	32.468657
2648.000000	32.520431
2647.000000	32.568967
2646.000000	32.615249
2645.000000	32.660725
2644.000000	32.706806
2643.000000	32.753317
2642.000000	32.798452
2641.000000	32.840354
2640.000000	32.877781
2639.000000	32.909837
2638.000000	32.936564
2637.000000	32.960079
2636.000000	32.983706
2635.000000	33.009266
2634.000000	33.036258
2633.000000	33.063461
2632.000000	33.089935
2631.000000	33.114372
2630.000000	33.135085
2629.000000	33.151585
2628.000000	33.165132
2627.000000	33.177361
2626.000000	33.189381
2625.000000	33.202217
2624.000000	33.216696
2623.000000	33.232222
2622.000000	33.246742
2621.000000	33.258560
2620.000000	33.267367
2619.000000	33.273565
2618.000000	33.277819
2617.000000	33.281558
2616.000000	33.286641
2615.000000	33.293855
2614.000000	33.302492
2613.000000	33.311358
2612.000000	33.319068
2611.000000	33.323587
2610.000000	33.322990
2609.000000	33.317242
2608.000000	33.308148
2607.000000	33.297199
2606.000000	33.284747
2605.000000	33.270895
2604.000000	33.255546
2603.000000	33.237270
2602.000000	33.213588
2601.000000	33.183448
2600.000000	33.148208
2599.000000	33.110139
2598.000000	33.071481
2597.000000	33.035118
2596.000000	33.004361
2595.000000	32.981101
2594.000000	32.965219
2593.000000	32.956114
2592.000000	32.953954
2591.000000	32.958953
2590.000000	32.971292
2589.000000	32.992548
2588.000000	33.025294
2587.000000	33.071191
2586.000000	33.129534
2585.000000	33.198203
2584.000000	33.274974
2583.000000	33.356961
2582.000000	33.440958
2581.000000	33.524904
2580.000000	33.608699
2579.000000	33.693428
2578.000000	33.780249
2577.000000	33.870522
2576.000000	33.965271
2575.000000	34.063768
2574.000000	34.163504
2573.000000	34.262050
2572.000000	34.358277
2571.000000	34.451683
2570.000000	34.542001
2569.000000	34.630225
2568.000000	34.718753
2567.000000	34.809517
2566.000000	34.902539
2565.000000	34.996675
2564.000000	35.090455
2563.000000	35.181827
2562.000000	35.268497
2561.000000	35.349834
2560.000000	35.427735
2559.000000	35.504692
2558.000000	35.581951
2557.000000	35.659923
2556.000000	35.738908
2555.000000	35.818284
2554.000000	35.895791
2553.000000	35.969089
2552.000000	36.037530
2551.000000	36.101822
2550.000000	36.163135
2549.000000	36.223182
2548.000000	36.284093
2547.000000	36.346742
2546.000000	36.409580
2545.000000	36.470124
2544.000000	36.526575
2543.000000	36.577740
2542.000000	36.622660
2541.000000	36.661555
2540.000000	36.696556
2539.000000	36.729944
2538.000000	36.762361
2537.000000	36.793106
2536.000000	36.820684
2535.000000	36.842448
2534.000000	36.854417
2533.000000	36.853369
2532.000000	36.838963
2531.000000	36.812870
2530.000000	36.777579
2529.000000	36.736230
2528.000000	36.692440
2527.000000	36.648794
2526.000000	36.605659
2525.000000	36.562877
2524.000000	36.521554
2523.000000	36.483833
2522.000000	36.452018
2521.000000	36.429293
2520.000000	36.419715
2519.000000	36.426489
2518.000000	36.450614
2517.000000	36.490969
2516.000000	36.545490
2515.000000	36.610493
2514.000000	36.680989
2513.000000	36.753224
2512.000000	36.826017
2511.000000	36.899918
2510.000000	36.975399
2509.000000	37.052964
2508.000000	37.133496
2507.000000	37.216689
2506.000000	37.300029
2505.000000	37.380339
2504.000000	37.455837
2503.000000	37.525937
2502.000000	37.590464
2501.000000	37.650328
2500.000000	37.708059
2499.000000	37.766086
2498.000000	37.824646
2497.000000	37.882538
2496.000000	37.938602
2495.000000	37.991530
2494.000000	38.039466
2493.000000	38.081444
2492.000000	38.119048
2491.000000	38.155138
2490.000000	38.191576
2489.000000	38.229039
2488.000000	38.267706
2487.000000	38.306771
2486.000000	38.343850
2485.000000	38.376495
2484.000000	38.404148
2483.000000	38.427693
2482.000000	38.448335
2481.000000	38.468065
2480.000000	38.490001
2479.000000	38.516400
2478.000000	38.546450
2477.000000	38.577201
2476.000000	38.605904
2475.000000	38.630654
2474.000000	38.650135
2473.000000	38.664596
2472.000000	38.676740
2471.000000	38.690096
2470.000000	38.706724
2469.000000	38.727112
2468.000000	38.750998
2467.000000	38.776826
2466.000000	38.801314
2465.000000	38.821352
2464.000000	38.836263
2463.000000	38.847447
2462.000000	38.856804
2461.000000	38.866629
2460.000000	38.879779
2459.000000	38.897982
2458.000000	38.920203
2457.000000	38.943698
2456.000000	38.966207
2455.000000	38.986284
2454.000000	39.002735
2453.000000	39.015443
2452.000000	39.026226
2451.000000	39.037603
2450.000000	39.051100
2449.000000	39.067402
2448.000000	39.086873
2447.000000	39.108564
2446.000000	39.129730
2445.000000	39.147895
2444.000000	39.162937
2443.000000	39.176313
2442.000000	39.189317
2441.000000	39.203191
2440.000000	39.219651
2439.000000	39.239470
2438.000000	39.261176
2437.000000	39.282438
2436.000000	39.302093
2435.000000	39.319820
2434.000000	39.335159
2433.000000	39.348394
2432.000000	39.361538
2431.000000	39.376846
2430.000000	39.394880
2429.000000	39.415018
2428.000000	39.436800
2427.000000	39.459480
2426.000000	39.481330
2425.000000	39.501032
2424.000000	39.519139
2423.000000	39.537128
2422.000000	39.556007
2421.000000	39.576818
2420.000000	39.601146
2419.000000	39.629328
2418.000000	39.658997
2417.000000	39.686774
2416.000000	39.710768
2415.000000	39.730616
2414.000000	39.746687
2413.000000	39.760823
2412.000000	39.776618
2411.000000	39.796991
2410.000000	39.822044
2409.000000	39.850187
2408.000000	39.880022
2407.000000	39.909791
2406.000000	39.936617
2405.000000	39.958470
2404.000000	39.976316
2403.000000	39.992960
2402.000000	40.010825
2401.000000	40.031955
2400.000000	40.058442
2399.000000	40.090653
2398.000000	40.125876
2397.000000	40.160420
2396.000000	40.192387
2395.000000	40.221408
2394.000000	40.247401
2393.000000	40.271464
2392.000000	40.296687
2391.000000	40.326008
2390.000000	40.359864
2389.000000	40.396928
2388.000000	40.436018
2387.000000	40.475418
2386.000000	40.512214
2385.000000	40.544778
2384.000000	40.574375
2383.000000	40.603885
2382.000000	40.635081
2381.000000	40.669302
2380.000000	40.709166
2379.000000	40.756070
2378.000000	40.808451
2377.000000	40.863571
2376.000000	40.920526
2375.000000	40.979255
2374.000000	41.039079
2373.000000	41.099740
2372.000000	41.163268
2371.000000	41.231257
2370.000000	41.301423
2369.000000	41.370583
2368.000000	41.438488
2367.000000	41.505018
2366.000000	41.566893
2365.000000	41.621882
2364.000000	41.675694
2363.000000	41.730820
2362.000000	41.785335
2361.000000	41.841926
2360.000000	41.902291
2359.000000	41.968656
2358.000000	42.035961
2357.000000	42.095361
2356.000000	42.148887
2355.000000	42.194412
2354.000000	42.235803
2353.000000	42.279317
2352.000000	42.341896
2351.000000	42.430376
2350.000000	42.521571
2349.000000	42.593946
2348.000000	42.643076
2347.000000	42.690863
2346.000000	42.757954
2345.000000	42.835839
2344.000000	42.910951
2343.000000	42.966302
2342.000000	43.012794
2341.000000	43.059478
2340.000000	43.109178
2339.000000	43.162543
2338.000000	43.217936
2337.000000	43.280020
2336.000000	43.348760
2335.000000	43.426229
2334.000000	43.503539
2333.000000	43.579116
2332.000000	43.648629
2331.000000	43.725476
2330.000000	43.802357
2329.000000	43.886086
2328.000000	43.963720
2327.000000	44.036873
2326.000000	44.099549
2325.000000	44.152353
2324.000000	44.203112
2323.000000	44.255942
2322.000000	44.315232
2321.000000	44.379126
2320.000000	44.447649
2319.000000	44.523371
2318.000000	44.599187
2317.000000	44.672448
2316.000000	44.734323
2315.000000	44.792593
2314.000000	44.845493
2313.000000	44.902664
2312.000000	44.962033
2311.000000	45.032089
2310.000000	45.106748
2309.000000	45.186177
2308.000000	45.262451
2307.000000	45.337207
2306.000000	45.405523
2305.000000	45.469147
2304.000000	45.528234
2303.000000	45.590572
2302.000000	45.656994
2301.000000	45.730263
2300.000000	45.806794
2299.000000	45.886978
2298.000000	45.963613
2297.000000	46.033668
2296.000000	46.094298
2295.000000	46.150518
2294.000000	46.204913
2293.000000	46.261082
2292.000000	46.321956
2291.000000	46.390416
2290.000000	46.464319
2289.000000	46.537624
2288.000000	46.605887
2287.000000	46.667232
2286.000000	46.721257
2285.000000	46.767986
2284.000000	46.811926
2283.000000	46.859429
2282.000000	46.914822
2281.000000	46.977631
2280.000000	47.045562
2279.000000	47.114680
2278.000000	47.178856
2277.000000	47.232620
2276.000000	47.275624
2275.000000	47.312887
2274.000000	47.349413
2273.000000	47.389275
2272.000000	47.436336
2271.000000	47.492866
2270.000000	47.555392
2269.000000	47.616420
2268.000000	47.670073
2267.000000	47.714320
2266.000000	47.748642
2265.000000	47.774802
2264.000000	47.798853
2263.000000	47.828685
2262.000000	47.867913
2261.000000	47.914387
2260.000000	47.964475
2259.000000	48.013716
2258.000000	48.055977
2257.000000	48.085524
2256.000000	48.102504
2255.000000	48.112827
2254.000000	48.122745
2253.000000	48.136915
2252.000000	48.158911
2251.000000	48.190067
2250.000000	48.225436
2249.000000	48.256469
2248.000000	48.276595
2247.000000	48.284329
2246.000000	48.280453
2245.000000	48.268099
2244.000000	48.254327
2243.000000	48.247041
2242.000000	48.248916
2241.000000	48.256731
2240.000000	48.265543
2239.000000	48.270207
2238.000000	48.264514
2237.000000	48.244194
2236.000000	48.211848
2235.000000	48.175337
2234.000000	48.141395
2233.000000	48.113402
2232.000000	48.093303
2231.000000	48.080682
2230.000000	48.069798
2229.000000	48.052224
2228.000000	48.023312
2227.000000	47.983835
2226.000000	47.936752
2225.000000	47.886606
2224.000000	47.840868
2223.000000	47.806492
2222.000000	47.783892
2221.000000	47.767182
2220.000000	47.749827
2219.000000	47.727063
2218.000000	47.694662
2217.000000	47.651025
2216.000000	47.601277
2215.000000	47.555220
2214.000000	47.520372
2213.000000	47.499075
2212.000000	47.490528
2211.000000	47.490890
2210.000000	47.491780
2209.000000	47.483783
2208.000000	47.463095
2207.000000	47.432870
2206.000000	47.399182
2205.000000	47.369202
2204.000000	47.351502
2203.000000	47.352223
2202.000000	47.369374
2201.000000	47.393693
2200.000000	47.415341
2199.000000	47.427602
2198.000000	47.426534
2197.000000	47.412691
2196.000000	47.393895
2195.000000	47.381792
2194.000000	47.384311
2193.000000	47.402903
2192.000000	47.435031
2191.000000	47.474696
2190.000000	47.511560
2189.000000	47.535143
2188.000000	47.541928
2187.000000	47.536220
2186.000000	47.525116
2185.000000	47.516070
2184.000000	47.517164
2183.000000	47.533538
2182.000000	47.562096
2181.000000	47.593057
2180.000000	47.617105
2179.000000	47.628834
2178.000000	47.625699
2177.000000	47.609278
2176.000000	47.587796
2175.000000	47.572363
2174.000000	47.569258
2173.000000	47.577894
2172.000000	47.594522
2171.000000	47.613511
2170.000000	47.626452
2169.000000	47.626036
2168.000000	47.612588
2167.000000	47.593533
2166.000000	47.576757
2165.000000	47.567546
2164.000000	47.569886
2163.000000	47.584666
2162.000000	47.605996
2161.000000	47.623767
2160.000000	47.631058
2159.000000	47.626706
2158.000000	47.612575
2157.000000	47.593333
2156.000000	47.578151
2155.000000	47.576564
2154.000000	47.590925
2153.000000	47.615411
2152.000000	47.641760
2151.000000	47.662294
2150.000000	47.669475
2149.000000	47.658983
2148.000000	47.635055
2147.000000	47.608758
2146.000000	47.590381
2145.000000	47.585706
2144.000000	47.597081
2143.000000	47.621731
2142.000000	47.649212
2141.000000	47.665896
2140.000000	47.664140
2139.000000	47.644828
2138.000000	47.613245
2137.000000	47.577501
2136.000000	47.549511
2135.000000	47.540311
2134.000000	47.551962
2133.000000	47.576804
2132.000000	47.604066
2131.000000	47.624128
2130.000000	47.628758
2129.000000	47.614312
2128.000000	47.586652
2127.000000	47.558553
2126.000000	47.541085
2125.000000	47.539615
2124.000000	47.555679
2123.000000	47.586211
2122.000000	47.621104
2121.000000	47.647590
2120.000000	47.659347
2119.000000	47.658679
2118.000000	47.651235
2117.000000	47.643460
2116.000000	47.644088
2115.000000	47.661186
2114.000000	47.695577
2113.000000	47.740293
2112.000000	47.786942
2111.000000	47.829234
2110.000000	47.862305
2109.000000	47.884990
2108.000000	47.903932
2107.000000	47.930509
2106.000000	47.972332
2105.000000	48.030152
2104.000000	48.101434
2103.000000	48.181281
2102.000000	48.260554
2101.000000	48.329813
2100.000000	48.387163
2099.000000	48.439209
2098.000000	48.494297
2097.000000	48.558612
2096.000000	48.637854
2095.000000	48.735001
2094.000000	48.844744
2093.000000	48.954507
2092.000000	49.052802
2091.000000	49.133838
2090.000000	49.196426
2089.000000	49.244735
2088.000000	49.290339
2087.000000	49.346672
2086.000000	49.419282
2085.000000	49.503967
2084.000000	49.592576
2083.000000	49.675949
2082.000000	49.742668
2081.000000	49.783488
2080.000000	49.799303
2079.000000	49.800931
2078.000000	49.800463
2077.000000	49.806421
2076.000000	49.825289
2075.000000	49.858728
2074.000000	49.898783
2073.000000	49.931294
2072.000000	49.945803
2071.000000	49.940081
2070.000000	49.917410
2069.000000	49.885311
2068.000000	49.855526
2067.000000	49.838416
2066.000000	49.836216
2065.000000	49.844974
2064.000000	49.860854
2063.000000	49.879758
2062.000000	49.893677
2061.000000	49.895155
2060.000000	49.886107
2059.000000	49.876818
2058.000000	49.876535
2057.000000	49.890140
2056.000000	49.921688
2055.000000	49.972422
2054.000000	50.035483
2053.000000	50.099270
2052.000000	50.156905
2051.000000	50.209001
2050.000000	50.258686
2049.000000	50.310064
2048.000000	50.371000
2047.000000	50.450352
2046.000000	50.550214
2045.000000	50.664362
2044.000000	50.784304
2043.000000	50.902517
2042.000000	51.011963
2041.000000	51.110369
2040.000000	51.205647
2039.000000	51.311052
2038.000000	51.434324
2037.000000	51.575278
2036.000000	51.731633
2035.000000	51.899530
2034.000000	52.069010
2033.000000	52.228059
2032.000000	52.373308
2031.000000	52.510797
2030.000000	52.647638
2029.000000	52.788832
2028.000000	52.941870
2027.000000	53.113591
2026.000000	53.300895
2025.000000	53.491624
2024.000000	53.674768
2023.000000	53.846067
2022.000000	54.004136
2021.000000	54.149795
2020.000000	54.289822
2019.000000	54.433324
2018.000000	54.583482
2017.000000	54.738426
2016.000000	54.898095
2015.000000	55.062368
2014.000000	55.223926
2013.000000	55.371554
2012.000000	55.502157
2011.000000	55.621836
2010.000000	55.736015
2009.000000	55.847107
2008.000000	55.961948
2007.000000	56.089223
2006.000000	56.227789
2005.000000	56.367328
2004.000000	56.499303
2003.000000	56.622134
2002.000000	56.732980
2001.000000	56.829057
2000.000000	56.916621
1999.000000	57.006294
1998.000000	57.102540
1997.000000	57.204848
1996.000000	57.316482
1995.000000	57.439979
1994.000000	57.565578
1993.000000	57.676840
1992.000000	57.769255
1991.000000	57.849953
1990.000000	57.922667
1989.000000	57.987459
1988.000000	58.051617
1987.000000	58.126204
1986.000000	58.210319
1985.000000	58.291885
1984.000000	58.363850
1983.000000	58.429591
1982.000000	58.490731
1981.000000	58.546230
1980.000000	58.602607
1979.000000	58.669976
1978.000000	58.749068
1977.000000	58.831075
1976.000000	58.910736
1975.000000	58.987151
1974.000000	59.054461
1973.000000	59.105649
1972.000000	59.147076
1971.000000	59.196294
1970.000000	59.262712
1969.000000	59.339251
1968.000000	59.415063
1967.000000	59.486378
1966.000000	59.550557
1965.000000	59.602667
1964.000000	59.643686
1963.000000	59.679777
1962.000000	59.712149
1961.000000	59.739128
1960.000000	59.767072
1959.000000	59.807971
1958.000000	59.864695
1957.000000	59.928092
1956.000000	59.990667
1955.000000	60.050311
1954.000000	60.103012
1953.000000	60.142082
1952.000000	60.168426
1951.000000	60.193450
1950.000000	60.224192
1949.000000	60.258439
1948.000000	60.295779
1947.000000	60.341665
1946.000000	60.398920
1945.000000	60.463092
1944.000000	60.526503
1943.000000	60.581745
1942.000000	60.619806
1941.000000	60.633813
1940.000000	60.631665
1939.000000	60.632390
1938.000000	60.646686
1937.000000	60.671696
1936.000000	60.702957
1935.000000	60.737839
1934.000000	60.770856
1933.000000	60.794337
1932.000000	60.808980
1931.000000	60.825780
1930.000000	60.845356
1929.000000	60.860922
1928.000000	60.874345
1927.000000	60.900042
1926.000000	60.947000
1925.000000	60.998911
1924.000000	61.030295
1923.000000	61.031873
1922.000000	61.011336
1921.000000	60.984050
1920.000000	60.972399
1919.000000	60.993327
1918.000000	61.036587
1917.000000	61.068934
1916.000000	61.072086
1915.000000	61.055117
1914.000000	61.034847
1913.000000	61.021731
1912.000000	61.020459
1911.000000	61.029772
1910.000000	61.036023
1909.000000	61.028428
1908.000000	61.010973
1907.000000	60.996009
1906.000000	60.987975
1905.000000	60.976916
1904.000000	60.959794
1903.000000	60.943570
1902.000000	60.927641
1901.000000	60.907533
1900.000000	60.890495
1899.000000	60.892748
1898.000000	60.919975
1897.000000	60.957591
1896.000000	60.989579
1895.000000	61.009932
1894.000000	61.014836
1893.000000	61.005470
1892.000000	60.999481
1891.000000	61.014864
1890.000000	61.047532
1889.000000	61.078439
1888.000000	61.098506
1887.000000	61.114917
1886.000000	61.132571
1885.000000	61.146910
1884.000000	61.158229
1883.000000	61.172996
1882.000000	61.186398
1881.000000	61.187788
1880.000000	61.180328
1879.000000	61.177085
1878.000000	61.183197
1877.000000	61.192008
1876.000000	61.199702
1875.000000	61.207871
1874.000000	61.208817
1873.000000	61.192748
1872.000000	61.176724
1871.000000	61.200220
1870.000000	61.270753
1869.000000	61.343846
1868.000000	61.377933
1867.000000	61.369701
1866.000000	61.331943
1865.000000	61.279059
1864.000000	61.230717
1863.000000	61.201981
1862.000000	61.186753
1861.000000	61.167793
1860.000000	61.142479
1859.000000	61.121708
1858.000000	61.106681
1857.000000	61.088561
1856.000000	61.066810
1855.000000	61.050427
1854.000000	61.033859
1853.000000	61.007096
1852.000000	60.980255
1851.000000	60.965183
1850.000000	60.955040
1849.000000	60.932200
1848.000000	60.898152
1847.000000	60.871234
1846.000000	60.870373
1845.000000	60.896159
1844.000000	60.914249
1843.000000	60.888785
1842.000000	60.818216
1841.000000	60.725191
1840.000000	60.639387
1839.000000	60.585818
1838.000000	60.560340
1837.000000	60.532180
1836.000000	60.481333
1835.000000	60.406170
1834.000000	60.305196
1833.000000	60.194472
1832.000000	60.119224
1831.000000	60.101132
1830.000000	60.107028
1829.000000	60.085580
1828.000000	60.027427
1827.000000	59.966867
1826.000000	59.928494
1825.000000	59.898444
1824.000000	59.849375
1823.000000	59.771923
1822.000000	59.673466
1821.000000	59.569929
1820.000000	59.479907
1819.000000	59.413947
1818.000000	59.362840
1817.000000	59.304950
1816.000000	59.237732
1815.000000	59.173156
1814.000000	59.113358
1813.000000	59.050324
1812.000000	58.981914
1811.000000	58.921842
1810.000000	58.869247
1809.000000	58.800850
1808.000000	58.710651
1807.000000	58.619151
1806.000000	58.539852
1805.000000	58.462677
1804.000000	58.382825
1803.000000	58.307744
1802.000000	58.241749
1801.000000	58.188353
1800.000000	58.152362
1799.000000	58.130594
1798.000000	58.094191
1797.000000	58.014348
1796.000000	57.900425
1795.000000	57.792426
1794.000000	57.727846
1793.000000	57.701775
1792.000000	57.671060
1791.000000	57.613709
1790.000000	57.529507
1789.000000	57.424147
1788.000000	57.318624
1787.000000	57.239576
1786.000000	57.183772
1785.000000	57.118900
1784.000000	57.043096
1783.000000	56.982247
1782.000000	56.937217
1781.000000	56.888870
1780.000000	56.825049
1779.000000	56.754116
1778.000000	56.683640
1777.000000	56.623876
1776.000000	56.581896
1775.000000	56.541179
1774.000000	56.481875
1773.000000	56.402944
1772.000000	56.318163
1771.000000	56.250366
1770.000000	56.193866
1769.000000	56.106737
1768.000000	55.976110
1767.000000	55.832961
1766.000000	55.698630
1765.000000	55.568760
1764.000000	55.454544
1763.000000	55.386426
1762.000000	55.356293
1761.000000	55.312816
1760.000000	55.233082
1759.000000	55.144378
1758.000000	55.055949
1757.000000	54.963348
1756.000000	54.880972
1755.000000	54.831894
1754.000000	54.799596
1753.000000	54.743481
1752.000000	54.664191
1751.000000	54.591814
1750.000000	54.526287
1749.000000	54.434106
1748.000000	54.308973
1747.000000	54.165540
1746.000000	54.006155
1745.000000	53.816231
1744.000000	53.591480
1743.000000	53.367169
1742.000000	53.187581
1741.000000	53.058615
1740.000000	52.947745
1739.000000	52.844378
1738.000000	52.770072
1737.000000	52.709444
1736.000000	52.643071
1735.000000	52.583061
1734.000000	52.447190
1733.000000	52.152324
1732.000000	51.792991
1731.000000	51.486225
1730.000000	51.226632
1729.000000	50.967305
1728.000000	50.702258
1727.000000	50.448958
1726.000000	50.211606
1725.000000	49.969166
1724.000000	49.694714
1723.000000	49.402884
1722.000000	49.146077
1721.000000	48.974907
1720.000000	48.905273
1719.000000	48.874754
1718.000000	48.736919
1717.000000	48.396206
1716.000000	47.934076
1715.000000	47.502244
1714.000000	47.142340
1713.000000	46.803570
1712.000000	46.458438
1711.000000	46.115355
1710.000000	45.764339
1709.000000	45.397017
1708.000000	45.046082
1707.000000	44.736168
1706.000000	44.434357
1705.000000	44.104174
1704.000000	43.764559
1703.000000	43.403479
1702.000000	43.051628
1701.000000	42.814410
1700.000000	42.651933
1699.000000	42.512568
1698.000000	42.346301
1697.000000	42.001268
1696.000000	41.453083
1695.000000	40.849322
1694.000000	40.333913
1693.000000	39.940011
1692.000000	39.599873
1691.000000	39.263456
1690.000000	38.931230
1689.000000	38.633278
1688.000000	38.375420
1687.000000	38.094323
1686.000000	37.738066
1685.000000	37.285656
1684.000000	36.763756
1683.000000	36.287694
1682.000000	35.891434
1681.000000	35.493068
1680.000000	35.037059
1679.000000	34.564466
1678.000000	34.116250
1677.000000	33.690151
1676.000000	33.284832
1675.000000	32.900800
1674.000000	32.533521
1673.000000	32.180609
1672.000000	31.837340
1671.000000	31.505014
1670.000000	31.162560
1669.000000	30.773779
1668.000000	30.351040
1667.000000	29.945020
1666.000000	29.573355
1665.000000	29.220033
1664.000000	28.881310
1663.000000	28.561963
1662.000000	28.245542
1661.000000	27.911338
1660.000000	27.557567
1659.000000	27.204322
1658.000000	26.892380
1657.000000	26.652382
1656.000000	26.467698
1655.000000	26.304790
1654.000000	26.121952
1653.000000	25.781153
1652.000000	25.257476
1651.000000	24.774615
1650.000000	24.461035
1649.000000	24.245659
1648.000000	24.026810
1647.000000	23.768251
1646.000000	23.482919
1645.000000	23.171898
1644.000000	22.868880
1643.000000	22.606143
1642.000000	22.360415
1641.000000	22.100731
1640.000000	21.843506
1639.000000	21.626029
1638.000000	21.443526
1637.000000	21.254337
1636.000000	21.046089
1635.000000	20.840374
1634.000000	20.645219
1633.000000	20.451006
1632.000000	20.251803
1631.000000	20.057121
1630.000000	19.879614
1629.000000	19.712943
1628.000000	19.551182
1627.000000	19.407485
1626.000000	19.290781
1625.000000	19.195937
1624.000000	19.115318
1623.000000	19.041590
1622.000000	18.963991
1621.000000	18.885997
1620.000000	18.827030
1619.000000	18.793261
1618.000000	18.766953
1617.000000	18.715829
1616.000000	18.630568
1615.000000	18.548173
1614.000000	18.497859
1613.000000	18.465956
1612.000000	18.438604
1611.000000	18.425386
1610.000000	18.428601
1609.000000	18.431905
1608.000000	18.432323
1607.000000	18.448373
1606.000000	18.485135
1605.000000	18.529387
1604.000000	18.572499
1603.000000	18.617378
1602.000000	18.661506
1601.000000	18.694987
1600.000000	18.721825
1599.000000	18.760096
1598.000000	18.817864
1597.000000	18.885904
1596.000000	18.956883
1595.000000	19.032667
1594.000000	19.107732
1593.000000	19.167897
1592.000000	19.211448
1591.000000	19.252197
1590.000000	19.298108
1589.000000	19.346123
1588.000000	19.398791
1587.000000	19.466920
1586.000000	19.547486
1585.000000	19.622463
1584.000000	19.685007
1583.000000	19.737055
1582.000000	19.778932
1581.000000	19.820235
1580.000000	19.889494
1579.000000	20.001626
1578.000000	20.133888
1577.000000	20.245501
1576.000000	20.305291
1575.000000	20.307446
1574.000000	20.280567
1573.000000	20.252957
1572.000000	20.238432
1571.000000	20.265688
1570.000000	20.341427
1569.000000	20.425713
1568.000000	20.488982
1567.000000	20.544919
1566.000000	20.616906
1565.000000	20.705847
1564.000000	20.802048
1563.000000	20.882074
1562.000000	20.900734
1561.000000	20.907929
1560.000000	21.028315
1559.000000	21.228382
1558.000000	21.395627
1557.000000	21.477905
1556.000000	21.540715
1555.000000	21.614526
1554.000000	21.692037
1553.000000	21.764807
1552.000000	21.841578
1551.000000	21.936893
1550.000000	22.053027
1549.000000	22.177248
1548.000000	22.304129
1547.000000	22.453600
1546.000000	22.646048
1545.000000	22.865480
1544.000000	23.082923
1543.000000	23.313990
1542.000000	23.610305
1541.000000	23.966214
1540.000000	24.313783
1539.000000	24.568928
1538.000000	24.701445
1537.000000	24.793031
1536.000000	24.928835
1535.000000	25.166380
1534.000000	25.514955
1533.000000	25.895547
1532.000000	26.215459
1531.000000	26.476493
1530.000000	26.744741
1529.000000	27.070541
1528.000000	27.456848
1527.000000	27.878833
1526.000000	28.303873
1525.000000	28.708652
1524.000000	29.101374
1523.000000	29.510433
1522.000000	29.932770
1521.000000	30.305230
1520.000000	30.590183
1519.000000	30.868444
1518.000000	31.221972
1517.000000	31.619683
1516.000000	31.975568
1515.000000	32.244784
1514.000000	32.442779
1513.000000	32.602942
1512.000000	32.755859
1511.000000	32.940930
1510.000000	33.187066
1509.000000	33.492618
1508.000000	33.805437
1507.000000	34.132421
1506.000000	34.472299
1505.000000	34.679062
1504.000000	34.807866
1503.000000	34.989363
1502.000000	35.266024
1501.000000	35.652948
1500.000000	36.187172
1499.000000	36.886990
1498.000000	37.706143
1497.000000	38.532545
1496.000000	39.242557
1495.000000	39.790896
1494.000000	40.223303
1493.000000	40.619010
1492.000000	41.072478
1491.000000	41.646400
1490.000000	42.279984
1489.000000	42.849368
1488.000000	43.311503
1487.000000	43.712787
1486.000000	44.064489
1485.000000	44.329124
1484.000000	44.520008
1483.000000	44.687098
1482.000000	44.838209
1481.000000	44.922691
1480.000000	44.922816
1479.000000	44.875997
1478.000000	44.800632
1477.000000	44.656975
1476.000000	44.403601
1475.000000	44.024714
1474.000000	43.441505
1473.000000	42.538112
1472.000000	41.366337
1471.000000	40.126343
1470.000000	38.885319
1469.000000	37.568080
1468.000000	36.118499
1467.000000	34.510912
1466.000000	32.645943
1465.000000	30.449118
1464.000000	28.084497
1463.000000	25.825554
1462.000000	23.757256
1461.000000	21.823168
1460.000000	19.987321
1459.000000	18.183152
1458.000000	16.241022
1457.000000	14.152227
1456.000000	12.343223
1455.000000	11.124796
1454.000000	10.339557
1453.000000	9.769731
1452.000000	9.377402
1451.000000	9.201290
1450.000000	9.227075
1449.000000	9.424244
1448.000000	9.802412
1447.000000	10.339723
1446.000000	10.945361
1445.000000	11.568537
1444.000000	12.237852
1443.000000	12.974715
1442.000000	13.738837
1441.000000	14.484023
1440.000000	15.213510
1439.000000	15.972485
1438.000000	16.836503
1437.000000	17.855175
1436.000000	18.938136
1435.000000	19.917431
1434.000000	20.759116
1433.000000	21.557656
1432.000000	22.406845
1431.000000	23.322901
1430.000000	24.249506
1429.000000	25.117945
1428.000000	25.884701
1427.000000	26.543392
1426.000000	27.122738
1425.000000	27.662292
1424.000000	28.168618
1423.000000	28.620044
1422.000000	29.022534
1421.000000	29.447008
1420.000000	29.979718
1419.000000	30.587791
1418.000000	31.148993
1417.000000	31.621488
1416.000000	32.050544
1415.000000	32.481974
1414.000000	32.946160
1413.000000	33.466124
1412.000000	34.043203
1411.000000	34.653847
1410.000000	35.275829
1409.000000	35.900026
1408.000000	36.517474
1407.000000	37.120807
1406.000000	37.710774
1405.000000	38.288548
1404.000000	38.827775
1403.000000	39.298283
1402.000000	39.732364
1401.000000	40.214264
1400.000000	40.783941
1399.000000	41.376450
1398.000000	41.904212
1397.000000	42.351126
1396.000000	42.745150
1395.000000	43.101250
1394.000000	43.418272
1393.000000	43.698284
1392.000000	43.947426
1391.000000	44.174441
1390.000000	44.390221
1389.000000	44.581359
1388.000000	44.674089
1387.000000	44.594505
1386.000000	44.394018
1385.000000	44.231880
1384.000000	44.233026
1383.000000	44.422771
1382.000000	44.748392
1381.000000	45.112553
1380.000000	45.413040
1379.000000	45.588368
1378.000000	45.647952
1377.000000	45.647644
1376.000000	45.629438
1375.000000	45.599586
1374.000000	45.566388
1373.000000	45.555878
1372.000000	45.574722
1371.000000	45.610843
1370.000000	45.649576
1369.000000	45.667191
1368.000000	45.623418
1367.000000	45.492024
1366.000000	45.290726
1365.000000	45.052230
1364.000000	44.770549
1363.000000	44.411651
1362.000000	43.980545
1361.000000	43.517956
1360.000000	43.045415
1359.000000	42.568951
1358.000000	42.112133
1357.000000	41.716489
1356.000000	41.420856
1355.000000	41.258446
1354.000000	41.257649
1353.000000	41.419546
1352.000000	41.694686
1351.000000	42.000025
1350.000000	42.243575
1349.000000	42.339317
1348.000000	42.212186
1347.000000	41.817271
1346.000000	41.149941
1345.000000	40.236385
1344.000000	39.121554
1343.000000	37.853413
1342.000000	36.457930
1341.000000	34.915798
1340.000000	33.191614
1339.000000	31.304208
1338.000000	29.322693
1337.000000	27.297020
1336.000000	25.239266
1335.000000	23.164098
1334.000000	21.107210
1333.000000	19.104070
1332.000000	17.184862
1331.000000	15.390679
1330.000000	13.766122
1329.000000	12.331524
1328.000000	11.085807
1327.000000	10.023692
1326.000000	9.128765
1325.000000	8.368199
1324.000000	7.709133
1323.000000	7.138947
1322.000000	6.651721
1321.000000	6.230386
1320.000000	5.864447
1319.000000	5.566964
1318.000000	5.361795
1317.000000	5.262577
1316.000000	5.275554
1315.000000	5.410692
1314.000000	5.667043
1313.000000	6.023437
1312.000000	6.455443
1311.000000	6.948553
1310.000000	7.491239
1309.000000	8.063915
1308.000000	8.647628
1307.000000	9.233588
1306.000000	9.815303
1305.000000	10.383223
1304.000000	10.932996
1303.000000	11.471618
1302.000000	12.009493
1301.000000	12.552779
1300.000000	13.106750
1299.000000	13.677318
1298.000000	14.263081
1297.000000	14.853261
1296.000000	15.440126
1295.000000	16.030158
1294.000000	16.638711
1293.000000	17.278791
1292.000000	17.958055
1291.000000	18.679125
1290.000000	19.438165
1289.000000	20.224253
1288.000000	21.024962
1287.000000	21.834793
1286.000000	22.656453
1285.000000	23.495675
1284.000000	24.354843
1283.000000	25.229941
1282.000000	26.109800
1281.000000	26.975333
1280.000000	27.801570
1279.000000	28.567067
1278.000000	29.265797
1277.000000	29.907973
1276.000000	30.513897
1275.000000	31.110601
1274.000000	31.729107
1273.000000	32.392945
1272.000000	33.103897
1271.000000	33.844343
1270.000000	34.592932
1269.000000	35.333353
1268.000000	36.053169
1267.000000	36.747819
1266.000000	37.429473
1265.000000	38.120853
1264.000000	38.836020
1263.000000	39.572816
1262.000000	40.318961
1261.000000	41.052752
1260.000000	41.740098
1259.000000	42.349020
1258.000000	42.876133
1257.000000	43.345296
1256.000000	43.783724
1255.000000	44.212403
1254.000000	44.650317
1253.000000	45.106970
1252.000000	45.564678
1251.000000	45.985106
1250.000000	46.336814
1249.000000	46.606245
1248.000000	46.791831
1247.000000	46.904953
1246.000000	46.977907
1245.000000	47.050373
1244.000000	47.139736
1243.000000	47.236262
1242.000000	47.319348
1241.000000	47.363750
1240.000000	47.337886
1239.000000	47.218219
1238.000000	47.014872
1237.000000	46.767996
1236.000000	46.520510
1235.000000	46.305755
1234.000000	46.149785
1233.000000	46.063466
1232.000000	46.029561
1231.000000	46.013353
1230.000000	45.989576
1229.000000	45.954395
1228.000000	45.916130
1227.000000	45.893145
1226.000000	45.919163
1225.000000	46.028370
1224.000000	46.231914
1223.000000	46.513430
1222.000000	46.844583
1221.000000	47.194094
1220.000000	47.526162
1219.000000	47.814177
1218.000000	48.061113
1217.000000	48.295318
1216.000000	48.545554
1215.000000	48.827835
1214.000000	49.148860
1213.000000	49.501308
1212.000000	49.854193
1211.000000	50.165258
1210.000000	50.411338
1209.000000	50.597080
1208.000000	50.740070
1207.000000	50.865509
1206.000000	51.010075
1205.000000	51.207147
1204.000000	51.461038
1203.000000	51.746871
1202.000000	52.034536
1201.000000	52.301315
1200.000000	52.529243
1199.000000	52.714484
1198.000000	52.883977
1197.000000	53.084089
1196.000000	53.349060
1195.000000	53.687913
1194.000000	54.093924
1193.000000	54.545211
1192.000000	54.997410
1191.000000	55.401292
1190.000000	55.737144
1189.000000	56.021999
1188.000000	56.287518
1187.000000	56.567587
1186.000000	56.900231
1185.000000	57.311629
1184.000000	57.789143
1183.000000	58.283204
1182.000000	58.739477
1181.000000	59.118775
1180.000000	59.398288
1179.000000	59.583599
1178.000000	59.722270
1177.000000	59.881182
1176.000000	60.102276
1175.000000	60.389617
1174.000000	60.726610
1173.000000	61.079755
1172.000000	61.393848
1171.000000	61.613259
1170.000000	61.721618
1169.000000	61.748009
1168.000000	61.737123
1167.000000	61.733000
1166.000000	61.780764
1165.000000	61.909879
1164.000000	62.106741
1163.000000	62.319864
1162.000000	62.498309
1161.000000	62.612004
1160.000000	62.646118
1159.000000	62.606942
1158.000000	62.536310
1157.000000	62.493438
1156.000000	62.514517
1155.000000	62.600349
1154.000000	62.734835
1153.000000	62.890639
1152.000000	63.022941
1151.000000	63.088477
1150.000000	63.081595
1149.000000	63.035002
1148.000000	62.986798
1147.000000	62.964619
1146.000000	62.992369
1145.000000	63.079549
1144.000000	63.200203
1143.000000	63.304116
1142.000000	63.355811
1141.000000	63.349270
1140.000000	63.292583
1139.000000	63.204761
1138.000000	63.124660
1137.000000	63.093168
1136.000000	63.118569
1135.000000	63.172189
1134.000000	63.216633
1133.000000	63.219325
1132.000000	63.148257
1131.000000	62.986442
1130.000000	62.756284
1129.000000	62.509349
1128.000000	62.287795
1127.000000	62.107843
1126.000000	61.970383
1125.000000	61.856027
1124.000000	61.714326
1123.000000	61.483366
1122.000000	61.130965
1121.000000	60.667853
1120.000000	60.125056
1119.000000	59.542347
1118.000000	58.968231
1117.000000	58.437721
1116.000000	57.944218
1115.000000	57.441035
1114.000000	56.873662
1113.000000	56.198834
1112.000000	55.384136
1111.000000	54.423758
1110.000000	53.351880
1109.000000	52.225101
1108.000000	51.086240
1107.000000	49.948113
1106.000000	48.804447
1105.000000	47.628537
1104.000000	46.372139
1103.000000	44.988271
1102.000000	43.458052
1101.000000	41.796852
1100.000000	40.037402
1099.000000	38.218573
1098.000000	36.380402
1097.000000	34.546279
1096.000000	32.714671
1095.000000	30.868202
1094.000000	28.990391
1093.000000	27.074955
1092.000000	25.131003
1091.000000	23.185844
1090.000000	21.277919
1089.000000	19.445170
1088.000000	17.716973
1087.000000	16.115978
1086.000000	14.650466
1085.000000	13.314248
1084.000000	12.102486
1083.000000	11.013720
1082.000000	10.046850
1081.000000	9.194653
1080.000000	8.451154
1079.000000	7.816824
1078.000000	7.281775
1077.000000	6.827462
1076.000000	6.438063
1075.000000	6.103679
1074.000000	5.813106
1073.000000	5.550548
1072.000000	5.309900
1071.000000	5.095736
1070.000000	4.909285
1069.000000	4.746947
1068.000000	4.609638
1067.000000	4.503762
1066.000000	4.428908
1065.000000	4.376444
1064.000000	4.344181
1063.000000	4.337092
1062.000000	4.355873
1061.000000	4.396265
1060.000000	4.460215
1059.000000	4.556660
1058.000000	4.687016
1057.000000	4.843915
1056.000000	5.023841
1055.000000	5.228126
1054.000000	5.453194
1053.000000	5.690197
1052.000000	5.937626
1051.000000	6.203264
1050.000000	6.491233
1049.000000	6.801140
1048.000000	7.136460
1047.000000	7.502544
1046.000000	7.895844
1045.000000	8.304779
1044.000000	8.723116
1043.000000	9.151768
1042.000000	9.590725
1041.000000	10.040294
1040.000000	10.507516
1039.000000	11.003631
1038.000000	11.532802
1037.000000	12.090379
1036.000000	12.670993
1035.000000	13.268349
1034.000000	13.871494
1033.000000	14.469754
1032.000000	15.062883
1031.000000	15.661643
1030.000000	16.277760
1029.000000	16.919146
1028.000000	17.589966
1027.000000	18.287540
1026.000000	18.998926
1025.000000	19.705392
1024.000000	20.392276
1023.000000	21.054910
1022.000000	21.698933
1021.000000	22.338753
1020.000000	22.992620
1019.000000	23.674206
1018.000000	24.385493
1017.000000	25.115942
1016.000000	25.845488
1015.000000	26.550553
1014.000000	27.213538
1013.000000	27.831844
1012.000000	28.419283
1011.000000	29.000385
1010.000000	29.601795
1009.000000	30.241955
1008.000000	30.921228
1007.000000	31.620658
1006.000000	32.310294
1005.000000	32.961047
1004.000000	33.553728
1003.000000	34.087007
1002.000000	34.581827
1001.000000	35.073514
1000.000000	35.594452
999.000000	36.161708
998.000000	36.774083
997.000000	37.412627
996.000000	38.042020
995.000000	38.623598
994.000000	39.136610
993.000000	39.587532
992.000000	40.001955
991.000000	40.414217
990.000000	40.859551
989.000000	41.360674
988.000000	41.912120
987.000000	42.482853
986.000000	43.034656
985.000000	43.537709
984.000000	43.975537
983.000000	44.351274
982.000000	44.693944
981.000000	45.046861
980.000000	45.441786
979.000000	45.886327
978.000000	46.368624
977.000000	46.862587
976.000000	47.329766
975.000000	47.735042
974.000000	48.071350
973.000000	48.362870
972.000000	48.645403
971.000000	48.950948
970.000000	49.303393
969.000000	49.709505
968.000000	50.145963
967.000000	50.567945
966.000000	50.937087
965.000000	51.238276
964.000000	51.476470
963.000000	51.675480
962.000000	51.879363
961.000000	52.134507
960.000000	52.458291
959.000000	52.831840
958.000000	53.217227
957.000000	53.572169
956.000000	53.855516
955.000000	54.044369
954.000000	54.157202
953.000000	54.248084
952.000000	54.372958
951.000000	54.566519
950.000000	54.840423
949.000000	55.179997
948.000000	55.536589
947.000000	55.843734
946.000000	56.056010
945.000000	56.168908
944.000000	56.209272
943.000000	56.224787
942.000000	56.277488
941.000000	56.419820
940.000000	56.661814
939.000000	56.966878
938.000000	57.276671
937.000000	57.533207
936.000000	57.689179
935.000000	57.726820
934.000000	57.678428
933.000000	57.613310
932.000000	57.595493
931.000000	57.659274
930.000000	57.810186
929.000000	58.023490
928.000000	58.239512
927.000000	58.385422
926.000000	58.418568
925.000000	58.343459
924.000000	58.195483
923.000000	58.025245
922.000000	57.890961
921.000000	57.836609
920.000000	57.862062
919.000000	57.922668
918.000000	57.960551
917.000000	57.927758
916.000000	57.792188
915.000000	57.549486
914.000000	57.237235
913.000000	56.918380
912.000000	56.640225
911.000000	56.416986
910.000000	56.237919
909.000000	56.071430
908.000000	55.865138
907.000000	55.566226
906.000000	55.157007
905.000000	54.661533
904.000000	54.120183
903.000000	53.571913
902.000000	53.050426
901.000000	52.571886
900.000000	52.116143
899.000000	51.632832
898.000000	51.075135
897.000000	50.419036
896.000000	49.662432
895.000000	48.824843
894.000000	47.947422
893.000000	47.075259
892.000000	46.228648
891.000000	45.396738
890.000000	44.552242
889.000000	43.661417
888.000000	42.690296
887.000000	41.618931
886.000000	40.458695
885.000000	39.246826
884.000000	38.021690
883.000000	36.809073
882.000000	35.620778
881.000000	34.451914
880.000000	33.279024
879.000000	32.071314
878.000000	30.810413
877.000000	29.499053
876.000000	28.157254
875.000000	26.814814
874.000000	25.503630
873.000000	24.245883
872.000000	23.046069
871.000000	21.892836
870.000000	20.767160
869.000000	19.653074
868.000000	18.544273
867.000000	17.446503
866.000000	16.375030
865.000000	15.347479
864.000000	14.380128
863.000000	13.481610
862.000000	12.648615
861.000000	11.870078
860.000000	11.134378
859.000000	10.435781
858.000000	9.774273
857.000000	9.157812
856.000000	8.606696
855.000000	8.143914
854.000000	7.784748
853.000000	7.531535
852.000000	7.375193
851.000000	7.296462
850.000000	7.264493
849.000000	7.248930
848.000000	7.231773
847.000000	7.207197
846.000000	7.175878
845.000000	7.143684
844.000000	7.123658
843.000000	7.128713
842.000000	7.162224
841.000000	7.220456
840.000000	7.300022
839.000000	7.398731
838.000000	7.513015
837.000000	7.641163
836.000000	7.788657
835.000000	7.963023
834.000000	8.166637
833.000000	8.397396
832.000000	8.652822
831.000000	8.930774
830.000000	9.228731
829.000000	9.548022
828.000000	9.895600
827.000000	10.277031
826.000000	10.693536
825.000000	11.146219
824.000000	11.637868
823.000000	12.165846
822.000000	12.717464
821.000000	13.276872
820.000000	13.831040
819.000000	14.369972
818.000000	14.889076
817.000000	15.393876
816.000000	15.897674
815.000000	16.412238
814.000000	16.943048
813.000000	17.489993
812.000000	18.045778
811.000000	18.594174
810.000000	19.117873
809.000000	19.610567
808.000000	20.079090
807.000000	20.537745
806.000000	21.005346
805.000000	21.501619
804.000000	22.036351
803.000000	22.600941
802.000000	23.174990
801.000000	23.738475
800.000000	24.275712
799.000000	24.776822
798.000000	25.246073
797.000000	25.704822
796.000000	26.178392
795.000000	26.681259
794.000000	27.216236
793.000000	27.777451
792.000000	28.346468
791.000000	28.893633
790.000000	29.395189
789.000000	29.847841
788.000000	30.264729
787.000000	30.665925
786.000000	31.076186
785.000000	31.518014
784.000000	31.995990
783.000000	32.491231
782.000000	32.976563
781.000000	33.431344
780.000000	33.841609
779.000000	34.201516
778.000000	34.524630
777.000000	34.843301
776.000000	35.186713
775.000000	35.563475
774.000000	35.966760
773.000000	36.382702
772.000000	36.788458
771.000000	37.156843
770.000000	37.476243
769.000000	37.760560
768.000000	38.034779
767.000000	38.319822
766.000000	38.632658
765.000000	38.983395
764.000000	39.361563
763.000000	39.734995
762.000000	40.072267
761.000000	40.360403
760.000000	40.600684
759.000000	40.804336
758.000000	40.999231
757.000000	41.223096
756.000000	41.496866
755.000000	41.810066
754.000000	42.135008
753.000000	42.442593
752.000000	42.703042
751.000000	42.892801
750.000000	43.015224
749.000000	43.104358
748.000000	43.199925
747.000000	43.326703
746.000000	43.496693
745.000000	43.709000
744.000000	43.937421
743.000000	44.134849
742.000000	44.263822
741.000000	44.316499
740.000000	44.305446
739.000000	44.255162
738.000000	44.207169
737.000000	44.209250
736.000000	44.283484
735.000000	44.413428
734.000000	44.567486
733.000000	44.718912
732.000000	44.841206
731.000000	44.910831
730.000000	44.932593
729.000000	44.946442
728.000000	44.997535
727.000000	45.111100
726.000000	45.297205
725.000000	45.555735
724.000000	45.862612
723.000000	46.170910
722.000000	46.443017
721.000000	46.672639
720.000000	46.871207
719.000000	47.054236
718.000000	47.248996
717.000000	47.489690
716.000000	47.786945
715.000000	48.115704
714.000000	48.442555
713.000000	48.748278
712.000000	49.018666
711.000000	49.240810
710.000000	49.425673
709.000000	49.612070
708.000000	49.832578
707.000000	50.089650
706.000000	50.370404
705.000000	50.660918
704.000000	50.935568
703.000000	51.159109
702.000000	51.321188
701.000000	51.451397
700.000000	51.586878
699.000000	51.747498
698.000000	51.947554
697.000000	52.200808
696.000000	52.493259
695.000000	52.774349
694.000000	52.997787
693.000000	53.154080
692.000000	53.253120
691.000000	53.308639
690.000000	53.355967
689.000000	53.453769
688.000000	53.638536
687.000000	53.892258
686.000000	54.173878
685.000000	54.450248
684.000000	54.680464
683.000000	54.815219
682.000000	54.846169
681.000000	54.827934
680.000000	54.829197
679.000000	54.888026
678.000000	55.027667
677.000000	55.261155
676.000000	55.553132
675.000000	55.830735
674.000000	56.038950
673.000000	56.164882
672.000000	56.220691
671.000000	56.236477
670.000000	56.269141
669.000000	56.395410
668.000000	56.640091
667.000000	56.905092
666.000000	57.093428
665.000000	57.214996
664.000000	57.305919
663.000000	57.366082
662.000000	57.380721
661.000000	57.363129
660.000000	57.352682
659.000000	57.389296
658.000000	57.498153
657.000000	57.676242
656.000000	57.885468
655.000000	58.079390
654.000000	58.223851
653.000000	58.301835
652.000000	58.321212
651.000000	58.317251
650.000000	58.337749
649.000000	58.414348
648.000000	58.547554
647.000000	58.712578
646.000000	58.872141
645.000000	58.990687
644.000000	59.046909
643.000000	59.045904
642.000000	59.023861
641.000000	59.029262
640.000000	59.094083
639.000000	59.222365
638.000000	59.393929
637.000000	59.567960
636.000000	59.690208
635.000000	59.715080
634.000000	59.638341
633.000000	59.504900
632.000000	59.381867
631.000000	59.330169
630.000000	59.388983
629.000000	59.559419
628.000000	59.794595
627.000000	60.014757
626.000000	60.145341
625.000000	60.151668
624.000000	60.046674
623.000000	59.884989
622.000000	59.749578
621.000000	59.717765
620.000000	59.821177
619.000000	60.035685
618.000000	60.300478
617.000000	60.537330
616.000000	60.665601
615.000000	60.636653
614.000000	60.472250
613.000000	60.257363
612.000000	60.087663
611.000000	60.029114
610.000000	60.110425
609.000000	60.315684
608.000000	60.575829
607.000000	60.790084
606.000000	60.880293
605.000000	60.827381
604.000000	60.663104
603.000000	60.450317
602.000000	60.269230
601.000000	60.183408
600.000000	60.199594
599.000000	60.266828
598.000000	60.318170
597.000000	60.303730
596.000000	60.195796
595.000000	60.002278
594.000000	59.785237
593.000000	59.633619
592.000000	59.603896
591.000000	59.698787
590.000000	59.892053
589.000000	60.144928
588.000000	60.396147
587.000000	60.572931
586.000000	60.639534
585.000000	60.625061
584.000000	60.593537
583.000000	60.602928
582.000000	60.693283
581.000000	60.873458
580.000000	61.101434
579.000000	61.300656
578.000000	61.413874
577.000000	61.426121
576.000000	61.345202
575.000000	61.204403
574.000000	61.083560
573.000000	61.073717
572.000000	61.204287
571.000000	61.419334
570.000000	61.624236
569.000000	61.738090
568.000000	61.705329
567.000000	61.509531
566.000000	61.209751
565.000000	60.925590
564.000000	60.760811
563.000000	60.757167
562.000000	60.905703
561.000000	61.155592
560.000000	61.403749
559.000000	61.521199
558.000000	61.434061
557.000000	61.167970
556.000000	60.809589
555.000000	60.461215
554.000000	60.229864
553.000000	60.193632
552.000000	60.345950
551.000000	60.588860
550.000000	60.798483
549.000000	60.888599
548.000000	60.817891
547.000000	60.591279
546.000000	60.288879
545.000000	60.046394
544.000000	59.969231
543.000000	60.078443
542.000000	60.330135
541.000000	60.647366
540.000000	60.928734
539.000000	61.078374
538.000000	61.071240
537.000000	60.972434
536.000000	60.878012
535.000000	60.862356
534.000000	60.977482
533.000000	61.243435
532.000000	61.613083
531.000000	61.975912
530.000000	62.234041
529.000000	62.362538
528.000000	62.388304
527.000000	62.353480
526.000000	62.323809
525.000000	62.381169
524.000000	62.559060
523.000000	62.808226
522.000000	63.047066
521.000000	63.208834
520.000000	63.239053
519.000000	63.105358
518.000000	62.844296
517.000000	62.563035
516.000000	62.358249
515.000000	62.255250
514.000000	62.222408
513.000000	62.189114
512.000000	62.044751
511.000000	61.679487
510.000000	61.074391
509.000000	60.320625
508.000000	59.540966
507.000000	58.835824
506.000000	58.287610
505.000000	57.937482
504.000000	57.736360
503.000000	57.546990
502.000000	57.229104
501.000000	56.738607
500.000000	56.137501
499.000000	55.536334
498.000000	55.073862
497.000000	54.886950
496.000000	55.043116
495.000000	55.506281
494.000000	56.163756
493.000000	56.868986
492.000000	57.466135
491.000000	57.850834
490.000000	58.048252
489.000000	58.197939
488.000000	58.446518
487.000000	58.868595
486.000000	59.469142
485.000000	60.191182
484.000000	60.902250
483.000000	61.425116
482.000000	61.647066
481.000000	61.590516
480.000000	61.364820
479.000000	61.097809
478.000000	60.920153
477.000000	60.938066
476.000000	61.172132
475.000000	61.544112
474.000000	61.943465
473.000000	62.273122
472.000000	62.461447
471.000000	62.510540
470.000000	62.522175
469.000000	62.631102
468.000000	62.906797
467.000000	63.313935
466.000000	63.770167
465.000000	64.205818
464.000000	64.548561
463.000000	64.709194
462.000000	64.664743
461.000000	64.523930
460.000000	64.446543
459.000000	64.548606
458.000000	64.869385
457.000000	65.337244
456.000000	65.781817
455.000000	66.033329
454.000000	66.034729
453.000000	65.842734
452.000000	65.557887
451.000000	65.300588
450.000000	65.221290
449.000000	65.446686
448.000000	65.955928
447.000000	66.543982
446.000000	66.984941
445.000000	67.184628
444.000000	67.129321
443.000000	66.826862
442.000000	66.405280
441.000000	66.123033
440.000000	66.160110
439.000000	66.499009
438.000000	67.027490
437.000000	67.621525
436.000000	68.095277
435.000000	68.239157
434.000000	68.036789
433.000000	67.706470
432.000000	67.478243
431.000000	67.450120
430.000000	67.655585
429.000000	68.112286
428.000000	68.723607
427.000000	69.240405
426.000000	69.454453
425.000000	69.363605
424.000000	69.069507
423.000000	68.667951
422.000000	68.325363
421.000000	68.283718
420.000000	68.689619
419.000000	69.278488
418.000000	69.538005
417.000000	69.430056
416.000000	69.157637
415.000000	68.753648
414.000000	68.272554
413.000000	67.944797
412.000000	67.954314
411.000000	68.238845
410.000000	68.643201
409.000000	69.101810
408.000000	69.519911
407.000000	69.675073
406.000000	69.480030
405.000000	69.162308
404.000000	68.986495
403.000000	69.003845
402.000000	69.248848
401.000000	69.801829
400.000000	70.606648
