PE IR       SUBTECH     SPECTRUM    ASCII       PEDS        4.00        
   -1
23MS029_nitro.asc
24/09/10
16:47:12.00
24/09/10
16:47:12.00
Administrator
Sample 1163 By Administrator Date Tuesday, September 10 2024
400.000000
#HDR
-1
-1
#GR
cm-1
%T
1.0
0.0
4000.000000
-1.000000
3601
8
79.354517
1.324670
#DATA
4000.000000	39.827772
3999.000000	39.867762
3998.000000	39.906747
3997.000000	39.944769
3996.000000	39.981897
3995.000000	40.018195
3994.000000	40.053822
3993.000000	40.089189
3992.000000	40.124958
3991.000000	40.161802
3990.000000	40.199993
3989.000000	40.239178
3988.000000	40.278635
3987.000000	40.317723
3986.000000	40.355977
3985.000000	40.392882
3984.000000	40.428020
3983.000000	40.461610
3982.000000	40.494529
3981.000000	40.527501
3980.000000	40.560490
3979.000000	40.593107
3978.000000	40.625385
3977.000000	40.657988
3976.000000	40.691558
3975.000000	40.725986
3974.000000	40.760502
3973.000000	40.794397
3972.000000	40.827474
3971.000000	40.859917
3970.000000	40.892070
3969.000000	40.924232
3968.000000	40.956445
3967.000000	40.988456
3966.000000	41.020048
3965.000000	41.051300
3964.000000	41.082656
3963.000000	41.114631
3962.000000	41.147308
3961.000000	41.180092
3960.000000	41.212058
3959.000000	41.242713
3958.000000	41.272756
3957.000000	41.303622
3956.000000	41.336001
3955.000000	41.369082
3954.000000	41.401486
3953.000000	41.432501
3952.000000	41.462507
3951.000000	41.492716
3950.000000	41.524469
3949.000000	41.557964
3948.000000	41.591455
3947.000000	41.622486
3946.000000	41.650127
3945.000000	41.676493
3944.000000	41.706320
3943.000000	41.743957
3942.000000	41.789136
3941.000000	41.836139
3940.000000	41.878752
3939.000000	41.915592
3938.000000	41.949657
3937.000000	41.983297
3936.000000	42.015112
3935.000000	42.042394
3934.000000	42.066125
3933.000000	42.091524
3932.000000	42.122935
3931.000000	42.159102
3930.000000	42.194795
3929.000000	42.226691
3928.000000	42.256072
3927.000000	42.286827
3926.000000	42.321841
3925.000000	42.361435
3924.000000	42.403087
3923.000000	42.441396
3922.000000	42.471585
3921.000000	42.494616
3920.000000	42.517199
3919.000000	42.545679
3918.000000	42.581071
3917.000000	42.620662
3916.000000	42.662003
3915.000000	42.703446
3914.000000	42.743339
3913.000000	42.781212
3912.000000	42.819015
3911.000000	42.857809
3910.000000	42.895510
3909.000000	42.928598
3908.000000	42.956253
3907.000000	42.980166
3906.000000	43.002279
3905.000000	43.023210
3904.000000	43.043559
3903.000000	43.063736
3902.000000	43.083005
3901.000000	43.101818
3900.000000	43.124237
3899.000000	43.155436
3898.000000	43.194948
3897.000000	43.236260
3896.000000	43.274804
3895.000000	43.313033
3894.000000	43.356091
3893.000000	43.404593
3892.000000	43.454078
3891.000000	43.499683
3890.000000	43.539410
3889.000000	43.570326
3888.000000	43.589218
3887.000000	43.599263
3886.000000	43.612657
3885.000000	43.639084
3884.000000	43.672631
3883.000000	43.698844
3882.000000	43.716355
3881.000000	43.740702
3880.000000	43.784112
3879.000000	43.839284
3878.000000	43.887400
3877.000000	43.917827
3876.000000	43.937160
3875.000000	43.961316
3874.000000	44.000368
3873.000000	44.047634
3872.000000	44.084315
3871.000000	44.100570
3870.000000	44.110208
3869.000000	44.133945
3868.000000	44.171272
3867.000000	44.202980
3866.000000	44.221401
3865.000000	44.242587
3864.000000	44.284384
3863.000000	44.341225
3862.000000	44.392325
3861.000000	44.428052
3860.000000	44.457755
3859.000000	44.496417
3858.000000	44.553241
3857.000000	44.624316
3856.000000	44.691141
3855.000000	44.728149
3854.000000	44.727906
3853.000000	44.715057
3852.000000	44.713306
3851.000000	44.720075
3850.000000	44.731549
3849.000000	44.756715
3848.000000	44.803305
3847.000000	44.866773
3846.000000	44.933836
3845.000000	44.993531
3844.000000	45.043039
3843.000000	45.085316
3842.000000	45.124935
3841.000000	45.162168
3840.000000	45.193047
3839.000000	45.215424
3838.000000	45.233311
3837.000000	45.252688
3836.000000	45.276773
3835.000000	45.304644
3834.000000	45.335340
3833.000000	45.370166
3832.000000	45.411694
3831.000000	45.460434
3830.000000	45.511551
3829.000000	45.558060
3828.000000	45.598201
3827.000000	45.637135
3826.000000	45.682066
3825.000000	45.733170
3824.000000	45.779442
3823.000000	45.808598
3822.000000	45.824851
3821.000000	45.848306
3820.000000	45.890189
3819.000000	45.934790
3818.000000	45.959617
3817.000000	45.965441
3816.000000	45.976864
3815.000000	46.015308
3814.000000	46.073120
3813.000000	46.126301
3812.000000	46.168128
3811.000000	46.212581
3810.000000	46.268827
3809.000000	46.326839
3808.000000	46.369959
3807.000000	46.397844
3806.000000	46.426223
3805.000000	46.460964
3804.000000	46.489354
3803.000000	46.501165
3802.000000	46.506549
3801.000000	46.526829
3800.000000	46.567093
3799.000000	46.608251
3798.000000	46.637457
3797.000000	46.665786
3796.000000	46.709839
3795.000000	46.770593
3794.000000	46.833064
3793.000000	46.884978
3792.000000	46.928322
3791.000000	46.972143
3790.000000	47.019326
3789.000000	47.065618
3788.000000	47.107124
3787.000000	47.144410
3786.000000	47.180108
3785.000000	47.216217
3784.000000	47.253454
3783.000000	47.290679
3782.000000	47.325052
3781.000000	47.356099
3780.000000	47.388917
3779.000000	47.429106
3778.000000	47.475395
3777.000000	47.520153
3776.000000	47.558921
3775.000000	47.595825
3774.000000	47.638289
3773.000000	47.686634
3772.000000	47.732314
3771.000000	47.768093
3770.000000	47.797307
3769.000000	47.827064
3768.000000	47.856893
3767.000000	47.883007
3766.000000	47.909655
3765.000000	47.946547
3764.000000	47.996230
3763.000000	48.048384
3762.000000	48.090564
3761.000000	48.122894
3760.000000	48.157093
3759.000000	48.199712
3758.000000	48.244797
3757.000000	48.286030
3756.000000	48.325864
3755.000000	48.366326
3754.000000	48.403344
3753.000000	48.433236
3752.000000	48.458064
3751.000000	48.480366
3750.000000	48.498734
3749.000000	48.516695
3748.000000	48.543996
3747.000000	48.579653
3746.000000	48.610068
3745.000000	48.633376
3744.000000	48.670551
3743.000000	48.732077
3742.000000	48.795263
3741.000000	48.840813
3740.000000	48.878213
3739.000000	48.922689
3738.000000	48.973564
3737.000000	49.021713
3736.000000	49.070786
3735.000000	49.131467
3734.000000	49.197403
3733.000000	49.249858
3732.000000	49.286590
3731.000000	49.324365
3730.000000	49.373596
3729.000000	49.428019
3728.000000	49.479294
3727.000000	49.531230
3726.000000	49.592747
3725.000000	49.660755
3724.000000	49.721073
3723.000000	49.767995
3722.000000	49.810239
3721.000000	49.856490
3720.000000	49.906536
3719.000000	49.956449
3718.000000	50.005160
3717.000000	50.055378
3716.000000	50.109002
3715.000000	50.161361
3714.000000	50.204691
3713.000000	50.237289
3712.000000	50.267272
3711.000000	50.303877
3710.000000	50.347121
3709.000000	50.391191
3708.000000	50.434411
3707.000000	50.480910
3706.000000	50.534751
3705.000000	50.594407
3704.000000	50.655182
3703.000000	50.715511
3702.000000	50.777292
3701.000000	50.839800
3700.000000	50.897415
3699.000000	50.945188
3698.000000	50.984128
3697.000000	51.021226
3696.000000	51.063925
3695.000000	51.112233
3694.000000	51.159409
3693.000000	51.202932
3692.000000	51.248124
3691.000000	51.297387
3690.000000	51.342373
3689.000000	51.373798
3688.000000	51.395711
3687.000000	51.420954
3686.000000	51.455968
3685.000000	51.498193
3684.000000	51.545867
3683.000000	51.600844
3682.000000	51.662324
3681.000000	51.724715
3680.000000	51.784762
3679.000000	51.842826
3678.000000	51.891165
3677.000000	51.916134
3676.000000	51.924519
3675.000000	51.947227
3674.000000	51.992916
3673.000000	52.032299
3672.000000	52.043314
3671.000000	52.044714
3670.000000	52.078222
3669.000000	52.159488
3668.000000	52.258540
3667.000000	52.341512
3666.000000	52.406509
3665.000000	52.469279
3664.000000	52.539233
3663.000000	52.613299
3662.000000	52.683472
3661.000000	52.744507
3660.000000	52.794594
3659.000000	52.832158
3658.000000	52.856921
3657.000000	52.875614
3656.000000	52.900602
3655.000000	52.938134
3654.000000	52.979276
3653.000000	53.008963
3652.000000	53.019929
3651.000000	53.018603
3650.000000	53.019338
3649.000000	53.031803
3648.000000	53.056772
3647.000000	53.093804
3646.000000	53.143308
3645.000000	53.200783
3644.000000	53.260943
3643.000000	53.324067
3642.000000	53.393157
3641.000000	53.465325
3640.000000	53.530790
3639.000000	53.582079
3638.000000	53.620900
3637.000000	53.652538
3636.000000	53.678665
3635.000000	53.700670
3634.000000	53.725095
3633.000000	53.756491
3632.000000	53.785555
3631.000000	53.795147
3630.000000	53.785660
3629.000000	53.785877
3628.000000	53.818269
3627.000000	53.866255
3626.000000	53.902200
3625.000000	53.923792
3624.000000	53.945796
3623.000000	53.976803
3622.000000	54.010054
3621.000000	54.033752
3620.000000	54.048697
3619.000000	54.067836
3618.000000	54.096000
3617.000000	54.123248
3616.000000	54.140028
3615.000000	54.149204
3614.000000	54.162981
3613.000000	54.189491
3612.000000	54.222406
3611.000000	54.247246
3610.000000	54.259179
3609.000000	54.271567
3608.000000	54.303080
3607.000000	54.356717
3606.000000	54.416961
3605.000000	54.467424
3604.000000	54.504613
3603.000000	54.535210
3602.000000	54.565051
3601.000000	54.593578
3600.000000	54.617210
3599.000000	54.633406
3598.000000	54.641799
3597.000000	54.646995
3596.000000	54.658243
3595.000000	54.683523
3594.000000	54.722630
3593.000000	54.765638
3592.000000	54.798829
3591.000000	54.813737
3590.000000	54.812057
3589.000000	54.808033
3588.000000	54.823261
3587.000000	54.867822
3586.000000	54.927483
3585.000000	54.979239
3584.000000	55.014850
3583.000000	55.042960
3582.000000	55.074652
3581.000000	55.112760
3580.000000	55.153223
3579.000000	55.191417
3578.000000	55.224975
3577.000000	55.253532
3576.000000	55.278887
3575.000000	55.304366
3574.000000	55.331937
3573.000000	55.359904
3572.000000	55.383173
3571.000000	55.395860
3570.000000	55.394480
3569.000000	55.383697
3568.000000	55.380790
3567.000000	55.405366
3566.000000	55.458072
3565.000000	55.519637
3564.000000	55.573017
3563.000000	55.617145
3562.000000	55.660168
3561.000000	55.707532
3560.000000	55.758170
3559.000000	55.808071
3558.000000	55.853752
3557.000000	55.892885
3556.000000	55.925352
3555.000000	55.954022
3554.000000	55.983115
3553.000000	56.015298
3552.000000	56.049869
3551.000000	56.082888
3550.000000	56.110095
3549.000000	56.131731
3548.000000	56.155359
3547.000000	56.191361
3546.000000	56.242780
3545.000000	56.301359
3544.000000	56.355612
3543.000000	56.400255
3542.000000	56.436836
3541.000000	56.469217
3540.000000	56.501317
3539.000000	56.536658
3538.000000	56.576791
3537.000000	56.620315
3536.000000	56.664362
3535.000000	56.706410
3534.000000	56.744319
3533.000000	56.776472
3532.000000	56.803231
3531.000000	56.827021
3530.000000	56.849922
3529.000000	56.872985
3528.000000	56.898364
3527.000000	56.929676
3526.000000	56.968332
3525.000000	57.011656
3524.000000	57.056129
3523.000000	57.100145
3522.000000	57.142409
3521.000000	57.180661
3520.000000	57.214131
3519.000000	57.245318
3518.000000	57.277238
3517.000000	57.310087
3516.000000	57.341952
3515.000000	57.371305
3514.000000	57.397184
3513.000000	57.418507
3512.000000	57.435861
3511.000000	57.453468
3510.000000	57.476068
3509.000000	57.503631
3508.000000	57.530936
3507.000000	57.552639
3506.000000	57.567330
3505.000000	57.577813
3504.000000	57.589035
3503.000000	57.604671
3502.000000	57.624349
3501.000000	57.644835
3500.000000	57.664128
3499.000000	57.682610
3498.000000	57.700222
3497.000000	57.715002
3496.000000	57.725091
3495.000000	57.730200
3494.000000	57.730290
3493.000000	57.724838
3492.000000	57.714820
3491.000000	57.703800
3490.000000	57.695508
3489.000000	57.691236
3488.000000	57.690026
3487.000000	57.689356
3486.000000	57.684920
3485.000000	57.672739
3484.000000	57.653683
3483.000000	57.633914
3482.000000	57.618335
3481.000000	57.604693
3480.000000	57.585946
3479.000000	57.557615
3478.000000	57.521156
3477.000000	57.481706
3476.000000	57.444587
3475.000000	57.412755
3474.000000	57.385688
3473.000000	57.360812
3472.000000	57.336070
3471.000000	57.309788
3470.000000	57.278161
3469.000000	57.235646
3468.000000	57.179585
3467.000000	57.113003
3466.000000	57.041690
3465.000000	56.970275
3464.000000	56.902060
3463.000000	56.839534
3462.000000	56.781956
3461.000000	56.723765
3460.000000	56.658120
3459.000000	56.582078
3458.000000	56.497546
3457.000000	56.408447
3456.000000	56.318342
3455.000000	56.229495
3454.000000	56.142344
3453.000000	56.055866
3452.000000	55.969053
3451.000000	55.881000
3450.000000	55.789401
3449.000000	55.691374
3448.000000	55.586799
3447.000000	55.478602
3446.000000	55.368324
3445.000000	55.253875
3444.000000	55.133609
3443.000000	55.010490
3442.000000	54.889979
3441.000000	54.775179
3440.000000	54.665418
3439.000000	54.557771
3438.000000	54.447698
3437.000000	54.328952
3436.000000	54.195721
3435.000000	54.045911
3434.000000	53.882196
3433.000000	53.710365
3432.000000	53.536205
3431.000000	53.362511
3430.000000	53.188036
3429.000000	53.010014
3428.000000	52.827917
3427.000000	52.643250
3426.000000	52.456265
3425.000000	52.264820
3424.000000	52.066562
3423.000000	51.860735
3422.000000	51.647386
3421.000000	51.426821
3420.000000	51.200285
3419.000000	50.969533
3418.000000	50.735664
3417.000000	50.499187
3416.000000	50.260905
3415.000000	50.020648
3414.000000	49.775068
3413.000000	49.519271
3412.000000	49.250694
3411.000000	48.969934
3410.000000	48.677871
3409.000000	48.374222
3408.000000	48.060072
3407.000000	47.739339
3406.000000	47.416870
3405.000000	47.096092
3404.000000	46.777743
3403.000000	46.458811
3402.000000	46.131791
3401.000000	45.787393
3400.000000	45.420356
3399.000000	45.032769
3398.000000	44.632215
3397.000000	44.226972
3396.000000	43.821982
3395.000000	43.417736
3394.000000	43.011272
3393.000000	42.598507
3392.000000	42.175966
3391.000000	41.741026
3390.000000	41.292837
3389.000000	40.833187
3388.000000	40.365466
3387.000000	39.891608
3386.000000	39.410907
3385.000000	38.922993
3384.000000	38.429707
3383.000000	37.933190
3382.000000	37.433593
3381.000000	36.929973
3380.000000	36.422265
3379.000000	35.910420
3378.000000	35.392943
3377.000000	34.868033
3376.000000	34.335407
3375.000000	33.796413
3374.000000	33.253127
3373.000000	32.708035
3372.000000	32.163150
3371.000000	31.617979
3370.000000	31.069918
3369.000000	30.517280
3368.000000	29.960798
3367.000000	29.401870
3366.000000	28.841136
3365.000000	28.279651
3364.000000	27.719216
3363.000000	27.160398
3362.000000	26.602028
3361.000000	26.043662
3360.000000	25.486866
3359.000000	24.933313
3358.000000	24.383555
3357.000000	23.838455
3356.000000	23.299873
3355.000000	22.768631
3354.000000	22.243486
3353.000000	21.722725
3352.000000	21.205107
3351.000000	20.689388
3350.000000	20.175119
3349.000000	19.664551
3348.000000	19.161739
3347.000000	18.668832
3346.000000	18.185310
3345.000000	17.710492
3344.000000	17.244500
3343.000000	16.786868
3342.000000	16.336367
3341.000000	15.892846
3340.000000	15.456864
3339.000000	15.027609
3338.000000	14.604010
3337.000000	14.187365
3336.000000	13.780589
3335.000000	13.384722
3334.000000	12.998670
3333.000000	12.622424
3332.000000	12.256986
3331.000000	11.901649
3330.000000	11.554192
3329.000000	11.213659
3328.000000	10.880829
3327.000000	10.555615
3326.000000	10.237338
3325.000000	9.927256
3324.000000	9.627507
3323.000000	9.338080
3322.000000	9.057181
3321.000000	8.784492
3320.000000	8.521371
3319.000000	8.267584
3318.000000	8.021638
3317.000000	7.783427
3316.000000	7.553954
3315.000000	7.332818
3314.000000	7.118491
3313.000000	6.911141
3312.000000	6.711993
3311.000000	6.520440
3310.000000	6.335197
3309.000000	6.157284
3308.000000	5.989383
3307.000000	5.832366
3306.000000	5.685279
3305.000000	5.548465
3304.000000	5.422684
3303.000000	5.306328
3302.000000	5.196300
3301.000000	5.091381
3300.000000	4.992333
3299.000000	4.899011
3298.000000	4.810703
3297.000000	4.728517
3296.000000	4.654069
3295.000000	4.586705
3294.000000	4.524516
3293.000000	4.467696
3292.000000	4.417996
3291.000000	4.375136
3290.000000	4.337194
3289.000000	4.303325
3288.000000	4.273609
3287.000000	4.247010
3286.000000	4.222170
3285.000000	4.199899
3284.000000	4.181753
3283.000000	4.167194
3282.000000	4.154706
3281.000000	4.144488
3280.000000	4.137363
3279.000000	4.131940
3278.000000	4.126007
3277.000000	4.119853
3276.000000	4.115262
3275.000000	4.112255
3274.000000	4.109631
3273.000000	4.107871
3272.000000	4.108525
3271.000000	4.111541
3270.000000	4.115970
3269.000000	4.122289
3268.000000	4.131174
3267.000000	4.141047
3266.000000	4.149676
3265.000000	4.157296
3264.000000	4.165504
3263.000000	4.174092
3262.000000	4.181918
3261.000000	4.189674
3260.000000	4.198870
3259.000000	4.209042
3258.000000	4.218794
3257.000000	4.228705
3256.000000	4.240280
3255.000000	4.253056
3254.000000	4.265482
3253.000000	4.277719
3252.000000	4.290738
3251.000000	4.303691
3250.000000	4.315053
3249.000000	4.325542
3248.000000	4.337235
3247.000000	4.350553
3246.000000	4.364605
3245.000000	4.379389
3244.000000	4.395120
3243.000000	4.410403
3242.000000	4.423795
3241.000000	4.436194
3240.000000	4.449306
3239.000000	4.462801
3238.000000	4.475395
3237.000000	4.487432
3236.000000	4.499924
3235.000000	4.512359
3234.000000	4.524004
3233.000000	4.536061
3232.000000	4.549842
3231.000000	4.564082
3230.000000	4.576734
3229.000000	4.588159
3228.000000	4.599858
3227.000000	4.611420
3226.000000	4.621495
3225.000000	4.630653
3224.000000	4.640391
3223.000000	4.650378
3222.000000	4.659260
3221.000000	4.667180
3220.000000	4.674910
3219.000000	4.681561
3218.000000	4.685833
3217.000000	4.688505
3216.000000	4.691241
3215.000000	4.693982
3214.000000	4.695806
3213.000000	4.697246
3212.000000	4.699263
3211.000000	4.701082
3210.000000	4.701412
3209.000000	4.700624
3208.000000	4.699505
3207.000000	4.697144
3206.000000	4.692409
3205.000000	4.686270
3204.000000	4.680249
3203.000000	4.673893
3202.000000	4.666071
3201.000000	4.657381
3200.000000	4.648985
3199.000000	4.640355
3198.000000	4.630515
3197.000000	4.620057
3196.000000	4.609605
3195.000000	4.597824
3194.000000	4.583374
3193.000000	4.567453
3192.000000	4.552051
3191.000000	4.537029
3190.000000	4.521333
3189.000000	4.505476
3188.000000	4.490391
3187.000000	4.475270
3186.000000	4.459016
3185.000000	4.442496
3184.000000	4.426928
3183.000000	4.411488
3182.000000	4.394872
3181.000000	4.377830
3180.000000	4.361757
3179.000000	4.346224
3178.000000	4.330246
3177.000000	4.314620
3176.000000	4.300639
3175.000000	4.287818
3174.000000	4.275103
3173.000000	4.262894
3172.000000	4.251714
3171.000000	4.240497
3170.000000	4.228367
3169.000000	4.216575
3168.000000	4.206510
3167.000000	4.197412
3166.000000	4.188285
3165.000000	4.180247
3164.000000	4.174652
3163.000000	4.170624
3162.000000	4.166723
3161.000000	4.163454
3160.000000	4.161747
3159.000000	4.160671
3158.000000	4.159064
3157.000000	4.157723
3156.000000	4.157762
3155.000000	4.158479
3154.000000	4.159254
3153.000000	4.161828
3152.000000	4.168114
3151.000000	4.177289
3150.000000	4.187327
3149.000000	4.197865
3148.000000	4.209367
3147.000000	4.221084
3146.000000	4.232304
3145.000000	4.244103
3144.000000	4.257554
3143.000000	4.271747
3142.000000	4.285649
3141.000000	4.300392
3140.000000	4.317587
3139.000000	4.336936
3138.000000	4.357637
3137.000000	4.380321
3136.000000	4.405396
3135.000000	4.431193
3134.000000	4.455974
3133.000000	4.480397
3132.000000	4.505930
3131.000000	4.532509
3130.000000	4.559760
3129.000000	4.588689
3128.000000	4.620079
3127.000000	4.652758
3126.000000	4.685436
3125.000000	4.718605
3124.000000	4.752717
3123.000000	4.786511
3122.000000	4.819199
3121.000000	4.852496
3120.000000	4.888408
3119.000000	4.926656
3118.000000	4.966320
3117.000000	5.008058
3116.000000	5.052587
3115.000000	5.098844
3114.000000	5.145628
3113.000000	5.193361
3112.000000	5.242236
3111.000000	5.290626
3110.000000	5.337503
3109.000000	5.384584
3108.000000	5.434016
3107.000000	5.485607
3106.000000	5.538229
3105.000000	5.592136
3104.000000	5.647789
3103.000000	5.704214
3102.000000	5.760577
3101.000000	5.817733
3100.000000	5.876414
3099.000000	5.935541
3098.000000	5.994218
3097.000000	6.053537
3096.000000	6.114552
3095.000000	6.176370
3094.000000	6.238067
3093.000000	6.300632
3092.000000	6.365149
3091.000000	6.430881
3090.000000	6.496967
3089.000000	6.564061
3088.000000	6.632449
3087.000000	6.700561
3086.000000	6.767302
3085.000000	6.834071
3084.000000	6.902533
3083.000000	6.972215
3082.000000	7.042228
3081.000000	7.113400
3080.000000	7.186724
3079.000000	7.261403
3078.000000	7.336334
3077.000000	7.411888
3076.000000	7.488398
3075.000000	7.564683
3074.000000	7.639842
3073.000000	7.714766
3072.000000	7.790297
3071.000000	7.865656
3070.000000	7.940419
3069.000000	8.016109
3068.000000	8.094017
3067.000000	8.173245
3066.000000	8.252549
3065.000000	8.332257
3064.000000	8.412610
3063.000000	8.492217
3062.000000	8.570075
3061.000000	8.647370
3060.000000	8.725519
3059.000000	8.804161
3058.000000	8.882736
3057.000000	8.962187
3056.000000	9.043301
3055.000000	9.125028
3054.000000	9.206191
3053.000000	9.287168
3052.000000	9.368339
3051.000000	9.448673
3050.000000	9.527486
3049.000000	9.605842
3048.000000	9.684641
3047.000000	9.763155
3046.000000	9.841082
3045.000000	9.920133
3044.000000	10.001778
3043.000000	10.085130
3042.000000	10.168657
3041.000000	10.252233
3040.000000	10.335832
3039.000000	10.418088
3038.000000	10.497973
3037.000000	10.576415
3036.000000	10.654740
3035.000000	10.733144
3034.000000	10.812084
3033.000000	10.893272
3032.000000	10.977496
3031.000000	11.063089
3030.000000	11.148080
3029.000000	11.232214
3028.000000	11.315508
3027.000000	11.396801
3026.000000	11.475540
3025.000000	11.553308
3024.000000	11.631893
3023.000000	11.711328
3022.000000	11.791255
3021.000000	11.872441
3020.000000	11.955323
3019.000000	12.038631
3018.000000	12.120980
3017.000000	12.202367
3016.000000	12.282852
3015.000000	12.361567
3014.000000	12.438505
3013.000000	12.515569
3012.000000	12.594336
3011.000000	12.674451
3010.000000	12.755452
3009.000000	12.838273
3008.000000	12.923389
3007.000000	13.009259
3006.000000	13.094161
3005.000000	13.177977
3004.000000	13.260795
3003.000000	13.341547
3002.000000	13.419613
3001.000000	13.496181
3000.000000	13.572618
2999.000000	13.649061
2998.000000	13.725951
2997.000000	13.805043
2996.000000	13.887201
2995.000000	13.970777
2994.000000	14.053764
2993.000000	14.136072
2992.000000	14.218186
2991.000000	14.299232
2990.000000	14.378123
2989.000000	14.455347
2988.000000	14.532078
2987.000000	14.608752
2986.000000	14.685801
2985.000000	14.764389
2984.000000	14.845016
2983.000000	14.926594
2982.000000	15.008073
2981.000000	15.089635
2980.000000	15.171185
2979.000000	15.251272
2978.000000	15.328816
2977.000000	15.404577
2976.000000	15.479782
2975.000000	15.554863
2974.000000	15.630678
2973.000000	15.709154
2972.000000	15.791174
2971.000000	15.875143
2970.000000	15.958969
2969.000000	16.042011
2968.000000	16.123916
2967.000000	16.203357
2966.000000	16.279550
2965.000000	16.353683
2964.000000	16.427408
2963.000000	16.501267
2962.000000	16.575845
2961.000000	16.652688
2960.000000	16.732471
2959.000000	16.813694
2958.000000	16.894598
2957.000000	16.974860
2956.000000	17.054109
2955.000000	17.130590
2954.000000	17.203123
2953.000000	17.273046
2952.000000	17.342706
2951.000000	17.413199
2950.000000	17.484870
2949.000000	17.558525
2948.000000	17.634605
2947.000000	17.712279
2946.000000	17.790607
2945.000000	17.869511
2944.000000	17.948601
2943.000000	18.026375
2942.000000	18.101699
2941.000000	18.174934
2940.000000	18.246695
2939.000000	18.317037
2938.000000	18.386833
2937.000000	18.458316
2936.000000	18.532864
2935.000000	18.609437
2934.000000	18.686254
2933.000000	18.762490
2932.000000	18.837362
2931.000000	18.909355
2930.000000	18.977887
2929.000000	19.044411
2928.000000	19.110564
2927.000000	19.176563
2926.000000	19.242505
2925.000000	19.309613
2924.000000	19.378853
2923.000000	19.449744
2922.000000	19.521655
2921.000000	19.594644
2920.000000	19.667879
2919.000000	19.738957
2918.000000	19.806161
2917.000000	19.870096
2916.000000	19.932154
2915.000000	19.992961
2914.000000	20.053366
2913.000000	20.115269
2912.000000	20.180006
2911.000000	20.247038
2910.000000	20.315195
2909.000000	20.383984
2908.000000	20.452746
2907.000000	20.519949
2906.000000	20.584510
2905.000000	20.646805
2904.000000	20.707611
2903.000000	20.767328
2902.000000	20.826943
2901.000000	20.888395
2900.000000	20.952835
2899.000000	21.019447
2898.000000	21.086878
2897.000000	21.154253
2896.000000	21.220430
2895.000000	21.283834
2894.000000	21.344181
2893.000000	21.403052
2892.000000	21.461828
2891.000000	21.520365
2890.000000	21.578532
2889.000000	21.637598
2888.000000	21.698898
2887.000000	21.762240
2886.000000	21.826559
2885.000000	21.891021
2884.000000	21.954638
2883.000000	22.016089
2882.000000	22.074992
2881.000000	22.132358
2880.000000	22.189110
2879.000000	22.245435
2878.000000	22.302436
2877.000000	22.362777
2876.000000	22.428082
2875.000000	22.496417
2874.000000	22.563595
2873.000000	22.626447
2872.000000	22.684340
2871.000000	22.738617
2870.000000	22.791630
2869.000000	22.845522
2868.000000	22.900855
2867.000000	22.956778
2866.000000	23.012888
2865.000000	23.070103
2864.000000	23.129384
2863.000000	23.190597
2862.000000	23.252932
2861.000000	23.315204
2860.000000	23.375433
2859.000000	23.431726
2858.000000	23.484409
2857.000000	23.536078
2856.000000	23.588902
2855.000000	23.643141
2854.000000	23.698737
2853.000000	23.756593
2852.000000	23.817250
2851.000000	23.879627
2850.000000	23.942012
2849.000000	24.003177
2848.000000	24.061934
2847.000000	24.117098
2846.000000	24.168899
2845.000000	24.219411
2844.000000	24.270921
2843.000000	24.324820
2842.000000	24.382235
2841.000000	24.443863
2840.000000	24.508168
2839.000000	24.571347
2838.000000	24.630509
2837.000000	24.686020
2836.000000	24.739873
2835.000000	24.793015
2834.000000	24.845294
2833.000000	24.896900
2832.000000	24.948575
2831.000000	25.001073
2830.000000	25.055387
2829.000000	25.112801
2828.000000	25.173783
2827.000000	25.237313
2826.000000	25.301849
2825.000000	25.366224
2824.000000	25.429191
2823.000000	25.489269
2822.000000	25.546007
2821.000000	25.600645
2820.000000	25.654878
2819.000000	25.709717
2818.000000	25.765958
2817.000000	25.824552
2816.000000	25.885557
2815.000000	25.947633
2814.000000	26.009374
2813.000000	26.070255
2812.000000	26.129582
2811.000000	26.185609
2810.000000	26.236891
2809.000000	26.283906
2808.000000	26.328521
2807.000000	26.372541
2806.000000	26.417501
2805.000000	26.464878
2804.000000	26.515326
2803.000000	26.568069
2802.000000	26.621719
2801.000000	26.675169
2800.000000	26.727120
2799.000000	26.775741
2798.000000	26.819914
2797.000000	26.860453
2796.000000	26.899366
2795.000000	26.938432
2794.000000	26.979083
2793.000000	27.022803
2792.000000	27.070424
2791.000000	27.121188
2790.000000	27.173281
2789.000000	27.225089
2788.000000	27.275598
2787.000000	27.324211
2786.000000	27.370901
2785.000000	27.416226
2784.000000	27.460647
2783.000000	27.504174
2782.000000	27.547045
2781.000000	27.590235
2780.000000	27.634668
2779.000000	27.680263
2778.000000	27.726073
2777.000000	27.770786
2776.000000	27.812802
2775.000000	27.850465
2774.000000	27.882907
2773.000000	27.910424
2772.000000	27.933626
2771.000000	27.952802
2770.000000	27.968322
2769.000000	27.980908
2768.000000	27.991077
2767.000000	27.998697
2766.000000	28.003518
2765.000000	28.005488
2764.000000	28.004166
2763.000000	27.998787
2762.000000	27.989412
2761.000000	27.977490
2760.000000	27.964811
2759.000000	27.952411
2758.000000	27.940953
2757.000000	27.931224
2756.000000	27.923485
2755.000000	27.916889
2754.000000	27.910095
2753.000000	27.902004
2752.000000	27.891450
2751.000000	27.876906
2750.000000	27.857081
2749.000000	27.831290
2748.000000	27.799085
2747.000000	27.760165
2746.000000	27.715147
2745.000000	27.665673
2744.000000	27.612990
2743.000000	27.557285
2742.000000	27.498872
2741.000000	27.439215
2740.000000	27.380407
2739.000000	27.324462
2738.000000	27.273695
2737.000000	27.231175
2736.000000	27.199952
2735.000000	27.182382
2734.000000	27.180845
2733.000000	27.197568
2732.000000	27.233226
2731.000000	27.286442
2730.000000	27.354820
2729.000000	27.436282
2728.000000	27.528445
2727.000000	27.627968
2726.000000	27.731786
2725.000000	27.838033
2724.000000	27.945697
2723.000000	28.053853
2722.000000	28.161629
2721.000000	28.268346
2720.000000	28.372903
2719.000000	28.473619
2718.000000	28.569190
2717.000000	28.659174
2716.000000	28.743079
2715.000000	28.819938
2714.000000	28.889110
2713.000000	28.950985
2712.000000	29.006395
2711.000000	29.055608
2710.000000	29.098758
2709.000000	29.136354
2708.000000	29.168782
2707.000000	29.195963
2706.000000	29.217740
2705.000000	29.234518
2704.000000	29.246888
2703.000000	29.255184
2702.000000	29.260103
2701.000000	29.262967
2700.000000	29.264975
2699.000000	29.266561
2698.000000	29.267858
2697.000000	29.269293
2696.000000	29.270992
2695.000000	29.272231
2694.000000	29.272082
2693.000000	29.270123
2692.000000	29.266158
2691.000000	29.259831
2690.000000	29.251283
2689.000000	29.241656
2688.000000	29.232219
2687.000000	29.223395
2686.000000	29.215170
2685.000000	29.207960
2684.000000	29.202336
2683.000000	29.198165
2682.000000	29.194637
2681.000000	29.190943
2680.000000	29.186551
2679.000000	29.181253
2678.000000	29.175508
2677.000000	29.170450
2676.000000	29.167271
2675.000000	29.166810
2674.000000	29.169836
2673.000000	29.177176
2672.000000	29.189077
2671.000000	29.205052
2670.000000	29.224623
2669.000000	29.247513
2668.000000	29.272968
2667.000000	29.299432
2666.000000	29.325458
2665.000000	29.350418
2664.000000	29.373918
2663.000000	29.395250
2662.000000	29.413931
2661.000000	29.430159
2660.000000	29.444258
2659.000000	29.456133
2658.000000	29.465653
2657.000000	29.473159
2656.000000	29.479203
2655.000000	29.484214
2654.000000	29.488907
2653.000000	29.494478
2652.000000	29.502033
2651.000000	29.512332
2650.000000	29.526407
2649.000000	29.545771
2648.000000	29.571839
2647.000000	29.605450
2646.000000	29.647129
2645.000000	29.697254
2644.000000	29.755241
2643.000000	29.819639
2642.000000	29.889228
2641.000000	29.963292
2640.000000	30.040813
2639.000000	30.119829
2638.000000	30.198441
2637.000000	30.275788
2636.000000	30.351493
2635.000000	30.424695
2634.000000	30.494129
2633.000000	30.558675
2632.000000	30.617439
2631.000000	30.669843
2630.000000	30.715899
2629.000000	30.756384
2628.000000	30.792123
2627.000000	30.823369
2626.000000	30.850456
2625.000000	30.874256
2624.000000	30.895860
2623.000000	30.915865
2622.000000	30.934220
2621.000000	30.950653
2620.000000	30.964543
2619.000000	30.974954
2618.000000	30.981104
2617.000000	30.982593
2616.000000	30.979224
2615.000000	30.970672
2614.000000	30.956849
2613.000000	30.938191
2612.000000	30.915139
2611.000000	30.888003
2610.000000	30.857437
2609.000000	30.824860
2608.000000	30.792147
2607.000000	30.761182
2606.000000	30.734049
2605.000000	30.713228
2604.000000	30.701031
2603.000000	30.698926
2602.000000	30.707802
2601.000000	30.727878
2600.000000	30.758496
2599.000000	30.798344
2598.000000	30.845928
2597.000000	30.900169
2596.000000	30.959827
2595.000000	31.023368
2594.000000	31.089616
2593.000000	31.157747
2592.000000	31.226974
2591.000000	31.296446
2590.000000	31.365881
2589.000000	31.435750
2588.000000	31.506338
2587.000000	31.577283
2586.000000	31.648193
2585.000000	31.719345
2584.000000	31.791419
2583.000000	31.864869
2582.000000	31.939943
2581.000000	32.016867
2580.000000	32.095679
2579.000000	32.176099
2578.000000	32.257720
2577.000000	32.340126
2576.000000	32.422641
2575.000000	32.504259
2574.000000	32.584098
2573.000000	32.661736
2572.000000	32.736980
2571.000000	32.809647
2570.000000	32.879732
2569.000000	32.947349
2568.000000	33.012433
2567.000000	33.074398
2566.000000	33.132272
2565.000000	33.185017
2564.000000	33.231195
2563.000000	33.269100
2562.000000	33.297080
2561.000000	33.313864
2560.000000	33.318725
2559.000000	33.311031
2558.000000	33.290718
2557.000000	33.258584
2556.000000	33.216412
2555.000000	33.167611
2554.000000	33.117638
2553.000000	33.073621
2552.000000	33.042648
2551.000000	33.029987
2550.000000	33.038377
2549.000000	33.068607
2548.000000	33.119421
2547.000000	33.187663
2546.000000	33.269393
2545.000000	33.360343
2544.000000	33.456519
2543.000000	33.554269
2542.000000	33.650650
2541.000000	33.744014
2540.000000	33.833466
2539.000000	33.918255
2538.000000	33.997804
2537.000000	34.072257
2536.000000	34.142477
2535.000000	34.209493
2534.000000	34.273929
2533.000000	34.336063
2532.000000	34.396112
2531.000000	34.454031
2530.000000	34.509539
2529.000000	34.562301
2528.000000	34.612180
2527.000000	34.659318
2526.000000	34.703969
2525.000000	34.746679
2524.000000	34.788321
2523.000000	34.829804
2522.000000	34.871719
2521.000000	34.914115
2520.000000	34.956609
2519.000000	34.998487
2518.000000	35.038832
2517.000000	35.076874
2516.000000	35.112299
2515.000000	35.145367
2514.000000	35.176708
2513.000000	35.207024
2512.000000	35.236994
2511.000000	35.267278
2510.000000	35.298540
2509.000000	35.331255
2508.000000	35.365318
2507.000000	35.399906
2506.000000	35.433762
2505.000000	35.465671
2504.000000	35.494748
2503.000000	35.520581
2502.000000	35.543543
2501.000000	35.564873
2500.000000	35.586127
2499.000000	35.608368
2498.000000	35.631926
2497.000000	35.656871
2496.000000	35.683235
2495.000000	35.710674
2494.000000	35.738209
2493.000000	35.764530
2492.000000	35.788480
2491.000000	35.809309
2490.000000	35.826950
2489.000000	35.842353
2488.000000	35.857230
2487.000000	35.873179
2486.000000	35.891015
2485.000000	35.910877
2484.000000	35.932516
2483.000000	35.955153
2482.000000	35.977443
2481.000000	35.997989
2480.000000	36.015919
2479.000000	36.030934
2478.000000	36.043198
2477.000000	36.053592
2476.000000	36.063797
2475.000000	36.075581
2474.000000	36.089944
2473.000000	36.106992
2472.000000	36.126271
2471.000000	36.146858
2470.000000	36.167315
2469.000000	36.186108
2468.000000	36.202152
2467.000000	36.214968
2466.000000	36.224635
2465.000000	36.232050
2464.000000	36.239110
2463.000000	36.248059
2462.000000	36.260468
2461.000000	36.276782
2460.000000	36.296503
2459.000000	36.318340
2458.000000	36.340328
2457.000000	36.360370
2456.000000	36.376996
2455.000000	36.389669
2454.000000	36.398703
2453.000000	36.405285
2452.000000	36.411447
2451.000000	36.419431
2450.000000	36.430826
2449.000000	36.446241
2448.000000	36.465494
2447.000000	36.487605
2446.000000	36.510638
2445.000000	36.532145
2444.000000	36.550154
2443.000000	36.563898
2442.000000	36.573852
2441.000000	36.581460
2440.000000	36.588808
2439.000000	36.598053
2438.000000	36.610740
2437.000000	36.627457
2436.000000	36.647857
2435.000000	36.670776
2434.000000	36.694402
2433.000000	36.716686
2432.000000	36.735911
2431.000000	36.751049
2430.000000	36.762039
2429.000000	36.770080
2428.000000	36.777486
2427.000000	36.786807
2426.000000	36.799809
2425.000000	36.817120
2424.000000	36.838378
2423.000000	36.862351
2422.000000	36.887095
2421.000000	36.910452
2420.000000	36.930678
2419.000000	36.946757
2418.000000	36.958606
2417.000000	36.967425
2416.000000	36.975604
2415.000000	36.985767
2414.000000	36.999700
2413.000000	37.018112
2412.000000	37.040955
2411.000000	37.067352
2410.000000	37.095360
2409.000000	37.122335
2408.000000	37.145842
2407.000000	37.164360
2406.000000	37.177675
2405.000000	37.187252
2404.000000	37.196076
2403.000000	37.207429
2402.000000	37.223452
2401.000000	37.244756
2400.000000	37.270930
2399.000000	37.300894
2398.000000	37.332795
2397.000000	37.364193
2396.000000	37.392671
2395.000000	37.416456
2394.000000	37.434999
2393.000000	37.449525
2392.000000	37.462964
2391.000000	37.478714
2390.000000	37.499184
2389.000000	37.525470
2388.000000	37.557801
2387.000000	37.595581
2386.000000	37.637061
2385.000000	37.679713
2384.000000	37.721369
2383.000000	37.761009
2382.000000	37.798794
2381.000000	37.835978
2380.000000	37.874727
2379.000000	37.917338
2378.000000	37.965259
2377.000000	38.018658
2376.000000	38.076546
2375.000000	38.136838
2374.000000	38.196610
2373.000000	38.253260
2372.000000	38.305541
2371.000000	38.353281
2370.000000	38.396555
2369.000000	38.435934
2368.000000	38.473615
2367.000000	38.513069
2366.000000	38.557014
2365.000000	38.606201
2364.000000	38.660030
2363.000000	38.717257
2362.000000	38.774912
2361.000000	38.828799
2360.000000	38.876100
2359.000000	38.915395
2358.000000	38.946510
2357.000000	38.970595
2356.000000	38.990433
2355.000000	39.010301
2354.000000	39.033584
2353.000000	39.063485
2352.000000	39.103951
2351.000000	39.159621
2350.000000	39.233179
2349.000000	39.320604
2348.000000	39.412306
2347.000000	39.496222
2346.000000	39.563697
2345.000000	39.613273
2344.000000	39.648891
2343.000000	39.677989
2342.000000	39.707119
2341.000000	39.741529
2340.000000	39.784274
2339.000000	39.835196
2338.000000	39.891600
2337.000000	39.949016
2336.000000	40.003768
2335.000000	40.053566
2334.000000	40.097429
2333.000000	40.136192
2332.000000	40.172620
2331.000000	40.209581
2330.000000	40.248991
2329.000000	40.291419
2328.000000	40.339274
2327.000000	40.394108
2326.000000	40.454500
2325.000000	40.516674
2324.000000	40.576443
2323.000000	40.632017
2322.000000	40.681172
2321.000000	40.722894
2320.000000	40.758246
2319.000000	40.791000
2318.000000	40.825792
2317.000000	40.866118
2316.000000	40.914608
2315.000000	40.971459
2314.000000	41.034151
2313.000000	41.098010
2312.000000	41.158937
2311.000000	41.213948
2310.000000	41.261107
2309.000000	41.300266
2308.000000	41.334184
2307.000000	41.367411
2306.000000	41.403370
2305.000000	41.443787
2304.000000	41.489447
2303.000000	41.540424
2302.000000	41.594652
2301.000000	41.648475
2300.000000	41.698745
2299.000000	41.743733
2298.000000	41.782537
2297.000000	41.815241
2296.000000	41.844103
2295.000000	41.872817
2294.000000	41.904333
2293.000000	41.940150
2292.000000	41.981103
2291.000000	42.027281
2290.000000	42.076576
2289.000000	42.125342
2288.000000	42.170476
2287.000000	42.210591
2286.000000	42.245177
2285.000000	42.274702
2284.000000	42.301402
2283.000000	42.328674
2282.000000	42.359146
2281.000000	42.394254
2280.000000	42.435012
2279.000000	42.481470
2278.000000	42.531391
2277.000000	42.581034
2276.000000	42.627619
2275.000000	42.669896
2274.000000	42.707002
2273.000000	42.738578
2272.000000	42.766247
2271.000000	42.793192
2270.000000	42.822025
2269.000000	42.854200
2268.000000	42.890901
2267.000000	42.932484
2266.000000	42.976899
2265.000000	43.020371
2264.000000	43.060019
2263.000000	43.094608
2262.000000	43.123361
2261.000000	43.146205
2260.000000	43.165162
2259.000000	43.183647
2258.000000	43.203769
2257.000000	43.225645
2256.000000	43.248886
2255.000000	43.272688
2254.000000	43.294572
2253.000000	43.310921
2252.000000	43.319404
2251.000000	43.319458
2250.000000	43.311018
2249.000000	43.294081
2248.000000	43.270624
2247.000000	43.243633
2246.000000	43.214530
2245.000000	43.183393
2244.000000	43.149804
2243.000000	43.112683
2242.000000	43.068925
2241.000000	43.014987
2240.000000	42.949849
2239.000000	42.875502
2238.000000	42.794985
2237.000000	42.712136
2236.000000	42.632830
2235.000000	42.563870
2234.000000	42.509973
2233.000000	42.472702
2232.000000	42.451873
2231.000000	42.445662
2230.000000	42.449419
2229.000000	42.456598
2228.000000	42.461924
2227.000000	42.463004
2226.000000	42.459189
2225.000000	42.451107
2224.000000	42.441425
2223.000000	42.434073
2222.000000	42.431875
2221.000000	42.435615
2220.000000	42.445028
2219.000000	42.458824
2218.000000	42.473698
2217.000000	42.485255
2216.000000	42.490692
2215.000000	42.489696
2214.000000	42.483166
2213.000000	42.472864
2212.000000	42.462221
2211.000000	42.455438
2210.000000	42.455126
2209.000000	42.461805
2208.000000	42.475146
2207.000000	42.493772
2206.000000	42.513894
2205.000000	42.530327
2204.000000	42.539634
2203.000000	42.541301
2202.000000	42.536335
2201.000000	42.526754
2200.000000	42.516437
2199.000000	42.510155
2198.000000	42.510854
2197.000000	42.518767
2196.000000	42.532717
2195.000000	42.550387
2194.000000	42.567291
2193.000000	42.577740
2192.000000	42.577758
2191.000000	42.566268
2190.000000	42.544107
2189.000000	42.513967
2188.000000	42.481213
2187.000000	42.452417
2186.000000	42.432237
2185.000000	42.422484
2184.000000	42.423393
2183.000000	42.433668
2182.000000	42.449318
2181.000000	42.464822
2180.000000	42.476231
2179.000000	42.482196
2178.000000	42.482623
2177.000000	42.478749
2176.000000	42.474711
2175.000000	42.476642
2174.000000	42.489318
2173.000000	42.514628
2172.000000	42.552681
2171.000000	42.601964
2170.000000	42.658079
2169.000000	42.714589
2168.000000	42.766101
2167.000000	42.809647
2166.000000	42.843728
2165.000000	42.868720
2164.000000	42.888603
2163.000000	42.909822
2162.000000	42.937441
2161.000000	42.973513
2160.000000	43.018600
2159.000000	43.072180
2158.000000	43.131008
2157.000000	43.189474
2156.000000	43.242710
2155.000000	43.288233
2154.000000	43.324991
2153.000000	43.353367
2152.000000	43.376606
2151.000000	43.399788
2150.000000	43.426560
2149.000000	43.458273
2148.000000	43.495885
2147.000000	43.539971
2146.000000	43.588413
2145.000000	43.636520
2144.000000	43.680459
2143.000000	43.718983
2142.000000	43.751888
2141.000000	43.779575
2140.000000	43.804870
2139.000000	43.832862
2138.000000	43.867800
2137.000000	43.911407
2136.000000	43.963842
2135.000000	44.023667
2134.000000	44.086516
2133.000000	44.146434
2132.000000	44.199582
2131.000000	44.245057
2130.000000	44.282338
2129.000000	44.311009
2128.000000	44.333507
2127.000000	44.355312
2126.000000	44.381307
2125.000000	44.413644
2124.000000	44.453090
2123.000000	44.499473
2122.000000	44.549872
2121.000000	44.598807
2120.000000	44.641611
2119.000000	44.676494
2118.000000	44.703642
2117.000000	44.724934
2116.000000	44.744740
2115.000000	44.768271
2114.000000	44.798316
2113.000000	44.835143
2112.000000	44.878987
2111.000000	44.929698
2110.000000	44.983880
2109.000000	45.035523
2108.000000	45.080193
2107.000000	45.116396
2106.000000	45.143195
2105.000000	45.160026
2104.000000	45.169369
2103.000000	45.176388
2102.000000	45.184761
2101.000000	45.195132
2100.000000	45.207488
2099.000000	45.221647
2098.000000	45.234995
2097.000000	45.242599
2096.000000	45.240378
2095.000000	45.226467
2094.000000	45.200281
2093.000000	45.163716
2092.000000	45.123374
2091.000000	45.088005
2090.000000	45.062827
2089.000000	45.048345
2088.000000	45.044079
2087.000000	45.050001
2086.000000	45.063968
2085.000000	45.081447
2084.000000	45.099186
2083.000000	45.116716
2082.000000	45.134138
2081.000000	45.151638
2080.000000	45.171697
2079.000000	45.198787
2078.000000	45.235771
2077.000000	45.282833
2076.000000	45.339710
2075.000000	45.405732
2074.000000	45.477252
2073.000000	45.548387
2072.000000	45.615150
2071.000000	45.675766
2070.000000	45.727689
2069.000000	45.769644
2068.000000	45.807780
2067.000000	45.854896
2066.000000	45.920524
2065.000000	46.004175
2064.000000	46.099615
2063.000000	46.201572
2062.000000	46.306039
2061.000000	46.408442
2060.000000	46.504935
2059.000000	46.593862
2058.000000	46.674597
2057.000000	46.747368
2056.000000	46.815355
2055.000000	46.884199
2054.000000	46.957770
2053.000000	47.036672
2052.000000	47.120984
2051.000000	47.210422
2050.000000	47.301285
2049.000000	47.387466
2048.000000	47.465217
2047.000000	47.533540
2046.000000	47.590945
2045.000000	47.637423
2044.000000	47.679990
2043.000000	47.730539
2042.000000	47.796204
2041.000000	47.875407
2040.000000	47.963522
2039.000000	48.057308
2038.000000	48.152944
2037.000000	48.245348
2036.000000	48.331875
2035.000000	48.413154
2034.000000	48.489528
2033.000000	48.560721
2032.000000	48.629644
2031.000000	48.702161
2030.000000	48.781675
2029.000000	48.867835
2028.000000	48.960344
2027.000000	49.059224
2026.000000	49.160850
2025.000000	49.258725
2024.000000	49.348618
2023.000000	49.427972
2022.000000	49.492239
2021.000000	49.539576
2020.000000	49.580083
2019.000000	49.632997
2018.000000	49.710887
2017.000000	49.810747
2016.000000	49.922242
2015.000000	50.037537
2014.000000	50.150697
2013.000000	50.256058
2012.000000	50.351686
2011.000000	50.440264
2010.000000	50.524642
2009.000000	50.606234
2008.000000	50.688352
2007.000000	50.776117
2006.000000	50.871521
2005.000000	50.972822
2004.000000	51.079408
2003.000000	51.192087
2002.000000	51.308229
2001.000000	51.421784
2000.000000	51.529938
1999.000000	51.633310
1998.000000	51.727016
1997.000000	51.800820
1996.000000	51.853199
1995.000000	51.898991
1994.000000	51.959201
1993.000000	52.044306
1992.000000	52.149250
1991.000000	52.264301
1990.000000	52.383314
1989.000000	52.501861
1988.000000	52.615190
1987.000000	52.718355
1986.000000	52.807225
1985.000000	52.881555
1984.000000	52.947658
1983.000000	53.014501
1982.000000	53.086263
1981.000000	53.161586
1980.000000	53.240005
1979.000000	53.323107
1978.000000	53.407953
1977.000000	53.486896
1976.000000	53.556154
1975.000000	53.618314
1974.000000	53.674310
1973.000000	53.719350
1972.000000	53.749658
1971.000000	53.768726
1970.000000	53.786712
1969.000000	53.819497
1968.000000	53.882957
1967.000000	53.977696
1966.000000	54.083944
1965.000000	54.178326
1964.000000	54.252606
1963.000000	54.313031
1962.000000	54.365647
1961.000000	54.410469
1960.000000	54.449060
1959.000000	54.487686
1958.000000	54.531329
1957.000000	54.582225
1956.000000	54.643876
1955.000000	54.717716
1954.000000	54.795765
1953.000000	54.865284
1952.000000	54.919906
1951.000000	54.960250
1950.000000	54.986731
1949.000000	54.999005
1948.000000	55.001518
1947.000000	55.001760
1946.000000	55.004576
1945.000000	55.017702
1944.000000	55.059064
1943.000000	55.138700
1942.000000	55.238730
1941.000000	55.332003
1940.000000	55.407587
1939.000000	55.467206
1938.000000	55.510955
1937.000000	55.537633
1936.000000	55.555512
1935.000000	55.579925
1934.000000	55.618478
1933.000000	55.668389
1932.000000	55.725883
1931.000000	55.789029
1930.000000	55.852162
1929.000000	55.903180
1928.000000	55.928824
1927.000000	55.921114
1926.000000	55.884462
1925.000000	55.843020
1924.000000	55.831225
1923.000000	55.863974
1922.000000	55.928559
1921.000000	56.005580
1920.000000	56.082808
1919.000000	56.153281
1918.000000	56.207874
1917.000000	56.245982
1916.000000	56.282408
1915.000000	56.322855
1914.000000	56.349782
1913.000000	56.346681
1912.000000	56.326125
1911.000000	56.321290
1910.000000	56.352409
1909.000000	56.413470
1908.000000	56.489686
1907.000000	56.569821
1906.000000	56.643521
1905.000000	56.702976
1904.000000	56.748845
1903.000000	56.787669
1902.000000	56.820926
1901.000000	56.842827
1900.000000	56.850558
1899.000000	56.847912
1898.000000	56.842544
1897.000000	56.847335
1896.000000	56.874218
1895.000000	56.917358
1894.000000	56.952952
1893.000000	56.963049
1892.000000	56.954600
1891.000000	56.953109
1890.000000	56.969254
1889.000000	56.989117
1888.000000	57.007526
1887.000000	57.035105
1886.000000	57.074443
1885.000000	57.116287
1884.000000	57.153598
1883.000000	57.186367
1882.000000	57.213023
1881.000000	57.229650
1880.000000	57.239658
1879.000000	57.250694
1878.000000	57.263600
1877.000000	57.274768
1876.000000	57.283382
1875.000000	57.287989
1874.000000	57.281999
1873.000000	57.257845
1872.000000	57.210922
1871.000000	57.144753
1870.000000	57.084914
1869.000000	57.064185
1868.000000	57.095356
1867.000000	57.171224
1866.000000	57.263827
1865.000000	57.336723
1864.000000	57.376622
1863.000000	57.397478
1862.000000	57.414128
1861.000000	57.430529
1860.000000	57.451113
1859.000000	57.480467
1858.000000	57.510590
1857.000000	57.526027
1856.000000	57.523861
1855.000000	57.514437
1854.000000	57.500197
1853.000000	57.471663
1852.000000	57.426493
1851.000000	57.370621
1850.000000	57.307985
1849.000000	57.251586
1848.000000	57.231932
1847.000000	57.266445
1846.000000	57.321275
1845.000000	57.331806
1844.000000	57.277393
1843.000000	57.214441
1842.000000	57.196783
1841.000000	57.211045
1840.000000	57.219844
1839.000000	57.215842
1838.000000	57.216265
1837.000000	57.224156
1836.000000	57.222442
1835.000000	57.199147
1834.000000	57.150117
1833.000000	57.066155
1832.000000	56.949093
1831.000000	56.834846
1830.000000	56.748221
1829.000000	56.685584
1828.000000	56.655993
1827.000000	56.664668
1826.000000	56.691370
1825.000000	56.709932
1824.000000	56.719646
1823.000000	56.737487
1822.000000	56.752182
1821.000000	56.730247
1820.000000	56.663834
1819.000000	56.577349
1818.000000	56.491201
1817.000000	56.403718
1816.000000	56.310184
1815.000000	56.215246
1814.000000	56.123134
1813.000000	56.041933
1812.000000	55.990344
1811.000000	55.973958
1810.000000	55.971550
1809.000000	55.960175
1808.000000	55.935037
1807.000000	55.895475
1806.000000	55.828968
1805.000000	55.726142
1804.000000	55.606236
1803.000000	55.510971
1802.000000	55.466132
1801.000000	55.459552
1800.000000	55.460582
1799.000000	55.447392
1798.000000	55.415108
1797.000000	55.375248
1796.000000	55.347274
1795.000000	55.329184
1794.000000	55.288084
1793.000000	55.213286
1792.000000	55.141840
1791.000000	55.118118
1790.000000	55.149178
1789.000000	55.201006
1788.000000	55.235787
1787.000000	55.233186
1786.000000	55.180550
1785.000000	55.070231
1784.000000	54.921085
1783.000000	54.774232
1782.000000	54.654913
1781.000000	54.560359
1780.000000	54.478365
1779.000000	54.400791
1778.000000	54.312021
1777.000000	54.196573
1776.000000	54.073414
1775.000000	53.972290
1774.000000	53.883310
1773.000000	53.775566
1772.000000	53.645951
1771.000000	53.539249
1770.000000	53.491426
1769.000000	53.474198
1768.000000	53.441734
1767.000000	53.392368
1766.000000	53.351630
1765.000000	53.322090
1764.000000	53.282293
1763.000000	53.215644
1762.000000	53.109363
1761.000000	52.969931
1760.000000	52.841958
1759.000000	52.761374
1758.000000	52.708377
1757.000000	52.624785
1756.000000	52.496636
1755.000000	52.370214
1754.000000	52.258700
1753.000000	52.109927
1752.000000	51.888098
1751.000000	51.645418
1750.000000	51.465093
1749.000000	51.360104
1748.000000	51.285713
1747.000000	51.207234
1746.000000	51.112781
1745.000000	51.007864
1744.000000	50.921843
1743.000000	50.882766
1742.000000	50.867883
1741.000000	50.804511
1740.000000	50.648009
1739.000000	50.446544
1738.000000	50.279542
1737.000000	50.155749
1736.000000	49.987942
1735.000000	49.694558
1734.000000	49.303123
1733.000000	48.956207
1732.000000	48.769681
1731.000000	48.721420
1730.000000	48.716637
1729.000000	48.665025
1728.000000	48.541353
1727.000000	48.370826
1726.000000	48.162202
1725.000000	47.907623
1724.000000	47.618581
1723.000000	47.328607
1722.000000	47.045609
1721.000000	46.727470
1720.000000	46.326484
1719.000000	45.884332
1718.000000	45.501831
1717.000000	45.220099
1716.000000	45.032066
1715.000000	44.897381
1714.000000	44.748036
1713.000000	44.545461
1712.000000	44.297106
1711.000000	44.023632
1710.000000	43.726345
1709.000000	43.399681
1708.000000	43.053316
1707.000000	42.709593
1706.000000	42.377085
1705.000000	42.074675
1704.000000	41.872888
1703.000000	41.803379
1702.000000	41.682884
1701.000000	41.225513
1700.000000	40.493947
1699.000000	39.869866
1698.000000	39.551284
1697.000000	39.437359
1696.000000	39.294643
1695.000000	39.036783
1694.000000	38.769927
1693.000000	38.530483
1692.000000	38.273403
1691.000000	37.966287
1690.000000	37.607361
1689.000000	37.222569
1688.000000	36.861119
1687.000000	36.550786
1686.000000	36.241516
1685.000000	35.898408
1684.000000	35.518245
1683.000000	35.170359
1682.000000	34.938214
1681.000000	34.783945
1680.000000	34.649215
1679.000000	34.520177
1678.000000	34.386889
1677.000000	34.190402
1676.000000	33.858938
1675.000000	33.425225
1674.000000	33.010797
1673.000000	32.682591
1672.000000	32.418969
1671.000000	32.188626
1670.000000	31.966848
1669.000000	31.725197
1668.000000	31.479317
1667.000000	31.269204
1666.000000	31.086299
1665.000000	30.875924
1664.000000	30.602394
1663.000000	30.289458
1662.000000	29.980958
1661.000000	29.698753
1660.000000	29.438059
1659.000000	29.189909
1658.000000	28.940342
1657.000000	28.691246
1656.000000	28.449008
1655.000000	28.217498
1654.000000	27.979789
1653.000000	27.606013
1652.000000	27.180374
1651.000000	26.894249
1650.000000	26.688517
1649.000000	26.480137
1648.000000	26.283743
1647.000000	26.114389
1646.000000	25.941105
1645.000000	25.758655
1644.000000	25.584920
1643.000000	25.417238
1642.000000	25.235031
1641.000000	25.009625
1640.000000	24.744779
1639.000000	24.483213
1638.000000	24.258378
1637.000000	24.076395
1636.000000	23.895999
1635.000000	23.687226
1634.000000	23.496141
1633.000000	23.345876
1632.000000	23.213392
1631.000000	23.078150
1630.000000	22.922385
1629.000000	22.737917
1628.000000	22.537587
1627.000000	22.350451
1626.000000	22.188772
1625.000000	22.036028
1624.000000	21.883741
1623.000000	21.744591
1622.000000	21.628375
1621.000000	21.528133
1620.000000	21.435168
1619.000000	21.351479
1618.000000	21.278980
1617.000000	21.200161
1616.000000	21.104310
1615.000000	21.019560
1614.000000	20.962261
1613.000000	20.912433
1612.000000	20.854158
1611.000000	20.798318
1610.000000	20.764150
1609.000000	20.750572
1608.000000	20.744404
1607.000000	20.740463
1606.000000	20.733901
1605.000000	20.713168
1604.000000	20.678276
1603.000000	20.647550
1602.000000	20.633505
1601.000000	20.628368
1600.000000	20.623438
1599.000000	20.624433
1598.000000	20.637059
1597.000000	20.655987
1596.000000	20.677364
1595.000000	20.705171
1594.000000	20.736344
1593.000000	20.756285
1592.000000	20.758759
1591.000000	20.755915
1590.000000	20.759753
1589.000000	20.767761
1588.000000	20.776287
1587.000000	20.792907
1586.000000	20.822900
1585.000000	20.856194
1584.000000	20.881598
1583.000000	20.897810
1582.000000	20.898579
1581.000000	20.866682
1580.000000	20.798382
1579.000000	20.717862
1578.000000	20.660925
1577.000000	20.642547
1576.000000	20.637017
1575.000000	20.632225
1574.000000	20.642809
1573.000000	20.663009
1572.000000	20.671008
1571.000000	20.660433
1570.000000	20.643838
1569.000000	20.618968
1568.000000	20.585009
1567.000000	20.559559
1566.000000	20.549029
1565.000000	20.537293
1564.000000	20.525073
1563.000000	20.527521
1562.000000	20.565970
1561.000000	20.563600
1560.000000	20.565418
1559.000000	20.686147
1558.000000	20.817996
1557.000000	20.920905
1556.000000	21.034324
1555.000000	21.164435
1554.000000	21.298171
1553.000000	21.412285
1552.000000	21.522366
1551.000000	21.666686
1550.000000	21.864057
1549.000000	22.078160
1548.000000	22.260578
1547.000000	22.392478
1546.000000	22.486849
1545.000000	22.575339
1544.000000	22.671660
1543.000000	22.764317
1542.000000	22.868205
1541.000000	23.083698
1540.000000	23.422152
1539.000000	23.760161
1538.000000	24.053396
1537.000000	24.313653
1536.000000	24.549405
1535.000000	24.787961
1534.000000	25.063494
1533.000000	25.362095
1532.000000	25.636585
1531.000000	25.882422
1530.000000	26.116229
1529.000000	26.350342
1528.000000	26.607154
1527.000000	26.911834
1526.000000	27.253935
1525.000000	27.591008
1524.000000	27.904906
1523.000000	28.249442
1522.000000	28.691850
1521.000000	29.174245
1520.000000	29.588666
1519.000000	29.937409
1518.000000	30.311536
1517.000000	30.773851
1516.000000	31.284836
1515.000000	31.785046
1514.000000	32.256436
1513.000000	32.677402
1512.000000	33.025555
1511.000000	33.290195
1510.000000	33.495563
1509.000000	33.705691
1508.000000	34.159875
1507.000000	34.944353
1506.000000	35.715649
1505.000000	36.290666
1504.000000	36.751445
1503.000000	37.186679
1502.000000	37.647592
1501.000000	38.112961
1500.000000	38.545444
1499.000000	38.956280
1498.000000	39.401142
1497.000000	39.888007
1496.000000	40.354310
1495.000000	40.761609
1494.000000	41.109582
1493.000000	41.383561
1492.000000	41.578474
1491.000000	41.786608
1490.000000	42.136067
1489.000000	42.620571
1488.000000	43.139163
1487.000000	43.623109
1486.000000	44.039663
1485.000000	44.361810
1484.000000	44.590266
1483.000000	44.769867
1482.000000	44.945942
1481.000000	45.121032
1480.000000	45.277038
1479.000000	45.403344
1478.000000	45.484047
1477.000000	45.503908
1476.000000	45.480728
1475.000000	45.454693
1474.000000	45.449716
1473.000000	45.435031
1472.000000	45.349789
1471.000000	45.202208
1470.000000	45.025952
1469.000000	44.802765
1468.000000	44.510786
1467.000000	44.147984
1466.000000	43.697400
1465.000000	43.122078
1464.000000	42.441442
1463.000000	41.745457
1462.000000	41.059071
1461.000000	40.323682
1460.000000	39.505788
1459.000000	38.639548
1458.000000	37.732366
1457.000000	36.682185
1456.000000	35.574975
1455.000000	34.633025
1454.000000	33.799536
1453.000000	32.877090
1452.000000	31.793577
1451.000000	30.597441
1450.000000	29.306208
1449.000000	27.863196
1448.000000	26.286630
1447.000000	24.700775
1446.000000	23.171539
1445.000000	21.656627
1444.000000	20.124953
1443.000000	18.589209
1442.000000	17.047704
1441.000000	15.510341
1440.000000	14.039649
1439.000000	12.647955
1438.000000	11.201207
1437.000000	9.593973
1436.000000	8.027209
1435.000000	6.795963
1434.000000	5.888708
1433.000000	5.132535
1432.000000	4.477671
1431.000000	3.968550
1430.000000	3.597092
1429.000000	3.317430
1428.000000	3.154716
1427.000000	3.149631
1426.000000	3.267313
1425.000000	3.464712
1424.000000	3.767271
1423.000000	4.189267
1422.000000	4.672551
1421.000000	5.188853
1420.000000	5.820098
1419.000000	6.625166
1418.000000	7.490093
1417.000000	8.295878
1416.000000	9.082983
1415.000000	9.920247
1414.000000	10.789882
1413.000000	11.658262
1412.000000	12.553973
1411.000000	13.508881
1410.000000	14.488781
1409.000000	15.453094
1408.000000	16.423509
1407.000000	17.444747
1406.000000	18.529777
1405.000000	19.668110
1404.000000	20.835021
1403.000000	21.978469
1402.000000	23.053958
1401.000000	24.084309
1400.000000	25.141930
1399.000000	26.244901
1398.000000	27.337947
1397.000000	28.418687
1396.000000	29.577727
1395.000000	30.866271
1394.000000	32.206045
1393.000000	33.493339
1392.000000	34.705027
1391.000000	35.854765
1390.000000	36.948559
1389.000000	38.012722
1388.000000	39.092454
1387.000000	40.180281
1386.000000	41.208128
1385.000000	42.139423
1384.000000	42.985814
1383.000000	43.745296
1382.000000	44.389169
1381.000000	44.888497
1380.000000	45.210358
1379.000000	45.294618
1378.000000	45.075383
1377.000000	44.514214
1376.000000	43.587801
1375.000000	42.282750
1374.000000	40.629632
1373.000000	38.739188
1372.000000	36.771286
1371.000000	34.873444
1370.000000	33.199589
1369.000000	31.944633
1368.000000	31.286209
1367.000000	31.283373
1366.000000	31.870095
1365.000000	32.945931
1364.000000	34.440814
1363.000000	36.270525
1362.000000	38.256644
1361.000000	40.181588
1360.000000	41.904021
1359.000000	43.365668
1358.000000	44.538988
1357.000000	45.400216
1356.000000	45.919489
1355.000000	46.061699
1354.000000	45.800811
1353.000000	45.129578
1352.000000	44.061726
1351.000000	42.626367
1350.000000	40.868496
1349.000000	38.847071
1348.000000	36.616518
1347.000000	34.221103
1346.000000	31.700074
1345.000000	29.094263
1344.000000	26.455881
1343.000000	23.843195
1342.000000	21.305845
1341.000000	18.894321
1340.000000	16.688374
1339.000000	14.793506
1338.000000	13.291655
1337.000000	12.194423
1336.000000	11.453592
1335.000000	10.990053
1334.000000	10.692822
1333.000000	10.428621
1332.000000	10.075652
1331.000000	9.552759
1330.000000	8.829199
1329.000000	7.922994
1328.000000	6.897770
1327.000000	5.844067
1326.000000	4.844442
1325.000000	3.953631
1324.000000	3.207248
1323.000000	2.628095
1322.000000	2.212807
1321.000000	1.931938
1320.000000	1.754583
1319.000000	1.656206
1318.000000	1.606232
1317.000000	1.570646
1316.000000	1.532107
1315.000000	1.493280
1314.000000	1.455474
1313.000000	1.413249
1312.000000	1.370166
1311.000000	1.339121
1310.000000	1.325232
1309.000000	1.324670
1308.000000	1.342366
1307.000000	1.392674
1306.000000	1.480688
1305.000000	1.601079
1304.000000	1.754641
1303.000000	1.948140
1302.000000	2.177761
1301.000000	2.429481
1300.000000	2.697997
1299.000000	2.987463
1298.000000	3.295042
1297.000000	3.610990
1296.000000	3.933087
1295.000000	4.265719
1294.000000	4.604721
1293.000000	4.938828
1292.000000	5.264866
1291.000000	5.586600
1290.000000	5.899182
1289.000000	6.188904
1288.000000	6.445199
1287.000000	6.658155
1286.000000	6.809387
1285.000000	6.881545
1284.000000	6.881103
1283.000000	6.842679
1282.000000	6.810894
1281.000000	6.826296
1280.000000	6.921811
1279.000000	7.112887
1278.000000	7.387025
1277.000000	7.716031
1276.000000	8.078221
1275.000000	8.461849
1274.000000	8.854363
1273.000000	9.242806
1272.000000	9.623871
1271.000000	9.999513
1270.000000	10.364803
1269.000000	10.711516
1268.000000	11.040779
1267.000000	11.360887
1266.000000	11.675356
1265.000000	11.983428
1264.000000	12.289281
1263.000000	12.600224
1262.000000	12.916639
1261.000000	13.233515
1260.000000	13.548968
1259.000000	13.862004
1258.000000	14.165931
1257.000000	14.453783
1256.000000	14.728036
1255.000000	14.996967
1254.000000	15.264940
1253.000000	15.533702
1252.000000	15.808661
1251.000000	16.095079
1250.000000	16.390395
1249.000000	16.687101
1248.000000	16.980536
1247.000000	17.267930
1246.000000	17.543783
1245.000000	17.803754
1244.000000	18.050886
1243.000000	18.292340
1242.000000	18.532465
1241.000000	18.774268
1240.000000	19.023591
1239.000000	19.284942
1238.000000	19.555473
1237.000000	19.828098
1236.000000	20.097853
1235.000000	20.360871
1234.000000	20.611039
1233.000000	20.843954
1232.000000	21.062219
1231.000000	21.272779
1230.000000	21.481619
1229.000000	21.694277
1228.000000	21.918042
1227.000000	22.158220
1226.000000	22.413493
1225.000000	22.677945
1224.000000	22.945218
1223.000000	23.208154
1222.000000	23.458489
1221.000000	23.691619
1220.000000	23.910300
1219.000000	24.121397
1218.000000	24.331427
1217.000000	24.546783
1216.000000	24.774200
1215.000000	25.017214
1214.000000	25.273489
1213.000000	25.537244
1212.000000	25.801971
1211.000000	26.059840
1210.000000	26.302818
1209.000000	26.527438
1208.000000	26.737043
1207.000000	26.938731
1206.000000	27.140290
1205.000000	27.350108
1204.000000	27.575454
1203.000000	27.818083
1202.000000	28.073108
1201.000000	28.332532
1200.000000	28.587960
1199.000000	28.830146
1198.000000	29.050061
1197.000000	29.242720
1196.000000	29.407314
1195.000000	29.544806
1194.000000	29.656117
1193.000000	29.740775
1192.000000	29.795162
1191.000000	29.810351
1190.000000	29.777934
1189.000000	29.699517
1188.000000	29.590882
1187.000000	29.479178
1186.000000	29.395696
1185.000000	29.367806
1184.000000	29.411869
1183.000000	29.530351
1182.000000	29.713822
1181.000000	29.949434
1180.000000	30.225728
1179.000000	30.531404
1178.000000	30.854922
1177.000000	31.183947
1176.000000	31.505564
1175.000000	31.807061
1174.000000	32.079672
1173.000000	32.321860
1172.000000	32.538287
1171.000000	32.737415
1170.000000	32.931197
1169.000000	33.133418
1168.000000	33.353752
1167.000000	33.594112
1166.000000	33.850568
1165.000000	34.115906
1164.000000	34.379326
1163.000000	34.628018
1162.000000	34.853670
1161.000000	35.056079
1160.000000	35.239726
1159.000000	35.411194
1158.000000	35.580749
1157.000000	35.761223
1156.000000	35.961069
1155.000000	36.180354
1154.000000	36.414330
1153.000000	36.655982
1152.000000	36.893935
1151.000000	37.113984
1150.000000	37.307436
1149.000000	37.475690
1148.000000	37.625058
1147.000000	37.762857
1146.000000	37.899868
1145.000000	38.049190
1144.000000	38.218396
1143.000000	38.405759
1142.000000	38.605498
1141.000000	38.811249
1140.000000	39.012730
1139.000000	39.196679
1138.000000	39.355567
1137.000000	39.491773
1136.000000	39.611950
1135.000000	39.723081
1134.000000	39.835738
1133.000000	39.963208
1132.000000	40.113067
1131.000000	40.283526
1130.000000	40.469092
1129.000000	40.663756
1128.000000	40.857139
1127.000000	41.035315
1126.000000	41.190281
1125.000000	41.324208
1124.000000	41.443359
1123.000000	41.554406
1122.000000	41.667964
1121.000000	41.797278
1120.000000	41.948972
1119.000000	42.119971
1118.000000	42.304358
1117.000000	42.496457
1116.000000	42.686073
1115.000000	42.859618
1114.000000	43.010371
1113.000000	43.142035
1112.000000	43.260901
1111.000000	43.372526
1110.000000	43.486879
1109.000000	43.616625
1108.000000	43.766817
1107.000000	43.932172
1106.000000	44.105607
1105.000000	44.281397
1104.000000	44.449140
1103.000000	44.595250
1102.000000	44.714039
1101.000000	44.811781
1100.000000	44.896132
1099.000000	44.974188
1098.000000	45.058002
1097.000000	45.161978
1096.000000	45.291462
1095.000000	45.439850
1094.000000	45.599045
1093.000000	45.763764
1092.000000	45.925122
1091.000000	46.071101
1090.000000	46.197775
1089.000000	46.312256
1088.000000	46.422927
1087.000000	46.536058
1086.000000	46.661926
1085.000000	46.812383
1084.000000	46.988205
1083.000000	47.177076
1082.000000	47.365484
1081.000000	47.544074
1080.000000	47.701715
1079.000000	47.827204
1078.000000	47.921404
1077.000000	47.997220
1076.000000	48.066527
1075.000000	48.136429
1074.000000	48.216915
1073.000000	48.318750
1072.000000	48.438828
1071.000000	48.557861
1070.000000	48.654237
1069.000000	48.709452
1068.000000	48.703061
1067.000000	48.615692
1066.000000	48.445329
1065.000000	48.213218
1064.000000	47.952688
1063.000000	47.703261
1062.000000	47.511685
1061.000000	47.421539
1060.000000	47.452325
1059.000000	47.595077
1058.000000	47.824151
1057.000000	48.107940
1056.000000	48.410033
1055.000000	48.694936
1054.000000	48.944593
1053.000000	49.160458
1052.000000	49.350642
1051.000000	49.524528
1050.000000	49.699347
1049.000000	49.896028
1048.000000	50.122282
1047.000000	50.368749
1046.000000	50.622503
1045.000000	50.873200
1044.000000	51.105583
1043.000000	51.302084
1042.000000	51.457905
1041.000000	51.583617
1040.000000	51.691982
1039.000000	51.793068
1038.000000	51.902046
1037.000000	52.036663
1036.000000	52.202081
1035.000000	52.388526
1034.000000	52.584472
1033.000000	52.781440
1032.000000	52.966188
1031.000000	53.123381
1030.000000	53.250506
1029.000000	53.359058
1028.000000	53.460102
1027.000000	53.560484
1026.000000	53.672417
1025.000000	53.810839
1024.000000	53.977259
1023.000000	54.157510
1022.000000	54.337406
1021.000000	54.508564
1020.000000	54.659624
1019.000000	54.778012
1018.000000	54.865025
1017.000000	54.937002
1016.000000	55.009401
1015.000000	55.091862
1014.000000	55.196936
1013.000000	55.337253
1012.000000	55.510089
1011.000000	55.697221
1010.000000	55.881212
1009.000000	56.050776
1008.000000	56.191747
1007.000000	56.290439
1006.000000	56.349886
1005.000000	56.390456
1004.000000	56.432425
1003.000000	56.489240
1002.000000	56.575903
1001.000000	56.706521
1000.000000	56.879146
999.000000	57.074468
998.000000	57.271944
997.000000	57.455995
996.000000	57.608303
995.000000	57.711427
994.000000	57.765519
993.000000	57.789560
992.000000	57.805112
991.000000	57.829871
990.000000	57.884141
989.000000	57.985775
988.000000	58.134076
987.000000	58.310291
986.000000	58.495011
985.000000	58.673866
984.000000	58.827896
983.000000	58.936673
982.000000	58.996279
981.000000	59.022255
980.000000	59.033552
979.000000	59.046231
978.000000	59.080591
977.000000	59.156217
976.000000	59.274827
975.000000	59.419585
974.000000	59.573060
973.000000	59.723385
972.000000	59.854442
971.000000	59.947988
970.000000	60.000651
969.000000	60.026353
968.000000	60.040493
967.000000	60.054980
966.000000	60.086827
965.000000	60.153766
964.000000	60.257188
963.000000	60.381588
962.000000	60.511462
961.000000	60.636432
960.000000	60.741203
959.000000	60.809222
958.000000	60.840337
957.000000	60.851699
956.000000	60.859661
955.000000	60.874081
954.000000	60.908618
953.000000	60.977495
952.000000	61.078369
951.000000	61.192329
950.000000	61.302984
949.000000	61.401934
948.000000	61.477122
947.000000	61.514540
946.000000	61.516197
945.000000	61.501077
944.000000	61.486860
943.000000	61.483701
942.000000	61.503946
941.000000	61.559320
940.000000	61.644762
939.000000	61.739574
938.000000	61.826288
937.000000	61.895684
936.000000	61.935200
935.000000	61.931791
934.000000	61.890096
933.000000	61.832484
932.000000	61.778531
931.000000	61.738607
930.000000	61.724418
929.000000	61.746263
928.000000	61.796368
927.000000	61.850318
926.000000	61.888070
925.000000	61.899352
924.000000	61.871425
923.000000	61.791553
922.000000	61.665393
921.000000	61.517402
920.000000	61.369750
919.000000	61.234364
918.000000	61.122710
917.000000	61.042849
916.000000	60.984173
915.000000	60.919590
914.000000	60.826297
913.000000	60.692662
912.000000	60.505784
911.000000	60.254088
910.000000	59.944719
909.000000	59.603119
908.000000	59.252648
907.000000	58.905815
906.000000	58.573813
905.000000	58.264000
904.000000	57.964637
903.000000	57.647897
902.000000	57.288864
901.000000	56.872457
900.000000	56.384089
899.000000	55.812243
898.000000	55.164709
897.000000	54.465575
896.000000	53.736939
895.000000	52.992289
894.000000	52.243188
893.000000	51.497634
892.000000	50.746488
891.000000	49.965502
890.000000	49.131814
889.000000	48.229342
888.000000	47.244696
887.000000	46.169617
886.000000	45.011599
885.000000	43.791808
884.000000	42.529858
883.000000	41.240205
882.000000	39.935749
881.000000	38.625564
880.000000	37.308597
879.000000	35.975977
878.000000	34.620929
877.000000	33.241792
876.000000	31.840074
875.000000	30.421927
874.000000	29.002199
873.000000	27.602346
872.000000	26.245292
871.000000	24.951634
870.000000	23.735063
869.000000	22.602640
868.000000	21.555390
867.000000	20.590377
866.000000	19.702028
865.000000	18.881708
864.000000	18.123191
863.000000	17.422114
862.000000	16.774192
861.000000	16.177535
860.000000	15.632877
859.000000	15.141835
858.000000	14.700735
857.000000	14.302259
856.000000	13.943180
855.000000	13.622586
854.000000	13.337241
853.000000	13.082016
852.000000	12.856506
851.000000	12.666879
850.000000	12.517786
849.000000	12.411152
848.000000	12.350884
847.000000	12.343209
846.000000	12.392950
845.000000	12.500644
844.000000	12.667658
843.000000	12.897079
842.000000	13.188118
841.000000	13.536965
840.000000	13.940786
839.000000	14.401665
838.000000	14.923295
837.000000	15.506766
836.000000	16.152510
835.000000	16.859403
834.000000	17.618184
833.000000	18.397035
832.000000	19.124147
831.000000	19.644514
830.000000	19.686330
829.000000	18.901259
828.000000	17.064986
827.000000	14.359182
826.000000	11.451378
825.000000	9.200314
824.000000	8.172270
823.000000	8.377737
822.000000	9.421770
821.000000	10.856587
820.000000	12.385056
819.000000	13.855062
818.000000	15.202000
817.000000	16.415663
816.000000	17.522727
815.000000	18.548496
814.000000	19.504317
813.000000	20.401704
812.000000	21.257322
811.000000	22.078021
810.000000	22.859848
809.000000	23.602687
808.000000	24.310269
807.000000	24.981190
806.000000	25.612908
805.000000	26.214248
804.000000	26.798592
803.000000	27.366853
802.000000	27.913239
801.000000	28.442431
800.000000	28.967822
799.000000	29.496359
798.000000	30.027934
797.000000	30.565175
796.000000	31.109615
795.000000	31.653142
794.000000	32.185804
793.000000	32.706960
792.000000	33.218465
791.000000	33.715020
790.000000	34.193906
789.000000	34.666472
788.000000	35.147483
787.000000	35.639616
786.000000	36.138312
785.000000	36.642803
784.000000	37.150638
783.000000	37.649658
782.000000	38.127681
781.000000	38.583522
780.000000	39.019300
779.000000	39.432023
778.000000	39.823388
777.000000	40.208492
776.000000	40.603051
775.000000	41.009335
774.000000	41.423279
773.000000	41.844464
772.000000	42.268585
771.000000	42.680268
770.000000	43.064657
769.000000	43.418934
768.000000	43.744430
767.000000	44.039293
766.000000	44.308896
765.000000	44.571874
764.000000	44.845411
763.000000	45.132787
762.000000	45.432584
761.000000	45.747365
760.000000	46.073416
759.000000	46.393898
758.000000	46.692970
757.000000	46.967442
756.000000	47.217819
755.000000	47.441426
754.000000	47.644425
753.000000	47.847349
752.000000	48.068274
751.000000	48.310791
750.000000	48.574427
749.000000	48.862239
748.000000	49.168742
747.000000	49.474690
746.000000	49.764018
745.000000	50.034169
744.000000	50.282915
743.000000	50.501457
742.000000	50.690142
741.000000	50.866009
740.000000	51.044283
739.000000	51.225977
738.000000	51.411216
737.000000	51.607493
736.000000	51.814166
735.000000	52.013820
734.000000	52.190283
733.000000	52.340979
732.000000	52.463140
731.000000	52.545633
730.000000	52.586231
729.000000	52.601671
728.000000	52.609446
727.000000	52.613919
726.000000	52.619317
725.000000	52.640247
724.000000	52.688152
723.000000	52.761370
722.000000	52.858320
721.000000	52.985544
720.000000	53.143129
719.000000	53.319075
718.000000	53.508657
717.000000	53.722847
716.000000	53.967323
715.000000	54.230796
714.000000	54.503672
713.000000	54.789737
712.000000	55.088547
711.000000	55.384666
710.000000	55.666754
709.000000	55.939594
708.000000	56.207497
707.000000	56.465204
706.000000	56.715458
705.000000	56.974844
704.000000	57.249845
703.000000	57.524986
702.000000	57.785599
701.000000	58.033633
700.000000	58.270871
699.000000	58.487635
698.000000	58.679913
697.000000	58.858915
696.000000	59.032344
695.000000	59.196083
694.000000	59.354282
693.000000	59.526005
692.000000	59.719825
691.000000	59.923492
690.000000	60.129565
689.000000	60.347862
688.000000	60.578691
687.000000	60.797582
686.000000	60.983772
685.000000	61.142248
684.000000	61.284936
683.000000	61.413536
682.000000	61.535324
681.000000	61.672346
680.000000	61.839209
679.000000	62.029197
678.000000	62.235458
677.000000	62.461523
676.000000	62.701833
675.000000	62.932569
674.000000	63.135164
673.000000	63.312856
672.000000	63.473258
671.000000	63.616682
670.000000	63.750591
669.000000	63.896533
668.000000	64.047337
667.000000	64.165678
666.000000	64.284041
665.000000	64.452575
664.000000	64.665048
663.000000	64.889191
662.000000	65.100951
661.000000	65.297988
660.000000	65.481369
659.000000	65.641441
658.000000	65.778094
657.000000	65.907144
656.000000	66.037082
655.000000	66.161508
654.000000	66.285437
653.000000	66.432948
652.000000	66.614963
651.000000	66.814706
650.000000	67.015696
649.000000	67.217573
648.000000	67.412134
647.000000	67.576429
646.000000	67.706119
645.000000	67.825754
644.000000	67.949666
643.000000	68.064217
642.000000	68.164505
641.000000	68.275124
640.000000	68.414144
639.000000	68.568307
638.000000	68.721857
637.000000	68.880688
636.000000	69.050308
635.000000	69.218403
634.000000	69.378062
633.000000	69.538590
632.000000	69.698188
631.000000	69.836179
630.000000	69.947616
629.000000	70.054780
628.000000	70.171360
627.000000	70.288462
626.000000	70.407603
625.000000	70.549183
624.000000	70.711632
623.000000	70.861138
622.000000	70.981367
621.000000	71.094289
620.000000	71.213681
619.000000	71.321891
618.000000	71.411939
617.000000	71.512656
616.000000	71.645516
615.000000	71.792267
614.000000	71.927112
613.000000	72.044282
612.000000	72.132453
611.000000	72.161438
610.000000	72.113191
609.000000	71.989558
608.000000	71.771117
607.000000	71.393658
606.000000	70.784753
605.000000	69.865278
604.000000	68.484119
603.000000	66.399993
602.000000	63.329560
601.000000	59.061362
600.000000	53.612606
599.000000	47.413451
598.000000	41.327698
597.000000	36.363204
596.000000	33.276535
595.000000	32.330965
594.000000	33.279424
593.000000	35.545793
592.000000	38.524627
591.000000	41.734893
590.000000	44.845549
589.000000	47.700950
588.000000	50.271737
587.000000	52.573057
586.000000	54.618723
585.000000	56.425912
584.000000	58.007057
583.000000	59.374810
582.000000	60.571811
581.000000	61.671303
580.000000	62.714377
579.000000	63.668140
578.000000	64.499770
577.000000	65.238893
576.000000	65.928977
575.000000	66.559491
574.000000	67.091885
573.000000	67.526508
572.000000	67.889198
571.000000	68.194874
570.000000	68.469194
569.000000	68.764025
568.000000	69.109010
567.000000	69.478377
566.000000	69.835117
565.000000	70.176826
564.000000	70.503759
563.000000	70.788104
562.000000	71.011879
561.000000	71.195575
560.000000	71.359495
559.000000	71.497817
558.000000	71.620566
557.000000	71.772274
556.000000	71.979473
555.000000	72.218025
554.000000	72.458086
553.000000	72.696592
552.000000	72.921420
551.000000	73.093453
550.000000	73.199065
549.000000	73.273858
548.000000	73.347984
547.000000	73.420835
546.000000	73.508974
545.000000	73.657313
544.000000	73.872096
543.000000	74.103811
542.000000	74.319995
541.000000	74.539200
540.000000	74.763263
539.000000	74.943301
538.000000	75.049040
537.000000	75.114391
536.000000	75.176937
535.000000	75.232364
534.000000	75.283608
533.000000	75.372357
532.000000	75.522141
531.000000	75.697560
530.000000	75.856210
529.000000	75.991066
528.000000	76.093856
527.000000	76.138137
526.000000	76.136639
525.000000	76.137176
524.000000	76.128836
523.000000	76.026738
522.000000	75.772325
521.000000	75.379986
520.000000	74.870786
519.000000	74.232601
518.000000	73.487859
517.000000	72.738403
516.000000	72.090238
515.000000	71.595003
514.000000	71.286717
513.000000	71.205318
512.000000	71.332690
511.000000	71.556702
510.000000	71.737661
509.000000	71.777025
508.000000	71.583049
507.000000	71.033401
506.000000	70.029740
505.000000	68.549419
504.000000	66.634173
503.000000	64.441482
502.000000	62.344855
501.000000	60.812042
500.000000	60.113094
499.000000	60.224988
498.000000	60.979884
497.000000	62.159042
496.000000	63.486018
495.000000	64.670591
494.000000	65.529156
493.000000	66.067631
492.000000	66.409708
491.000000	66.691970
490.000000	67.036668
489.000000	67.540217
488.000000	68.221159
487.000000	69.020650
486.000000	69.886666
485.000000	70.818514
484.000000	71.795063
483.000000	72.722112
482.000000	73.514256
481.000000	74.166187
480.000000	74.683893
479.000000	75.037776
478.000000	75.240435
477.000000	75.384731
476.000000	75.536554
475.000000	75.671805
474.000000	75.792596
473.000000	76.018363
472.000000	76.426448
471.000000	76.879193
470.000000	77.196770
469.000000	77.365819
468.000000	77.460276
467.000000	77.501532
466.000000	77.478120
465.000000	77.427172
464.000000	77.398230
463.000000	77.400461
462.000000	77.445687
461.000000	77.561173
460.000000	77.704814
459.000000	77.766423
458.000000	77.735467
457.000000	77.714102
456.000000	77.691369
455.000000	77.533392
454.000000	77.208829
453.000000	76.873640
452.000000	76.691090
451.000000	76.626565
450.000000	76.535685
449.000000	76.349835
448.000000	76.050575
447.000000	75.549765
446.000000	74.727761
445.000000	73.519195
444.000000	71.874551
443.000000	69.747114
442.000000	67.183989
441.000000	64.338513
440.000000	61.337781
439.000000	58.260267
438.000000	55.261691
437.000000	52.672685
436.000000	50.874300
435.000000	50.061559
434.000000	50.160327
433.000000	50.982885
432.000000	52.389478
431.000000	54.217319
430.000000	56.263674
429.000000	58.412762
428.000000	60.619983
427.000000	62.780819
426.000000	64.784708
425.000000	66.675093
424.000000	68.516099
423.000000	70.150330
422.000000	71.329760
421.000000	72.040358
420.000000	72.468110
419.000000	72.919801
418.000000	73.609440
417.000000	74.478203
416.000000	75.398986
415.000000	76.215587
414.000000	76.830248
413.000000	77.352031
412.000000	77.880066
411.000000	78.273239
410.000000	78.397857
409.000000	78.409606
408.000000	78.483271
407.000000	78.519719
406.000000	78.485302
405.000000	78.553759
404.000000	78.902514
403.000000	79.275384
402.000000	79.354517
401.000000	79.234576
400.000000	79.123886
