PE IR       SUBTECH     SPECTRUM    ASCII       PEDS        4.00        
   -1
23ms039,021,040_nitrito.asc
24/09/03
15:56:20.00
24/09/03
15:56:20.00
Administrator
Sample 1091 By Administrator Date Tuesday, September 03 2024
400.000000
#HDR
-1
-1
#GR
cm-1
%T
1.0
0.0
4000.000000
-1.000000
3601
8
88.810681
10.494885
#DATA
4000.000000	76.726052
3999.000000	76.770203
3998.000000	76.815276
3997.000000	76.860666
3996.000000	76.905253
3995.000000	76.947911
3994.000000	76.988599
3993.000000	77.028646
3992.000000	77.069641
3991.000000	77.112009
3990.000000	77.154775
3989.000000	77.196794
3988.000000	77.237840
3987.000000	77.278268
3986.000000	77.318151
3985.000000	77.357073
3984.000000	77.394793
3983.000000	77.431736
3982.000000	77.468825
3981.000000	77.507061
3980.000000	77.547149
3979.000000	77.589284
3978.000000	77.632784
3977.000000	77.675991
3976.000000	77.717088
3975.000000	77.755210
3974.000000	77.790847
3973.000000	77.825235
3972.000000	77.859415
3971.000000	77.893881
3970.000000	77.928527
3969.000000	77.962932
3968.000000	77.996696
3967.000000	78.029569
3966.000000	78.061765
3965.000000	78.094184
3964.000000	78.127999
3963.000000	78.163441
3962.000000	78.199373
3961.000000	78.234175
3960.000000	78.267231
3959.000000	78.299430
3958.000000	78.331694
3957.000000	78.364123
3956.000000	78.396579
3955.000000	78.429131
3954.000000	78.462100
3953.000000	78.495618
3952.000000	78.529981
3951.000000	78.565920
3950.000000	78.603774
3949.000000	78.642622
3948.000000	78.680696
3947.000000	78.717416
3946.000000	78.754466
3945.000000	78.794182
3944.000000	78.836513
3943.000000	78.877733
3942.000000	78.914465
3941.000000	78.947794
3940.000000	78.981513
3939.000000	79.017990
3938.000000	79.055708
3937.000000	79.091838
3936.000000	79.126728
3935.000000	79.163595
3934.000000	79.205138
3933.000000	79.249903
3932.000000	79.293766
3931.000000	79.333650
3930.000000	79.368655
3929.000000	79.400833
3928.000000	79.433818
3927.000000	79.471052
3926.000000	79.512596
3925.000000	79.553466
3924.000000	79.589151
3923.000000	79.620424
3922.000000	79.650515
3921.000000	79.681344
3920.000000	79.713918
3919.000000	79.750196
3918.000000	79.791072
3917.000000	79.833349
3916.000000	79.872315
3915.000000	79.906382
3914.000000	79.938416
3913.000000	79.971836
3912.000000	80.006866
3911.000000	80.042012
3910.000000	80.075672
3909.000000	80.107859
3908.000000	80.141177
3907.000000	80.177466
3906.000000	80.216231
3905.000000	80.253495
3904.000000	80.286201
3903.000000	80.317746
3902.000000	80.354064
3901.000000	80.396578
3900.000000	80.439754
3899.000000	80.476038
3898.000000	80.504165
3897.000000	80.528792
3896.000000	80.554009
3895.000000	80.582681
3894.000000	80.616882
3893.000000	80.657481
3892.000000	80.699926
3891.000000	80.736039
3890.000000	80.763839
3889.000000	80.790360
3888.000000	80.826347
3887.000000	80.875758
3886.000000	80.927889
3885.000000	80.968017
3884.000000	80.995240
3883.000000	81.020516
3882.000000	81.051149
3881.000000	81.083727
3880.000000	81.111071
3879.000000	81.133612
3878.000000	81.158837
3877.000000	81.191873
3876.000000	81.231042
3875.000000	81.268220
3874.000000	81.295700
3873.000000	81.317006
3872.000000	81.345749
3871.000000	81.388399
3870.000000	81.433478
3869.000000	81.468142
3868.000000	81.495132
3867.000000	81.524714
3866.000000	81.559810
3865.000000	81.593070
3864.000000	81.619523
3863.000000	81.644973
3862.000000	81.675441
3861.000000	81.710238
3860.000000	81.745986
3859.000000	81.782214
3858.000000	81.822351
3857.000000	81.867427
3856.000000	81.914814
3855.000000	81.959402
3854.000000	81.998653
3853.000000	82.038181
3852.000000	82.083463
3851.000000	82.127969
3850.000000	82.161137
3849.000000	82.180807
3848.000000	82.191679
3847.000000	82.203770
3846.000000	82.225245
3845.000000	82.257054
3844.000000	82.294672
3843.000000	82.332996
3842.000000	82.371197
3841.000000	82.413829
3840.000000	82.461195
3839.000000	82.506919
3838.000000	82.547385
3837.000000	82.583796
3836.000000	82.618995
3835.000000	82.653935
3834.000000	82.689003
3833.000000	82.724536
3832.000000	82.758528
3831.000000	82.789453
3830.000000	82.819948
3829.000000	82.854013
3828.000000	82.892962
3827.000000	82.933719
3826.000000	82.969814
3825.000000	83.000022
3824.000000	83.031016
3823.000000	83.070835
3822.000000	83.118111
3821.000000	83.159297
3820.000000	83.190261
3819.000000	83.224132
3818.000000	83.271797
3817.000000	83.328315
3816.000000	83.378295
3815.000000	83.416166
3814.000000	83.451731
3813.000000	83.489430
3812.000000	83.521194
3811.000000	83.542304
3810.000000	83.560889
3809.000000	83.590118
3808.000000	83.633937
3807.000000	83.681743
3806.000000	83.721992
3805.000000	83.757113
3804.000000	83.794904
3803.000000	83.839493
3802.000000	83.882716
3801.000000	83.915037
3800.000000	83.945248
3799.000000	83.986460
3798.000000	84.036838
3797.000000	84.083272
3796.000000	84.117337
3795.000000	84.144750
3794.000000	84.177066
3793.000000	84.217833
3792.000000	84.262316
3791.000000	84.306914
3790.000000	84.351222
3789.000000	84.394398
3788.000000	84.434970
3787.000000	84.472771
3786.000000	84.508355
3785.000000	84.541113
3784.000000	84.570873
3783.000000	84.602058
3782.000000	84.641333
3781.000000	84.690384
3780.000000	84.742379
3779.000000	84.788317
3778.000000	84.825754
3777.000000	84.858526
3776.000000	84.889771
3775.000000	84.919768
3774.000000	84.949449
3773.000000	84.982521
3772.000000	85.023143
3771.000000	85.069994
3770.000000	85.114957
3769.000000	85.152566
3768.000000	85.186651
3767.000000	85.223830
3766.000000	85.264937
3765.000000	85.304023
3764.000000	85.338627
3763.000000	85.374530
3762.000000	85.416484
3761.000000	85.461548
3760.000000	85.502421
3759.000000	85.538238
3758.000000	85.573944
3757.000000	85.611331
3756.000000	85.650175
3755.000000	85.690497
3754.000000	85.731780
3753.000000	85.771123
3752.000000	85.806210
3751.000000	85.841526
3750.000000	85.882598
3749.000000	85.927483
3748.000000	85.972780
3747.000000	86.021972
3746.000000	86.078404
3745.000000	86.132060
3744.000000	86.172416
3743.000000	86.210681
3742.000000	86.257985
3741.000000	86.306654
3740.000000	86.344688
3739.000000	86.373162
3738.000000	86.407204
3737.000000	86.457110
3736.000000	86.517211
3735.000000	86.571998
3734.000000	86.615764
3733.000000	86.654132
3732.000000	86.690023
3731.000000	86.724428
3730.000000	86.761148
3729.000000	86.805190
3728.000000	86.857352
3727.000000	86.910130
3726.000000	86.955061
3725.000000	86.991644
3724.000000	87.025222
3723.000000	87.058599
3722.000000	87.091722
3721.000000	87.128301
3720.000000	87.172460
3719.000000	87.224273
3718.000000	87.277442
3717.000000	87.323169
3716.000000	87.358491
3715.000000	87.385437
3714.000000	87.407598
3713.000000	87.429467
3712.000000	87.457926
3711.000000	87.500332
3710.000000	87.558088
3709.000000	87.623028
3708.000000	87.682730
3707.000000	87.729025
3706.000000	87.762729
3705.000000	87.790854
3704.000000	87.821504
3703.000000	87.859462
3702.000000	87.903974
3701.000000	87.951547
3700.000000	87.998805
3699.000000	88.043614
3698.000000	88.083820
3697.000000	88.116486
3696.000000	88.141466
3695.000000	88.164467
3694.000000	88.192426
3693.000000	88.229100
3692.000000	88.274325
3691.000000	88.324263
3690.000000	88.371238
3689.000000	88.408365
3688.000000	88.436901
3687.000000	88.462908
3686.000000	88.490959
3685.000000	88.520315
3684.000000	88.545590
3683.000000	88.563973
3682.000000	88.579125
3681.000000	88.594368
3680.000000	88.608370
3679.000000	88.617506
3678.000000	88.623272
3677.000000	88.632319
3676.000000	88.646202
3675.000000	88.665294
3674.000000	88.693179
3673.000000	88.726897
3672.000000	88.753099
3671.000000	88.759739
3670.000000	88.747260
3669.000000	88.735247
3668.000000	88.745086
3667.000000	88.773743
3666.000000	88.800319
3665.000000	88.810681
3664.000000	88.806011
3663.000000	88.796654
3662.000000	88.789890
3661.000000	88.784372
3660.000000	88.776715
3659.000000	88.764017
3658.000000	88.743245
3657.000000	88.711881
3656.000000	88.673270
3655.000000	88.638267
3654.000000	88.612407
3653.000000	88.589476
3652.000000	88.558345
3651.000000	88.511769
3650.000000	88.452644
3649.000000	88.396566
3648.000000	88.360261
3647.000000	88.341519
3646.000000	88.322590
3645.000000	88.290999
3644.000000	88.246890
3643.000000	88.196794
3642.000000	88.145283
3641.000000	88.094338
3640.000000	88.046110
3639.000000	88.000182
3638.000000	87.951706
3637.000000	87.895325
3636.000000	87.831245
3635.000000	87.764627
3634.000000	87.700033
3633.000000	87.639967
3632.000000	87.583047
3631.000000	87.521850
3630.000000	87.445615
3629.000000	87.353996
3628.000000	87.268619
3627.000000	87.211465
3626.000000	87.175077
3625.000000	87.136922
3624.000000	87.086007
3623.000000	87.026085
3622.000000	86.962966
3621.000000	86.894229
3620.000000	86.813603
3619.000000	86.724201
3618.000000	86.640008
3617.000000	86.570797
3616.000000	86.513664
3615.000000	86.458218
3614.000000	86.394479
3613.000000	86.320368
3612.000000	86.243075
3611.000000	86.170027
3610.000000	86.101795
3609.000000	86.036107
3608.000000	85.974031
3607.000000	85.920173
3606.000000	85.875156
3605.000000	85.831386
3604.000000	85.779512
3603.000000	85.714951
3602.000000	85.639219
3601.000000	85.558090
3600.000000	85.478491
3599.000000	85.405174
3598.000000	85.338357
3597.000000	85.274600
3596.000000	85.211363
3595.000000	85.147326
3594.000000	85.080866
3593.000000	85.012017
3592.000000	84.942063
3591.000000	84.871790
3590.000000	84.801696
3589.000000	84.734066
3588.000000	84.672586
3587.000000	84.619396
3586.000000	84.572213
3585.000000	84.523631
3584.000000	84.465104
3583.000000	84.393082
3582.000000	84.310642
3581.000000	84.224899
3580.000000	84.142946
3579.000000	84.067881
3578.000000	83.997299
3577.000000	83.926529
3576.000000	83.852824
3575.000000	83.776964
3574.000000	83.701107
3573.000000	83.627731
3572.000000	83.558742
3571.000000	83.492525
3570.000000	83.423209
3569.000000	83.345029
3568.000000	83.257807
3567.000000	83.167943
3566.000000	83.084179
3565.000000	83.011330
3564.000000	82.947406
3563.000000	82.886260
3562.000000	82.820634
3561.000000	82.745301
3560.000000	82.659440
3559.000000	82.565704
3558.000000	82.467450
3557.000000	82.368029
3556.000000	82.271569
3555.000000	82.181505
3554.000000	82.097614
3553.000000	82.016095
3552.000000	81.933564
3551.000000	81.848781
3550.000000	81.760945
3549.000000	81.670059
3548.000000	81.578606
3547.000000	81.490396
3546.000000	81.406475
3545.000000	81.324720
3544.000000	81.242565
3543.000000	81.157825
3542.000000	81.068062
3541.000000	80.972974
3540.000000	80.876619
3539.000000	80.784233
3538.000000	80.697313
3537.000000	80.613421
3536.000000	80.531031
3535.000000	80.450917
3534.000000	80.373415
3533.000000	80.297142
3532.000000	80.220576
3531.000000	80.143286
3530.000000	80.065304
3529.000000	79.988405
3528.000000	79.917234
3527.000000	79.856136
3526.000000	79.804060
3525.000000	79.754226
3524.000000	79.698801
3523.000000	79.633490
3522.000000	79.559313
3521.000000	79.481908
3520.000000	79.408181
3519.000000	79.341229
3518.000000	79.278903
3517.000000	79.217779
3516.000000	79.156719
3515.000000	79.094943
3514.000000	79.029668
3513.000000	78.959063
3512.000000	78.885670
3511.000000	78.813786
3510.000000	78.744528
3509.000000	78.676173
3508.000000	78.607713
3507.000000	78.539069
3506.000000	78.468827
3505.000000	78.395214
3504.000000	78.318722
3503.000000	78.241478
3502.000000	78.164645
3501.000000	78.088378
3500.000000	78.012907
3499.000000	77.936709
3498.000000	77.855168
3497.000000	77.764351
3496.000000	77.665987
3495.000000	77.566222
3494.000000	77.470059
3493.000000	77.379264
3492.000000	77.294037
3491.000000	77.212940
3490.000000	77.131674
3489.000000	77.045244
3488.000000	76.951502
3487.000000	76.851296
3486.000000	76.746601
3485.000000	76.640771
3484.000000	76.539269
3483.000000	76.446267
3482.000000	76.360023
3481.000000	76.273718
3480.000000	76.180573
3479.000000	76.077325
3478.000000	75.964684
3477.000000	75.847311
3476.000000	75.732173
3475.000000	75.623909
3474.000000	75.522209
3473.000000	75.424579
3472.000000	75.329769
3471.000000	75.236312
3470.000000	75.139898
3469.000000	75.035678
3468.000000	74.922334
3467.000000	74.801932
3466.000000	74.677280
3465.000000	74.551367
3464.000000	74.427592
3463.000000	74.307442
3462.000000	74.188749
3461.000000	74.068407
3460.000000	73.945754
3459.000000	73.821827
3458.000000	73.697055
3457.000000	73.571611
3456.000000	73.446426
3455.000000	73.321132
3454.000000	73.192953
3453.000000	73.059862
3452.000000	72.923687
3451.000000	72.788179
3450.000000	72.654915
3449.000000	72.523112
3448.000000	72.391684
3447.000000	72.259094
3446.000000	72.122649
3445.000000	71.980361
3444.000000	71.832836
3443.000000	71.682332
3442.000000	71.531390
3441.000000	71.383571
3440.000000	71.242730
3439.000000	71.108581
3438.000000	70.974317
3437.000000	70.830930
3436.000000	70.673507
3435.000000	70.502384
3434.000000	70.321258
3433.000000	70.136533
3432.000000	69.955257
3431.000000	69.779982
3430.000000	69.605834
3429.000000	69.425204
3428.000000	69.234537
3427.000000	69.034864
3426.000000	68.828739
3425.000000	68.619681
3424.000000	68.412274
3423.000000	68.208770
3422.000000	68.005954
3421.000000	67.798079
3420.000000	67.581992
3419.000000	67.357311
3418.000000	67.124118
3417.000000	66.883664
3416.000000	66.639859
3415.000000	66.396465
3414.000000	66.152946
3413.000000	65.905576
3412.000000	65.651101
3411.000000	65.387370
3410.000000	65.112166
3409.000000	64.824507
3408.000000	64.526946
3407.000000	64.224231
3406.000000	63.920472
3405.000000	63.618468
3404.000000	63.319018
3403.000000	63.018399
3402.000000	62.707996
3401.000000	62.379339
3400.000000	62.029533
3399.000000	61.661472
3398.000000	61.281615
3397.000000	60.898453
3396.000000	60.519006
3395.000000	60.143548
3394.000000	59.764542
3393.000000	59.372829
3392.000000	58.963711
3391.000000	58.536794
3390.000000	58.094587
3389.000000	57.642700
3388.000000	57.187991
3387.000000	56.732942
3386.000000	56.273384
3385.000000	55.804056
3384.000000	55.323229
3383.000000	54.831127
3382.000000	54.327538
3381.000000	53.813424
3380.000000	53.292160
3379.000000	52.765949
3378.000000	52.233315
3377.000000	51.691826
3376.000000	51.140403
3375.000000	50.578314
3374.000000	50.005088
3373.000000	49.423197
3372.000000	48.837606
3371.000000	48.249954
3370.000000	47.656715
3369.000000	47.053853
3368.000000	46.440215
3367.000000	45.815581
3366.000000	45.179370
3365.000000	44.533739
3364.000000	43.883843
3363.000000	43.233040
3362.000000	42.580979
3361.000000	41.927022
3360.000000	41.271842
3359.000000	40.614210
3358.000000	39.950431
3357.000000	39.279409
3356.000000	38.604439
3355.000000	37.928984
3354.000000	37.254179
3353.000000	36.581245
3352.000000	35.912114
3351.000000	35.246055
3350.000000	34.579630
3349.000000	33.911433
3348.000000	33.243389
3347.000000	32.576817
3346.000000	31.911613
3345.000000	31.249898
3344.000000	30.595898
3343.000000	29.950984
3342.000000	29.312664
3341.000000	28.679349
3340.000000	28.051999
3339.000000	27.430896
3338.000000	26.815573
3337.000000	26.208209
3336.000000	25.612738
3335.000000	25.029743
3334.000000	24.456442
3333.000000	23.892127
3332.000000	23.338470
3331.000000	22.795003
3330.000000	22.259228
3329.000000	21.731569
3328.000000	21.216222
3327.000000	20.715960
3326.000000	20.230842
3325.000000	19.761484
3324.000000	19.308351
3323.000000	18.868684
3322.000000	18.438438
3321.000000	18.017746
3320.000000	17.610438
3319.000000	17.217852
3318.000000	16.838875
3317.000000	16.474063
3316.000000	16.124889
3315.000000	15.789500
3314.000000	15.463708
3313.000000	15.146557
3312.000000	14.839889
3311.000000	14.543504
3310.000000	14.256465
3309.000000	13.981406
3308.000000	13.723003
3307.000000	13.482282
3306.000000	13.257113
3305.000000	13.047581
3304.000000	12.854314
3303.000000	12.673760
3302.000000	12.500380
3301.000000	12.332830
3300.000000	12.173408
3299.000000	12.022045
3298.000000	11.876810
3297.000000	11.739042
3296.000000	11.611773
3295.000000	11.494478
3294.000000	11.384420
3293.000000	11.282806
3292.000000	11.193934
3291.000000	11.118051
3290.000000	11.051091
3289.000000	10.990075
3288.000000	10.934268
3287.000000	10.882042
3286.000000	10.831618
3285.000000	10.784981
3284.000000	10.745521
3283.000000	10.712848
3282.000000	10.684283
3281.000000	10.659845
3280.000000	10.641148
3279.000000	10.626418
3278.000000	10.612107
3277.000000	10.598480
3276.000000	10.588428
3275.000000	10.582016
3274.000000	10.577145
3273.000000	10.574790
3272.000000	10.578469
3271.000000	10.588945
3270.000000	10.604052
3269.000000	10.622620
3268.000000	10.644193
3267.000000	10.666407
3266.000000	10.687151
3265.000000	10.708271
3264.000000	10.732749
3263.000000	10.759451
3262.000000	10.785127
3261.000000	10.809603
3260.000000	10.834529
3259.000000	10.859038
3258.000000	10.881672
3257.000000	10.905094
3256.000000	10.933503
3255.000000	10.966651
3254.000000	11.000903
3253.000000	11.034748
3252.000000	11.068483
3251.000000	11.100263
3250.000000	11.127875
3249.000000	11.153529
3248.000000	11.182028
3247.000000	11.214951
3246.000000	11.250628
3245.000000	11.288163
3244.000000	11.327060
3243.000000	11.364442
3242.000000	11.397586
3241.000000	11.428123
3240.000000	11.459580
3239.000000	11.491944
3238.000000	11.522751
3237.000000	11.551787
3236.000000	11.580528
3235.000000	11.608723
3234.000000	11.635846
3233.000000	11.664200
3232.000000	11.696092
3231.000000	11.729538
3230.000000	11.761066
3229.000000	11.790919
3228.000000	11.821105
3227.000000	11.850316
3226.000000	11.875485
3225.000000	11.896848
3224.000000	11.916867
3223.000000	11.935806
3222.000000	11.952666
3221.000000	11.968865
3220.000000	11.986427
3219.000000	12.003837
3218.000000	12.018055
3217.000000	12.029135
3216.000000	12.038914
3215.000000	12.047043
3214.000000	12.052372
3213.000000	12.056535
3212.000000	12.061712
3211.000000	12.066460
3210.000000	12.067861
3209.000000	12.065908
3208.000000	12.061999
3207.000000	12.055172
3206.000000	12.044027
3205.000000	12.030546
3204.000000	12.017593
3203.000000	12.004519
3202.000000	11.989138
3201.000000	11.971917
3200.000000	11.954205
3199.000000	11.934402
3198.000000	11.910377
3197.000000	11.883734
3196.000000	11.857424
3195.000000	11.831133
3194.000000	11.803037
3193.000000	11.773921
3192.000000	11.745344
3191.000000	11.715723
3190.000000	11.682729
3189.000000	11.647582
3188.000000	11.612948
3187.000000	11.578617
3186.000000	11.543331
3185.000000	11.508673
3184.000000	11.476722
3183.000000	11.445871
3182.000000	11.413202
3181.000000	11.379208
3180.000000	11.346211
3179.000000	11.314287
3178.000000	11.282665
3177.000000	11.252894
3176.000000	11.226475
3175.000000	11.201395
3174.000000	11.175053
3173.000000	11.148462
3172.000000	11.123829
3171.000000	11.100490
3170.000000	11.077201
3169.000000	11.055944
3168.000000	11.039285
3167.000000	11.026097
3166.000000	11.013925
3165.000000	11.003142
3164.000000	10.994905
3163.000000	10.987725
3162.000000	10.980159
3161.000000	10.974528
3160.000000	10.973714
3159.000000	10.976589
3158.000000	10.980527
3157.000000	10.985664
3156.000000	10.992920
3155.000000	11.000736
3154.000000	11.008280
3153.000000	11.019407
3152.000000	11.038562
3151.000000	11.064995
3150.000000	11.094922
3149.000000	11.127034
3148.000000	11.161844
3147.000000	11.197997
3146.000000	11.233865
3145.000000	11.270797
3144.000000	11.310692
3143.000000	11.352557
3142.000000	11.395123
3141.000000	11.440749
3140.000000	11.492728
3139.000000	11.550597
3138.000000	11.611886
3137.000000	11.676045
3136.000000	11.743267
3135.000000	11.811974
3134.000000	11.881096
3133.000000	11.952797
3132.000000	12.029204
3131.000000	12.108941
3130.000000	12.190161
3129.000000	12.274060
3128.000000	12.362058
3127.000000	12.452237
3126.000000	12.542302
3125.000000	12.633331
3124.000000	12.726892
3123.000000	12.821572
3122.000000	12.916029
3121.000000	13.012553
3120.000000	13.113742
3119.000000	13.218347
3118.000000	13.324580
3117.000000	13.434646
3116.000000	13.551681
3115.000000	13.674637
3114.000000	13.799869
3113.000000	13.925567
3112.000000	14.051012
3111.000000	14.174454
3110.000000	14.295908
3109.000000	14.419502
3108.000000	14.549096
3107.000000	14.683506
3106.000000	14.819334
3105.000000	14.955935
3104.000000	15.093941
3103.000000	15.231866
3102.000000	15.368327
3101.000000	15.505424
3100.000000	15.646143
3099.000000	15.790156
3098.000000	15.935704
3097.000000	16.083227
3096.000000	16.233413
3095.000000	16.384003
3094.000000	16.532246
3093.000000	16.678850
3092.000000	16.826386
3091.000000	16.975733
3090.000000	17.127029
3089.000000	17.281567
3088.000000	17.439445
3087.000000	17.597671
3086.000000	17.753827
3085.000000	17.909529
3084.000000	18.067168
3083.000000	18.225808
3082.000000	18.383715
3081.000000	18.542376
3080.000000	18.704503
3079.000000	18.870023
3078.000000	19.037350
3077.000000	19.206407
3076.000000	19.376997
3075.000000	19.546500
3074.000000	19.712740
3073.000000	19.877301
3072.000000	20.042833
3071.000000	20.208987
3070.000000	20.374235
3069.000000	20.539667
3068.000000	20.707525
3067.000000	20.877589
3066.000000	21.048091
3065.000000	21.218738
3064.000000	21.389917
3063.000000	21.560588
3062.000000	21.729765
3061.000000	21.898500
3060.000000	22.067878
3059.000000	22.236844
3058.000000	22.404439
3057.000000	22.572139
3056.000000	22.741358
3055.000000	22.910682
3054.000000	23.078371
3053.000000	23.245605
3052.000000	23.414426
3051.000000	23.584242
3050.000000	23.753043
3049.000000	23.920311
3048.000000	24.086247
3047.000000	24.250077
3046.000000	24.411831
3045.000000	24.573965
3044.000000	24.738521
3043.000000	24.904382
3042.000000	25.069624
3041.000000	25.234545
3040.000000	25.399805
3039.000000	25.563718
3038.000000	25.724438
3037.000000	25.883151
3036.000000	26.042477
3035.000000	26.203212
3034.000000	26.364854
3033.000000	26.527462
3032.000000	26.690386
3031.000000	26.851079
3030.000000	27.007972
3029.000000	27.162871
3028.000000	27.318243
3027.000000	27.473920
3026.000000	27.628780
3025.000000	27.783483
3024.000000	27.938787
3023.000000	28.093163
3022.000000	28.245007
3021.000000	28.395600
3020.000000	28.547139
3019.000000	28.699247
3018.000000	28.850095
3017.000000	28.999510
3016.000000	29.148423
3015.000000	29.296748
3014.000000	29.444421
3013.000000	29.593221
3012.000000	29.744836
3011.000000	29.898153
3010.000000	30.050661
3009.000000	30.201378
3008.000000	30.350446
3007.000000	30.497433
3006.000000	30.642289
3005.000000	30.786627
3004.000000	30.931832
3003.000000	31.076978
3002.000000	31.220528
3001.000000	31.362688
3000.000000	31.504353
2999.000000	31.645273
2998.000000	31.785194
2997.000000	31.925161
2996.000000	32.065708
2995.000000	32.205507
2994.000000	32.343911
2993.000000	32.482975
2992.000000	32.624594
2991.000000	32.767234
2990.000000	32.907956
2989.000000	33.046202
2988.000000	33.183239
2987.000000	33.319408
2986.000000	33.454428
2985.000000	33.589170
2984.000000	33.724561
2983.000000	33.859712
2982.000000	33.993394
2981.000000	34.126285
2980.000000	34.259690
2979.000000	34.393172
2978.000000	34.525669
2977.000000	34.657894
2976.000000	34.791382
2975.000000	34.926061
2974.000000	35.060704
2973.000000	35.194701
2972.000000	35.327584
2971.000000	35.458091
2970.000000	35.585854
2969.000000	35.712914
2968.000000	35.841386
2967.000000	35.970735
2966.000000	36.099194
2965.000000	36.226606
2964.000000	36.353698
2963.000000	36.479877
2962.000000	36.604221
2961.000000	36.727500
2960.000000	36.850959
2959.000000	36.974119
2958.000000	37.095783
2957.000000	37.216071
2956.000000	37.335410
2955.000000	37.453041
2954.000000	37.568828
2953.000000	37.685106
2952.000000	37.804225
2951.000000	37.925249
2950.000000	38.045329
2949.000000	38.163161
2948.000000	38.278979
2947.000000	38.392537
2946.000000	38.503710
2945.000000	38.614174
2944.000000	38.726027
2943.000000	38.839305
2942.000000	38.952797
2941.000000	39.066258
2940.000000	39.179608
2939.000000	39.291010
2938.000000	39.398213
2937.000000	39.501351
2936.000000	39.602498
2935.000000	39.703319
2934.000000	39.805161
2933.000000	39.910083
2932.000000	40.018997
2931.000000	40.129278
2930.000000	40.236588
2929.000000	40.338917
2928.000000	40.437099
2927.000000	40.532579
2926.000000	40.626978
2925.000000	40.722935
2924.000000	40.822591
2923.000000	40.925475
2922.000000	41.029766
2921.000000	41.134768
2920.000000	41.240218
2919.000000	41.344443
2918.000000	41.445828
2917.000000	41.545385
2916.000000	41.645259
2915.000000	41.745007
2914.000000	41.841550
2913.000000	41.932548
2912.000000	42.017940
2911.000000	42.098684
2910.000000	42.176302
2909.000000	42.253601
2908.000000	42.333731
2907.000000	42.417875
2906.000000	42.504760
2905.000000	42.592049
2904.000000	42.677174
2903.000000	42.757574
2902.000000	42.832580
2901.000000	42.904568
2900.000000	42.977536
2899.000000	43.054166
2898.000000	43.134475
2897.000000	43.216304
2896.000000	43.295878
2895.000000	43.369257
2894.000000	43.435159
2893.000000	43.496104
2892.000000	43.555735
2891.000000	43.615879
2890.000000	43.677041
2889.000000	43.739986
2888.000000	43.804608
2887.000000	43.868072
2886.000000	43.926253
2885.000000	43.976814
2884.000000	44.019649
2883.000000	44.055478
2882.000000	44.085850
2881.000000	44.113592
2880.000000	44.140850
2879.000000	44.166853
2878.000000	44.189393
2877.000000	44.208056
2876.000000	44.224310
2875.000000	44.239015
2874.000000	44.252443
2873.000000	44.266797
2872.000000	44.286805
2871.000000	44.317374
2870.000000	44.361490
2869.000000	44.419917
2868.000000	44.491155
2867.000000	44.572156
2866.000000	44.660881
2865.000000	44.758203
2864.000000	44.866237
2863.000000	44.985096
2862.000000	45.112218
2861.000000	45.243775
2860.000000	45.375444
2859.000000	45.502844
2858.000000	45.623682
2857.000000	45.739626
2856.000000	45.854584
2855.000000	45.971295
2854.000000	46.090301
2853.000000	46.210977
2852.000000	46.331538
2851.000000	46.448513
2850.000000	46.558327
2849.000000	46.659842
2848.000000	46.754588
2847.000000	46.845253
2846.000000	46.935101
2845.000000	47.027632
2844.000000	47.124453
2843.000000	47.223332
2842.000000	47.319885
2841.000000	47.411116
2840.000000	47.496443
2839.000000	47.576519
2838.000000	47.653134
2837.000000	47.729794
2836.000000	47.809914
2835.000000	47.893709
2834.000000	47.977972
2833.000000	48.059013
2832.000000	48.134909
2831.000000	48.205679
2830.000000	48.273284
2829.000000	48.341465
2828.000000	48.413618
2827.000000	48.490035
2826.000000	48.567971
2825.000000	48.644200
2824.000000	48.716583
2823.000000	48.784005
2822.000000	48.846910
2821.000000	48.908259
2820.000000	48.972197
2819.000000	49.040963
2818.000000	49.113609
2817.000000	49.187375
2816.000000	49.259102
2815.000000	49.325956
2814.000000	49.386980
2813.000000	49.444617
2812.000000	49.503459
2811.000000	49.566980
2810.000000	49.635931
2809.000000	49.709094
2808.000000	49.783829
2807.000000	49.856177
2806.000000	49.922690
2805.000000	49.983153
2804.000000	50.040673
2803.000000	50.099088
2802.000000	50.161183
2801.000000	50.228625
2800.000000	50.301208
2799.000000	50.375584
2798.000000	50.446433
2797.000000	50.510060
2796.000000	50.566528
2795.000000	50.618737
2794.000000	50.670800
2793.000000	50.727001
2792.000000	50.789902
2791.000000	50.858159
2790.000000	50.927052
2789.000000	50.991793
2788.000000	51.050014
2787.000000	51.101812
2786.000000	51.149393
2785.000000	51.196916
2784.000000	51.248660
2783.000000	51.305985
2782.000000	51.366490
2781.000000	51.426276
2780.000000	51.482132
2779.000000	51.532143
2778.000000	51.576498
2777.000000	51.618557
2776.000000	51.663488
2775.000000	51.714537
2774.000000	51.770910
2773.000000	51.829154
2772.000000	51.885407
2771.000000	51.936505
2770.000000	51.981085
2769.000000	52.020939
2768.000000	52.060531
2767.000000	52.104221
2766.000000	52.153945
2765.000000	52.208850
2764.000000	52.265610
2763.000000	52.319216
2762.000000	52.365568
2761.000000	52.404640
2760.000000	52.440615
2759.000000	52.478648
2758.000000	52.522095
2757.000000	52.572031
2756.000000	52.627110
2755.000000	52.683116
2754.000000	52.734489
2753.000000	52.777944
2752.000000	52.814416
2751.000000	52.847575
2750.000000	52.881699
2749.000000	52.920676
2748.000000	52.966611
2747.000000	53.017810
2746.000000	53.069094
2745.000000	53.115218
2744.000000	53.153831
2743.000000	53.185738
2742.000000	53.214190
2741.000000	53.244310
2740.000000	53.281030
2739.000000	53.325586
2738.000000	53.374284
2737.000000	53.421217
2736.000000	53.461751
2735.000000	53.494018
2734.000000	53.519230
2733.000000	53.541711
2732.000000	53.567139
2731.000000	53.599048
2730.000000	53.636823
2729.000000	53.676890
2728.000000	53.714854
2727.000000	53.746716
2726.000000	53.770344
2725.000000	53.787527
2724.000000	53.803824
2723.000000	53.825218
2722.000000	53.854712
2721.000000	53.891454
2720.000000	53.931444
2719.000000	53.968843
2718.000000	53.998726
2717.000000	54.020347
2716.000000	54.037560
2715.000000	54.055745
2714.000000	54.078838
2713.000000	54.108553
2712.000000	54.143924
2711.000000	54.180520
2710.000000	54.212019
2709.000000	54.234344
2708.000000	54.248253
2707.000000	54.257968
2706.000000	54.268381
2705.000000	54.283481
2704.000000	54.304826
2703.000000	54.329768
2702.000000	54.352228
2701.000000	54.366643
2700.000000	54.371314
2699.000000	54.368202
2698.000000	54.361196
2697.000000	54.355206
2696.000000	54.354543
2695.000000	54.360080
2694.000000	54.368146
2693.000000	54.373006
2692.000000	54.370364
2691.000000	54.358790
2690.000000	54.339910
2689.000000	54.318474
2688.000000	54.300652
2687.000000	54.290326
2686.000000	54.286589
2685.000000	54.284894
2684.000000	54.279853
2683.000000	54.267173
2682.000000	54.245330
2681.000000	54.217053
2680.000000	54.188429
2679.000000	54.165260
2678.000000	54.149994
2677.000000	54.141538
2676.000000	54.136333
2675.000000	54.129321
2674.000000	54.116020
2673.000000	54.095769
2672.000000	54.072874
2671.000000	54.054339
2670.000000	54.046577
2669.000000	54.053321
2668.000000	54.074488
2667.000000	54.105659
2666.000000	54.140367
2665.000000	54.174442
2664.000000	54.208208
2663.000000	54.245288
2662.000000	54.290037
2661.000000	54.346017
2660.000000	54.414495
2659.000000	54.492457
2658.000000	54.573324
2657.000000	54.650630
2656.000000	54.721199
2655.000000	54.785436
2654.000000	54.846275
2653.000000	54.908487
2652.000000	54.976735
2651.000000	55.052099
2650.000000	55.130601
2649.000000	55.205746
2648.000000	55.272217
2647.000000	55.327753
2646.000000	55.373703
2645.000000	55.414932
2644.000000	55.457829
2643.000000	55.506360
2642.000000	55.559849
2641.000000	55.614312
2640.000000	55.664637
2639.000000	55.705992
2638.000000	55.735692
2637.000000	55.755757
2636.000000	55.772748
2635.000000	55.793382
2634.000000	55.820494
2633.000000	55.852818
2632.000000	55.886694
2631.000000	55.917111
2630.000000	55.939062
2629.000000	55.950628
2628.000000	55.954768
2627.000000	55.957295
2626.000000	55.963430
2625.000000	55.975883
2624.000000	55.994166
2623.000000	56.014176
2622.000000	56.029780
2621.000000	56.036789
2620.000000	56.035536
2619.000000	56.029751
2618.000000	56.024157
2617.000000	56.023199
2616.000000	56.029572
2615.000000	56.041778
2614.000000	56.053971
2613.000000	56.059732
2612.000000	56.055950
2611.000000	56.043400
2610.000000	56.025336
2609.000000	56.006518
2608.000000	55.991462
2607.000000	55.981037
2606.000000	55.971123
2605.000000	55.955271
2604.000000	55.928559
2603.000000	55.889228
2602.000000	55.838576
2601.000000	55.781225
2600.000000	55.723783
2599.000000	55.671145
2598.000000	55.623920
2597.000000	55.579487
2596.000000	55.534688
2595.000000	55.487398
2594.000000	55.437788
2593.000000	55.389958
2592.000000	55.351835
2591.000000	55.331361
2590.000000	55.332715
2589.000000	55.355800
2588.000000	55.396999
2587.000000	55.450504
2586.000000	55.510128
2585.000000	55.572498
2584.000000	55.639017
2583.000000	55.713562
2582.000000	55.799544
2581.000000	55.898137
2580.000000	56.007407
2579.000000	56.121988
2578.000000	56.234449
2577.000000	56.339430
2576.000000	56.436503
2575.000000	56.529176
2574.000000	56.622235
2573.000000	56.720031
2572.000000	56.825091
2571.000000	56.936082
2570.000000	57.047605
2569.000000	57.153454
2568.000000	57.250369
2567.000000	57.338739
2566.000000	57.421446
2565.000000	57.503113
2564.000000	57.588617
2563.000000	57.680032
2562.000000	57.774755
2561.000000	57.867453
2560.000000	57.953499
2559.000000	58.030362
2558.000000	58.098041
2557.000000	58.159859
2556.000000	58.221706
2555.000000	58.288379
2554.000000	58.360272
2553.000000	58.434131
2552.000000	58.505698
2551.000000	58.570932
2550.000000	58.626978
2549.000000	58.674197
2548.000000	58.716968
2547.000000	58.760674
2546.000000	58.807864
2545.000000	58.857887
2544.000000	58.908214
2543.000000	58.954806
2542.000000	58.992709
2541.000000	59.018767
2540.000000	59.034275
2539.000000	59.043447
2538.000000	59.050031
2537.000000	59.055723
2536.000000	59.059727
2535.000000	59.058452
2534.000000	59.046029
2533.000000	59.017760
2532.000000	58.973392
2531.000000	58.916326
2530.000000	58.851526
2529.000000	58.784476
2528.000000	58.720278
2527.000000	58.661404
2526.000000	58.606647
2525.000000	58.553916
2524.000000	58.503579
2523.000000	58.458650
2522.000000	58.423232
2521.000000	58.402442
2520.000000	58.401245
2519.000000	58.421458
2518.000000	58.460076
2517.000000	58.511104
2516.000000	58.569399
2515.000000	58.631323
2514.000000	58.694449
2513.000000	58.758868
2512.000000	58.827336
2511.000000	58.902833
2510.000000	58.985363
2509.000000	59.072002
2508.000000	59.158940
2507.000000	59.242204
2506.000000	59.318314
2505.000000	59.386453
2504.000000	59.449634
2503.000000	59.512107
2502.000000	59.576083
2501.000000	59.641463
2500.000000	59.707162
2499.000000	59.770938
2498.000000	59.829148
2497.000000	59.879268
2496.000000	59.922234
2495.000000	59.961307
2494.000000	59.999489
2493.000000	60.038801
2492.000000	60.080548
2491.000000	60.123904
2490.000000	60.165272
2489.000000	60.201099
2488.000000	60.230769
2487.000000	60.256007
2486.000000	60.278756
2485.000000	60.301218
2484.000000	60.326223
2483.000000	60.354939
2482.000000	60.385029
2481.000000	60.412723
2480.000000	60.436081
2479.000000	60.455097
2478.000000	60.470192
2477.000000	60.482890
2476.000000	60.496606
2475.000000	60.514201
2474.000000	60.535184
2473.000000	60.556852
2472.000000	60.577211
2471.000000	60.595233
2470.000000	60.609716
2469.000000	60.620453
2468.000000	60.629819
2467.000000	60.641021
2466.000000	60.655110
2465.000000	60.671115
2464.000000	60.688076
2463.000000	60.705128
2462.000000	60.720666
2461.000000	60.733622
2460.000000	60.745053
2459.000000	60.756832
2458.000000	60.769507
2457.000000	60.782831
2456.000000	60.797161
2455.000000	60.812461
2454.000000	60.827003
2453.000000	60.839041
2452.000000	60.849084
2451.000000	60.859005
2450.000000	60.869914
2449.000000	60.882422
2448.000000	60.897497
2447.000000	60.914943
2446.000000	60.932138
2445.000000	60.946380
2444.000000	60.957720
2443.000000	60.967965
2442.000000	60.978185
2441.000000	60.989037
2440.000000	61.002139
2439.000000	61.018629
2438.000000	61.037069
2437.000000	61.054739
2436.000000	61.070302
2435.000000	61.083698
2434.000000	61.094802
2433.000000	61.104269
2432.000000	61.114541
2431.000000	61.127836
2430.000000	61.143850
2429.000000	61.161083
2428.000000	61.179178
2427.000000	61.198045
2426.000000	61.216018
2425.000000	61.231271
2424.000000	61.244251
2423.000000	61.256866
2422.000000	61.270252
2421.000000	61.285038
2420.000000	61.302363
2419.000000	61.322395
2418.000000	61.342872
2417.000000	61.361219
2416.000000	61.377186
2415.000000	61.391741
2414.000000	61.404881
2413.000000	61.416755
2412.000000	61.429520
2411.000000	61.445519
2410.000000	61.464454
2409.000000	61.484352
2408.000000	61.504126
2407.000000	61.523120
2406.000000	61.539569
2405.000000	61.552229
2404.000000	61.562791
2403.000000	61.574445
2402.000000	61.588848
2401.000000	61.606210
2400.000000	61.626875
2399.000000	61.650372
2398.000000	61.673959
2397.000000	61.694658
2396.000000	61.712233
2395.000000	61.728569
2394.000000	61.745378
2393.000000	61.764321
2392.000000	61.787662
2391.000000	61.816202
2390.000000	61.847507
2389.000000	61.878233
2388.000000	61.907493
2387.000000	61.936050
2386.000000	61.964266
2385.000000	61.993375
2384.000000	62.026701
2383.000000	62.067540
2382.000000	62.115847
2381.000000	62.169502
2380.000000	62.227437
2379.000000	62.288484
2378.000000	62.349754
2377.000000	62.408938
2376.000000	62.466785
2375.000000	62.524951
2374.000000	62.582323
2373.000000	62.636478
2372.000000	62.687494
2371.000000	62.736873
2370.000000	62.783607
2369.000000	62.826986
2368.000000	62.870510
2367.000000	62.918657
2366.000000	62.970924
2365.000000	63.024816
2364.000000	63.082236
2363.000000	63.140872
2362.000000	63.195296
2361.000000	63.244867
2360.000000	63.290766
2359.000000	63.340090
2358.000000	63.392898
2357.000000	63.446626
2356.000000	63.502507
2355.000000	63.555386
2354.000000	63.601033
2353.000000	63.638671
2352.000000	63.683561
2351.000000	63.745857
2350.000000	63.810862
2349.000000	63.865497
2348.000000	63.908214
2347.000000	63.959395
2346.000000	64.028383
2345.000000	64.102335
2344.000000	64.164429
2343.000000	64.202567
2342.000000	64.229790
2341.000000	64.257420
2340.000000	64.293777
2339.000000	64.341664
2338.000000	64.400088
2337.000000	64.463761
2336.000000	64.528347
2335.000000	64.587875
2334.000000	64.639720
2333.000000	64.681054
2332.000000	64.718571
2331.000000	64.762159
2330.000000	64.812782
2329.000000	64.873808
2328.000000	64.937591
2327.000000	65.002367
2326.000000	65.060501
2325.000000	65.107803
2324.000000	65.149634
2323.000000	65.188750
2322.000000	65.231930
2321.000000	65.277222
2320.000000	65.327965
2319.000000	65.382648
2318.000000	65.437075
2317.000000	65.484659
2316.000000	65.523588
2315.000000	65.558401
2314.000000	65.593017
2313.000000	65.631219
2312.000000	65.674919
2311.000000	65.725630
2310.000000	65.778383
2309.000000	65.826627
2308.000000	65.866987
2307.000000	65.902055
2306.000000	65.936184
2305.000000	65.973003
2304.000000	66.016952
2303.000000	66.069755
2302.000000	66.127650
2301.000000	66.183063
2300.000000	66.230553
2299.000000	66.270183
2298.000000	66.303905
2297.000000	66.336444
2296.000000	66.373937
2295.000000	66.422216
2294.000000	66.479894
2293.000000	66.540135
2292.000000	66.595578
2291.000000	66.641879
2290.000000	66.677211
2289.000000	66.703709
2288.000000	66.729343
2287.000000	66.763312
2286.000000	66.809320
2285.000000	66.864065
2284.000000	66.922012
2283.000000	66.976995
2282.000000	67.022480
2281.000000	67.054719
2280.000000	67.077906
2279.000000	67.101656
2278.000000	67.133834
2277.000000	67.176942
2276.000000	67.229656
2275.000000	67.287095
2274.000000	67.339859
2273.000000	67.379115
2272.000000	67.403706
2271.000000	67.420659
2270.000000	67.438813
2269.000000	67.464691
2268.000000	67.502224
2267.000000	67.550504
2266.000000	67.601363
2265.000000	67.643884
2264.000000	67.672148
2263.000000	67.687785
2262.000000	67.696192
2261.000000	67.704647
2260.000000	67.722145
2259.000000	67.754125
2258.000000	67.796816
2257.000000	67.838920
2256.000000	67.870462
2255.000000	67.887246
2254.000000	67.889941
2253.000000	67.884032
2252.000000	67.879967
2251.000000	67.887739
2250.000000	67.909121
2249.000000	67.937073
2248.000000	67.962211
2247.000000	67.977107
2246.000000	67.976529
2245.000000	67.960622
2244.000000	67.937689
2243.000000	67.919536
2242.000000	67.912579
2241.000000	67.915404
2240.000000	67.922674
2239.000000	67.927143
2238.000000	67.919877
2237.000000	67.895003
2236.000000	67.855873
2235.000000	67.812978
2234.000000	67.775741
2233.000000	67.748527
2232.000000	67.731673
2231.000000	67.720765
2230.000000	67.705570
2229.000000	67.675732
2228.000000	67.629349
2227.000000	67.573599
2226.000000	67.518089
2225.000000	67.470652
2224.000000	67.436735
2223.000000	67.416293
2222.000000	67.400642
2221.000000	67.377264
2220.000000	67.339334
2219.000000	67.288794
2218.000000	67.232285
2217.000000	67.178412
2216.000000	67.136845
2215.000000	67.113277
2214.000000	67.103509
2213.000000	67.095932
2212.000000	67.080437
2211.000000	67.052985
2210.000000	67.014329
2209.000000	66.970143
2208.000000	66.931647
2207.000000	66.909925
2206.000000	66.907261
2205.000000	66.916200
2204.000000	66.926294
2203.000000	66.928938
2202.000000	66.918500
2201.000000	66.895376
2200.000000	66.868835
2199.000000	66.852103
2198.000000	66.852851
2197.000000	66.869872
2196.000000	66.896697
2195.000000	66.924132
2194.000000	66.941391
2193.000000	66.941723
2192.000000	66.929049
2191.000000	66.915642
2190.000000	66.912775
2189.000000	66.925427
2188.000000	66.952985
2187.000000	66.989058
2186.000000	67.020942
2185.000000	67.035752
2184.000000	67.030009
2183.000000	67.011365
2182.000000	66.991648
2181.000000	66.981161
2180.000000	66.986826
2179.000000	67.008705
2178.000000	67.036921
2177.000000	67.056608
2176.000000	67.058099
2175.000000	67.041237
2174.000000	67.012399
2173.000000	66.981947
2172.000000	66.962521
2171.000000	66.962660
2170.000000	66.979708
2169.000000	67.001662
2168.000000	67.016252
2167.000000	67.016345
2166.000000	66.999989
2165.000000	66.971710
2164.000000	66.943649
2163.000000	66.929374
2162.000000	66.934165
2161.000000	66.952870
2160.000000	66.975600
2159.000000	66.992257
2158.000000	66.994368
2157.000000	66.979700
2156.000000	66.956400
2155.000000	66.938125
2154.000000	66.933737
2153.000000	66.943461
2152.000000	66.962376
2151.000000	66.982539
2150.000000	66.993476
2149.000000	66.987671
2148.000000	66.967567
2147.000000	66.943816
2146.000000	66.926588
2145.000000	66.921038
2144.000000	66.928204
2143.000000	66.943849
2142.000000	66.956942
2141.000000	66.955684
2140.000000	66.937140
2139.000000	66.908338
2138.000000	66.879340
2137.000000	66.858996
2136.000000	66.854275
2135.000000	66.866090
2134.000000	66.884851
2133.000000	66.895443
2132.000000	66.888492
2131.000000	66.865000
2130.000000	66.832284
2129.000000	66.800747
2128.000000	66.782492
2127.000000	66.785196
2126.000000	66.804666
2125.000000	66.826923
2124.000000	66.838520
2123.000000	66.832729
2122.000000	66.809264
2121.000000	66.774930
2120.000000	66.744313
2119.000000	66.732571
2118.000000	66.744261
2117.000000	66.771211
2116.000000	66.800355
2115.000000	66.820317
2114.000000	66.823265
2113.000000	66.808543
2112.000000	66.786545
2111.000000	66.773816
2110.000000	66.782121
2109.000000	66.813594
2108.000000	66.863360
2107.000000	66.921541
2106.000000	66.974381
2105.000000	67.011235
2104.000000	67.033483
2103.000000	67.053507
2102.000000	67.084843
2101.000000	67.135910
2100.000000	67.209825
2099.000000	67.302763
2098.000000	67.401783
2097.000000	67.491030
2096.000000	67.563245
2095.000000	67.622919
2094.000000	67.679359
2093.000000	67.741129
2092.000000	67.815275
2091.000000	67.904296
2090.000000	68.001475
2089.000000	68.093860
2088.000000	68.171825
2087.000000	68.233209
2086.000000	68.280324
2085.000000	68.319031
2084.000000	68.359628
2083.000000	68.411024
2082.000000	68.471651
2081.000000	68.530071
2080.000000	68.574937
2079.000000	68.600851
2078.000000	68.607134
2077.000000	68.598160
2076.000000	68.585079
2075.000000	68.580356
2074.000000	68.587667
2073.000000	68.600340
2072.000000	68.608766
2071.000000	68.605415
2070.000000	68.585635
2069.000000	68.550408
2068.000000	68.508968
2067.000000	68.473823
2066.000000	68.452807
2065.000000	68.447753
2064.000000	68.456464
2063.000000	68.470894
2062.000000	68.476890
2061.000000	68.463731
2060.000000	68.435328
2059.000000	68.407544
2058.000000	68.395070
2057.000000	68.405059
2056.000000	68.439090
2055.000000	68.491980
2054.000000	68.549183
2053.000000	68.593898
2052.000000	68.619669
2051.000000	68.633311
2050.000000	68.647068
2049.000000	68.673218
2048.000000	68.723134
2047.000000	68.801972
2046.000000	68.901970
2045.000000	69.005831
2044.000000	69.098618
2043.000000	69.174381
2042.000000	69.235265
2041.000000	69.291416
2040.000000	69.359555
2039.000000	69.453313
2038.000000	69.572604
2037.000000	69.705543
2036.000000	69.839824
2035.000000	69.967741
2034.000000	70.083853
2033.000000	70.187533
2032.000000	70.288240
2031.000000	70.400194
2030.000000	70.529595
2029.000000	70.671678
2028.000000	70.818713
2027.000000	70.964015
2026.000000	71.099703
2025.000000	71.220263
2024.000000	71.330625
2023.000000	71.444084
2022.000000	71.570224
2021.000000	71.708602
2020.000000	71.852314
2019.000000	71.991051
2018.000000	72.113370
2017.000000	72.214837
2016.000000	72.303936
2015.000000	72.394867
2014.000000	72.495671
2013.000000	72.607097
2012.000000	72.728566
2011.000000	72.856319
2010.000000	72.977819
2009.000000	73.078508
2008.000000	73.155889
2007.000000	73.220319
2006.000000	73.283231
2005.000000	73.352668
2004.000000	73.436795
2003.000000	73.539458
2002.000000	73.651125
2001.000000	73.753137
2000.000000	73.833390
1999.000000	73.892322
1998.000000	73.936394
1997.000000	73.975636
1996.000000	74.024728
1995.000000	74.094021
1994.000000	74.177998
1993.000000	74.262925
1992.000000	74.342973
1991.000000	74.415487
1990.000000	74.469947
1989.000000	74.499031
1988.000000	74.515240
1987.000000	74.542477
1986.000000	74.591889
1985.000000	74.656656
1984.000000	74.727046
1983.000000	74.796628
1982.000000	74.855744
1981.000000	74.894928
1980.000000	74.918103
1979.000000	74.940450
1978.000000	74.971624
1977.000000	75.011545
1976.000000	75.060008
1975.000000	75.116440
1974.000000	75.171151
1973.000000	75.211720
1972.000000	75.239740
1971.000000	75.268776
1970.000000	75.304534
1969.000000	75.339114
1968.000000	75.368107
1967.000000	75.399275
1966.000000	75.436244
1965.000000	75.470123
1964.000000	75.494228
1963.000000	75.511658
1962.000000	75.527262
1961.000000	75.545320
1960.000000	75.574255
1959.000000	75.620089
1958.000000	75.673275
1957.000000	75.713954
1956.000000	75.732833
1955.000000	75.736872
1954.000000	75.735403
1953.000000	75.734213
1952.000000	75.743071
1951.000000	75.773696
1950.000000	75.824916
1949.000000	75.879542
1948.000000	75.920320
1947.000000	75.941142
1946.000000	75.942643
1945.000000	75.927463
1944.000000	75.903990
1943.000000	75.891656
1942.000000	75.908114
1941.000000	75.949162
1940.000000	75.997960
1939.000000	76.041657
1938.000000	76.069282
1937.000000	76.073578
1936.000000	76.060582
1935.000000	76.045533
1934.000000	76.038090
1933.000000	76.039880
1932.000000	76.053081
1931.000000	76.079078
1930.000000	76.107925
1929.000000	76.123678
1928.000000	76.124998
1927.000000	76.126040
1926.000000	76.135067
1925.000000	76.140506
1924.000000	76.126617
1923.000000	76.099008
1922.000000	76.072125
1921.000000	76.049262
1920.000000	76.032091
1919.000000	76.024309
1918.000000	76.026466
1917.000000	76.033937
1916.000000	76.040575
1915.000000	76.046462
1914.000000	76.052874
1913.000000	76.056105
1912.000000	76.051275
1911.000000	76.035079
1910.000000	76.005761
1909.000000	75.968318
1908.000000	75.937044
1907.000000	75.923402
1906.000000	75.923143
1905.000000	75.921366
1904.000000	75.909821
1903.000000	75.892006
1902.000000	75.871332
1901.000000	75.848383
1900.000000	75.831375
1899.000000	75.833297
1898.000000	75.854304
1897.000000	75.877900
1896.000000	75.890056
1895.000000	75.891983
1894.000000	75.886608
1893.000000	75.871780
1892.000000	75.851922
1891.000000	75.836426
1890.000000	75.835391
1889.000000	75.857443
1888.000000	75.898494
1887.000000	75.944007
1886.000000	75.977775
1885.000000	75.988716
1884.000000	75.981050
1883.000000	75.969630
1882.000000	75.961855
1881.000000	75.955019
1880.000000	75.951306
1879.000000	75.958441
1878.000000	75.974315
1877.000000	75.987256
1876.000000	75.991378
1875.000000	75.987208
1874.000000	75.969789
1873.000000	75.935468
1872.000000	75.902996
1871.000000	75.899249
1870.000000	75.913472
1869.000000	75.916650
1868.000000	75.911279
1867.000000	75.910495
1866.000000	75.910830
1865.000000	75.904123
1864.000000	75.891743
1863.000000	75.880939
1862.000000	75.871775
1861.000000	75.857201
1860.000000	75.835973
1859.000000	75.814741
1858.000000	75.795476
1857.000000	75.774108
1856.000000	75.751861
1855.000000	75.734854
1854.000000	75.721615
1853.000000	75.704507
1852.000000	75.685888
1851.000000	75.672967
1850.000000	75.655941
1849.000000	75.615778
1848.000000	75.552720
1847.000000	75.490230
1846.000000	75.450930
1845.000000	75.431853
1844.000000	75.420325
1843.000000	75.413176
1842.000000	75.402963
1841.000000	75.380716
1840.000000	75.347855
1839.000000	75.309279
1838.000000	75.263979
1837.000000	75.210277
1836.000000	75.151904
1835.000000	75.091546
1834.000000	75.023770
1833.000000	74.952803
1832.000000	74.897221
1831.000000	74.849689
1830.000000	74.792292
1829.000000	74.726063
1828.000000	74.656934
1827.000000	74.599806
1826.000000	74.561531
1825.000000	74.535272
1824.000000	74.516325
1823.000000	74.496356
1822.000000	74.461832
1821.000000	74.406213
1820.000000	74.338099
1819.000000	74.270272
1818.000000	74.205220
1817.000000	74.141558
1816.000000	74.085620
1815.000000	74.043265
1814.000000	74.004862
1813.000000	73.952569
1812.000000	73.882506
1811.000000	73.809790
1810.000000	73.744281
1809.000000	73.677937
1808.000000	73.606080
1807.000000	73.535772
1806.000000	73.469050
1805.000000	73.399311
1804.000000	73.326227
1803.000000	73.255824
1802.000000	73.188000
1801.000000	73.126511
1800.000000	73.085251
1799.000000	73.063354
1798.000000	73.034097
1797.000000	72.972300
1796.000000	72.881238
1795.000000	72.788502
1794.000000	72.712233
1793.000000	72.636754
1792.000000	72.562473
1791.000000	72.515379
1790.000000	72.484545
1789.000000	72.437131
1788.000000	72.369003
1787.000000	72.303186
1786.000000	72.253770
1785.000000	72.214223
1784.000000	72.178520
1783.000000	72.145868
1782.000000	72.102372
1781.000000	72.037305
1780.000000	71.969009
1779.000000	71.919980
1778.000000	71.891958
1777.000000	71.878617
1776.000000	71.872087
1775.000000	71.854330
1774.000000	71.785216
1773.000000	71.627493
1772.000000	71.441417
1771.000000	71.326903
1770.000000	71.284210
1769.000000	71.256448
1768.000000	71.214165
1767.000000	71.159374
1766.000000	71.086020
1765.000000	70.983458
1764.000000	70.871950
1763.000000	70.785206
1762.000000	70.731261
1761.000000	70.689749
1760.000000	70.637941
1759.000000	70.574837
1758.000000	70.502889
1757.000000	70.424865
1756.000000	70.364850
1755.000000	70.338499
1754.000000	70.317324
1753.000000	70.262990
1752.000000	70.173000
1751.000000	70.073107
1750.000000	69.978276
1749.000000	69.879116
1748.000000	69.776936
1747.000000	69.681697
1746.000000	69.577779
1745.000000	69.437983
1744.000000	69.267364
1743.000000	69.106603
1742.000000	68.984796
1741.000000	68.889685
1740.000000	68.794214
1739.000000	68.710712
1738.000000	68.662184
1737.000000	68.628847
1736.000000	68.602178
1735.000000	68.536690
1734.000000	68.358675
1733.000000	68.083438
1732.000000	67.783698
1731.000000	67.526989
1730.000000	67.317651
1729.000000	67.124198
1728.000000	66.937548
1727.000000	66.767127
1726.000000	66.607020
1725.000000	66.428953
1724.000000	66.212988
1723.000000	65.975868
1722.000000	65.765790
1721.000000	65.631889
1720.000000	65.588478
1719.000000	65.524710
1718.000000	65.281727
1717.000000	64.878245
1716.000000	64.459549
1715.000000	64.129859
1714.000000	63.885188
1713.000000	63.650996
1712.000000	63.384463
1711.000000	63.095436
1710.000000	62.794865
1709.000000	62.488131
1708.000000	62.199847
1707.000000	61.935798
1706.000000	61.660184
1705.000000	61.360418
1704.000000	61.042679
1703.000000	60.690538
1702.000000	60.388541
1701.000000	60.209902
1700.000000	60.098624
1699.000000	60.028864
1698.000000	59.907182
1697.000000	59.591160
1696.000000	59.101803
1695.000000	58.575253
1694.000000	58.117108
1693.000000	57.750448
1692.000000	57.428822
1691.000000	57.117194
1690.000000	56.834419
1689.000000	56.628379
1688.000000	56.482940
1687.000000	56.296696
1686.000000	55.963003
1685.000000	55.374402
1684.000000	54.685684
1683.000000	54.189458
1682.000000	53.861946
1681.000000	53.547235
1680.000000	53.175563
1679.000000	52.773332
1678.000000	52.368826
1677.000000	51.962124
1676.000000	51.555628
1675.000000	51.166909
1674.000000	50.809015
1673.000000	50.464403
1672.000000	50.118313
1671.000000	49.765181
1670.000000	49.395929
1669.000000	49.015283
1668.000000	48.638177
1667.000000	48.278258
1666.000000	47.930025
1665.000000	47.579020
1664.000000	47.221686
1663.000000	46.872500
1662.000000	46.549204
1661.000000	46.232727
1660.000000	45.898029
1659.000000	45.554958
1658.000000	45.251022
1657.000000	45.020200
1656.000000	44.860672
1655.000000	44.733531
1654.000000	44.494400
1653.000000	44.090909
1652.000000	43.594469
1651.000000	43.110875
1650.000000	42.757698
1649.000000	42.495543
1648.000000	42.202989
1647.000000	41.873574
1646.000000	41.591095
1645.000000	41.328800
1644.000000	41.053115
1643.000000	40.781871
1642.000000	40.509309
1641.000000	40.220374
1640.000000	39.941015
1639.000000	39.707578
1638.000000	39.503388
1637.000000	39.255949
1636.000000	38.972110
1635.000000	38.741181
1634.000000	38.555399
1633.000000	38.355844
1632.000000	38.127998
1631.000000	37.896745
1630.000000	37.688514
1629.000000	37.500364
1628.000000	37.325587
1627.000000	37.172904
1626.000000	37.038119
1625.000000	36.899586
1624.000000	36.744782
1623.000000	36.599129
1622.000000	36.495463
1621.000000	36.438294
1620.000000	36.423196
1619.000000	36.432185
1618.000000	36.411204
1617.000000	36.308143
1616.000000	36.147243
1615.000000	36.000696
1614.000000	35.904257
1613.000000	35.842866
1612.000000	35.801199
1611.000000	35.789651
1610.000000	35.808303
1609.000000	35.827487
1608.000000	35.829653
1607.000000	35.830383
1606.000000	35.841335
1605.000000	35.854490
1604.000000	35.870082
1603.000000	35.906256
1602.000000	35.969328
1601.000000	36.040537
1600.000000	36.104847
1599.000000	36.165778
1598.000000	36.223883
1597.000000	36.268522
1596.000000	36.302094
1595.000000	36.348886
1594.000000	36.423769
1593.000000	36.513264
1592.000000	36.600249
1591.000000	36.682357
1590.000000	36.755794
1589.000000	36.808378
1588.000000	36.841694
1587.000000	36.878944
1586.000000	36.935951
1585.000000	37.006880
1584.000000	37.086019
1583.000000	37.174996
1582.000000	37.269803
1581.000000	37.370703
1580.000000	37.496665
1579.000000	37.654864
1578.000000	37.799187
1577.000000	37.863102
1576.000000	37.856278
1575.000000	37.838017
1574.000000	37.829709
1573.000000	37.824009
1572.000000	37.822922
1571.000000	37.846248
1570.000000	37.905760
1569.000000	37.994156
1568.000000	38.085551
1567.000000	38.173017
1566.000000	38.274157
1565.000000	38.398000
1564.000000	38.535925
1563.000000	38.655480
1562.000000	38.691299
1561.000000	38.735885
1560.000000	38.792667
1559.000000	38.879330
1558.000000	39.122763
1557.000000	39.333748
1556.000000	39.454615
1555.000000	39.551332
1554.000000	39.650181
1553.000000	39.744437
1552.000000	39.836970
1551.000000	39.957690
1550.000000	40.126435
1549.000000	40.327946
1548.000000	40.525208
1547.000000	40.720580
1546.000000	40.937682
1545.000000	41.170130
1544.000000	41.413963
1543.000000	41.711847
1542.000000	42.091836
1541.000000	42.477545
1540.000000	42.855009
1539.000000	43.216077
1538.000000	43.444472
1537.000000	43.559460
1536.000000	43.673050
1535.000000	43.876577
1534.000000	44.207779
1533.000000	44.641340
1532.000000	45.091597
1531.000000	45.489485
1530.000000	45.852678
1529.000000	46.220585
1528.000000	46.601663
1527.000000	46.998118
1526.000000	47.419865
1525.000000	47.862161
1524.000000	48.321119
1523.000000	48.797929
1522.000000	49.289225
1521.000000	49.769633
1520.000000	50.176477
1519.000000	50.522873
1518.000000	50.880880
1517.000000	51.280236
1516.000000	51.722010
1515.000000	52.178050
1514.000000	52.627203
1513.000000	53.077704
1512.000000	53.537934
1511.000000	54.018484
1510.000000	54.523782
1509.000000	55.039207
1508.000000	55.434751
1507.000000	55.830711
1506.000000	56.433529
1505.000000	56.966515
1504.000000	57.303409
1503.000000	57.576929
1502.000000	57.861376
1501.000000	58.177950
1500.000000	58.557756
1499.000000	59.026852
1498.000000	59.552236
1497.000000	60.070272
1496.000000	60.535087
1495.000000	60.922738
1494.000000	61.232733
1493.000000	61.497927
1492.000000	61.787845
1491.000000	62.139981
1490.000000	62.524143
1489.000000	62.908115
1488.000000	63.289200
1487.000000	63.682320
1486.000000	64.064016
1485.000000	64.372341
1484.000000	64.593779
1483.000000	64.770323
1482.000000	64.918863
1481.000000	65.013104
1480.000000	65.046976
1479.000000	65.056704
1478.000000	65.057655
1477.000000	65.011616
1476.000000	64.877436
1475.000000	64.628906
1474.000000	64.167686
1473.000000	63.385947
1472.000000	62.386042
1471.000000	61.339318
1470.000000	60.215878
1469.000000	58.877917
1468.000000	57.247091
1467.000000	55.259905
1466.000000	52.749791
1465.000000	49.624300
1464.000000	46.168613
1463.000000	42.806712
1462.000000	39.667524
1461.000000	36.679052
1460.000000	33.794373
1459.000000	30.921260
1458.000000	27.832888
1457.000000	24.625766
1456.000000	21.977884
1455.000000	20.269396
1454.000000	19.212120
1453.000000	18.491940
1452.000000	18.065584
1451.000000	17.982219
1450.000000	18.222214
1449.000000	18.760716
1448.000000	19.626392
1447.000000	20.766761
1446.000000	22.023683
1445.000000	23.313780
1444.000000	24.680075
1443.000000	26.146380
1442.000000	27.637862
1441.000000	29.063165
1440.000000	30.401481
1439.000000	31.720321
1438.000000	33.169182
1437.000000	34.875891
1436.000000	36.725050
1435.000000	38.418375
1434.000000	39.850384
1433.000000	41.159941
1432.000000	42.489498
1431.000000	43.856712
1430.000000	45.199366
1429.000000	46.470891
1428.000000	47.640391
1427.000000	48.690789
1426.000000	49.658121
1425.000000	50.601455
1424.000000	51.520991
1423.000000	52.345505
1422.000000	53.035694
1421.000000	53.671618
1420.000000	54.359797
1419.000000	55.095820
1418.000000	55.816421
1417.000000	56.499767
1416.000000	57.161020
1415.000000	57.810618
1414.000000	58.456824
1413.000000	59.112156
1412.000000	59.772468
1411.000000	60.418257
1410.000000	61.046419
1409.000000	61.670041
1408.000000	62.284784
1407.000000	62.873724
1406.000000	63.442431
1405.000000	64.011813
1404.000000	64.560766
1403.000000	65.029375
1402.000000	65.417089
1401.000000	65.799810
1400.000000	66.223601
1399.000000	66.652923
1398.000000	67.039359
1397.000000	67.376601
1396.000000	67.679832
1395.000000	67.971330
1394.000000	68.273958
1393.000000	68.577313
1392.000000	68.843559
1391.000000	69.052903
1390.000000	69.223017
1389.000000	69.373298
1388.000000	69.479289
1387.000000	69.511750
1386.000000	69.502441
1385.000000	69.508004
1384.000000	69.543905
1383.000000	69.589307
1382.000000	69.625728
1381.000000	69.636267
1380.000000	69.585451
1379.000000	69.448327
1378.000000	69.252656
1377.000000	69.053481
1376.000000	68.871500
1375.000000	68.700572
1374.000000	68.569490
1373.000000	68.509640
1372.000000	68.477938
1371.000000	68.404369
1370.000000	68.265958
1369.000000	68.074056
1368.000000	67.836104
1367.000000	67.553412
1366.000000	67.240361
1365.000000	66.903761
1364.000000	66.500622
1363.000000	65.980521
1362.000000	65.367951
1361.000000	64.722209
1360.000000	64.061739
1359.000000	63.396447
1358.000000	62.781529
1357.000000	62.296764
1356.000000	61.997701
1355.000000	61.909236
1354.000000	62.036852
1353.000000	62.348565
1352.000000	62.758652
1351.000000	63.163402
1350.000000	63.485678
1349.000000	63.672755
1348.000000	63.675980
1347.000000	63.459727
1346.000000	63.017594
1345.000000	62.360368
1344.000000	61.499070
1343.000000	60.441897
1342.000000	59.189051
1341.000000	57.710607
1340.000000	55.969587
1339.000000	53.990215
1338.000000	51.841067
1337.000000	49.553784
1336.000000	47.108794
1335.000000	44.493156
1334.000000	41.734499
1333.000000	38.877473
1332.000000	35.978746
1331.000000	33.135309
1330.000000	30.472982
1329.000000	28.088902
1328.000000	26.023752
1327.000000	24.270492
1326.000000	22.774723
1325.000000	21.445673
1324.000000	20.201712
1323.000000	19.014066
1322.000000	17.888611
1321.000000	16.828817
1320.000000	15.853149
1319.000000	15.022700
1318.000000	14.422941
1317.000000	14.118107
1316.000000	14.140316
1315.000000	14.507847
1314.000000	15.209282
1313.000000	16.190958
1312.000000	17.381945
1311.000000	18.721108
1310.000000	20.162665
1309.000000	21.663047
1308.000000	23.183287
1307.000000	24.696418
1306.000000	26.178113
1305.000000	27.599692
1304.000000	28.936577
1303.000000	30.179276
1302.000000	31.331135
1301.000000	32.400014
1300.000000	33.392108
1299.000000	34.310546
1298.000000	35.149925
1297.000000	35.893976
1296.000000	36.534490
1295.000000	37.095917
1294.000000	37.639294
1293.000000	38.240414
1292.000000	38.963640
1291.000000	39.846595
1290.000000	40.894718
1289.000000	42.080832
1288.000000	43.353594
1287.000000	44.655841
1286.000000	45.939197
1285.000000	47.167086
1284.000000	48.311912
1283.000000	49.359133
1282.000000	50.311609
1281.000000	51.180656
1280.000000	51.969331
1279.000000	52.672433
1278.000000	53.289198
1277.000000	53.822519
1276.000000	54.276784
1275.000000	54.668199
1274.000000	55.034863
1273.000000	55.425167
1272.000000	55.873993
1271.000000	56.397021
1270.000000	56.997642
1269.000000	57.663906
1268.000000	58.363477
1267.000000	59.059537
1266.000000	59.735097
1265.000000	60.393262
1264.000000	61.038150
1263.000000	61.669232
1262.000000	62.288266
1261.000000	62.892468
1260.000000	63.460765
1259.000000	63.964245
1258.000000	64.393776
1257.000000	64.760372
1256.000000	65.075376
1255.000000	65.347766
1254.000000	65.591857
1253.000000	65.818166
1252.000000	66.014094
1251.000000	66.153327
1250.000000	66.223186
1249.000000	66.227341
1248.000000	66.171872
1247.000000	66.063074
1246.000000	65.915070
1245.000000	65.739392
1244.000000	65.524701
1243.000000	65.246489
1242.000000	64.891696
1241.000000	64.463202
1240.000000	63.971176
1239.000000	63.435827
1238.000000	62.894058
1237.000000	62.381525
1236.000000	61.908727
1235.000000	61.465072
1234.000000	61.039715
1233.000000	60.628187
1232.000000	60.230185
1231.000000	59.859342
1230.000000	59.549883
1229.000000	59.341557
1228.000000	59.252835
1227.000000	59.275870
1226.000000	59.389466
1225.000000	59.562751
1224.000000	59.760327
1223.000000	59.958950
1222.000000	60.164497
1221.000000	60.406071
1220.000000	60.710340
1219.000000	61.089825
1218.000000	61.542975
1217.000000	62.049069
1216.000000	62.566094
1215.000000	63.049397
1214.000000	63.480781
1213.000000	63.873258
1212.000000	64.252917
1211.000000	64.647640
1210.000000	65.083311
1209.000000	65.568818
1208.000000	66.080680
1207.000000	66.575604
1206.000000	67.021495
1205.000000	67.411074
1204.000000	67.753202
1203.000000	68.069512
1202.000000	68.395232
1201.000000	68.759455
1200.000000	69.159544
1199.000000	69.564897
1198.000000	69.944793
1197.000000	70.283140
1196.000000	70.574315
1195.000000	70.827434
1194.000000	71.073349
1193.000000	71.346362
1192.000000	71.654240
1191.000000	71.975170
1190.000000	72.281513
1189.000000	72.552697
1188.000000	72.773472
1187.000000	72.945127
1186.000000	73.098773
1185.000000	73.277580
1184.000000	73.501368
1183.000000	73.757608
1182.000000	74.019668
1181.000000	74.255570
1180.000000	74.429624
1179.000000	74.524810
1178.000000	74.567802
1177.000000	74.613587
1176.000000	74.703281
1175.000000	74.847083
1174.000000	75.033487
1173.000000	75.229791
1172.000000	75.381821
1171.000000	75.441516
1170.000000	75.405891
1169.000000	75.318211
1168.000000	75.233470
1167.000000	75.195197
1166.000000	75.229918
1165.000000	75.332800
1164.000000	75.455265
1163.000000	75.528590
1162.000000	75.511391
1161.000000	75.408100
1160.000000	75.252657
1159.000000	75.095053
1158.000000	74.992821
1157.000000	74.982798
1156.000000	75.050595
1155.000000	75.139716
1154.000000	75.192806
1153.000000	75.177391
1152.000000	75.086775
1151.000000	74.944589
1150.000000	74.807869
1149.000000	74.737482
1148.000000	74.755396
1147.000000	74.837055
1146.000000	74.937875
1145.000000	75.013308
1144.000000	75.026529
1143.000000	74.967930
1142.000000	74.872395
1141.000000	74.798598
1140.000000	74.786004
1139.000000	74.837976
1138.000000	74.934053
1137.000000	75.038285
1136.000000	75.103342
1135.000000	75.095598
1134.000000	75.024898
1133.000000	74.936263
1132.000000	74.872254
1131.000000	74.853033
1130.000000	74.878406
1129.000000	74.925149
1128.000000	74.944296
1127.000000	74.887088
1126.000000	74.743240
1125.000000	74.542541
1124.000000	74.325297
1123.000000	74.123852
1122.000000	73.959033
1121.000000	73.826970
1120.000000	73.684571
1119.000000	73.472133
1118.000000	73.156451
1117.000000	72.744342
1116.000000	72.265339
1115.000000	71.756457
1114.000000	71.255757
1113.000000	70.780432
1112.000000	70.302178
1111.000000	69.762049
1110.000000	69.106972
1109.000000	68.312305
1108.000000	67.381812
1107.000000	66.343911
1106.000000	65.247581
1105.000000	64.130837
1104.000000	62.989811
1103.000000	61.783759
1102.000000	60.458484
1101.000000	58.970905
1100.000000	57.298890
1099.000000	55.451542
1098.000000	53.471955
1097.000000	51.406543
1096.000000	49.281227
1095.000000	47.095689
1094.000000	44.831437
1093.000000	42.465713
1092.000000	39.988024
1091.000000	37.420667
1090.000000	34.817075
1089.000000	32.242726
1088.000000	29.760253
1087.000000	27.424101
1086.000000	25.265971
1085.000000	23.290751
1084.000000	21.496657
1083.000000	19.883406
1082.000000	18.450941
1081.000000	17.191875
1080.000000	16.100479
1079.000000	15.177767
1078.000000	14.407402
1077.000000	13.757592
1076.000000	13.199674
1075.000000	12.715413
1074.000000	12.288731
1073.000000	11.901152
1072.000000	11.550722
1071.000000	11.250955
1070.000000	11.007170
1069.000000	10.812519
1068.000000	10.663017
1067.000000	10.563072
1066.000000	10.510435
1065.000000	10.494885
1064.000000	10.519834
1063.000000	10.601633
1062.000000	10.748983
1061.000000	10.957302
1060.000000	11.223222
1059.000000	11.548818
1058.000000	11.924147
1057.000000	12.328314
1056.000000	12.751364
1055.000000	13.198871
1054.000000	13.677257
1053.000000	14.187533
1052.000000	14.736632
1051.000000	15.335795
1050.000000	15.980731
1049.000000	16.651549
1048.000000	17.332664
1047.000000	18.022360
1046.000000	18.724637
1045.000000	19.445492
1044.000000	20.200446
1043.000000	21.007278
1042.000000	21.868246
1041.000000	22.768374
1040.000000	23.688886
1039.000000	24.616382
1038.000000	25.541032
1037.000000	26.459799
1036.000000	27.383938
1035.000000	28.331639
1034.000000	29.311775
1033.000000	30.316970
1032.000000	31.329834
1031.000000	32.329706
1030.000000	33.297446
1029.000000	34.223963
1028.000000	35.117693
1027.000000	36.000328
1026.000000	36.891908
1025.000000	37.799983
1024.000000	38.716324
1023.000000	39.619980
1022.000000	40.486765
1021.000000	41.300705
1020.000000	42.063205
1019.000000	42.792962
1018.000000	43.517160
1017.000000	44.258654
1016.000000	45.023357
1015.000000	45.797132
1014.000000	46.552665
1013.000000	47.262385
1012.000000	47.912064
1011.000000	48.508849
1010.000000	49.080503
1009.000000	49.661581
1008.000000	50.273942
1007.000000	50.917402
1006.000000	51.572004
1005.000000	52.206656
1004.000000	52.790923
1003.000000	53.310849
1002.000000	53.780018
1001.000000	54.231783
1000.000000	54.699310
999.000000	55.201409
998.000000	55.738142
997.000000	56.290352
996.000000	56.823112
995.000000	57.303442
994.000000	57.722657
993.000000	58.099649
992.000000	58.465386
991.000000	58.848518
990.000000	59.267768
989.000000	59.722855
988.000000	60.188393
987.000000	60.627866
986.000000	61.018032
985.000000	61.359334
984.000000	61.667940
983.000000	61.967687
982.000000	62.286043
981.000000	62.640293
980.000000	63.021439
979.000000	63.400117
978.000000	63.749588
977.000000	64.059479
976.000000	64.333012
975.000000	64.585088
974.000000	64.842518
973.000000	65.129856
972.000000	65.449231
971.000000	65.779355
970.000000	66.094384
969.000000	66.377669
968.000000	66.621925
967.000000	66.833174
966.000000	67.035991
965.000000	67.260315
964.000000	67.518099
963.000000	67.797423
962.000000	68.076138
961.000000	68.332014
960.000000	68.545177
959.000000	68.709797
958.000000	68.846385
957.000000	68.990651
956.000000	69.166255
955.000000	69.374107
954.000000	69.602556
953.000000	69.831991
952.000000	70.034050
951.000000	70.186335
950.000000	70.293831
949.000000	70.385760
948.000000	70.491288
947.000000	70.626245
946.000000	70.796560
945.000000	70.994960
944.000000	71.194294
943.000000	71.360668
942.000000	71.480069
941.000000	71.563972
940.000000	71.631988
939.000000	71.702948
938.000000	71.797027
937.000000	71.925672
936.000000	72.076030
935.000000	72.218384
934.000000	72.331870
933.000000	72.413404
932.000000	72.465957
931.000000	72.495882
930.000000	72.520175
929.000000	72.558134
928.000000	72.611640
927.000000	72.665384
926.000000	72.707288
925.000000	72.734573
924.000000	72.743913
923.000000	72.732251
922.000000	72.707163
921.000000	72.680930
920.000000	72.652448
919.000000	72.608572
918.000000	72.543130
917.000000	72.460356
916.000000	72.363044
915.000000	72.252007
914.000000	72.135489
913.000000	72.022487
912.000000	71.904834
911.000000	71.762002
910.000000	71.582207
909.000000	71.367380
908.000000	71.121526
907.000000	70.849894
906.000000	70.568379
905.000000	70.294201
904.000000	70.024499
903.000000	69.738245
902.000000	69.416162
901.000000	69.048610
900.000000	68.628381
899.000000	68.154005
898.000000	67.641824
897.000000	67.115512
896.000000	66.583981
895.000000	66.037839
894.000000	65.463127
893.000000	64.847609
892.000000	64.175140
891.000000	63.433831
890.000000	62.630665
889.000000	61.784617
888.000000	60.907940
887.000000	60.000150
886.000000	59.056802
885.000000	58.071401
884.000000	57.030310
883.000000	55.922528
882.000000	54.752051
881.000000	53.533967
880.000000	52.279964
879.000000	50.992769
878.000000	49.672370
877.000000	48.315734
876.000000	46.915443
875.000000	45.468273
874.000000	43.983166
873.000000	42.477927
872.000000	40.969132
871.000000	39.467547
870.000000	37.977710
869.000000	36.497069
868.000000	35.018956
867.000000	33.539580
866.000000	32.063476
865.000000	30.603231
864.000000	29.177535
863.000000	27.804150
862.000000	26.490790
861.000000	25.234857
860.000000	24.031307
859.000000	22.882787
858.000000	21.800918
857.000000	20.808543
856.000000	19.944664
855.000000	19.249416
854.000000	18.745226
853.000000	18.425691
852.000000	18.259979
851.000000	18.201828
850.000000	18.193152
849.000000	18.183807
848.000000	18.150753
847.000000	18.097612
846.000000	18.040123
845.000000	17.995548
844.000000	17.983100
843.000000	18.017936
842.000000	18.101750
841.000000	18.228730
840.000000	18.398947
839.000000	18.621681
838.000000	18.907079
837.000000	19.261394
836.000000	19.690424
835.000000	20.193786
834.000000	20.758093
833.000000	21.361612
832.000000	21.986073
831.000000	22.624036
830.000000	23.277716
829.000000	23.959124
828.000000	24.686304
827.000000	25.470142
826.000000	26.304048
825.000000	27.165893
824.000000	28.027665
823.000000	28.864774
822.000000	29.666110
821.000000	30.441792
820.000000	31.216735
819.000000	32.012548
818.000000	32.833458
817.000000	33.665087
816.000000	34.478335
815.000000	35.238673
814.000000	35.924246
813.000000	36.541944
812.000000	37.125343
811.000000	37.716524
810.000000	38.347893
809.000000	39.030147
808.000000	39.745061
807.000000	40.451235
806.000000	41.105970
805.000000	41.690526
804.000000	42.218603
803.000000	42.727882
802.000000	43.264990
801.000000	43.865499
800.000000	44.532379
799.000000	45.230657
798.000000	45.906628
797.000000	46.516370
796.000000	47.042765
795.000000	47.502229
794.000000	47.942234
793.000000	48.420967
792.000000	48.973951
791.000000	49.593748
790.000000	50.236883
789.000000	50.846135
788.000000	51.372710
787.000000	51.799856
786.000000	52.158605
785.000000	52.513296
784.000000	52.921530
783.000000	53.403414
782.000000	53.938618
781.000000	54.477407
780.000000	54.957170
779.000000	55.333091
778.000000	55.611031
777.000000	55.847748
776.000000	56.113600
775.000000	56.455191
774.000000	56.881747
773.000000	57.361933
772.000000	57.828130
771.000000	58.207023
770.000000	58.469149
769.000000	58.649976
768.000000	58.822462
767.000000	59.056123
766.000000	59.392335
765.000000	59.827006
764.000000	60.300210
763.000000	60.717281
762.000000	61.005025
761.000000	61.155762
760.000000	61.224957
759.000000	61.300474
758.000000	61.468928
757.000000	61.776626
756.000000	62.196719
755.000000	62.634911
754.000000	62.982470
753.000000	63.173391
752.000000	63.209814
751.000000	63.158805
750.000000	63.129443
749.000000	63.222797
748.000000	63.474163
747.000000	63.832158
746.000000	64.191384
745.000000	64.443951
744.000000	64.521802
743.000000	64.429129
742.000000	64.252731
741.000000	64.121370
740.000000	64.131739
739.000000	64.300639
738.000000	64.570545
737.000000	64.840393
736.000000	65.002313
735.000000	64.993357
734.000000	64.843423
733.000000	64.664370
732.000000	64.580204
731.000000	64.663036
730.000000	64.914724
729.000000	65.272396
728.000000	65.624806
727.000000	65.861625
726.000000	65.943828
725.000000	65.929362
724.000000	65.927194
723.000000	66.034886
722.000000	66.304320
721.000000	66.722443
720.000000	67.200108
719.000000	67.606288
718.000000	67.849248
717.000000	67.933048
716.000000	67.940873
715.000000	67.984061
714.000000	68.159365
713.000000	68.508010
712.000000	68.979794
711.000000	69.447603
710.000000	69.783457
709.000000	69.931405
708.000000	69.923908
707.000000	69.860430
706.000000	69.872172
705.000000	70.064618
704.000000	70.450654
703.000000	70.933394
702.000000	71.365413
701.000000	71.629350
700.000000	71.681897
699.000000	71.571964
698.000000	71.434255
697.000000	71.429961
696.000000	71.650382
695.000000	72.064576
694.000000	72.550388
693.000000	72.959775
692.000000	73.171229
691.000000	73.143625
690.000000	72.957554
689.000000	72.786445
688.000000	72.791595
687.000000	73.030175
686.000000	73.449982
685.000000	73.927797
684.000000	74.303483
683.000000	74.444239
682.000000	74.336489
681.000000	74.107078
680.000000	73.935598
679.000000	73.949911
678.000000	74.190810
677.000000	74.607764
676.000000	75.055515
675.000000	75.356732
674.000000	75.414618
673.000000	75.276131
672.000000	75.090032
671.000000	75.014294
670.000000	75.160962
669.000000	75.561260
668.000000	76.072144
667.000000	76.428629
666.000000	76.511823
665.000000	76.378794
664.000000	76.133014
663.000000	75.897839
662.000000	75.807246
661.000000	75.945006
660.000000	76.283136
659.000000	76.691728
658.000000	77.010814
657.000000	77.127954
656.000000	77.025359
655.000000	76.797325
654.000000	76.608178
653.000000	76.599690
652.000000	76.819398
651.000000	77.203752
650.000000	77.607119
649.000000	77.866200
648.000000	77.880727
647.000000	77.673176
646.000000	77.385560
645.000000	77.202259
644.000000	77.250391
643.000000	77.544745
642.000000	77.984526
641.000000	78.392905
640.000000	78.594840
639.000000	78.511545
638.000000	78.213470
637.000000	77.881171
636.000000	77.702348
635.000000	77.785734
634.000000	78.122874
633.000000	78.588986
632.000000	78.987028
631.000000	79.141562
630.000000	79.003042
629.000000	78.675674
628.000000	78.348099
627.000000	78.197467
626.000000	78.318340
625.000000	78.680551
624.000000	79.133119
623.000000	79.475599
622.000000	79.569062
621.000000	79.406773
620.000000	79.099134
619.000000	78.814003
618.000000	78.710022
617.000000	78.862918
616.000000	79.215118
615.000000	79.602343
614.000000	79.850010
613.000000	79.866938
612.000000	79.676977
611.000000	79.400192
610.000000	79.204880
609.000000	79.224373
608.000000	79.476634
607.000000	79.852235
606.000000	80.183737
605.000000	80.334506
604.000000	80.254230
603.000000	80.001906
602.000000	79.731803
601.000000	79.612605
600.000000	79.724157
599.000000	80.013685
598.000000	80.338086
597.000000	80.541419
596.000000	80.517650
595.000000	80.262370
594.000000	79.899021
593.000000	79.621391
592.000000	79.578913
591.000000	79.802708
590.000000	80.207286
589.000000	80.633249
588.000000	80.905667
587.000000	80.911823
586.000000	80.678103
585.000000	80.366387
584.000000	80.170713
583.000000	80.212819
582.000000	80.504862
581.000000	80.947709
580.000000	81.354938
579.000000	81.539760
578.000000	81.434421
577.000000	81.127085
576.000000	80.792478
575.000000	80.602171
574.000000	80.659947
573.000000	80.958510
572.000000	81.369987
571.000000	81.696030
570.000000	81.780796
569.000000	81.602489
568.000000	81.262420
567.000000	80.922704
566.000000	80.745704
565.000000	80.820422
564.000000	81.102228
563.000000	81.433558
562.000000	81.642358
561.000000	81.636956
560.000000	81.427883
559.000000	81.111126
558.000000	80.841086
557.000000	80.759618
556.000000	80.903635
555.000000	81.183550
554.000000	81.453899
553.000000	81.597567
552.000000	81.560792
551.000000	81.371545
550.000000	81.149311
549.000000	81.047364
548.000000	81.146357
547.000000	81.408888
546.000000	81.723450
545.000000	81.970449
544.000000	82.056606
543.000000	81.951450
542.000000	81.729636
541.000000	81.543759
540.000000	81.517157
539.000000	81.672840
538.000000	81.948005
537.000000	82.235386
536.000000	82.409647
535.000000	82.381656
534.000000	82.174356
533.000000	81.923931
532.000000	81.781696
531.000000	81.826687
530.000000	82.051935
529.000000	82.378266
528.000000	82.668561
527.000000	82.778300
526.000000	82.651933
525.000000	82.373789
524.000000	82.094656
523.000000	81.933661
522.000000	81.958105
521.000000	82.170984
520.000000	82.471066
519.000000	82.674834
518.000000	82.634385
517.000000	82.337836
516.000000	81.883300
515.000000	81.400516
514.000000	81.009162
513.000000	80.778053
512.000000	80.674181
511.000000	80.568710
510.000000	80.326944
509.000000	79.883152
508.000000	79.237689
507.000000	78.451939
506.000000	77.657805
505.000000	76.993721
504.000000	76.510076
503.000000	76.161763
502.000000	75.877537
501.000000	75.606732
500.000000	75.316351
499.000000	75.004450
498.000000	74.748362
497.000000	74.675217
496.000000	74.858102
495.000000	75.264539
494.000000	75.803479
493.000000	76.382810
492.000000	76.914338
491.000000	77.336945
490.000000	77.668344
489.000000	77.995865
488.000000	78.390602
487.000000	78.853244
486.000000	79.340436
485.000000	79.791916
484.000000	80.126591
483.000000	80.270403
482.000000	80.233458
481.000000	80.121520
480.000000	80.048687
479.000000	80.068089
478.000000	80.179963
477.000000	80.352393
476.000000	80.515086
475.000000	80.585677
474.000000	80.544886
473.000000	80.460227
472.000000	80.434150
471.000000	80.545205
470.000000	80.817450
469.000000	81.230547
468.000000	81.705515
467.000000	82.099449
466.000000	82.298795
465.000000	82.310150
464.000000	82.221687
463.000000	82.125224
462.000000	82.098898
461.000000	82.195552
460.000000	82.408226
459.000000	82.674832
458.000000	82.914390
457.000000	83.068566
456.000000	83.106687
455.000000	83.013362
454.000000	82.845245
453.000000	82.738229
452.000000	82.794962
451.000000	82.995545
450.000000	83.254629
449.000000	83.512278
448.000000	83.703981
447.000000	83.746058
446.000000	83.643225
445.000000	83.530735
444.000000	83.538079
443.000000	83.671613
442.000000	83.872631
441.000000	84.111931
440.000000	84.344612
439.000000	84.473277
438.000000	84.454819
437.000000	84.371251
436.000000	84.326930
435.000000	84.342047
434.000000	84.405164
433.000000	84.538595
432.000000	84.727960
431.000000	84.874632
430.000000	84.916338
429.000000	84.915783
428.000000	84.938191
427.000000	84.956058
426.000000	84.949775
425.000000	84.988591
424.000000	85.105105
423.000000	85.195913
422.000000	85.161324
421.000000	85.043457
420.000000	84.945584
419.000000	84.868955
418.000000	84.836385
417.000000	84.980991
416.000000	85.252631
415.000000	85.455854
414.000000	85.483982
413.000000	85.413872
412.000000	85.344484
411.000000	85.258427
410.000000	85.170105
409.000000	85.223622
408.000000	85.473812
407.000000	85.740921
406.000000	85.836724
405.000000	85.778231
404.000000	85.639386
403.000000	85.406774
402.000000	85.153803
401.000000	85.109582
400.000000	85.365244
