PE IR       SUBTECH     SPECTRUM    ASCII       PEDS        4.00        
   -1
23ms075_nitrito.asc
24/09/05
16:37:13.00
24/09/05
16:37:13.00
Administrator
Sample 1110 By Administrator Date Thursday, September 05 2024
400.000000
#HDR
-1
-1
#GR
cm-1
%T
1.0
0.0
4000.000000
-1.000000
3601
8
81.537506
3.415355
#DATA
4000.000000	56.190288
3999.000000	56.245492
3998.000000	56.300166
3997.000000	56.355133
3996.000000	56.410452
3995.000000	56.465563
3994.000000	56.520420
3993.000000	56.576068
3992.000000	56.633762
3991.000000	56.693625
3990.000000	56.754397
3989.000000	56.814466
3988.000000	56.873023
3987.000000	56.930333
3986.000000	56.987304
3985.000000	57.044728
3984.000000	57.102575
3983.000000	57.159844
3982.000000	57.215101
3981.000000	57.267335
3980.000000	57.316705
3979.000000	57.364785
3978.000000	57.414027
3977.000000	57.466513
3976.000000	57.522687
3975.000000	57.580823
3974.000000	57.638087
3973.000000	57.692860
3972.000000	57.746199
3971.000000	57.800578
3970.000000	57.857161
3969.000000	57.914368
3968.000000	57.968957
3967.000000	58.018624
3966.000000	58.063797
3965.000000	58.107519
3964.000000	58.153410
3963.000000	58.203137
3962.000000	58.255525
3961.000000	58.308196
3960.000000	58.360130
3959.000000	58.412216
3958.000000	58.465758
3957.000000	58.521004
3956.000000	58.576708
3955.000000	58.630662
3954.000000	58.680622
3953.000000	58.726020
3952.000000	58.769019
3951.000000	58.813999
3950.000000	58.864731
3949.000000	58.920459
3948.000000	58.975515
3947.000000	59.024809
3946.000000	59.069975
3945.000000	59.118451
3944.000000	59.176352
3943.000000	59.242382
3942.000000	59.309743
3941.000000	59.373500
3940.000000	59.433697
3939.000000	59.491179
3938.000000	59.544088
3937.000000	59.590135
3936.000000	59.631179
3935.000000	59.674111
3934.000000	59.726293
3933.000000	59.790282
3932.000000	59.861478
3931.000000	59.930563
3930.000000	59.989239
3929.000000	60.035865
3928.000000	60.077742
3927.000000	60.125864
3926.000000	60.185012
3925.000000	60.249585
3924.000000	60.310812
3923.000000	60.365879
3922.000000	60.416533
3921.000000	60.464528
3920.000000	60.513261
3919.000000	60.568767
3918.000000	60.633460
3917.000000	60.701157
3916.000000	60.762974
3915.000000	60.816719
3914.000000	60.866793
3913.000000	60.917038
3912.000000	60.967862
3911.000000	61.017230
3910.000000	61.062145
3909.000000	61.101297
3908.000000	61.137196
3907.000000	61.176667
3906.000000	61.225281
3905.000000	61.282049
3904.000000	61.340426
3903.000000	61.398619
3902.000000	61.463535
3901.000000	61.539039
3900.000000	61.616103
3899.000000	61.680943
3898.000000	61.729932
3897.000000	61.769952
3896.000000	61.808616
3895.000000	61.851650
3894.000000	61.907225
3893.000000	61.980210
3892.000000	62.058781
3891.000000	62.118549
3890.000000	62.152531
3889.000000	62.183171
3888.000000	62.232887
3887.000000	62.302608
3886.000000	62.371460
3885.000000	62.418199
3884.000000	62.451506
3883.000000	62.499084
3882.000000	62.570181
3881.000000	62.649226
3880.000000	62.713134
3879.000000	62.755660
3878.000000	62.795105
3877.000000	62.848539
3876.000000	62.912211
3875.000000	62.968321
3874.000000	63.004709
3873.000000	63.034826
3872.000000	63.086215
3871.000000	63.162643
3870.000000	63.232690
3869.000000	63.271466
3868.000000	63.300150
3867.000000	63.351602
3866.000000	63.423607
3865.000000	63.494800
3864.000000	63.554814
3863.000000	63.609862
3862.000000	63.668393
3861.000000	63.727101
3860.000000	63.776307
3859.000000	63.809825
3858.000000	63.826675
3857.000000	63.836385
3856.000000	63.862151
3855.000000	63.930551
3854.000000	64.029131
3853.000000	64.100148
3852.000000	64.135968
3851.000000	64.194375
3850.000000	64.286177
3849.000000	64.375831
3848.000000	64.446705
3847.000000	64.505820
3846.000000	64.564243
3845.000000	64.625370
3844.000000	64.684294
3843.000000	64.735392
3842.000000	64.782774
3841.000000	64.837779
3840.000000	64.904906
3839.000000	64.976124
3838.000000	65.037716
3837.000000	65.085731
3836.000000	65.131562
3835.000000	65.189768
3834.000000	65.261482
3833.000000	65.335251
3832.000000	65.398308
3831.000000	65.449230
3830.000000	65.500726
3829.000000	65.565298
3828.000000	65.638906
3827.000000	65.702724
3826.000000	65.743781
3825.000000	65.774091
3824.000000	65.821138
3823.000000	65.899243
3822.000000	65.988871
3821.000000	66.047503
3820.000000	66.069449
3819.000000	66.106357
3818.000000	66.188209
3817.000000	66.286819
3816.000000	66.357552
3815.000000	66.390844
3814.000000	66.426168
3813.000000	66.491057
3812.000000	66.565103
3811.000000	66.624497
3810.000000	66.675547
3809.000000	66.736296
3808.000000	66.804829
3807.000000	66.855656
3806.000000	66.880847
3805.000000	66.915081
3804.000000	66.990073
3803.000000	67.094430
3802.000000	67.185754
3801.000000	67.229935
3800.000000	67.252725
3799.000000	67.312059
3798.000000	67.411890
3797.000000	67.509487
3796.000000	67.575495
3795.000000	67.617374
3794.000000	67.661168
3793.000000	67.717529
3792.000000	67.778232
3791.000000	67.835122
3790.000000	67.889199
3789.000000	67.944642
3788.000000	68.004849
3787.000000	68.071942
3786.000000	68.143962
3785.000000	68.213160
3784.000000	68.274797
3783.000000	68.335964
3782.000000	68.407897
3781.000000	68.489795
3780.000000	68.566793
3779.000000	68.625598
3778.000000	68.670874
3777.000000	68.718559
3776.000000	68.773185
3775.000000	68.826408
3774.000000	68.874952
3773.000000	68.928533
3772.000000	68.996488
3771.000000	69.072996
3770.000000	69.141942
3769.000000	69.199629
3768.000000	69.262754
3767.000000	69.343387
3766.000000	69.428956
3765.000000	69.498774
3764.000000	69.551079
3763.000000	69.603665
3762.000000	69.667089
3761.000000	69.733326
3760.000000	69.792931
3759.000000	69.847767
3758.000000	69.903616
3757.000000	69.959841
3756.000000	70.012715
3755.000000	70.064383
3754.000000	70.120380
3753.000000	70.186175
3752.000000	70.263330
3751.000000	70.341176
3750.000000	70.399762
3749.000000	70.435117
3748.000000	70.470442
3747.000000	70.529033
3746.000000	70.613107
3745.000000	70.701374
3744.000000	70.757477
3743.000000	70.798073
3742.000000	70.883900
3741.000000	71.004149
3740.000000	71.100206
3739.000000	71.154952
3738.000000	71.192827
3737.000000	71.244440
3736.000000	71.322904
3735.000000	71.426696
3734.000000	71.543685
3733.000000	71.646898
3732.000000	71.708806
3731.000000	71.733115
3730.000000	71.753251
3729.000000	71.793763
3728.000000	71.852655
3727.000000	71.917851
3726.000000	71.986372
3725.000000	72.066756
3724.000000	72.163251
3723.000000	72.264610
3722.000000	72.357224
3721.000000	72.438982
3720.000000	72.516646
3719.000000	72.592428
3718.000000	72.659324
3717.000000	72.712282
3716.000000	72.757228
3715.000000	72.805737
3714.000000	72.863774
3713.000000	72.929251
3712.000000	72.995695
3711.000000	73.058940
3710.000000	73.125129
3709.000000	73.202191
3708.000000	73.286774
3707.000000	73.369860
3706.000000	73.446648
3705.000000	73.518366
3704.000000	73.586265
3703.000000	73.649120
3702.000000	73.704004
3701.000000	73.751814
3700.000000	73.801986
3699.000000	73.864555
3698.000000	73.935489
3697.000000	74.000992
3696.000000	74.055281
3695.000000	74.106247
3694.000000	74.163119
3693.000000	74.225633
3692.000000	74.292085
3691.000000	74.365817
3690.000000	74.446904
3689.000000	74.520777
3688.000000	74.574855
3687.000000	74.623817
3686.000000	74.688318
3685.000000	74.761023
3684.000000	74.819417
3683.000000	74.857216
3682.000000	74.884332
3681.000000	74.908541
3680.000000	74.927629
3679.000000	74.945520
3678.000000	74.979100
3677.000000	75.036239
3676.000000	75.092288
3675.000000	75.114669
3674.000000	75.129226
3673.000000	75.185144
3672.000000	75.266297
3671.000000	75.321637
3670.000000	75.329131
3669.000000	75.311007
3668.000000	75.314871
3667.000000	75.356224
3666.000000	75.405944
3665.000000	75.437177
3664.000000	75.449104
3663.000000	75.454465
3662.000000	75.460753
3661.000000	75.466401
3660.000000	75.468553
3659.000000	75.466996
3658.000000	75.457492
3657.000000	75.429784
3656.000000	75.380435
3655.000000	75.328142
3654.000000	75.298116
3653.000000	75.286282
3652.000000	75.267014
3651.000000	75.225992
3650.000000	75.167374
3649.000000	75.104029
3648.000000	75.052371
3647.000000	75.022457
3646.000000	75.009950
3645.000000	75.000330
3644.000000	74.978054
3643.000000	74.934359
3642.000000	74.870282
3641.000000	74.794446
3640.000000	74.715564
3639.000000	74.635845
3638.000000	74.552508
3637.000000	74.466965
3636.000000	74.384107
3635.000000	74.302755
3634.000000	74.215191
3633.000000	74.119395
3632.000000	74.022410
3631.000000	73.927649
3630.000000	73.829654
3629.000000	73.720545
3628.000000	73.612385
3627.000000	73.542247
3626.000000	73.515280
3625.000000	73.486371
3624.000000	73.420530
3623.000000	73.321354
3622.000000	73.208498
3621.000000	73.093769
3620.000000	72.979414
3619.000000	72.869040
3618.000000	72.772569
3617.000000	72.698378
3616.000000	72.639609
3615.000000	72.575716
3614.000000	72.489376
3613.000000	72.380015
3612.000000	72.262899
3611.000000	72.153230
3610.000000	72.052604
3609.000000	71.954278
3608.000000	71.857816
3607.000000	71.771270
3606.000000	71.698587
3605.000000	71.631367
3604.000000	71.556986
3603.000000	71.470662
3602.000000	71.375060
3601.000000	71.274604
3600.000000	71.173512
3599.000000	71.074970
3598.000000	70.977805
3597.000000	70.878413
3596.000000	70.777377
3595.000000	70.678653
3594.000000	70.584113
3593.000000	70.491117
3592.000000	70.395507
3591.000000	70.292680
3590.000000	70.181358
3589.000000	70.068346
3588.000000	69.968532
3587.000000	69.893831
3586.000000	69.842796
3585.000000	69.800633
3584.000000	69.747998
3583.000000	69.673822
3582.000000	69.579841
3581.000000	69.475431
3580.000000	69.369913
3579.000000	69.267848
3578.000000	69.168604
3577.000000	69.069490
3576.000000	68.969875
3575.000000	68.870297
3574.000000	68.770267
3573.000000	68.667991
3572.000000	68.562485
3571.000000	68.453253
3570.000000	68.340041
3569.000000	68.225680
3568.000000	68.119063
3567.000000	68.030494
3566.000000	67.961958
3565.000000	67.904467
3564.000000	67.843700
3563.000000	67.768581
3562.000000	67.676794
3561.000000	67.573744
3560.000000	67.467021
3559.000000	67.360499
3558.000000	67.253106
3557.000000	67.143077
3556.000000	67.032521
3555.000000	66.926160
3554.000000	66.826243
3553.000000	66.730921
3552.000000	66.637147
3551.000000	66.542657
3550.000000	66.444817
3549.000000	66.341528
3548.000000	66.235410
3547.000000	66.134354
3546.000000	66.043826
3545.000000	65.960588
3544.000000	65.875873
3543.000000	65.782436
3542.000000	65.677941
3541.000000	65.565058
3540.000000	65.450403
3539.000000	65.341526
3538.000000	65.242888
3537.000000	65.154381
3536.000000	65.072529
3535.000000	64.992199
3534.000000	64.908206
3533.000000	64.817768
3532.000000	64.721672
3531.000000	64.621943
3530.000000	64.518912
3529.000000	64.412173
3528.000000	64.304363
3527.000000	64.201445
3526.000000	64.108919
3525.000000	64.028305
3524.000000	63.956695
3523.000000	63.887896
3522.000000	63.815430
3521.000000	63.736924
3520.000000	63.655007
3519.000000	63.572784
3518.000000	63.489958
3517.000000	63.404757
3516.000000	63.316959
3515.000000	63.226374
3514.000000	63.130489
3513.000000	63.026884
3512.000000	62.917114
3511.000000	62.806147
3510.000000	62.698845
3509.000000	62.598296
3508.000000	62.505839
3507.000000	62.419770
3506.000000	62.335066
3505.000000	62.247467
3504.000000	62.157678
3503.000000	62.068761
3502.000000	61.980205
3501.000000	61.887497
3500.000000	61.787033
3499.000000	61.678611
3498.000000	61.563926
3497.000000	61.445521
3496.000000	61.327115
3495.000000	61.212039
3494.000000	61.100972
3493.000000	60.992924
3492.000000	60.887573
3491.000000	60.784863
3490.000000	60.683304
3489.000000	60.580847
3488.000000	60.476707
3487.000000	60.370462
3486.000000	60.260117
3485.000000	60.143157
3484.000000	60.019408
3483.000000	59.891692
3482.000000	59.764267
3481.000000	59.641322
3480.000000	59.524810
3479.000000	59.411863
3478.000000	59.296247
3477.000000	59.174478
3476.000000	59.049272
3475.000000	58.925250
3474.000000	58.803413
3473.000000	58.682219
3472.000000	58.561724
3471.000000	58.443058
3470.000000	58.325034
3469.000000	58.204295
3468.000000	58.078146
3467.000000	57.945362
3466.000000	57.805655
3465.000000	57.660811
3464.000000	57.515442
3463.000000	57.374351
3462.000000	57.239331
3461.000000	57.109336
3460.000000	56.981966
3459.000000	56.853435
3458.000000	56.719461
3457.000000	56.578795
3456.000000	56.434533
3455.000000	56.290068
3454.000000	56.145320
3453.000000	55.998592
3452.000000	55.850190
3451.000000	55.701746
3450.000000	55.553317
3449.000000	55.403700
3448.000000	55.252926
3447.000000	55.102077
3446.000000	54.951406
3445.000000	54.800133
3444.000000	54.647129
3443.000000	54.490737
3442.000000	54.329520
3441.000000	54.164792
3440.000000	54.000574
3439.000000	53.839229
3438.000000	53.678656
3437.000000	53.515091
3436.000000	53.346638
3435.000000	53.172531
3434.000000	52.991515
3433.000000	52.803758
3432.000000	52.612386
3431.000000	52.420443
3430.000000	52.227244
3429.000000	52.029826
3428.000000	51.826983
3427.000000	51.619395
3426.000000	51.407574
3425.000000	51.192048
3424.000000	50.974178
3423.000000	50.754604
3422.000000	50.531778
3421.000000	50.304240
3420.000000	50.072777
3419.000000	49.838184
3418.000000	49.598934
3417.000000	49.353183
3416.000000	49.101670
3415.000000	48.846222
3414.000000	48.586594
3413.000000	48.321238
3412.000000	48.049601
3411.000000	47.771852
3410.000000	47.487650
3409.000000	47.196798
3408.000000	46.900046
3407.000000	46.597338
3406.000000	46.287097
3405.000000	45.969049
3404.000000	45.645704
3403.000000	45.319430
3402.000000	44.989237
3401.000000	44.651818
3400.000000	44.304036
3399.000000	43.943422
3398.000000	43.569447
3397.000000	43.185782
3396.000000	42.798332
3395.000000	42.409563
3394.000000	42.016732
3393.000000	41.616795
3392.000000	41.209455
3391.000000	40.793675
3390.000000	40.365896
3389.000000	39.924058
3388.000000	39.470746
3387.000000	39.009747
3386.000000	38.542013
3385.000000	38.067703
3384.000000	37.588462
3383.000000	37.105418
3382.000000	36.617348
3381.000000	36.122896
3380.000000	35.622592
3379.000000	35.116517
3378.000000	34.602974
3377.000000	34.081265
3376.000000	33.552714
3375.000000	33.017704
3374.000000	32.474592
3373.000000	31.923435
3372.000000	31.367859
3371.000000	30.810914
3370.000000	30.252353
3369.000000	29.691119
3368.000000	29.127375
3367.000000	28.560816
3366.000000	27.990125
3365.000000	27.415904
3364.000000	26.840904
3363.000000	26.266292
3362.000000	25.691005
3361.000000	25.115460
3360.000000	24.542074
3359.000000	23.971032
3358.000000	23.399588
3357.000000	22.827047
3356.000000	22.256402
3355.000000	21.689825
3354.000000	21.126829
3353.000000	20.568217
3352.000000	20.017530
3351.000000	19.476902
3350.000000	18.944848
3349.000000	18.419537
3348.000000	17.900833
3347.000000	17.387858
3346.000000	16.879121
3345.000000	16.376109
3344.000000	15.882836
3343.000000	15.400802
3342.000000	14.927685
3341.000000	14.462436
3340.000000	14.007505
3339.000000	13.564975
3338.000000	13.134637
3337.000000	12.716278
3336.000000	12.310612
3335.000000	11.916846
3334.000000	11.532848
3333.000000	11.158927
3332.000000	10.797127
3331.000000	10.447101
3330.000000	10.106226
3329.000000	9.773842
3328.000000	9.452322
3327.000000	9.143079
3326.000000	8.845783
3325.000000	8.561285
3324.000000	8.290725
3323.000000	8.032514
3322.000000	7.783465
3321.000000	7.543260
3320.000000	7.314059
3319.000000	7.095479
3318.000000	6.885081
3317.000000	6.682738
3316.000000	6.490416
3315.000000	6.308031
3314.000000	6.133060
3313.000000	5.964654
3312.000000	5.803610
3311.000000	5.648796
3310.000000	5.498355
3309.000000	5.353645
3308.000000	5.218427
3307.000000	5.094153
3306.000000	4.979796
3305.000000	4.875681
3304.000000	4.782198
3303.000000	4.696086
3302.000000	4.612421
3301.000000	4.529913
3300.000000	4.450580
3299.000000	4.374753
3298.000000	4.301202
3297.000000	4.231216
3296.000000	4.167454
3295.000000	4.109557
3294.000000	4.055154
3293.000000	4.004854
3292.000000	3.961583
3291.000000	3.925002
3290.000000	3.891590
3289.000000	3.859544
3288.000000	3.829546
3287.000000	3.801355
3286.000000	3.773830
3285.000000	3.748216
3284.000000	3.726740
3283.000000	3.708546
3282.000000	3.690978
3281.000000	3.674072
3280.000000	3.659817
3279.000000	3.647673
3278.000000	3.635348
3277.000000	3.623221
3276.000000	3.613473
3275.000000	3.605534
3274.000000	3.596832
3273.000000	3.587861
3272.000000	3.582190
3271.000000	3.581582
3270.000000	3.584898
3269.000000	3.591068
3268.000000	3.599240
3267.000000	3.606880
3266.000000	3.611726
3265.000000	3.615200
3264.000000	3.620273
3263.000000	3.626709
3262.000000	3.632207
3261.000000	3.636869
3260.000000	3.642511
3259.000000	3.648732
3258.000000	3.653914
3257.000000	3.659287
3256.000000	3.667657
3255.000000	3.678867
3254.000000	3.690352
3253.000000	3.701351
3252.000000	3.712581
3251.000000	3.722805
3250.000000	3.730053
3249.000000	3.735673
3248.000000	3.743212
3247.000000	3.753744
3246.000000	3.765748
3245.000000	3.778593
3244.000000	3.792489
3243.000000	3.805983
3242.000000	3.817380
3241.000000	3.827820
3240.000000	3.839437
3239.000000	3.851401
3238.000000	3.861234
3237.000000	3.868897
3236.000000	3.876255
3235.000000	3.883929
3234.000000	3.892077
3233.000000	3.902645
3232.000000	3.916896
3231.000000	3.932100
3230.000000	3.944561
3229.000000	3.954569
3228.000000	3.964684
3227.000000	3.974833
3226.000000	3.983120
3225.000000	3.990049
3224.000000	3.997636
3223.000000	4.005508
3222.000000	4.011868
3221.000000	4.017277
3220.000000	4.023607
3219.000000	4.030266
3218.000000	4.035245
3217.000000	4.038782
3216.000000	4.042337
3215.000000	4.045233
3214.000000	4.045945
3213.000000	4.045509
3212.000000	4.045927
3211.000000	4.046436
3210.000000	4.044979
3209.000000	4.041976
3208.000000	4.039115
3207.000000	4.035796
3206.000000	4.030443
3205.000000	4.024028
3204.000000	4.018529
3203.000000	4.013205
3202.000000	4.005915
3201.000000	3.996836
3200.000000	3.987456
3199.000000	3.977312
3198.000000	3.965229
3197.000000	3.952323
3196.000000	3.940194
3195.000000	3.927719
3194.000000	3.913035
3193.000000	3.897144
3192.000000	3.882126
3191.000000	3.867392
3190.000000	3.851297
3189.000000	3.834723
3188.000000	3.819455
3187.000000	3.804604
3186.000000	3.788212
3185.000000	3.770904
3184.000000	3.754416
3183.000000	3.738189
3182.000000	3.720874
3181.000000	3.703495
3180.000000	3.687623
3179.000000	3.672151
3178.000000	3.655359
3177.000000	3.638410
3176.000000	3.623274
3175.000000	3.609054
3174.000000	3.593956
3173.000000	3.578986
3172.000000	3.565999
3171.000000	3.553949
3170.000000	3.540761
3169.000000	3.527211
3168.000000	3.515338
3167.000000	3.504691
3166.000000	3.493761
3165.000000	3.483354
3164.000000	3.474951
3163.000000	3.467498
3162.000000	3.459360
3161.000000	3.451732
3160.000000	3.446591
3159.000000	3.442937
3158.000000	3.438507
3157.000000	3.433365
3156.000000	3.428606
3155.000000	3.423617
3154.000000	3.418202
3153.000000	3.415355
3152.000000	3.417944
3151.000000	3.424352
3150.000000	3.430877
3149.000000	3.436715
3148.000000	3.443172
3147.000000	3.449954
3146.000000	3.456067
3145.000000	3.462615
3144.000000	3.470972
3143.000000	3.479780
3142.000000	3.487219
3141.000000	3.494830
3140.000000	3.505711
3139.000000	3.520294
3138.000000	3.537015
3137.000000	3.555325
3136.000000	3.574968
3135.000000	3.594119
3134.000000	3.611447
3133.000000	3.628563
3132.000000	3.647555
3131.000000	3.667993
3130.000000	3.689012
3129.000000	3.711879
3128.000000	3.737518
3127.000000	3.763807
3126.000000	3.788493
3125.000000	3.812508
3124.000000	3.837338
3123.000000	3.861769
3122.000000	3.884610
3121.000000	3.908118
3120.000000	3.935134
3119.000000	3.964996
3118.000000	3.995923
3117.000000	4.029132
3116.000000	4.066772
3115.000000	4.107700
3114.000000	4.148767
3113.000000	4.188649
3112.000000	4.227376
3111.000000	4.264340
3110.000000	4.300073
3109.000000	4.337823
3108.000000	4.379918
3107.000000	4.424424
3106.000000	4.468326
3105.000000	4.511784
3104.000000	4.556113
3103.000000	4.600278
3102.000000	4.643045
3101.000000	4.686382
3100.000000	4.733052
3099.000000	4.782463
3098.000000	4.832367
3097.000000	4.882735
3096.000000	4.934513
3095.000000	4.986492
3094.000000	5.036857
3093.000000	5.086361
3092.000000	5.136967
3091.000000	5.188870
3090.000000	5.241556
3089.000000	5.295794
3088.000000	5.351821
3087.000000	5.407706
3086.000000	5.462325
3085.000000	5.517941
3084.000000	5.576871
3083.000000	5.637812
3082.000000	5.698431
3081.000000	5.759302
3080.000000	5.822343
3079.000000	5.887492
3078.000000	5.953983
3077.000000	6.022694
3076.000000	6.093994
3075.000000	6.165428
3074.000000	6.234610
3073.000000	6.302409
3072.000000	6.370488
3071.000000	6.437992
3070.000000	6.503945
3069.000000	6.570686
3068.000000	6.641414
3067.000000	6.716063
3066.000000	6.792556
3065.000000	6.870335
3064.000000	6.949535
3063.000000	7.028559
3062.000000	7.105743
3061.000000	7.181931
3060.000000	7.258692
3059.000000	7.335672
3058.000000	7.412229
3057.000000	7.489756
3056.000000	7.569490
3055.000000	7.649867
3054.000000	7.728987
3053.000000	7.808058
3052.000000	7.889695
3051.000000	7.974242
3050.000000	8.060142
3049.000000	8.146287
3048.000000	8.231669
3047.000000	8.314620
3046.000000	8.394916
3045.000000	8.475042
3044.000000	8.557346
3043.000000	8.641681
3042.000000	8.727575
3041.000000	8.816122
3040.000000	8.907258
3039.000000	8.997717
3038.000000	9.084521
3037.000000	9.168692
3036.000000	9.253235
3035.000000	9.339495
3034.000000	9.427684
3033.000000	9.518559
3032.000000	9.611831
3031.000000	9.704926
3030.000000	9.795844
3029.000000	9.885347
3028.000000	9.974405
3027.000000	10.062052
3026.000000	10.148120
3025.000000	10.235310
3024.000000	10.325617
3023.000000	10.417008
3022.000000	10.506528
3021.000000	10.594583
3020.000000	10.683333
3019.000000	10.772834
3018.000000	10.861668
3017.000000	10.949694
3016.000000	11.037590
3015.000000	11.125339
3014.000000	11.213581
3013.000000	11.304663
3012.000000	11.399909
3011.000000	11.497482
3010.000000	11.594881
3009.000000	11.691680
3008.000000	11.787955
3007.000000	11.882437
3006.000000	11.974599
3005.000000	12.066437
3004.000000	12.159842
3003.000000	12.253935
3002.000000	12.347013
3001.000000	12.439110
3000.000000	12.530838
2999.000000	12.621950
2998.000000	12.712916
2997.000000	12.805427
2996.000000	12.899285
2995.000000	12.991540
2994.000000	13.081119
2993.000000	13.171595
2992.000000	13.266660
2991.000000	13.365301
2990.000000	13.464159
2989.000000	13.562200
2988.000000	13.660031
2987.000000	13.756862
2986.000000	13.851386
2985.000000	13.944144
2984.000000	14.036282
2983.000000	14.127550
2982.000000	14.218000
2981.000000	14.309827
2980.000000	14.404816
2979.000000	14.501492
2978.000000	14.597334
2977.000000	14.692312
2976.000000	14.787961
2975.000000	14.884655
2974.000000	14.982158
2973.000000	15.081132
2972.000000	15.181646
2971.000000	15.281700
2970.000000	15.379551
2969.000000	15.476041
2968.000000	15.572490
2967.000000	15.668121
2966.000000	15.761770
2965.000000	15.854391
2964.000000	15.947566
2963.000000	16.041295
2962.000000	16.135472
2961.000000	16.231478
2960.000000	16.329917
2959.000000	16.428680
2958.000000	16.525476
2957.000000	16.620325
2956.000000	16.713612
2955.000000	16.804356
2954.000000	16.892898
2953.000000	16.982517
2952.000000	17.075201
2951.000000	17.167950
2950.000000	17.256477
2949.000000	17.340747
2948.000000	17.424138
2947.000000	17.509068
2946.000000	17.596431
2945.000000	17.687564
2944.000000	17.783208
2943.000000	17.881308
2942.000000	17.978589
2941.000000	18.073765
2940.000000	18.167194
2939.000000	18.258618
2938.000000	18.347516
2937.000000	18.434603
2936.000000	18.520828
2935.000000	18.605850
2934.000000	18.689410
2933.000000	18.773017
2932.000000	18.858442
2931.000000	18.945823
2930.000000	19.034778
2929.000000	19.125683
2928.000000	19.218068
2927.000000	19.309748
2926.000000	19.399520
2925.000000	19.488769
2924.000000	19.578511
2923.000000	19.666991
2922.000000	19.752415
2921.000000	19.835844
2920.000000	19.919080
2919.000000	20.001812
2918.000000	20.083156
2917.000000	20.164122
2916.000000	20.246126
2915.000000	20.328664
2914.000000	20.410554
2913.000000	20.491868
2912.000000	20.572817
2911.000000	20.652413
2910.000000	20.730143
2909.000000	20.807320
2908.000000	20.884941
2907.000000	20.961815
2906.000000	21.036568
2905.000000	21.109775
2904.000000	21.182348
2903.000000	21.253689
2902.000000	21.323495
2901.000000	21.393629
2900.000000	21.466154
2899.000000	21.540815
2898.000000	21.616291
2897.000000	21.692251
2896.000000	21.768305
2895.000000	21.842658
2894.000000	21.913914
2893.000000	21.982904
2892.000000	22.050783
2891.000000	22.116748
2890.000000	22.179487
2889.000000	22.239491
2888.000000	22.298042
2887.000000	22.355223
2886.000000	22.410750
2885.000000	22.465490
2884.000000	22.520325
2883.000000	22.574688
2882.000000	22.627790
2881.000000	22.679986
2880.000000	22.731334
2879.000000	22.780323
2878.000000	22.825852
2877.000000	22.869125
2876.000000	22.911799
2875.000000	22.953557
2874.000000	22.993338
2873.000000	23.031705
2872.000000	23.070345
2871.000000	23.110618
2870.000000	23.154327
2869.000000	23.204472
2868.000000	23.263085
2867.000000	23.329300
2866.000000	23.401218
2865.000000	23.478379
2864.000000	23.560881
2863.000000	23.647624
2862.000000	23.737254
2861.000000	23.829495
2860.000000	23.923821
2859.000000	24.018169
2858.000000	24.110859
2857.000000	24.202591
2856.000000	24.294897
2855.000000	24.387975
2854.000000	24.481590
2853.000000	24.576546
2852.000000	24.673422
2851.000000	24.771103
2850.000000	24.868186
2849.000000	24.964516
2848.000000	25.059845
2847.000000	25.152504
2846.000000	25.241105
2845.000000	25.326255
2844.000000	25.409041
2843.000000	25.489270
2842.000000	25.566855
2841.000000	25.643432
2840.000000	25.720638
2839.000000	25.797964
2838.000000	25.874107
2837.000000	25.949421
2836.000000	26.025263
2835.000000	26.101906
2834.000000	26.178744
2833.000000	26.255632
2832.000000	26.332371
2831.000000	26.407746
2830.000000	26.480677
2829.000000	26.551576
2828.000000	26.621213
2827.000000	26.689217
2826.000000	26.755100
2825.000000	26.819755
2824.000000	26.884427
2823.000000	26.949156
2822.000000	27.013719
2821.000000	27.079152
2820.000000	27.146672
2819.000000	27.215877
2818.000000	27.285487
2817.000000	27.355093
2816.000000	27.424713
2815.000000	27.493441
2814.000000	27.560099
2813.000000	27.624676
2812.000000	27.687869
2811.000000	27.749897
2810.000000	27.810953
2809.000000	27.872022
2808.000000	27.933969
2807.000000	27.996559
2806.000000	28.059495
2805.000000	28.123485
2804.000000	28.189047
2803.000000	28.255238
2802.000000	28.320892
2801.000000	28.386179
2800.000000	28.451639
2799.000000	28.516595
2798.000000	28.579899
2797.000000	28.641460
2796.000000	28.701736
2795.000000	28.760553
2794.000000	28.817767
2793.000000	28.874268
2792.000000	28.931069
2791.000000	28.988209
2790.000000	29.045750
2789.000000	29.104728
2788.000000	29.165665
2787.000000	29.227052
2786.000000	29.286808
2785.000000	29.344457
2784.000000	29.400560
2783.000000	29.455016
2782.000000	29.507538
2781.000000	29.558946
2780.000000	29.610200
2779.000000	29.660779
2778.000000	29.709681
2777.000000	29.757502
2776.000000	29.805974
2775.000000	29.855818
2774.000000	29.906428
2773.000000	29.957262
2772.000000	30.008118
2771.000000	30.058450
2770.000000	30.107751
2769.000000	30.156359
2768.000000	30.204763
2767.000000	30.252527
2766.000000	30.298949
2765.000000	30.344271
2764.000000	30.389174
2763.000000	30.433721
2762.000000	30.477899
2761.000000	30.522523
2760.000000	30.568353
2759.000000	30.614898
2758.000000	30.661270
2757.000000	30.707574
2756.000000	30.754212
2755.000000	30.800440
2754.000000	30.844931
2753.000000	30.887320
2752.000000	30.928003
2751.000000	30.967071
2750.000000	31.004688
2749.000000	31.041911
2748.000000	31.079810
2747.000000	31.118160
2746.000000	31.156228
2745.000000	31.194337
2744.000000	31.233410
2743.000000	31.273453
2742.000000	31.313731
2741.000000	31.353977
2740.000000	31.394209
2739.000000	31.433789
2738.000000	31.471903
2737.000000	31.508584
2736.000000	31.544164
2735.000000	31.578247
2734.000000	31.610424
2733.000000	31.641567
2732.000000	31.673192
2731.000000	31.705865
2730.000000	31.739375
2729.000000	31.773996
2728.000000	31.810343
2727.000000	31.848259
2726.000000	31.886950
2725.000000	31.925880
2724.000000	31.964534
2723.000000	32.001735
2722.000000	32.036338
2721.000000	32.068366
2720.000000	32.098634
2719.000000	32.127698
2718.000000	32.156087
2717.000000	32.184918
2716.000000	32.215108
2715.000000	32.246428
2714.000000	32.278331
2713.000000	32.311149
2712.000000	32.345373
2711.000000	32.380291
2710.000000	32.414503
2709.000000	32.447291
2708.000000	32.478451
2707.000000	32.507315
2706.000000	32.533133
2705.000000	32.556083
2704.000000	32.576752
2703.000000	32.595073
2702.000000	32.610931
2701.000000	32.625262
2700.000000	32.639461
2699.000000	32.654016
2698.000000	32.668686
2697.000000	32.683540
2696.000000	32.698614
2695.000000	32.713113
2694.000000	32.726123
2693.000000	32.737687
2692.000000	32.748119
2691.000000	32.756750
2690.000000	32.762613
2689.000000	32.765877
2688.000000	32.767388
2687.000000	32.767348
2686.000000	32.765674
2685.000000	32.763292
2684.000000	32.761706
2683.000000	32.761478
2682.000000	32.762297
2681.000000	32.764168
2680.000000	32.767275
2679.000000	32.771004
2678.000000	32.774325
2677.000000	32.777009
2676.000000	32.779443
2675.000000	32.781599
2674.000000	32.783260
2673.000000	32.785018
2672.000000	32.787981
2671.000000	32.792904
2670.000000	32.800586
2669.000000	32.812632
2668.000000	32.830798
2667.000000	32.855621
2666.000000	32.886778
2665.000000	32.924270
2664.000000	32.968033
2663.000000	33.017154
2662.000000	33.070329
2661.000000	33.126941
2660.000000	33.186738
2659.000000	33.248641
2658.000000	33.311199
2657.000000	33.373797
2656.000000	33.436530
2655.000000	33.499306
2654.000000	33.561922
2653.000000	33.624723
2652.000000	33.688111
2651.000000	33.751675
2650.000000	33.814746
2649.000000	33.877474
2648.000000	33.940397
2647.000000	34.003270
2646.000000	34.065209
2645.000000	34.125620
2644.000000	34.184126
2643.000000	34.239890
2642.000000	34.292117
2641.000000	34.340994
2640.000000	34.387092
2639.000000	34.430294
2638.000000	34.470175
2637.000000	34.507232
2636.000000	34.542765
2635.000000	34.577614
2634.000000	34.612080
2633.000000	34.646639
2632.000000	34.681687
2631.000000	34.716783
2630.000000	34.751061
2629.000000	34.784282
2628.000000	34.816476
2627.000000	34.846864
2626.000000	34.874292
2625.000000	34.898542
2624.000000	34.920355
2623.000000	34.940258
2622.000000	34.958388
2621.000000	34.975419
2620.000000	34.992492
2619.000000	35.010248
2618.000000	35.028716
2617.000000	35.048009
2616.000000	35.068302
2615.000000	35.089234
2614.000000	35.110146
2613.000000	35.130680
2612.000000	35.150303
2611.000000	35.167615
2610.000000	35.181035
2609.000000	35.190109
2608.000000	35.195317
2607.000000	35.196820
2606.000000	35.194561
2605.000000	35.189107
2604.000000	35.181367
2603.000000	35.171657
2602.000000	35.159855
2601.000000	35.146527
2600.000000	35.132726
2599.000000	35.118834
2598.000000	35.104623
2597.000000	35.090274
2596.000000	35.076493
2595.000000	35.063913
2594.000000	35.053357
2593.000000	35.046502
2592.000000	35.045514
2591.000000	35.051912
2590.000000	35.066705
2589.000000	35.091252
2588.000000	35.126638
2587.000000	35.172970
2586.000000	35.229607
2585.000000	35.295957
2584.000000	35.371318
2583.000000	35.453860
2582.000000	35.541431
2581.000000	35.632669
2580.000000	35.726652
2579.000000	35.822066
2578.000000	35.917484
2577.000000	36.012650
2576.000000	36.108197
2575.000000	36.204251
2574.000000	36.300367
2573.000000	36.396630
2572.000000	36.493889
2571.000000	36.592766
2570.000000	36.693255
2569.000000	36.795285
2568.000000	36.898643
2567.000000	37.002285
2566.000000	37.104582
2565.000000	37.204475
2564.000000	37.301757
2563.000000	37.396348
2562.000000	37.488074
2561.000000	37.577185
2560.000000	37.664288
2559.000000	37.749573
2558.000000	37.833089
2557.000000	37.915646
2556.000000	37.998503
2555.000000	38.082006
2554.000000	38.165302
2553.000000	38.247605
2552.000000	38.328721
2551.000000	38.408104
2550.000000	38.484545
2549.000000	38.557123
2548.000000	38.625872
2547.000000	38.691119
2546.000000	38.752951
2545.000000	38.811855
2544.000000	38.868740
2543.000000	38.924020
2542.000000	38.977266
2541.000000	39.027938
2540.000000	39.075943
2539.000000	39.120819
2538.000000	39.161427
2537.000000	39.196751
2536.000000	39.225970
2535.000000	39.247826
2534.000000	39.260380
2533.000000	39.262298
2532.000000	39.253753
2531.000000	39.235369
2530.000000	39.207858
2529.000000	39.172540
2528.000000	39.131646
2527.000000	39.087616
2526.000000	39.042480
2525.000000	38.998695
2524.000000	38.959377
2523.000000	38.927269
2522.000000	38.903999
2521.000000	38.890801
2520.000000	38.888728
2519.000000	38.898130
2518.000000	38.918701
2517.000000	38.949962
2516.000000	38.991783
2515.000000	39.043431
2514.000000	39.103504
2513.000000	39.171093
2512.000000	39.245633
2511.000000	39.326066
2510.000000	39.410350
2509.000000	39.496525
2508.000000	39.583546
2507.000000	39.670426
2506.000000	39.755689
2505.000000	39.837977
2504.000000	39.916614
2503.000000	39.991082
2502.000000	40.060839
2501.000000	40.126006
2500.000000	40.187635
2499.000000	40.246740
2498.000000	40.303505
2497.000000	40.358104
2496.000000	40.411237
2495.000000	40.463517
2494.000000	40.515040
2493.000000	40.565850
2492.000000	40.616162
2491.000000	40.665445
2490.000000	40.712256
2489.000000	40.755648
2488.000000	40.795828
2487.000000	40.833103
2486.000000	40.866992
2485.000000	40.897172
2484.000000	40.924570
2483.000000	40.950535
2482.000000	40.975847
2481.000000	41.001062
2480.000000	41.027039
2479.000000	41.054359
2478.000000	41.082751
2477.000000	41.111819
2476.000000	41.141567
2475.000000	41.171645
2474.000000	41.200907
2473.000000	41.228393
2472.000000	41.254041
2471.000000	41.277830
2470.000000	41.299082
2469.000000	41.317507
2468.000000	41.334038
2467.000000	41.349937
2466.000000	41.365779
2465.000000	41.381975
2464.000000	41.399470
2463.000000	41.419010
2462.000000	41.440472
2461.000000	41.463635
2460.000000	41.488880
2459.000000	41.516225
2458.000000	41.544469
2457.000000	41.572047
2456.000000	41.598134
2455.000000	41.622282
2454.000000	41.643810
2453.000000	41.662418
2452.000000	41.678712
2451.000000	41.693464
2450.000000	41.707066
2449.000000	41.720465
2448.000000	41.735650
2447.000000	41.754333
2446.000000	41.776773
2445.000000	41.802606
2444.000000	41.831756
2443.000000	41.863749
2442.000000	41.897014
2441.000000	41.929811
2440.000000	41.961247
2439.000000	41.990551
2438.000000	42.016346
2437.000000	42.037588
2436.000000	42.054649
2435.000000	42.068544
2434.000000	42.080079
2433.000000	42.090479
2432.000000	42.101801
2431.000000	42.115674
2430.000000	42.132532
2429.000000	42.153146
2428.000000	42.179800
2427.000000	42.214611
2426.000000	42.256910
2425.000000	42.303477
2424.000000	42.350467
2423.000000	42.394386
2422.000000	42.432305
2421.000000	42.462852
2420.000000	42.487002
2419.000000	42.506900
2418.000000	42.524364
2417.000000	42.541183
2416.000000	42.559997
2415.000000	42.583405
2414.000000	42.612608
2413.000000	42.647639
2412.000000	42.688252
2411.000000	42.733378
2410.000000	42.780466
2409.000000	42.826508
2408.000000	42.869443
2407.000000	42.907938
2406.000000	42.940702
2405.000000	42.967296
2404.000000	42.988990
2403.000000	43.007880
2402.000000	43.025628
2401.000000	43.044127
2400.000000	43.066274
2399.000000	43.094788
2398.000000	43.130524
2397.000000	43.172978
2396.000000	43.221517
2395.000000	43.274962
2394.000000	43.330731
2393.000000	43.385601
2392.000000	43.437215
2391.000000	43.484014
2390.000000	43.524718
2389.000000	43.559072
2388.000000	43.588701
2387.000000	43.615966
2386.000000	43.642667
2385.000000	43.670706
2384.000000	43.702842
2383.000000	43.741513
2382.000000	43.787423
2381.000000	43.840497
2380.000000	43.901418
2379.000000	43.970839
2378.000000	44.047495
2377.000000	44.128890
2376.000000	44.212739
2375.000000	44.296244
2374.000000	44.375242
2373.000000	44.445518
2372.000000	44.506203
2371.000000	44.559417
2370.000000	44.607342
2369.000000	44.652125
2368.000000	44.698569
2367.000000	44.751757
2366.000000	44.811990
2365.000000	44.877312
2364.000000	44.949930
2363.000000	45.029316
2362.000000	45.111006
2361.000000	45.192556
2360.000000	45.271851
2359.000000	45.350834
2358.000000	45.427928
2357.000000	45.498898
2356.000000	45.566322
2355.000000	45.628201
2354.000000	45.683064
2353.000000	45.733729
2352.000000	45.796989
2351.000000	45.882368
2350.000000	45.970069
2349.000000	46.039086
2348.000000	46.083603
2347.000000	46.123492
2346.000000	46.186082
2345.000000	46.277700
2344.000000	46.385813
2343.000000	46.480076
2342.000000	46.553816
2341.000000	46.612435
2340.000000	46.663754
2339.000000	46.715258
2338.000000	46.771312
2337.000000	46.839394
2336.000000	46.921919
2335.000000	47.018716
2334.000000	47.119168
2333.000000	47.217037
2332.000000	47.308585
2331.000000	47.402901
2330.000000	47.492990
2329.000000	47.582212
2328.000000	47.663386
2327.000000	47.740359
2326.000000	47.810349
2325.000000	47.872999
2324.000000	47.935169
2323.000000	48.000580
2322.000000	48.073154
2321.000000	48.150601
2320.000000	48.232220
2319.000000	48.318521
2318.000000	48.403033
2317.000000	48.482459
2316.000000	48.550463
2315.000000	48.612475
2314.000000	48.667241
2313.000000	48.721014
2312.000000	48.772701
2311.000000	48.828448
2310.000000	48.885036
2309.000000	48.944779
2308.000000	49.006480
2307.000000	49.074823
2306.000000	49.147596
2305.000000	49.224053
2304.000000	49.301115
2303.000000	49.380288
2302.000000	49.458648
2301.000000	49.535838
2300.000000	49.609443
2299.000000	49.681417
2298.000000	49.749268
2297.000000	49.813246
2296.000000	49.873254
2295.000000	49.933094
2294.000000	49.993234
2293.000000	50.054063
2292.000000	50.116466
2291.000000	50.182511
2290.000000	50.252062
2289.000000	50.323298
2288.000000	50.396051
2287.000000	50.470499
2286.000000	50.544985
2285.000000	50.615692
2284.000000	50.681104
2283.000000	50.741417
2282.000000	50.796858
2281.000000	50.847152
2280.000000	50.894224
2279.000000	50.940943
2278.000000	50.988472
2277.000000	51.036904
2276.000000	51.087659
2275.000000	51.142991
2274.000000	51.202294
2273.000000	51.263452
2272.000000	51.325758
2271.000000	51.389607
2270.000000	51.452978
2269.000000	51.512262
2268.000000	51.566018
2267.000000	51.614939
2266.000000	51.658510
2265.000000	51.695633
2264.000000	51.727732
2263.000000	51.758324
2262.000000	51.789435
2261.000000	51.821312
2260.000000	51.855672
2259.000000	51.894551
2258.000000	51.937605
2257.000000	51.982634
2256.000000	52.029030
2255.000000	52.076849
2254.000000	52.123059
2253.000000	52.163124
2252.000000	52.195076
2251.000000	52.219860
2250.000000	52.237053
2249.000000	52.245479
2248.000000	52.246753
2247.000000	52.244787
2246.000000	52.241975
2245.000000	52.239007
2244.000000	52.238283
2243.000000	52.243226
2242.000000	52.254259
2241.000000	52.268828
2240.000000	52.285175
2239.000000	52.302318
2238.000000	52.316881
2237.000000	52.323781
2236.000000	52.320511
2235.000000	52.307371
2234.000000	52.284088
2233.000000	52.250181
2232.000000	52.208382
2231.000000	52.164153
2230.000000	52.121471
2229.000000	52.082545
2228.000000	52.050620
2227.000000	52.029230
2226.000000	52.018386
2225.000000	52.014811
2224.000000	52.015685
2223.000000	52.018860
2222.000000	52.020088
2221.000000	52.013967
2220.000000	51.998080
2219.000000	51.972938
2218.000000	51.938641
2217.000000	51.895145
2216.000000	51.845806
2215.000000	51.796837
2214.000000	51.753401
2213.000000	51.718888
2212.000000	51.697034
2211.000000	51.690790
2210.000000	51.698917
2209.000000	51.717058
2208.000000	51.741495
2207.000000	51.769094
2206.000000	51.794352
2205.000000	51.811002
2204.000000	51.816449
2203.000000	51.811663
2202.000000	51.797551
2201.000000	51.775425
2200.000000	51.750327
2199.000000	51.729527
2198.000000	51.717655
2197.000000	51.716455
2196.000000	51.728596
2195.000000	51.757008
2194.000000	51.800574
2193.000000	51.853903
2192.000000	51.911574
2191.000000	51.968993
2190.000000	52.019996
2189.000000	52.058085
2188.000000	52.080751
2187.000000	52.089497
2186.000000	52.085968
2185.000000	52.072200
2184.000000	52.053899
2183.000000	52.039177
2182.000000	52.033300
2181.000000	52.038152
2180.000000	52.055594
2179.000000	52.087112
2178.000000	52.130006
2177.000000	52.177946
2176.000000	52.225490
2175.000000	52.268687
2174.000000	52.302106
2173.000000	52.319972
2172.000000	52.321026
2171.000000	52.308504
2170.000000	52.285917
2169.000000	52.256629
2168.000000	52.227122
2167.000000	52.205591
2166.000000	52.196822
2165.000000	52.201574
2164.000000	52.220310
2163.000000	52.253244
2162.000000	52.296676
2161.000000	52.343610
2160.000000	52.388368
2159.000000	52.427420
2158.000000	52.456242
2157.000000	52.470396
2156.000000	52.469915
2155.000000	52.458994
2154.000000	52.441479
2153.000000	52.420560
2152.000000	52.401979
2151.000000	52.392664
2150.000000	52.395749
2149.000000	52.410422
2148.000000	52.436288
2147.000000	52.473158
2146.000000	52.516907
2145.000000	52.560018
2144.000000	52.596946
2143.000000	52.625111
2142.000000	52.641720
2141.000000	52.644244
2140.000000	52.634396
2139.000000	52.617364
2138.000000	52.597105
2137.000000	52.576268
2136.000000	52.559880
2135.000000	52.554179
2134.000000	52.561274
2133.000000	52.579185
2132.000000	52.606382
2131.000000	52.641958
2130.000000	52.681528
2129.000000	52.718086
2128.000000	52.747387
2127.000000	52.768695
2126.000000	52.780733
2125.000000	52.781798
2124.000000	52.774111
2123.000000	52.763316
2122.000000	52.753554
2121.000000	52.746973
2120.000000	52.747525
2119.000000	52.759880
2118.000000	52.784473
2117.000000	52.817912
2116.000000	52.858177
2115.000000	52.904899
2114.000000	52.954896
2113.000000	53.002478
2112.000000	53.044765
2111.000000	53.082361
2110.000000	53.115043
2109.000000	53.141968
2108.000000	53.166078
2107.000000	53.193327
2106.000000	53.227088
2105.000000	53.267858
2104.000000	53.318050
2103.000000	53.381675
2102.000000	53.458846
2101.000000	53.545459
2100.000000	53.638280
2099.000000	53.735883
2098.000000	53.834414
2097.000000	53.928037
2096.000000	54.014665
2095.000000	54.096042
2094.000000	54.172409
2093.000000	54.242334
2092.000000	54.307972
2091.000000	54.374759
2090.000000	54.445254
2089.000000	54.518254
2088.000000	54.594013
2087.000000	54.674701
2086.000000	54.759209
2085.000000	54.842974
2084.000000	54.923200
2083.000000	54.999308
2082.000000	55.067928
2081.000000	55.123728
2080.000000	55.165637
2079.000000	55.197017
2078.000000	55.219514
2077.000000	55.232369
2076.000000	55.237978
2075.000000	55.241624
2074.000000	55.245703
2073.000000	55.249500
2072.000000	55.254674
2071.000000	55.265232
2070.000000	55.281220
2069.000000	55.298145
2068.000000	55.313267
2067.000000	55.327311
2066.000000	55.339788
2065.000000	55.348157
2064.000000	55.352228
2063.000000	55.354251
2062.000000	55.354706
2061.000000	55.353534
2060.000000	55.354933
2059.000000	55.365264
2058.000000	55.386328
2057.000000	55.416146
2056.000000	55.455609
2055.000000	55.507823
2054.000000	55.571634
2053.000000	55.641857
2052.000000	55.715635
2051.000000	55.793257
2050.000000	55.872525
2049.000000	55.948958
2048.000000	56.022357
2047.000000	56.096991
2046.000000	56.174590
2045.000000	56.253411
2044.000000	56.335042
2043.000000	56.425475
2042.000000	56.528146
2041.000000	56.641963
2040.000000	56.766603
2039.000000	56.903556
2038.000000	57.051142
2037.000000	57.204295
2036.000000	57.360398
2035.000000	57.519414
2034.000000	57.678061
2033.000000	57.830805
2032.000000	57.976879
2031.000000	58.119831
2030.000000	58.260532
2029.000000	58.397158
2028.000000	58.532630
2027.000000	58.673942
2026.000000	58.823770
2025.000000	58.979887
2024.000000	59.142389
2023.000000	59.314917
2022.000000	59.496151
2021.000000	59.678193
2020.000000	59.855113
2019.000000	60.026507
2018.000000	60.191369
2017.000000	60.345814
2016.000000	60.488309
2015.000000	60.620177
2014.000000	60.740908
2013.000000	60.850232
2012.000000	60.954570
2011.000000	61.063425
2010.000000	61.179879
2009.000000	61.301677
2008.000000	61.430170
2007.000000	61.568812
2006.000000	61.714169
2005.000000	61.857723
2004.000000	61.995357
2003.000000	62.128022
2002.000000	62.251706
2001.000000	62.359162
2000.000000	62.449953
1999.000000	62.529443
1998.000000	62.600928
1997.000000	62.664759
1996.000000	62.724365
1995.000000	62.785233
1994.000000	62.851165
1993.000000	62.927016
1992.000000	63.020885
1991.000000	63.133997
1990.000000	63.252490
1989.000000	63.360509
1988.000000	63.457447
1987.000000	63.550726
1986.000000	63.637435
1985.000000	63.707147
1984.000000	63.759072
1983.000000	63.802057
1982.000000	63.838985
1981.000000	63.867764
1980.000000	63.894376
1979.000000	63.930156
1978.000000	63.978751
1977.000000	64.036098
1976.000000	64.102940
1975.000000	64.183372
1974.000000	64.273047
1973.000000	64.361199
1972.000000	64.443328
1971.000000	64.519534
1970.000000	64.583519
1969.000000	64.627270
1968.000000	64.654916
1967.000000	64.678315
1966.000000	64.699855
1965.000000	64.713156
1964.000000	64.721087
1963.000000	64.737638
1962.000000	64.770186
1961.000000	64.814489
1960.000000	64.867940
1959.000000	64.933032
1958.000000	65.005520
1957.000000	65.074007
1956.000000	65.133995
1955.000000	65.188207
1954.000000	65.233711
1953.000000	65.261928
1952.000000	65.273912
1951.000000	65.281604
1950.000000	65.289449
1949.000000	65.294643
1948.000000	65.303419
1947.000000	65.326989
1946.000000	65.361263
1945.000000	65.391111
1944.000000	65.417629
1943.000000	65.459848
1942.000000	65.523844
1941.000000	65.590120
1940.000000	65.638277
1939.000000	65.667002
1938.000000	65.683529
1937.000000	65.689824
1936.000000	65.687474
1935.000000	65.682491
1934.000000	65.678151
1933.000000	65.671595
1932.000000	65.665310
1931.000000	65.669408
1930.000000	65.684766
1929.000000	65.705401
1928.000000	65.731468
1927.000000	65.767751
1926.000000	65.807041
1925.000000	65.832406
1924.000000	65.846091
1923.000000	65.865416
1922.000000	65.890425
1921.000000	65.897004
1920.000000	65.871668
1919.000000	65.836046
1918.000000	65.819654
1917.000000	65.820081
1916.000000	65.816159
1915.000000	65.801935
1914.000000	65.787206
1913.000000	65.778427
1912.000000	65.776552
1911.000000	65.781884
1910.000000	65.789140
1909.000000	65.789665
1908.000000	65.780068
1907.000000	65.765650
1906.000000	65.749461
1905.000000	65.726066
1904.000000	65.698060
1903.000000	65.675207
1902.000000	65.659501
1901.000000	65.645918
1900.000000	65.635306
1899.000000	65.634809
1898.000000	65.643643
1897.000000	65.650623
1896.000000	65.655441
1895.000000	65.670386
1894.000000	65.695951
1893.000000	65.712699
1892.000000	65.708231
1891.000000	65.696668
1890.000000	65.699069
1889.000000	65.717638
1888.000000	65.740232
1887.000000	65.756564
1886.000000	65.762922
1885.000000	65.761677
1884.000000	65.761746
1883.000000	65.770784
1882.000000	65.783794
1881.000000	65.791173
1880.000000	65.793017
1879.000000	65.796891
1878.000000	65.804136
1877.000000	65.805865
1876.000000	65.800144
1875.000000	65.799496
1874.000000	65.810611
1873.000000	65.822110
1872.000000	65.821077
1871.000000	65.811701
1870.000000	65.811769
1869.000000	65.828586
1868.000000	65.849082
1867.000000	65.857415
1866.000000	65.843458
1865.000000	65.806579
1864.000000	65.761572
1863.000000	65.726284
1862.000000	65.701741
1861.000000	65.676650
1860.000000	65.648684
1859.000000	65.625289
1858.000000	65.606713
1857.000000	65.585071
1856.000000	65.560061
1855.000000	65.540032
1854.000000	65.524799
1853.000000	65.508107
1852.000000	65.489605
1851.000000	65.470827
1850.000000	65.454443
1849.000000	65.445034
1848.000000	65.450703
1847.000000	65.464629
1846.000000	65.458300
1845.000000	65.419438
1844.000000	65.374076
1843.000000	65.334603
1842.000000	65.277485
1841.000000	65.193238
1840.000000	65.103509
1839.000000	65.035902
1838.000000	64.992440
1837.000000	64.950164
1836.000000	64.903143
1835.000000	64.867588
1834.000000	64.844983
1833.000000	64.812351
1832.000000	64.755878
1831.000000	64.697429
1830.000000	64.663206
1829.000000	64.635000
1828.000000	64.575061
1827.000000	64.472384
1826.000000	64.354554
1825.000000	64.259669
1824.000000	64.199439
1823.000000	64.153750
1822.000000	64.097153
1821.000000	64.024349
1820.000000	63.948934
1819.000000	63.886115
1818.000000	63.835710
1817.000000	63.787175
1816.000000	63.740565
1815.000000	63.697656
1814.000000	63.647760
1813.000000	63.577380
1812.000000	63.489725
1811.000000	63.404403
1810.000000	63.324605
1809.000000	63.236319
1808.000000	63.140354
1807.000000	63.054501
1806.000000	62.984244
1805.000000	62.916463
1804.000000	62.846798
1803.000000	62.786545
1802.000000	62.744639
1801.000000	62.717210
1800.000000	62.694779
1799.000000	62.672763
1798.000000	62.639871
1797.000000	62.589995
1796.000000	62.534778
1795.000000	62.478034
1794.000000	62.398189
1793.000000	62.283530
1792.000000	62.157300
1791.000000	62.051826
1790.000000	61.970219
1789.000000	61.895977
1788.000000	61.822352
1787.000000	61.758667
1786.000000	61.714040
1785.000000	61.687332
1784.000000	61.671444
1783.000000	61.648981
1782.000000	61.599832
1781.000000	61.522369
1780.000000	61.432317
1779.000000	61.345905
1778.000000	61.259412
1777.000000	61.185988
1776.000000	61.165019
1775.000000	61.200201
1774.000000	61.232299
1773.000000	61.208966
1772.000000	61.132882
1771.000000	61.028997
1770.000000	60.911984
1769.000000	60.785457
1768.000000	60.671850
1767.000000	60.596409
1766.000000	60.541714
1765.000000	60.464376
1764.000000	60.344689
1763.000000	60.206600
1762.000000	60.087592
1761.000000	59.989509
1760.000000	59.889079
1759.000000	59.780394
1758.000000	59.670126
1757.000000	59.585398
1756.000000	59.558709
1755.000000	59.589832
1754.000000	59.636165
1753.000000	59.641355
1752.000000	59.585220
1751.000000	59.495247
1750.000000	59.379820
1749.000000	59.219623
1748.000000	59.035218
1747.000000	58.859329
1746.000000	58.690011
1745.000000	58.512066
1744.000000	58.343710
1743.000000	58.220762
1742.000000	58.132290
1741.000000	58.031732
1740.000000	57.921336
1739.000000	57.856860
1738.000000	57.859929
1737.000000	57.894824
1736.000000	57.882417
1735.000000	57.781981
1734.000000	57.613787
1733.000000	57.336355
1732.000000	56.928296
1731.000000	56.493102
1730.000000	56.123478
1729.000000	55.827939
1728.000000	55.584597
1727.000000	55.375876
1726.000000	55.182935
1725.000000	54.984535
1724.000000	54.783038
1723.000000	54.608173
1722.000000	54.473450
1721.000000	54.369534
1720.000000	54.281980
1719.000000	54.192976
1718.000000	54.042940
1717.000000	53.728910
1716.000000	53.245436
1715.000000	52.721495
1714.000000	52.266589
1713.000000	51.888812
1712.000000	51.554835
1711.000000	51.253691
1710.000000	50.984350
1709.000000	50.728115
1708.000000	50.459146
1707.000000	50.170437
1706.000000	49.873722
1705.000000	49.594339
1704.000000	49.372494
1703.000000	49.195646
1702.000000	48.939366
1701.000000	48.554277
1700.000000	48.198309
1699.000000	47.959475
1698.000000	47.742432
1697.000000	47.406693
1696.000000	46.898590
1695.000000	46.330646
1694.000000	45.802168
1693.000000	45.330825
1692.000000	44.919421
1691.000000	44.546157
1690.000000	44.194360
1689.000000	43.895444
1688.000000	43.703488
1687.000000	43.589431
1686.000000	43.384456
1685.000000	42.926831
1684.000000	42.269259
1683.000000	41.618280
1682.000000	41.073986
1681.000000	40.598516
1680.000000	40.168479
1679.000000	39.793654
1678.000000	39.457044
1677.000000	39.089561
1676.000000	38.660152
1675.000000	38.230947
1674.000000	37.851871
1673.000000	37.494135
1672.000000	37.120656
1671.000000	36.719244
1670.000000	36.279118
1669.000000	35.804862
1668.000000	35.340789
1667.000000	34.933776
1666.000000	34.576868
1665.000000	34.217015
1664.000000	33.821813
1663.000000	33.416182
1662.000000	33.027574
1661.000000	32.650630
1660.000000	32.280895
1659.000000	31.938342
1658.000000	31.649586
1657.000000	31.441705
1656.000000	31.316465
1655.000000	31.199612
1654.000000	30.959859
1653.000000	30.535273
1652.000000	30.018388
1651.000000	29.516706
1650.000000	29.093573
1649.000000	28.762733
1648.000000	28.460374
1647.000000	28.137533
1646.000000	27.797797
1645.000000	27.446923
1644.000000	27.090242
1643.000000	26.761917
1642.000000	26.473598
1641.000000	26.204976
1640.000000	25.956931
1639.000000	25.758404
1638.000000	25.598008
1637.000000	25.401176
1636.000000	25.118888
1635.000000	24.803871
1634.000000	24.519481
1633.000000	24.260343
1632.000000	24.025581
1631.000000	23.824103
1630.000000	23.645587
1629.000000	23.468226
1628.000000	23.291517
1627.000000	23.136487
1626.000000	23.003654
1625.000000	22.864110
1624.000000	22.706362
1623.000000	22.556536
1622.000000	22.435060
1621.000000	22.340922
1620.000000	22.282945
1619.000000	22.271741
1618.000000	22.279577
1617.000000	22.250376
1616.000000	22.159162
1615.000000	22.039523
1614.000000	21.936812
1613.000000	21.865717
1612.000000	21.822316
1611.000000	21.805449
1610.000000	21.808623
1609.000000	21.813083
1608.000000	21.811944
1607.000000	21.819571
1606.000000	21.843126
1605.000000	21.872673
1604.000000	21.904160
1603.000000	21.949374
1602.000000	22.011794
1601.000000	22.077480
1600.000000	22.140077
1599.000000	22.209608
1598.000000	22.289499
1597.000000	22.366807
1596.000000	22.434249
1595.000000	22.500523
1594.000000	22.569246
1593.000000	22.630225
1592.000000	22.680645
1591.000000	22.733569
1590.000000	22.796291
1589.000000	22.860764
1588.000000	22.923272
1587.000000	22.994183
1586.000000	23.077348
1585.000000	23.161302
1584.000000	23.239755
1583.000000	23.319938
1582.000000	23.405406
1581.000000	23.492559
1580.000000	23.593336
1579.000000	23.730261
1578.000000	23.894855
1577.000000	24.033355
1576.000000	24.096905
1575.000000	24.085531
1574.000000	24.041088
1573.000000	24.013897
1572.000000	24.027672
1571.000000	24.086810
1570.000000	24.188664
1569.000000	24.303247
1568.000000	24.395731
1567.000000	24.466303
1566.000000	24.538004
1565.000000	24.628072
1564.000000	24.748357
1563.000000	24.908073
1562.000000	25.092287
1561.000000	25.242988
1560.000000	25.375516
1559.000000	25.541316
1558.000000	25.669366
1557.000000	25.714009
1556.000000	25.720686
1555.000000	25.769698
1554.000000	25.876074
1553.000000	26.001594
1552.000000	26.118603
1551.000000	26.254030
1550.000000	26.436872
1549.000000	26.649123
1548.000000	26.852903
1547.000000	27.041961
1546.000000	27.248133
1545.000000	27.499954
1544.000000	27.795246
1543.000000	28.126797
1542.000000	28.509123
1541.000000	28.944831
1540.000000	29.380336
1539.000000	29.729191
1538.000000	29.942588
1537.000000	30.063762
1536.000000	30.207230
1535.000000	30.454373
1534.000000	30.833406
1533.000000	31.285395
1532.000000	31.703689
1531.000000	32.058881
1530.000000	32.389153
1529.000000	32.734972
1528.000000	33.121833
1527.000000	33.561563
1526.000000	34.045404
1525.000000	34.542285
1524.000000	35.039356
1523.000000	35.569709
1522.000000	36.164046
1521.000000	36.758492
1520.000000	37.232398
1519.000000	37.586362
1518.000000	37.940100
1517.000000	38.362459
1516.000000	38.815818
1515.000000	39.238135
1514.000000	39.615255
1513.000000	39.969443
1512.000000	40.328236
1511.000000	40.718653
1510.000000	41.161628
1509.000000	41.672126
1508.000000	42.269582
1507.000000	42.942934
1506.000000	43.592722
1505.000000	44.059936
1504.000000	44.314828
1503.000000	44.542590
1502.000000	44.876387
1501.000000	45.320179
1500.000000	45.840823
1499.000000	46.433932
1498.000000	47.087529
1497.000000	47.734610
1496.000000	48.298867
1495.000000	48.759202
1494.000000	49.144193
1493.000000	49.501987
1492.000000	49.892046
1491.000000	50.385271
1490.000000	50.977157
1489.000000	51.547998
1488.000000	52.021336
1487.000000	52.434219
1486.000000	52.811448
1485.000000	53.126186
1484.000000	53.372911
1483.000000	53.587042
1482.000000	53.787677
1481.000000	53.942091
1480.000000	54.026394
1479.000000	54.052865
1478.000000	54.027617
1477.000000	53.941792
1476.000000	53.809305
1475.000000	53.617171
1474.000000	53.229965
1473.000000	52.468158
1472.000000	51.351761
1471.000000	50.079177
1470.000000	48.717718
1469.000000	47.191156
1468.000000	45.437126
1467.000000	43.382592
1466.000000	40.858039
1465.000000	37.781491
1464.000000	34.442780
1463.000000	31.270446
1462.000000	28.388396
1461.000000	25.705975
1460.000000	23.170153
1459.000000	20.719451
1458.000000	18.177926
1457.000000	15.584991
1456.000000	13.465444
1455.000000	12.122349
1454.000000	11.300075
1453.000000	10.725748
1452.000000	10.349520
1451.000000	10.200931
1450.000000	10.251974
1449.000000	10.469720
1448.000000	10.886119
1447.000000	11.498235
1446.000000	12.216427
1445.000000	12.984155
1444.000000	13.834824
1443.000000	14.795439
1442.000000	15.818121
1441.000000	16.840108
1440.000000	17.854447
1439.000000	18.909200
1438.000000	20.091133
1437.000000	21.480938
1436.000000	22.996285
1435.000000	24.408519
1434.000000	25.634532
1433.000000	26.782609
1432.000000	27.955061
1431.000000	29.144896
1430.000000	30.272195
1429.000000	31.264063
1428.000000	32.080000
1427.000000	32.708333
1426.000000	33.179004
1425.000000	33.551676
1424.000000	33.865350
1423.000000	34.127370
1422.000000	34.348007
1421.000000	34.554928
1420.000000	34.795899
1419.000000	35.109233
1418.000000	35.479719
1417.000000	35.894207
1416.000000	36.383239
1415.000000	36.971380
1414.000000	37.658481
1413.000000	38.441333
1412.000000	39.311993
1411.000000	40.241789
1410.000000	41.195165
1409.000000	42.149470
1408.000000	43.090208
1407.000000	44.007318
1406.000000	44.912120
1405.000000	45.826867
1404.000000	46.723575
1403.000000	47.533163
1402.000000	48.236218
1401.000000	48.890840
1400.000000	49.556062
1399.000000	50.217165
1398.000000	50.818869
1397.000000	51.342390
1396.000000	51.798971
1395.000000	52.187600
1394.000000	52.500274
1393.000000	52.725403
1392.000000	52.836565
1391.000000	52.811654
1390.000000	52.633058
1389.000000	52.242577
1388.000000	51.541857
1387.000000	50.539278
1386.000000	49.491850
1385.000000	48.776673
1384.000000	48.634871
1383.000000	49.072537
1382.000000	49.882484
1381.000000	50.747865
1380.000000	51.409869
1379.000000	51.774294
1378.000000	51.895522
1377.000000	51.874392
1376.000000	51.774086
1375.000000	51.622001
1374.000000	51.448485
1373.000000	51.280805
1372.000000	51.109606
1371.000000	50.903519
1370.000000	50.652948
1369.000000	50.369734
1368.000000	50.055107
1367.000000	49.701388
1366.000000	49.307698
1365.000000	48.870847
1364.000000	48.373718
1363.000000	47.807676
1362.000000	47.205751
1361.000000	46.620869
1360.000000	46.079395
1359.000000	45.596604
1358.000000	45.212696
1357.000000	44.976074
1356.000000	44.908746
1355.000000	45.003976
1354.000000	45.236763
1353.000000	45.555673
1352.000000	45.881875
1351.000000	46.133877
1350.000000	46.249232
1349.000000	46.181502
1348.000000	45.887135
1347.000000	45.339162
1346.000000	44.538180
1345.000000	43.502010
1344.000000	42.255581
1343.000000	40.826266
1342.000000	39.236332
1341.000000	37.492180
1340.000000	35.601959
1339.000000	33.614603
1338.000000	31.599025
1337.000000	29.580889
1336.000000	27.539800
1335.000000	25.463368
1334.000000	23.370741
1333.000000	21.292151
1332.000000	19.263588
1331.000000	17.340993
1330.000000	15.585120
1329.000000	14.025270
1328.000000	12.661025
1327.000000	11.484268
1326.000000	10.475753
1325.000000	9.598889
1324.000000	8.818347
1323.000000	8.123581
1322.000000	7.514480
1321.000000	6.980096
1320.000000	6.516217
1319.000000	6.142341
1318.000000	5.884615
1317.000000	5.751673
1316.000000	5.741998
1315.000000	5.862445
1314.000000	6.114338
1313.000000	6.480333
1312.000000	6.940067
1311.000000	7.484215
1310.000000	8.107219
1309.000000	8.794626
1308.000000	9.531627
1307.000000	10.311827
1306.000000	11.126281
1305.000000	11.957831
1304.000000	12.791766
1303.000000	13.624248
1302.000000	14.454694
1301.000000	15.277119
1300.000000	16.084046
1299.000000	16.870580
1298.000000	17.628504
1297.000000	18.343956
1296.000000	19.009748
1295.000000	19.638045
1294.000000	20.257599
1293.000000	20.902246
1292.000000	21.604184
1291.000000	22.390094
1290.000000	23.276457
1289.000000	24.265494
1288.000000	25.346860
1287.000000	26.503513
1286.000000	27.713704
1285.000000	28.952014
1284.000000	30.190406
1283.000000	31.401390
1282.000000	32.563025
1281.000000	33.659340
1280.000000	34.676378
1279.000000	35.605152
1278.000000	36.449703
1277.000000	37.223528
1276.000000	37.941491
1275.000000	38.620425
1274.000000	39.285338
1273.000000	39.964941
1272.000000	40.676894
1271.000000	41.426145
1270.000000	42.214904
1269.000000	43.042965
1268.000000	43.898771
1267.000000	44.761846
1266.000000	45.616984
1265.000000	46.455624
1264.000000	47.264585
1263.000000	48.029208
1262.000000	48.747850
1261.000000	49.429689
1260.000000	50.076679
1259.000000	50.682712
1258.000000	51.251879
1257.000000	51.795690
1256.000000	52.313896
1255.000000	52.795022
1254.000000	53.233142
1253.000000	53.629667
1252.000000	53.976187
1251.000000	54.256690
1250.000000	54.467256
1249.000000	54.614224
1248.000000	54.698076
1247.000000	54.713432
1246.000000	54.665930
1245.000000	54.571062
1244.000000	54.433653
1243.000000	54.249432
1242.000000	54.020583
1241.000000	53.753285
1240.000000	53.443669
1239.000000	53.080410
1238.000000	52.663788
1237.000000	52.204588
1236.000000	51.708867
1235.000000	51.181436
1234.000000	50.639449
1233.000000	50.108336
1232.000000	49.606398
1231.000000	49.146247
1230.000000	48.745439
1229.000000	48.423239
1228.000000	48.186477
1227.000000	48.031573
1226.000000	47.957798
1225.000000	47.963553
1224.000000	48.037994
1223.000000	48.164583
1222.000000	48.333577
1221.000000	48.542840
1220.000000	48.784965
1219.000000	49.049953
1218.000000	49.336585
1217.000000	49.649939
1216.000000	49.990066
1215.000000	50.351714
1214.000000	50.735879
1213.000000	51.147237
1212.000000	51.580377
1211.000000	52.021630
1210.000000	52.462915
1209.000000	52.901616
1208.000000	53.327894
1207.000000	53.727258
1206.000000	54.096368
1205.000000	54.443385
1204.000000	54.772796
1203.000000	55.084751
1202.000000	55.388836
1201.000000	55.701963
1200.000000	56.032166
1199.000000	56.377820
1198.000000	56.741350
1197.000000	57.127940
1196.000000	57.530329
1195.000000	57.930428
1194.000000	58.316281
1193.000000	58.683180
1192.000000	59.020360
1191.000000	59.313625
1190.000000	59.563495
1189.000000	59.784289
1188.000000	59.985453
1187.000000	60.171646
1186.000000	60.358403
1185.000000	60.568800
1184.000000	60.810794
1183.000000	61.071322
1182.000000	61.333781
1181.000000	61.587273
1180.000000	61.821638
1179.000000	62.030545
1178.000000	62.218692
1177.000000	62.390907
1176.000000	62.535220
1175.000000	62.634120
1174.000000	62.689688
1173.000000	62.720257
1172.000000	62.738401
1171.000000	62.749503
1170.000000	62.767718
1169.000000	62.811866
1168.000000	62.884846
1167.000000	62.975015
1166.000000	63.075619
1165.000000	63.185207
1164.000000	63.291577
1163.000000	63.375219
1162.000000	63.429214
1161.000000	63.458464
1160.000000	63.462210
1159.000000	63.436890
1158.000000	63.393626
1157.000000	63.353978
1156.000000	63.329285
1155.000000	63.321273
1154.000000	63.338695
1153.000000	63.393238
1152.000000	63.480107
1151.000000	63.582089
1150.000000	63.692265
1149.000000	63.813729
1148.000000	63.940137
1147.000000	64.056288
1146.000000	64.157732
1145.000000	64.250866
1144.000000	64.334574
1143.000000	64.401532
1142.000000	64.456971
1141.000000	64.516653
1140.000000	64.586418
1139.000000	64.662035
1138.000000	64.746989
1137.000000	64.850769
1136.000000	64.970538
1135.000000	65.093597
1134.000000	65.217006
1133.000000	65.346527
1132.000000	65.477308
1131.000000	65.594823
1130.000000	65.693876
1129.000000	65.778660
1128.000000	65.844508
1127.000000	65.879231
1126.000000	65.882432
1125.000000	65.862046
1124.000000	65.815451
1123.000000	65.732078
1122.000000	65.613310
1121.000000	65.472148
1120.000000	65.312359
1119.000000	65.129314
1118.000000	64.927535
1117.000000	64.716517
1116.000000	64.492147
1115.000000	64.236944
1114.000000	63.939578
1113.000000	63.594702
1112.000000	63.184542
1111.000000	62.685486
1110.000000	62.085999
1109.000000	61.386022
1108.000000	60.581517
1107.000000	59.664454
1106.000000	58.642756
1105.000000	57.533141
1104.000000	56.341959
1103.000000	55.067262
1102.000000	53.706893
1101.000000	52.258249
1100.000000	50.705006
1099.000000	49.022608
1098.000000	47.196084
1097.000000	45.215487
1096.000000	43.074066
1095.000000	40.774079
1094.000000	38.333292
1093.000000	35.781870
1092.000000	33.153714
1091.000000	30.491569
1090.000000	27.845804
1089.000000	25.265188
1088.000000	22.792958
1087.000000	20.472024
1086.000000	18.335659
1085.000000	16.400384
1084.000000	14.675769
1083.000000	13.162724
1082.000000	11.852732
1081.000000	10.723871
1080.000000	9.753146
1079.000000	8.927555
1078.000000	8.226454
1077.000000	7.624924
1076.000000	7.105896
1075.000000	6.660878
1074.000000	6.280285
1073.000000	5.947308
1072.000000	5.654007
1071.000000	5.402477
1070.000000	5.189264
1069.000000	5.005370
1068.000000	4.848045
1067.000000	4.722928
1066.000000	4.629522
1065.000000	4.558973
1064.000000	4.510137
1063.000000	4.489541
1062.000000	4.497198
1061.000000	4.525788
1060.000000	4.574631
1059.000000	4.651661
1058.000000	4.757482
1057.000000	4.884605
1056.000000	5.033036
1055.000000	5.211035
1054.000000	5.421606
1053.000000	5.659417
1052.000000	5.924661
1051.000000	6.225649
1050.000000	6.563607
1049.000000	6.932536
1048.000000	7.331849
1047.000000	7.767333
1046.000000	8.239913
1045.000000	8.744379
1044.000000	9.283014
1043.000000	9.864113
1042.000000	10.489120
1041.000000	11.153538
1040.000000	11.856408
1039.000000	12.602246
1038.000000	13.390680
1037.000000	14.215061
1036.000000	15.072003
1035.000000	15.959514
1034.000000	16.870053
1033.000000	17.792100
1032.000000	18.718753
1031.000000	19.649072
1030.000000	20.580921
1029.000000	21.510693
1028.000000	22.438384
1027.000000	23.367518
1026.000000	24.300576
1025.000000	25.238127
1024.000000	26.181085
1023.000000	27.129971
1022.000000	28.082641
1021.000000	29.033933
1020.000000	29.977168
1019.000000	30.904587
1018.000000	31.808500
1017.000000	32.683716
1016.000000	33.527033
1015.000000	34.337517
1014.000000	35.117901
1013.000000	35.874413
1012.000000	36.614996
1011.000000	37.347321
1010.000000	38.079413
1009.000000	38.817579
1008.000000	39.562053
1007.000000	40.308155
1006.000000	41.050552
1005.000000	41.783517
1004.000000	42.497196
1003.000000	43.179504
1002.000000	43.824456
1001.000000	44.432594
1000.000000	45.005558
999.000000	45.546694
998.000000	46.066078
997.000000	46.578767
996.000000	47.095619
995.000000	47.622155
994.000000	48.164451
993.000000	48.726478
992.000000	49.302094
991.000000	49.876830
990.000000	50.438515
989.000000	50.979069
988.000000	51.486945
987.000000	51.950818
986.000000	52.370889
985.000000	52.758163
984.000000	53.123199
983.000000	53.474066
982.000000	53.825214
981.000000	54.194887
980.000000	54.592178
979.000000	55.015801
978.000000	55.463136
977.000000	55.929313
976.000000	56.397782
975.000000	56.844717
974.000000	57.255517
973.000000	57.625970
972.000000	57.951121
971.000000	58.226684
970.000000	58.461906
969.000000	58.678510
968.000000	58.894069
967.000000	59.118766
966.000000	59.365691
965.000000	59.648736
964.000000	59.968836
963.000000	60.313514
962.000000	60.669996
961.000000	61.026995
960.000000	61.364958
959.000000	61.660985
958.000000	61.904827
957.000000	62.099795
956.000000	62.249729
955.000000	62.358924
954.000000	62.445362
953.000000	62.535992
952.000000	62.647759
951.000000	62.785330
950.000000	62.954177
949.000000	63.160073
948.000000	63.395480
947.000000	63.641151
946.000000	63.882240
945.000000	64.109718
944.000000	64.308833
943.000000	64.462941
942.000000	64.570350
941.000000	64.643568
940.000000	64.691564
939.000000	64.719239
938.000000	64.740931
937.000000	64.776573
936.000000	64.834099
935.000000	64.909168
934.000000	65.000541
933.000000	65.109867
932.000000	65.227703
931.000000	65.336828
930.000000	65.429199
929.000000	65.505344
928.000000	65.558758
927.000000	65.577531
926.000000	65.562290
925.000000	65.524218
924.000000	65.467007
923.000000	65.386437
922.000000	65.285417
921.000000	65.173916
920.000000	65.053235
919.000000	64.917728
918.000000	64.771324
917.000000	64.625239
916.000000	64.481333
915.000000	64.332102
914.000000	64.175903
913.000000	64.016471
912.000000	63.846843
911.000000	63.651357
910.000000	63.421563
909.000000	63.155514
908.000000	62.844165
907.000000	62.473488
906.000000	62.042588
905.000000	61.562936
904.000000	61.042323
903.000000	60.486557
902.000000	59.911647
901.000000	59.339512
900.000000	58.779910
899.000000	58.228315
898.000000	57.679961
897.000000	57.128650
896.000000	56.555190
895.000000	55.931467
894.000000	55.236771
893.000000	54.462027
892.000000	53.598605
891.000000	52.641200
890.000000	51.600237
889.000000	50.497610
888.000000	49.354017
887.000000	48.185747
886.000000	47.010837
885.000000	45.844994
884.000000	44.690191
883.000000	43.536523
882.000000	42.370745
881.000000	41.177434
880.000000	39.936759
879.000000	38.630960
878.000000	37.255202
877.000000	35.816302
876.000000	34.325663
875.000000	32.799212
874.000000	31.259339
873.000000	29.730467
872.000000	28.232063
871.000000	26.777132
870.000000	25.373164
869.000000	24.023369
868.000000	22.726476
867.000000	21.477620
866.000000	20.269781
865.000000	19.094993
864.000000	17.949606
863.000000	16.834449
862.000000	15.752205
861.000000	14.708414
860.000000	13.711945
859.000000	12.775358
858.000000	11.910577
857.000000	11.130254
856.000000	10.453202
855.000000	9.896380
854.000000	9.467354
853.000000	9.162186
852.000000	8.968681
851.000000	8.867047
850.000000	8.825592
849.000000	8.811296
848.000000	8.801769
847.000000	8.785593
846.000000	8.757951
845.000000	8.720306
844.000000	8.683724
843.000000	8.662767
842.000000	8.666742
841.000000	8.701971
840.000000	8.776604
839.000000	8.898425
838.000000	9.069788
837.000000	9.289392
836.000000	9.557169
835.000000	9.869922
834.000000	10.218145
833.000000	10.592138
832.000000	10.987351
831.000000	11.401667
830.000000	11.830840
829.000000	12.273554
828.000000	12.736764
827.000000	13.230396
826.000000	13.761719
825.000000	14.336097
824.000000	14.958972
823.000000	15.632617
822.000000	16.353055
821.000000	17.113153
820.000000	17.902262
819.000000	18.703678
818.000000	19.499048
817.000000	20.276089
816.000000	21.028766
815.000000	21.751935
814.000000	22.442640
813.000000	23.104880
812.000000	23.747390
811.000000	24.377484
810.000000	25.002166
809.000000	25.631833
808.000000	26.275992
807.000000	26.937371
806.000000	27.614342
805.000000	28.305580
804.000000	29.006786
803.000000	29.707139
802.000000	30.395931
801.000000	31.068939
800.000000	31.723841
799.000000	32.355826
798.000000	32.964034
797.000000	33.557015
796.000000	34.145657
795.000000	34.736706
794.000000	35.337591
793.000000	35.959099
792.000000	36.606156
791.000000	37.271652
790.000000	37.944131
789.000000	38.614681
788.000000	39.272145
787.000000	39.901062
786.000000	40.490840
785.000000	41.040052
784.000000	41.548975
783.000000	42.017047
782.000000	42.452579
781.000000	42.874544
780.000000	43.299515
779.000000	43.735211
778.000000	44.188732
777.000000	44.669616
776.000000	45.178653
775.000000	45.702845
774.000000	46.226153
773.000000	46.735922
772.000000	47.216565
771.000000	47.650616
770.000000	48.032526
769.000000	48.372255
768.000000	48.681322
767.000000	48.967211
766.000000	49.244190
765.000000	49.535374
764.000000	49.857650
763.000000	50.214058
762.000000	50.603916
761.000000	51.026943
760.000000	51.471843
759.000000	51.913354
758.000000	52.327235
757.000000	52.698637
756.000000	53.014514
755.000000	53.262679
754.000000	53.445207
753.000000	53.580376
752.000000	53.687396
751.000000	53.781014
750.000000	53.881640
749.000000	54.014503
748.000000	54.191700
747.000000	54.406918
746.000000	54.650409
745.000000	54.914422
744.000000	55.179890
743.000000	55.414625
742.000000	55.593099
741.000000	55.707577
740.000000	55.757466
739.000000	55.744535
738.000000	55.684229
737.000000	55.606430
736.000000	55.538172
735.000000	55.496510
734.000000	55.500369
733.000000	55.571820
732.000000	55.719147
731.000000	55.931250
730.000000	56.193509
729.000000	56.494433
728.000000	56.812645
727.000000	57.115716
726.000000	57.381198
725.000000	57.605729
724.000000	57.790019
723.000000	57.933823
722.000000	58.051871
721.000000	58.176484
720.000000	58.334410
719.000000	58.534390
718.000000	58.781970
717.000000	59.087905
716.000000	59.452496
715.000000	59.857692
714.000000	60.282578
713.000000	60.711593
712.000000	61.122122
711.000000	61.483808
710.000000	61.780496
709.000000	62.017983
708.000000	62.205909
707.000000	62.349492
706.000000	62.464397
705.000000	62.579474
704.000000	62.716321
703.000000	62.881661
702.000000	63.083456
701.000000	63.334518
700.000000	63.633276
699.000000	63.958824
698.000000	64.291690
697.000000	64.621372
696.000000	64.928938
695.000000	65.186965
694.000000	65.384395
693.000000	65.532817
692.000000	65.643467
691.000000	65.718189
690.000000	65.769298
689.000000	65.825176
688.000000	65.905805
687.000000	66.012666
686.000000	66.149558
685.000000	66.329816
684.000000	66.553948
683.000000	66.802156
682.000000	67.057421
681.000000	67.313187
680.000000	67.553509
679.000000	67.752310
678.000000	67.900227
677.000000	68.007427
676.000000	68.078582
675.000000	68.112376
674.000000	68.122006
673.000000	68.136398
672.000000	68.183442
671.000000	68.288330
670.000000	68.476770
669.000000	68.759656
668.000000	69.122478
667.000000	69.430281
666.000000	69.548852
665.000000	69.580649
664.000000	69.658594
663.000000	69.785314
662.000000	69.910048
661.000000	70.000827
660.000000	70.054863
659.000000	70.070457
658.000000	70.057485
657.000000	70.043974
656.000000	70.053225
655.000000	70.092286
654.000000	70.167483
653.000000	70.290085
652.000000	70.460726
651.000000	70.663326
650.000000	70.880113
649.000000	71.098568
648.000000	71.297964
647.000000	71.449535
646.000000	71.541329
645.000000	71.584655
644.000000	71.590637
643.000000	71.562663
642.000000	71.515981
641.000000	71.480841
640.000000	71.477402
639.000000	71.507946
638.000000	71.577702
637.000000	71.699180
636.000000	71.867756
635.000000	72.054685
634.000000	72.233053
633.000000	72.391153
632.000000	72.514902
631.000000	72.583089
630.000000	72.592858
629.000000	72.567072
628.000000	72.526221
627.000000	72.475029
626.000000	72.424406
625.000000	72.399466
624.000000	72.416124
623.000000	72.471830
622.000000	72.564581
621.000000	72.696824
620.000000	72.853853
619.000000	73.003343
618.000000	73.125645
617.000000	73.222659
616.000000	73.290222
615.000000	73.311295
614.000000	73.285840
613.000000	73.239324
612.000000	73.192345
611.000000	73.149336
610.000000	73.122960
609.000000	73.138329
608.000000	73.202288
607.000000	73.294020
606.000000	73.395138
605.000000	73.500715
604.000000	73.593019
603.000000	73.636640
602.000000	73.612214
601.000000	73.526373
600.000000	73.377921
599.000000	73.145555
598.000000	72.822932
597.000000	72.438944
596.000000	72.038777
595.000000	71.674293
594.000000	71.413632
593.000000	71.321933
592.000000	71.415441
591.000000	71.649777
590.000000	71.960857
589.000000	72.301461
588.000000	72.632272
587.000000	72.915000
586.000000	73.134685
585.000000	73.305777
584.000000	73.441290
583.000000	73.540384
582.000000	73.616863
581.000000	73.705742
580.000000	73.826905
579.000000	73.970414
578.000000	74.130581
577.000000	74.319726
576.000000	74.531604
575.000000	74.724822
574.000000	74.863783
573.000000	74.947297
572.000000	74.981609
571.000000	74.962857
570.000000	74.901414
569.000000	74.827488
568.000000	74.758071
567.000000	74.691105
566.000000	74.641067
565.000000	74.643045
564.000000	74.708205
563.000000	74.809033
562.000000	74.919771
561.000000	75.038042
560.000000	75.153736
559.000000	75.234290
558.000000	75.260908
557.000000	75.245236
556.000000	75.194799
555.000000	75.100437
554.000000	74.974087
553.000000	74.858970
552.000000	74.785883
551.000000	74.753938
550.000000	74.764714
549.000000	74.836544
548.000000	74.969015
547.000000	75.128275
546.000000	75.285098
545.000000	75.435853
544.000000	75.571551
543.000000	75.663472
542.000000	75.698532
541.000000	75.695505
540.000000	75.669426
539.000000	75.615859
538.000000	75.545014
537.000000	75.494280
536.000000	75.488328
535.000000	75.520543
534.000000	75.586299
533.000000	75.696303
532.000000	75.843860
531.000000	75.994322
530.000000	76.123654
529.000000	76.234563
528.000000	76.321945
527.000000	76.359717
526.000000	76.340104
525.000000	76.290288
524.000000	76.228136
523.000000	76.141691
522.000000	76.032480
521.000000	75.931727
520.000000	75.854693
519.000000	75.778661
518.000000	75.684103
517.000000	75.580965
516.000000	75.470091
515.000000	75.322443
514.000000	75.116637
513.000000	74.855188
512.000000	74.532181
511.000000	74.124830
510.000000	73.633352
509.000000	73.087488
508.000000	72.499681
507.000000	71.858808
506.000000	71.178495
505.000000	70.502461
504.000000	69.854915
503.000000	69.237656
502.000000	68.678929
501.000000	68.231526
500.000000	67.911570
499.000000	67.688179
498.000000	67.547735
497.000000	67.514044
496.000000	67.603866
495.000000	67.806575
494.000000	68.112054
493.000000	68.524845
492.000000	69.026568
491.000000	69.565496
490.000000	70.103420
489.000000	70.639404
488.000000	71.178356
487.000000	71.708309
486.000000	72.220787
485.000000	72.715134
484.000000	73.166761
483.000000	73.527009
482.000000	73.778157
481.000000	73.951087
480.000000	74.069022
479.000000	74.119071
478.000000	74.096088
477.000000	74.035467
476.000000	73.978647
475.000000	73.942131
474.000000	73.943835
473.000000	74.011543
472.000000	74.140249
471.000000	74.293273
470.000000	74.464776
469.000000	74.691246
468.000000	74.986087
467.000000	75.302309
466.000000	75.590879
465.000000	75.855387
464.000000	76.112167
463.000000	76.345680
462.000000	76.539122
461.000000	76.704797
460.000000	76.840266
459.000000	76.905387
458.000000	76.886095
457.000000	76.834494
456.000000	76.795516
455.000000	76.754484
454.000000	76.712307
453.000000	76.725356
452.000000	76.826195
451.000000	76.970458
450.000000	77.117220
449.000000	77.294382
448.000000	77.524567
447.000000	77.757312
446.000000	77.942661
445.000000	78.105481
444.000000	78.275214
443.000000	78.410216
442.000000	78.464554
441.000000	78.469874
440.000000	78.469937
439.000000	78.454690
438.000000	78.429960
437.000000	78.474528
436.000000	78.651049
435.000000	78.919055
434.000000	79.213003
433.000000	79.530375
432.000000	79.865041
431.000000	80.144344
430.000000	80.316224
429.000000	80.413585
428.000000	80.453605
427.000000	80.379299
426.000000	80.178492
425.000000	79.953213
424.000000	79.804044
423.000000	79.737543
422.000000	79.745175
421.000000	79.854063
420.000000	80.051727
419.000000	80.233909
418.000000	80.345673
417.000000	80.503729
416.000000	80.739737
415.000000	80.903802
414.000000	80.880763
413.000000	80.741892
412.000000	80.597132
411.000000	80.419066
410.000000	80.179323
409.000000	80.001355
408.000000	79.986569
407.000000	80.060745
406.000000	80.147395
405.000000	80.351171
404.000000	80.736387
403.000000	81.141312
402.000000	81.379001
401.000000	81.477707
400.000000	81.537506
