PE IR       SUBTECH     SPECTRUM    ASCII       PEDS        4.00        
   -1
23MS018_nitro.asc
24/09/10
16:25:29.00
24/09/10
16:25:29.00
Administrator
Sample 1159 By Administrator Date Tuesday, September 10 2024
400.000000
#HDR
-1
-1
#GR
cm-1
%T
1.0
0.0
4000.000000
-1.000000
3601
8
63.709658
4.949006
#DATA
4000.000000	18.339396
3999.000000	18.356454
3998.000000	18.372948
3997.000000	18.388688
3996.000000	18.403992
3995.000000	18.419401
3994.000000	18.435195
3993.000000	18.451272
3992.000000	18.467473
3991.000000	18.483870
3990.000000	18.500636
3989.000000	18.517729
3988.000000	18.534840
3987.000000	18.551636
3986.000000	18.567943
3985.000000	18.583706
3984.000000	18.598925
3983.000000	18.613698
3982.000000	18.628253
3981.000000	18.642755
3980.000000	18.657078
3979.000000	18.670972
3978.000000	18.684520
3977.000000	18.698276
3976.000000	18.712829
3975.000000	18.728255
3974.000000	18.744016
3973.000000	18.759373
3972.000000	18.773891
3971.000000	18.787762
3970.000000	18.801611
3969.000000	18.815984
3968.000000	18.830978
3967.000000	18.846198
3966.000000	18.861076
3965.000000	18.875221
3964.000000	18.888640
3963.000000	18.901809
3962.000000	18.915343
3961.000000	18.929349
3960.000000	18.943225
3959.000000	18.956502
3958.000000	18.969556
3957.000000	18.983254
3956.000000	18.998013
3955.000000	19.013227
3954.000000	19.027818
3953.000000	19.040967
3952.000000	19.052558
3951.000000	19.063254
3950.000000	19.074310
3949.000000	19.087190
3948.000000	19.102326
3947.000000	19.117836
3946.000000	19.130635
3945.000000	19.139788
3944.000000	19.148355
3943.000000	19.161253
3942.000000	19.180499
3941.000000	19.202714
3940.000000	19.222434
3939.000000	19.237898
3938.000000	19.251753
3937.000000	19.266567
3936.000000	19.281529
3935.000000	19.293923
3934.000000	19.303237
3933.000000	19.312332
3932.000000	19.324730
3931.000000	19.341226
3930.000000	19.359366
3929.000000	19.376087
3928.000000	19.389668
3927.000000	19.400634
3926.000000	19.412087
3925.000000	19.427649
3924.000000	19.447702
3923.000000	19.468126
3922.000000	19.484503
3921.000000	19.496537
3920.000000	19.506778
3919.000000	19.517328
3918.000000	19.529725
3917.000000	19.545701
3916.000000	19.565394
3915.000000	19.585848
3914.000000	19.603575
3913.000000	19.618396
3912.000000	19.632893
3911.000000	19.649421
3910.000000	19.668290
3909.000000	19.687804
3908.000000	19.706104
3907.000000	19.721638
3906.000000	19.734043
3905.000000	19.744684
3904.000000	19.755805
3903.000000	19.767214
3902.000000	19.774928
3901.000000	19.777131
3900.000000	19.779432
3899.000000	19.789211
3898.000000	19.806869
3897.000000	19.826662
3896.000000	19.844292
3895.000000	19.860723
3894.000000	19.877630
3893.000000	19.894601
3892.000000	19.913659
3891.000000	19.940229
3890.000000	19.972619
3889.000000	19.997334
3888.000000	20.004452
3887.000000	19.998468
3886.000000	19.994906
3885.000000	20.006621
3884.000000	20.027320
3883.000000	20.038806
3882.000000	20.036921
3881.000000	20.036382
3880.000000	20.053264
3879.000000	20.086662
3878.000000	20.118101
3877.000000	20.133250
3876.000000	20.137060
3875.000000	20.145788
3874.000000	20.169864
3873.000000	20.201258
3872.000000	20.220873
3871.000000	20.222432
3870.000000	20.222392
3869.000000	20.238077
3868.000000	20.261245
3867.000000	20.271844
3866.000000	20.268855
3865.000000	20.267407
3864.000000	20.279067
3863.000000	20.302253
3862.000000	20.325782
3861.000000	20.342627
3860.000000	20.357140
3859.000000	20.380036
3858.000000	20.420996
3857.000000	20.479481
3856.000000	20.538105
3855.000000	20.567262
3854.000000	20.557137
3853.000000	20.542711
3852.000000	20.548409
3851.000000	20.547156
3850.000000	20.523723
3849.000000	20.500464
3848.000000	20.497106
3847.000000	20.514355
3846.000000	20.542682
3845.000000	20.572495
3844.000000	20.600244
3843.000000	20.627554
3842.000000	20.654520
3841.000000	20.677866
3840.000000	20.694412
3839.000000	20.703467
3838.000000	20.709334
3837.000000	20.717713
3836.000000	20.728602
3835.000000	20.736722
3834.000000	20.740193
3833.000000	20.744209
3832.000000	20.755958
3831.000000	20.777272
3830.000000	20.801782
3829.000000	20.820749
3828.000000	20.833275
3827.000000	20.848552
3826.000000	20.875272
3825.000000	20.909538
3824.000000	20.936785
3823.000000	20.945247
3822.000000	20.940551
3821.000000	20.947440
3820.000000	20.978962
3819.000000	21.011817
3818.000000	21.020740
3817.000000	21.011008
3816.000000	21.007183
3815.000000	21.025472
3814.000000	21.053868
3813.000000	21.072418
3812.000000	21.082763
3811.000000	21.099014
3810.000000	21.124987
3809.000000	21.150669
3808.000000	21.167036
3807.000000	21.180751
3806.000000	21.203079
3805.000000	21.227336
3804.000000	21.237670
3803.000000	21.231205
3802.000000	21.222060
3801.000000	21.230401
3800.000000	21.255730
3799.000000	21.272489
3798.000000	21.269932
3797.000000	21.264846
3796.000000	21.275310
3795.000000	21.301952
3794.000000	21.331055
3793.000000	21.352406
3792.000000	21.367581
3791.000000	21.383253
3790.000000	21.402537
3789.000000	21.423529
3788.000000	21.442517
3787.000000	21.457343
3786.000000	21.469423
3785.000000	21.483356
3784.000000	21.501830
3783.000000	21.521217
3782.000000	21.535089
3781.000000	21.542156
3780.000000	21.548751
3779.000000	21.562680
3778.000000	21.583692
3777.000000	21.603497
3776.000000	21.617864
3775.000000	21.631422
3774.000000	21.649319
3773.000000	21.669463
3772.000000	21.685764
3771.000000	21.696606
3770.000000	21.707297
3769.000000	21.721694
3768.000000	21.734288
3767.000000	21.738680
3766.000000	21.740435
3765.000000	21.751430
3764.000000	21.773839
3763.000000	21.796710
3762.000000	21.810083
3761.000000	21.815959
3760.000000	21.822658
3759.000000	21.835641
3758.000000	21.855068
3757.000000	21.878343
3756.000000	21.904297
3755.000000	21.932677
3754.000000	21.961692
3753.000000	21.985940
3752.000000	21.998471
3751.000000	22.000333
3750.000000	22.003897
3749.000000	22.017086
3748.000000	22.031804
3747.000000	22.036850
3746.000000	22.028828
3745.000000	22.015144
3744.000000	22.021785
3743.000000	22.054212
3742.000000	22.074095
3741.000000	22.066197
3740.000000	22.056661
3739.000000	22.063541
3738.000000	22.081589
3737.000000	22.098675
3736.000000	22.114428
3735.000000	22.135257
3734.000000	22.157848
3733.000000	22.173579
3732.000000	22.183351
3731.000000	22.194150
3730.000000	22.206161
3729.000000	22.214859
3728.000000	22.221066
3727.000000	22.231471
3726.000000	22.250698
3725.000000	22.274132
3724.000000	22.292423
3723.000000	22.303320
3722.000000	22.312508
3721.000000	22.324888
3720.000000	22.338779
3719.000000	22.351292
3718.000000	22.364830
3717.000000	22.383240
3716.000000	22.406242
3715.000000	22.428681
3714.000000	22.443619
3713.000000	22.446623
3712.000000	22.440677
3711.000000	22.435480
3710.000000	22.435701
3709.000000	22.437120
3708.000000	22.437489
3707.000000	22.440139
3706.000000	22.448209
3705.000000	22.460187
3704.000000	22.471667
3703.000000	22.480659
3702.000000	22.489770
3701.000000	22.502205
3700.000000	22.514417
3699.000000	22.518399
3698.000000	22.513457
3697.000000	22.507770
3696.000000	22.508380
3695.000000	22.514851
3694.000000	22.522373
3693.000000	22.528539
3692.000000	22.533256
3691.000000	22.533562
3690.000000	22.524187
3689.000000	22.506897
3688.000000	22.491458
3687.000000	22.479177
3686.000000	22.461504
3685.000000	22.438070
3684.000000	22.418007
3683.000000	22.406523
3682.000000	22.401669
3681.000000	22.401224
3680.000000	22.407362
3679.000000	22.418044
3678.000000	22.417848
3677.000000	22.388598
3676.000000	22.337004
3675.000000	22.299583
3674.000000	22.287405
3673.000000	22.266504
3672.000000	22.216221
3671.000000	22.151129
3670.000000	22.098515
3669.000000	22.074340
3668.000000	22.063459
3667.000000	22.040944
3666.000000	22.004472
3665.000000	21.966478
3664.000000	21.933509
3663.000000	21.903070
3662.000000	21.872044
3661.000000	21.840467
3660.000000	21.807612
3659.000000	21.767812
3658.000000	21.714908
3657.000000	21.652323
3656.000000	21.593991
3655.000000	21.547553
3654.000000	21.503494
3653.000000	21.450667
3652.000000	21.385672
3651.000000	21.306440
3650.000000	21.214203
3649.000000	21.119722
3648.000000	21.034882
3647.000000	20.961439
3646.000000	20.893729
3645.000000	20.827052
3644.000000	20.761021
3643.000000	20.698194
3642.000000	20.640599
3641.000000	20.585864
3640.000000	20.528337
3639.000000	20.464329
3638.000000	20.394746
3637.000000	20.320738
3636.000000	20.241824
3635.000000	20.161556
3634.000000	20.089172
3633.000000	20.029379
3632.000000	19.972083
3631.000000	19.897400
3630.000000	19.794478
3629.000000	19.681967
3628.000000	19.590364
3627.000000	19.515714
3626.000000	19.433584
3625.000000	19.343193
3624.000000	19.259472
3623.000000	19.187460
3622.000000	19.118740
3621.000000	19.042380
3620.000000	18.956637
3619.000000	18.870685
3618.000000	18.791916
3617.000000	18.715391
3616.000000	18.633022
3615.000000	18.545821
3614.000000	18.462020
3613.000000	18.388062
3612.000000	18.321076
3611.000000	18.250228
3610.000000	18.168008
3609.000000	18.078947
3608.000000	17.994849
3607.000000	17.921768
3606.000000	17.855005
3605.000000	17.787453
3604.000000	17.717045
3603.000000	17.644976
3602.000000	17.572402
3601.000000	17.500301
3600.000000	17.429357
3599.000000	17.358825
3598.000000	17.286802
3597.000000	17.212096
3596.000000	17.136081
3595.000000	17.062687
3594.000000	16.995478
3593.000000	16.934590
3592.000000	16.875590
3591.000000	16.811949
3590.000000	16.738615
3589.000000	16.655827
3588.000000	16.571708
3587.000000	16.496879
3586.000000	16.432808
3585.000000	16.371645
3584.000000	16.308045
3583.000000	16.243423
3582.000000	16.180883
3581.000000	16.121288
3580.000000	16.063334
3579.000000	16.004947
3578.000000	15.944558
3577.000000	15.881955
3576.000000	15.817957
3575.000000	15.753740
3574.000000	15.690224
3573.000000	15.628087
3572.000000	15.567196
3571.000000	15.505434
3570.000000	15.439422
3569.000000	15.367833
3568.000000	15.294907
3567.000000	15.228656
3566.000000	15.172375
3565.000000	15.120461
3564.000000	15.066029
3563.000000	15.008346
3562.000000	14.951117
3561.000000	14.897642
3560.000000	14.848302
3559.000000	14.800990
3558.000000	14.753338
3557.000000	14.704241
3556.000000	14.653332
3555.000000	14.600114
3554.000000	14.544928
3553.000000	14.490110
3552.000000	14.438505
3551.000000	14.390000
3550.000000	14.341197
3549.000000	14.289190
3548.000000	14.234485
3547.000000	14.180418
3546.000000	14.130778
3545.000000	14.087304
3544.000000	14.048701
3543.000000	14.012042
3542.000000	13.975083
3541.000000	13.937059
3540.000000	13.897664
3539.000000	13.856471
3538.000000	13.814127
3537.000000	13.773020
3536.000000	13.735433
3535.000000	13.700868
3534.000000	13.666360
3533.000000	13.629435
3532.000000	13.589691
3531.000000	13.548014
3530.000000	13.505440
3529.000000	13.463065
3528.000000	13.421597
3527.000000	13.380608
3526.000000	13.339143
3525.000000	13.297619
3524.000000	13.258254
3523.000000	13.223041
3522.000000	13.191560
3521.000000	13.161092
3520.000000	13.128794
3519.000000	13.093615
3518.000000	13.056502
3517.000000	13.018873
3516.000000	12.981216
3515.000000	12.943474
3514.000000	12.906263
3513.000000	12.870742
3512.000000	12.837144
3511.000000	12.804498
3510.000000	12.772177
3509.000000	12.740604
3508.000000	12.709435
3507.000000	12.676281
3506.000000	12.638806
3505.000000	12.597770
3504.000000	12.557058
3503.000000	12.520669
3502.000000	12.489838
3501.000000	12.462640
3500.000000	12.435871
3499.000000	12.407479
3498.000000	12.377897
3497.000000	12.349104
3496.000000	12.322174
3495.000000	12.296208
3494.000000	12.269883
3493.000000	12.243077
3492.000000	12.216301
3491.000000	12.189463
3490.000000	12.162337
3489.000000	12.135701
3488.000000	12.110896
3487.000000	12.088439
3486.000000	12.067717
3485.000000	12.047619
3484.000000	12.026816
3483.000000	12.004183
3482.000000	11.980012
3481.000000	11.956458
3480.000000	11.935800
3479.000000	11.918477
3478.000000	11.903407
3477.000000	11.889566
3476.000000	11.876441
3475.000000	11.863564
3474.000000	11.850346
3473.000000	11.836104
3472.000000	11.819961
3471.000000	11.801436
3470.000000	11.781752
3469.000000	11.763884
3468.000000	11.750483
3467.000000	11.741992
3466.000000	11.737001
3465.000000	11.733610
3464.000000	11.730028
3463.000000	11.724960
3462.000000	11.718483
3461.000000	11.712011
3460.000000	11.706616
3459.000000	11.701897
3458.000000	11.696972
3457.000000	11.691789
3456.000000	11.686789
3455.000000	11.682055
3454.000000	11.677704
3453.000000	11.674437
3452.000000	11.672660
3451.000000	11.671563
3450.000000	11.669938
3449.000000	11.667656
3448.000000	11.665631
3447.000000	11.664670
3446.000000	11.664820
3445.000000	11.665452
3444.000000	11.665582
3443.000000	11.664533
3442.000000	11.662703
3441.000000	11.661103
3440.000000	11.659839
3439.000000	11.657908
3438.000000	11.654959
3437.000000	11.652318
3436.000000	11.651558
3435.000000	11.652717
3434.000000	11.654589
3433.000000	11.656035
3432.000000	11.656444
3431.000000	11.655870
3430.000000	11.655425
3429.000000	11.656741
3428.000000	11.660263
3427.000000	11.664808
3426.000000	11.669198
3425.000000	11.673283
3424.000000	11.676957
3423.000000	11.679516
3422.000000	11.680965
3421.000000	11.682743
3420.000000	11.686081
3419.000000	11.690528
3418.000000	11.695023
3417.000000	11.699434
3416.000000	11.704107
3415.000000	11.708893
3414.000000	11.713667
3413.000000	11.718941
3412.000000	11.725040
3411.000000	11.731407
3410.000000	11.737510
3409.000000	11.743700
3408.000000	11.750388
3407.000000	11.757156
3406.000000	11.763347
3405.000000	11.768688
3404.000000	11.772836
3403.000000	11.775352
3402.000000	11.776827
3401.000000	11.778991
3400.000000	11.782922
3399.000000	11.787928
3398.000000	11.792604
3397.000000	11.795906
3396.000000	11.796717
3395.000000	11.793886
3394.000000	11.787769
3393.000000	11.780766
3392.000000	11.775295
3391.000000	11.771749
3390.000000	11.768883
3389.000000	11.765031
3388.000000	11.758432
3387.000000	11.747662
3386.000000	11.732806
3385.000000	11.715461
3384.000000	11.696827
3383.000000	11.676783
3382.000000	11.655213
3381.000000	11.632890
3380.000000	11.610318
3379.000000	11.586754
3378.000000	11.561248
3377.000000	11.533713
3376.000000	11.504151
3375.000000	11.471908
3374.000000	11.436395
3373.000000	11.397752
3372.000000	11.356305
3371.000000	11.312275
3370.000000	11.266691
3369.000000	11.221302
3368.000000	11.176822
3367.000000	11.132227
3366.000000	11.086199
3365.000000	11.038233
3364.000000	10.987716
3363.000000	10.933431
3362.000000	10.875030
3361.000000	10.813839
3360.000000	10.751347
3359.000000	10.687752
3358.000000	10.622761
3357.000000	10.556778
3356.000000	10.490158
3355.000000	10.422305
3354.000000	10.352373
3353.000000	10.280109
3352.000000	10.205540
3351.000000	10.128668
3350.000000	10.050108
3349.000000	9.970982
3348.000000	9.891475
3347.000000	9.810621
3346.000000	9.728018
3345.000000	9.644633
3344.000000	9.561295
3343.000000	9.477520
3342.000000	9.392552
3341.000000	9.306295
3340.000000	9.218671
3339.000000	9.129353
3338.000000	9.038828
3337.000000	8.948458
3336.000000	8.858687
3335.000000	8.768528
3334.000000	8.677555
3333.000000	8.586835
3332.000000	8.497084
3331.000000	8.407363
3330.000000	8.316583
3329.000000	8.224931
3328.000000	8.132768
3327.000000	8.039605
3326.000000	7.945395
3325.000000	7.851509
3324.000000	7.759223
3323.000000	7.668305
3322.000000	7.578047
3321.000000	7.488508
3320.000000	7.399748
3319.000000	7.311056
3318.000000	7.222035
3317.000000	7.133288
3316.000000	7.045172
3315.000000	6.957091
3314.000000	6.868756
3313.000000	6.780874
3312.000000	6.693705
3311.000000	6.606406
3310.000000	6.518810
3309.000000	6.432380
3308.000000	6.348526
3307.000000	6.267355
3306.000000	6.188930
3305.000000	6.114113
3304.000000	6.042827
3303.000000	5.973232
3302.000000	5.903857
3301.000000	5.835147
3300.000000	5.767993
3299.000000	5.702129
3298.000000	5.637390
3297.000000	5.574999
3296.000000	5.516098
3295.000000	5.460396
3294.000000	5.407349
3293.000000	5.357579
3292.000000	5.311903
3291.000000	5.269924
3290.000000	5.230973
3289.000000	5.195004
3288.000000	5.161848
3287.000000	5.130844
3286.000000	5.102040
3285.000000	5.076722
3284.000000	5.055576
3283.000000	5.037727
3282.000000	5.022246
3281.000000	5.009055
3280.000000	4.997778
3279.000000	4.987212
3278.000000	4.976994
3277.000000	4.968287
3276.000000	4.961800
3275.000000	4.956721
3274.000000	4.952397
3273.000000	4.949561
3272.000000	4.949006
3271.000000	4.950499
3270.000000	4.953860
3269.000000	4.959448
3268.000000	4.966689
3267.000000	4.973890
3266.000000	4.980313
3265.000000	4.986945
3264.000000	4.994473
3263.000000	5.002210
3262.000000	5.009927
3261.000000	5.018738
3260.000000	5.029187
3259.000000	5.040197
3258.000000	5.050953
3257.000000	5.062220
3256.000000	5.074693
3255.000000	5.087753
3254.000000	5.100891
3253.000000	5.114711
3252.000000	5.129467
3251.000000	5.144160
3250.000000	5.158182
3249.000000	5.172447
3248.000000	5.187909
3247.000000	5.204386
3246.000000	5.221564
3245.000000	5.239622
3244.000000	5.258091
3243.000000	5.275690
3242.000000	5.292155
3241.000000	5.308702
3240.000000	5.326009
3239.000000	5.343332
3238.000000	5.360257
3237.000000	5.377570
3236.000000	5.395683
3235.000000	5.413943
3234.000000	5.432334
3233.000000	5.452007
3232.000000	5.473201
3231.000000	5.494314
3230.000000	5.514013
3229.000000	5.532710
3228.000000	5.551174
3227.000000	5.569351
3226.000000	5.587401
3225.000000	5.606220
3224.000000	5.625972
3223.000000	5.645547
3222.000000	5.664273
3221.000000	5.682739
3220.000000	5.701286
3219.000000	5.719207
3218.000000	5.736084
3217.000000	5.752376
3216.000000	5.768170
3215.000000	5.782943
3214.000000	5.797049
3213.000000	5.811739
3212.000000	5.827179
3211.000000	5.842088
3210.000000	5.855857
3209.000000	5.869188
3208.000000	5.882223
3207.000000	5.893933
3206.000000	5.903983
3205.000000	5.913407
3204.000000	5.922722
3203.000000	5.931220
3202.000000	5.938680
3201.000000	5.945933
3200.000000	5.953159
3199.000000	5.959424
3198.000000	5.964546
3197.000000	5.969492
3196.000000	5.974271
3195.000000	5.977393
3194.000000	5.978103
3193.000000	5.977392
3192.000000	5.976203
3191.000000	5.974430
3190.000000	5.972355
3189.000000	5.971076
3188.000000	5.970734
3187.000000	5.970139
3186.000000	5.968753
3185.000000	5.967333
3184.000000	5.966024
3183.000000	5.963765
3182.000000	5.960248
3181.000000	5.956582
3180.000000	5.953406
3179.000000	5.950237
3178.000000	5.947307
3177.000000	5.946022
3176.000000	5.946867
3175.000000	5.948693
3174.000000	5.950800
3173.000000	5.953831
3172.000000	5.957925
3171.000000	5.962032
3170.000000	5.965776
3169.000000	5.970194
3168.000000	5.975915
3167.000000	5.982392
3166.000000	5.989629
3165.000000	5.998734
3164.000000	6.010087
3163.000000	6.022772
3162.000000	6.036373
3161.000000	6.051571
3160.000000	6.068345
3159.000000	6.085498
3158.000000	6.102576
3157.000000	6.120309
3156.000000	6.138765
3155.000000	6.157101
3154.000000	6.175785
3153.000000	6.196971
3152.000000	6.221753
3151.000000	6.248936
3150.000000	6.277115
3149.000000	6.306029
3148.000000	6.335351
3147.000000	6.364139
3146.000000	6.392393
3145.000000	6.421291
3144.000000	6.451174
3143.000000	6.481102
3142.000000	6.510928
3141.000000	6.541976
3140.000000	6.575072
3139.000000	6.609643
3138.000000	6.645272
3137.000000	6.682151
3136.000000	6.719549
3135.000000	6.755869
3134.000000	6.790845
3133.000000	6.825931
3132.000000	6.862002
3131.000000	6.898583
3130.000000	6.935723
3129.000000	6.974518
3128.000000	7.015179
3127.000000	7.056432
3126.000000	7.097409
3125.000000	7.138291
3124.000000	7.178695
3123.000000	7.217475
3122.000000	7.254781
3121.000000	7.292378
3120.000000	7.331361
3119.000000	7.371338
3118.000000	7.412280
3117.000000	7.455160
3116.000000	7.500192
3115.000000	7.546290
3114.000000	7.592698
3113.000000	7.639378
3112.000000	7.685528
3111.000000	7.729857
3110.000000	7.772798
3109.000000	7.816467
3108.000000	7.861928
3107.000000	7.908333
3106.000000	7.955045
3105.000000	8.002549
3104.000000	8.050764
3103.000000	8.098604
3102.000000	8.145847
3101.000000	8.193500
3100.000000	8.241802
3099.000000	8.289782
3098.000000	8.337261
3097.000000	8.385280
3096.000000	8.434060
3095.000000	8.482587
3094.000000	8.530733
3093.000000	8.579760
3092.000000	8.630173
3091.000000	8.681019
3090.000000	8.731810
3089.000000	8.783109
3088.000000	8.834663
3087.000000	8.885003
3086.000000	8.933608
3085.000000	8.981706
3084.000000	9.030364
3083.000000	9.079573
3082.000000	9.129648
3081.000000	9.181540
3080.000000	9.235173
3079.000000	9.289274
3078.000000	9.343319
3077.000000	9.397826
3076.000000	9.452356
3075.000000	9.505286
3074.000000	9.556115
3073.000000	9.606122
3072.000000	9.656238
3071.000000	9.706154
3070.000000	9.756073
3069.000000	9.807354
3068.000000	9.860620
3067.000000	9.914908
3066.000000	9.969313
3065.000000	10.023830
3064.000000	10.078054
3063.000000	10.130877
3062.000000	10.182108
3061.000000	10.232830
3060.000000	10.283705
3059.000000	10.334551
3058.000000	10.385918
3057.000000	10.439213
3056.000000	10.494685
3055.000000	10.550852
3054.000000	10.606419
3053.000000	10.661262
3052.000000	10.715214
3051.000000	10.767623
3050.000000	10.818578
3049.000000	10.869044
3048.000000	10.919406
3047.000000	10.969352
3046.000000	11.019379
3045.000000	11.070764
3044.000000	11.123815
3043.000000	11.177717
3042.000000	11.232185
3041.000000	11.287532
3040.000000	11.342902
3039.000000	11.396296
3038.000000	11.446848
3037.000000	11.495579
3036.000000	11.543750
3035.000000	11.592059
3034.000000	11.641494
3033.000000	11.693138
3032.000000	11.746687
3031.000000	11.800694
3030.000000	11.854450
3029.000000	11.908101
3028.000000	11.961015
3027.000000	12.011870
3026.000000	12.060663
3025.000000	12.108950
3024.000000	12.157872
3023.000000	12.207498
3022.000000	12.258183
3021.000000	12.310801
3020.000000	12.365262
3019.000000	12.420329
3018.000000	12.475093
3017.000000	12.529196
3016.000000	12.581728
3015.000000	12.631676
3014.000000	12.679632
3013.000000	12.727458
3012.000000	12.776190
3011.000000	12.825784
3010.000000	12.876678
3009.000000	12.929665
3008.000000	12.984139
3007.000000	13.038318
3006.000000	13.091372
3005.000000	13.143766
3004.000000	13.195456
3003.000000	13.245488
3002.000000	13.293507
3001.000000	13.340084
3000.000000	13.385604
2999.000000	13.430503
2998.000000	13.476465
2997.000000	13.525407
2996.000000	13.577076
2995.000000	13.629370
2994.000000	13.681069
2993.000000	13.732492
2992.000000	13.783492
2991.000000	13.832878
2990.000000	13.880227
2989.000000	13.926496
2988.000000	13.972475
2987.000000	14.018250
2986.000000	14.064395
2985.000000	14.112034
2984.000000	14.161348
2983.000000	14.211446
2982.000000	14.261853
2981.000000	14.312620
2980.000000	14.362894
2979.000000	14.410999
2978.000000	14.456288
2977.000000	14.499648
2976.000000	14.542222
2975.000000	14.585020
2974.000000	14.629562
2973.000000	14.677109
2972.000000	14.727087
2971.000000	14.777697
2970.000000	14.828045
2969.000000	14.878180
2968.000000	14.927351
2967.000000	14.974154
2966.000000	15.018475
2965.000000	15.061529
2964.000000	15.103978
2963.000000	15.145816
2962.000000	15.188077
2961.000000	15.232604
2960.000000	15.279794
2959.000000	15.328274
2958.000000	15.376884
2957.000000	15.425223
2956.000000	15.472243
2955.000000	15.516386
2954.000000	15.557563
2953.000000	15.597354
2952.000000	15.636994
2951.000000	15.676657
2950.000000	15.716812
2949.000000	15.758579
2948.000000	15.802416
2947.000000	15.847817
2946.000000	15.894411
2945.000000	15.941994
2944.000000	15.989496
2943.000000	16.035339
2942.000000	16.078911
2941.000000	16.120563
2940.000000	16.160461
2939.000000	16.198877
2938.000000	16.237262
2937.000000	16.277375
2936.000000	16.319445
2935.000000	16.362514
2934.000000	16.406186
2933.000000	16.450385
2932.000000	16.493899
2931.000000	16.535111
2930.000000	16.574005
2929.000000	16.611729
2928.000000	16.648520
2927.000000	16.683985
2926.000000	16.719125
2925.000000	16.755947
2924.000000	16.795125
2923.000000	16.835888
2922.000000	16.877945
2921.000000	16.921456
2920.000000	16.965256
2919.000000	17.007123
2918.000000	17.045889
2917.000000	17.081751
2916.000000	17.114931
2915.000000	17.145933
2914.000000	17.176796
2913.000000	17.210073
2912.000000	17.246463
2911.000000	17.284922
2910.000000	17.324724
2909.000000	17.365635
2908.000000	17.406398
2907.000000	17.445130
2906.000000	17.481371
2905.000000	17.516173
2904.000000	17.550283
2903.000000	17.583834
2902.000000	17.617675
2901.000000	17.653099
2900.000000	17.690318
2899.000000	17.728409
2898.000000	17.766894
2897.000000	17.805812
2896.000000	17.844310
2895.000000	17.880960
2894.000000	17.915500
2893.000000	17.948882
2892.000000	17.981679
2891.000000	18.013914
2890.000000	18.046295
2889.000000	18.080007
2888.000000	18.115210
2887.000000	18.151111
2886.000000	18.187423
2885.000000	18.224314
2884.000000	18.261035
2883.000000	18.296138
2882.000000	18.329134
2881.000000	18.360707
2880.000000	18.391452
2879.000000	18.421810
2878.000000	18.453095
2877.000000	18.486992
2876.000000	18.523729
2875.000000	18.561795
2874.000000	18.599404
2873.000000	18.635281
2872.000000	18.668471
2871.000000	18.698877
2870.000000	18.727863
2869.000000	18.757054
2868.000000	18.786664
2867.000000	18.816097
2866.000000	18.845717
2865.000000	18.876612
2864.000000	18.909001
2863.000000	18.942272
2862.000000	18.976208
2861.000000	19.010607
2860.000000	19.044073
2859.000000	19.074900
2858.000000	19.103117
2857.000000	19.130303
2856.000000	19.157662
2855.000000	19.185680
2854.000000	19.215223
2853.000000	19.247225
2852.000000	19.281311
2851.000000	19.316087
2850.000000	19.350574
2849.000000	19.384148
2848.000000	19.415669
2847.000000	19.444312
2846.000000	19.471015
2845.000000	19.497724
2844.000000	19.525566
2843.000000	19.555015
2842.000000	19.587113
2841.000000	19.622620
2840.000000	19.660089
2839.000000	19.696538
2838.000000	19.730174
2837.000000	19.761202
2836.000000	19.790240
2835.000000	19.817524
2834.000000	19.843665
2833.000000	19.869728
2832.000000	19.896367
2831.000000	19.923942
2830.000000	19.953330
2829.000000	19.985461
2828.000000	20.020129
2827.000000	20.056308
2826.000000	20.093351
2825.000000	20.130759
2824.000000	20.167209
2823.000000	20.201203
2822.000000	20.232571
2821.000000	20.262222
2820.000000	20.290778
2819.000000	20.318706
2818.000000	20.347361
2817.000000	20.378342
2816.000000	20.411832
2815.000000	20.446731
2814.000000	20.482200
2813.000000	20.517804
2812.000000	20.552429
2811.000000	20.584533
2810.000000	20.613582
2809.000000	20.640193
2808.000000	20.665025
2807.000000	20.688651
2806.000000	20.712271
2805.000000	20.737265
2804.000000	20.764048
2803.000000	20.792272
2802.000000	20.821809
2801.000000	20.852388
2800.000000	20.882610
2799.000000	20.910653
2798.000000	20.935925
2797.000000	20.959087
2796.000000	20.980802
2795.000000	21.001607
2794.000000	21.022699
2793.000000	21.045515
2792.000000	21.070479
2791.000000	21.097006
2790.000000	21.124464
2789.000000	21.152208
2788.000000	21.179130
2787.000000	21.204359
2786.000000	21.228201
2785.000000	21.251479
2784.000000	21.274408
2783.000000	21.297085
2782.000000	21.320486
2781.000000	21.345690
2780.000000	21.372494
2779.000000	21.399915
2778.000000	21.427598
2777.000000	21.455512
2776.000000	21.482674
2775.000000	21.507487
2774.000000	21.529195
2773.000000	21.548029
2772.000000	21.564319
2771.000000	21.578606
2770.000000	21.592144
2769.000000	21.605981
2768.000000	21.619834
2767.000000	21.632824
2766.000000	21.644852
2765.000000	21.656070
2764.000000	21.665483
2763.000000	21.671528
2762.000000	21.673706
2761.000000	21.672579
2760.000000	21.668634
2759.000000	21.662401
2758.000000	21.655333
2757.000000	21.649052
2756.000000	21.643862
2755.000000	21.639177
2754.000000	21.635021
2753.000000	21.631812
2752.000000	21.628956
2751.000000	21.625049
2750.000000	21.619410
2749.000000	21.612225
2748.000000	21.603442
2747.000000	21.592719
2746.000000	21.580294
2745.000000	21.566680
2744.000000	21.551588
2743.000000	21.534301
2742.000000	21.514871
2741.000000	21.493845
2740.000000	21.471126
2739.000000	21.446215
2738.000000	21.419426
2737.000000	21.391855
2736.000000	21.364469
2735.000000	21.338434
2734.000000	21.315949
2733.000000	21.299319
2732.000000	21.289487
2731.000000	21.286576
2730.000000	21.291356
2729.000000	21.305054
2728.000000	21.327708
2727.000000	21.358190
2726.000000	21.395808
2725.000000	21.440444
2724.000000	21.491650
2723.000000	21.548547
2722.000000	21.610289
2721.000000	21.675732
2720.000000	21.742746
2719.000000	21.809209
2718.000000	21.874271
2717.000000	21.937588
2716.000000	21.998016
2715.000000	22.054273
2714.000000	22.106354
2713.000000	22.155110
2712.000000	22.200847
2711.000000	22.243460
2710.000000	22.283525
2709.000000	22.321773
2708.000000	22.357879
2707.000000	22.391078
2706.000000	22.421423
2705.000000	22.449366
2704.000000	22.474439
2703.000000	22.495700
2702.000000	22.513313
2701.000000	22.528269
2700.000000	22.541033
2699.000000	22.551607
2698.000000	22.560529
2697.000000	22.568570
2696.000000	22.575502
2695.000000	22.580522
2694.000000	22.583622
2693.000000	22.585393
2692.000000	22.585873
2691.000000	22.584727
2690.000000	22.582366
2689.000000	22.579664
2688.000000	22.576779
2687.000000	22.573479
2686.000000	22.570298
2685.000000	22.568131
2684.000000	22.566827
2683.000000	22.565306
2682.000000	22.562903
2681.000000	22.559507
2680.000000	22.554728
2679.000000	22.548177
2678.000000	22.540467
2677.000000	22.532876
2676.000000	22.526210
2675.000000	22.520870
2674.000000	22.517601
2673.000000	22.517104
2672.000000	22.519190
2671.000000	22.523462
2670.000000	22.530339
2669.000000	22.540251
2668.000000	22.552401
2667.000000	22.565503
2666.000000	22.579428
2665.000000	22.594912
2664.000000	22.612001
2663.000000	22.630229
2662.000000	22.649816
2661.000000	22.671305
2660.000000	22.694242
2659.000000	22.717405
2658.000000	22.740184
2657.000000	22.762509
2656.000000	22.783709
2655.000000	22.802741
2654.000000	22.819426
2653.000000	22.834286
2652.000000	22.847485
2651.000000	22.858984
2650.000000	22.869454
2649.000000	22.879933
2648.000000	22.890811
2647.000000	22.902183
2646.000000	22.914881
2645.000000	22.930024
2644.000000	22.947849
2643.000000	22.968087
2642.000000	22.990985
2641.000000	23.016788
2640.000000	23.044700
2639.000000	23.073472
2638.000000	23.102793
2637.000000	23.132977
2636.000000	23.163760
2635.000000	23.194691
2634.000000	23.226209
2633.000000	23.259115
2632.000000	23.293282
2631.000000	23.327997
2630.000000	23.363218
2629.000000	23.399215
2628.000000	23.435405
2627.000000	23.470738
2626.000000	23.504938
2625.000000	23.538130
2624.000000	23.569662
2623.000000	23.598451
2622.000000	23.624212
2621.000000	23.647307
2620.000000	23.667582
2619.000000	23.684612
2618.000000	23.698702
2617.000000	23.710485
2616.000000	23.720027
2615.000000	23.727204
2614.000000	23.732652
2613.000000	23.737115
2612.000000	23.740051
2611.000000	23.740219
2610.000000	23.737161
2609.000000	23.731168
2608.000000	23.722234
2607.000000	23.710183
2606.000000	23.695724
2605.000000	23.680038
2604.000000	23.663641
2603.000000	23.646812
2602.000000	23.630822
2601.000000	23.617574
2600.000000	23.608285
2599.000000	23.603567
2598.000000	23.604385
2597.000000	23.611815
2596.000000	23.625780
2595.000000	23.645358
2594.000000	23.670142
2593.000000	23.700027
2592.000000	23.734364
2591.000000	23.772072
2590.000000	23.812444
2589.000000	23.854842
2588.000000	23.897839
2587.000000	23.940166
2586.000000	23.982043
2585.000000	24.024620
2584.000000	24.068515
2583.000000	24.113840
2582.000000	24.161247
2581.000000	24.211511
2580.000000	24.264373
2579.000000	24.318921
2578.000000	24.374721
2577.000000	24.431475
2576.000000	24.487879
2575.000000	24.542042
2574.000000	24.592907
2573.000000	24.640383
2572.000000	24.684300
2571.000000	24.724311
2570.000000	24.760510
2569.000000	24.792947
2568.000000	24.821020
2567.000000	24.843864
2566.000000	24.861196
2565.000000	24.873117
2564.000000	24.879356
2563.000000	24.880086
2562.000000	24.876893
2561.000000	24.872128
2560.000000	24.867718
2559.000000	24.865221
2558.000000	24.866433
2557.000000	24.872688
2556.000000	24.883931
2555.000000	24.899514
2554.000000	24.919846
2553.000000	24.946006
2552.000000	24.978313
2551.000000	25.016338
2550.000000	25.059689
2549.000000	25.108062
2548.000000	25.160390
2547.000000	25.215112
2546.000000	25.271025
2545.000000	25.326906
2544.000000	25.381064
2543.000000	25.432119
2542.000000	25.479984
2541.000000	25.525222
2540.000000	25.567913
2539.000000	25.607908
2538.000000	25.645721
2537.000000	25.682175
2536.000000	25.717458
2535.000000	25.751565
2534.000000	25.785020
2533.000000	25.818357
2532.000000	25.851257
2531.000000	25.882951
2530.000000	25.913148
2529.000000	25.941664
2528.000000	25.967833
2527.000000	25.991298
2526.000000	26.012884
2525.000000	26.033872
2524.000000	26.054745
2523.000000	26.075498
2522.000000	26.096633
2521.000000	26.118776
2520.000000	26.141752
2519.000000	26.164918
2518.000000	26.188023
2517.000000	26.210884
2516.000000	26.232706
2515.000000	26.252715
2514.000000	26.271115
2513.000000	26.288617
2512.000000	26.305545
2511.000000	26.322231
2510.000000	26.339752
2509.000000	26.359215
2508.000000	26.380574
2507.000000	26.402984
2506.000000	26.425847
2505.000000	26.448637
2504.000000	26.470253
2503.000000	26.489664
2502.000000	26.507017
2501.000000	26.523330
2500.000000	26.539422
2499.000000	26.555814
2498.000000	26.573126
2497.000000	26.591615
2496.000000	26.610644
2495.000000	26.629367
2494.000000	26.647563
2493.000000	26.665069
2492.000000	26.681112
2491.000000	26.695151
2490.000000	26.707982
2489.000000	26.721089
2488.000000	26.735258
2487.000000	26.750620
2486.000000	26.767458
2485.000000	26.785947
2484.000000	26.805430
2483.000000	26.824830
2482.000000	26.843430
2481.000000	26.860516
2480.000000	26.874877
2479.000000	26.885785
2478.000000	26.894152
2477.000000	26.901862
2476.000000	26.910282
2475.000000	26.920149
2474.000000	26.932329
2473.000000	26.947475
2472.000000	26.965076
2471.000000	26.983752
2470.000000	27.002303
2469.000000	27.019750
2468.000000	27.034807
2467.000000	27.046430
2466.000000	27.054866
2465.000000	27.061459
2464.000000	27.067668
2463.000000	27.074810
2462.000000	27.084281
2461.000000	27.096963
2460.000000	27.112491
2459.000000	27.129690
2458.000000	27.147450
2457.000000	27.164618
2456.000000	27.179649
2455.000000	27.191406
2454.000000	27.200168
2453.000000	27.207176
2452.000000	27.213489
2451.000000	27.219975
2450.000000	27.227924
2449.000000	27.238644
2448.000000	27.252401
2447.000000	27.268298
2446.000000	27.285009
2445.000000	27.301150
2444.000000	27.315379
2443.000000	27.326982
2442.000000	27.336288
2441.000000	27.344161
2440.000000	27.351457
2439.000000	27.359322
2438.000000	27.369312
2437.000000	27.382377
2436.000000	27.398014
2435.000000	27.414927
2434.000000	27.431980
2433.000000	27.448011
2432.000000	27.461483
2431.000000	27.471370
2430.000000	27.478192
2429.000000	27.483635
2428.000000	27.489499
2427.000000	27.497484
2426.000000	27.509186
2425.000000	27.525281
2424.000000	27.544862
2423.000000	27.566140
2422.000000	27.587474
2421.000000	27.607296
2420.000000	27.623886
2419.000000	27.636187
2418.000000	27.644683
2417.000000	27.650914
2416.000000	27.656605
2415.000000	27.663655
2414.000000	27.674131
2413.000000	27.689210
2412.000000	27.708348
2411.000000	27.730001
2410.000000	27.752648
2409.000000	27.774593
2408.000000	27.793623
2407.000000	27.808054
2406.000000	27.818016
2405.000000	27.825182
2404.000000	27.831608
2403.000000	27.839267
2402.000000	27.849915
2401.000000	27.864417
2400.000000	27.882358
2399.000000	27.902858
2398.000000	27.925206
2397.000000	27.948182
2396.000000	27.969525
2395.000000	27.987177
2394.000000	28.000815
2393.000000	28.011638
2392.000000	28.021199
2391.000000	28.031125
2390.000000	28.043250
2389.000000	28.058811
2388.000000	28.077640
2387.000000	28.098582
2386.000000	28.120409
2385.000000	28.141846
2384.000000	28.161190
2383.000000	28.177303
2382.000000	28.190600
2381.000000	28.202759
2380.000000	28.215767
2379.000000	28.231480
2378.000000	28.251948
2377.000000	28.278515
2376.000000	28.310720
2375.000000	28.346532
2374.000000	28.383442
2373.000000	28.419136
2372.000000	28.451168
2371.000000	28.477794
2370.000000	28.498993
2369.000000	28.516440
2368.000000	28.532155
2367.000000	28.548457
2366.000000	28.568210
2365.000000	28.593232
2364.000000	28.623031
2363.000000	28.655930
2362.000000	28.689832
2361.000000	28.722760
2360.000000	28.753082
2359.000000	28.778468
2358.000000	28.798255
2357.000000	28.814307
2356.000000	28.829303
2355.000000	28.847451
2354.000000	28.871864
2353.000000	28.904723
2352.000000	28.943558
2351.000000	28.982618
2350.000000	29.017666
2349.000000	29.045556
2348.000000	29.067240
2347.000000	29.087379
2346.000000	29.113384
2345.000000	29.149524
2344.000000	29.188449
2343.000000	29.222372
2342.000000	29.248793
2341.000000	29.273853
2340.000000	29.302433
2339.000000	29.334638
2338.000000	29.369879
2337.000000	29.405494
2336.000000	29.438937
2335.000000	29.466447
2334.000000	29.488684
2333.000000	29.507399
2332.000000	29.527083
2331.000000	29.549024
2330.000000	29.576720
2329.000000	29.607591
2328.000000	29.641405
2327.000000	29.675048
2326.000000	29.709238
2325.000000	29.744365
2324.000000	29.779603
2323.000000	29.814334
2322.000000	29.846743
2321.000000	29.876208
2320.000000	29.902611
2319.000000	29.926758
2318.000000	29.951725
2317.000000	29.978299
2316.000000	30.008457
2315.000000	30.041570
2314.000000	30.079391
2313.000000	30.119233
2312.000000	30.158858
2311.000000	30.193529
2310.000000	30.223017
2309.000000	30.247016
2308.000000	30.268207
2307.000000	30.288374
2306.000000	30.311133
2305.000000	30.337852
2304.000000	30.369396
2303.000000	30.404467
2302.000000	30.442297
2301.000000	30.480029
2300.000000	30.515188
2299.000000	30.545088
2298.000000	30.570074
2297.000000	30.590807
2296.000000	30.609262
2295.000000	30.627075
2294.000000	30.646982
2293.000000	30.670686
2292.000000	30.698848
2291.000000	30.730894
2290.000000	30.765673
2289.000000	30.801169
2288.000000	30.834601
2287.000000	30.863909
2286.000000	30.888450
2285.000000	30.908891
2284.000000	30.926318
2283.000000	30.942568
2282.000000	30.959892
2281.000000	30.980340
2280.000000	31.004828
2279.000000	31.033363
2278.000000	31.065077
2277.000000	31.098055
2276.000000	31.129764
2275.000000	31.158104
2274.000000	31.182334
2273.000000	31.202698
2272.000000	31.220331
2271.000000	31.237162
2270.000000	31.255446
2269.000000	31.276622
2268.000000	31.300966
2267.000000	31.328108
2266.000000	31.357242
2265.000000	31.386642
2264.000000	31.414037
2263.000000	31.437887
2262.000000	31.458105
2261.000000	31.475583
2260.000000	31.491550
2259.000000	31.507741
2258.000000	31.525879
2257.000000	31.546750
2256.000000	31.569772
2255.000000	31.593714
2254.000000	31.617306
2253.000000	31.638971
2252.000000	31.656961
2251.000000	31.670025
2250.000000	31.678088
2249.000000	31.681960
2248.000000	31.683241
2247.000000	31.683748
2246.000000	31.685195
2245.000000	31.688056
2244.000000	31.691498
2243.000000	31.693982
2242.000000	31.693443
2241.000000	31.687304
2240.000000	31.673230
2239.000000	31.650599
2238.000000	31.620979
2237.000000	31.587312
2236.000000	31.553059
2235.000000	31.521779
2234.000000	31.496634
2233.000000	31.479560
2232.000000	31.471093
2231.000000	31.470703
2230.000000	31.476741
2229.000000	31.486193
2228.000000	31.495542
2227.000000	31.502554
2226.000000	31.506938
2225.000000	31.509550
2224.000000	31.511639
2223.000000	31.514838
2222.000000	31.520817
2221.000000	31.530250
2220.000000	31.542470
2219.000000	31.556087
2218.000000	31.569377
2217.000000	31.580030
2216.000000	31.585569
2215.000000	31.584760
2214.000000	31.578398
2213.000000	31.568744
2212.000000	31.558635
2211.000000	31.551056
2210.000000	31.548514
2209.000000	31.552200
2208.000000	31.561709
2207.000000	31.575475
2206.000000	31.590966
2205.000000	31.604829
2204.000000	31.614043
2203.000000	31.617499
2202.000000	31.616184
2201.000000	31.612022
2200.000000	31.607265
2199.000000	31.604777
2198.000000	31.607513
2197.000000	31.616887
2196.000000	31.631991
2195.000000	31.650502
2194.000000	31.669705
2193.000000	31.686605
2192.000000	31.698316
2191.000000	31.703277
2190.000000	31.702020
2189.000000	31.696632
2188.000000	31.689929
2187.000000	31.685071
2186.000000	31.684945
2185.000000	31.691076
2184.000000	31.703100
2183.000000	31.719243
2182.000000	31.736865
2181.000000	31.752672
2180.000000	31.763453
2179.000000	31.767367
2178.000000	31.764587
2177.000000	31.756958
2176.000000	31.747619
2175.000000	31.740703
2174.000000	31.740235
2173.000000	31.748393
2172.000000	31.764659
2171.000000	31.786521
2170.000000	31.810464
2169.000000	31.832666
2168.000000	31.849880
2167.000000	31.860476
2166.000000	31.864748
2165.000000	31.864571
2164.000000	31.863127
2163.000000	31.864454
2162.000000	31.872078
2161.000000	31.887617
2160.000000	31.910745
2159.000000	31.940075
2158.000000	31.973230
2157.000000	32.006491
2156.000000	32.035780
2155.000000	32.058615
2154.000000	32.074792
2153.000000	32.085487
2152.000000	32.092776
2151.000000	32.099897
2150.000000	32.110669
2149.000000	32.127821
2148.000000	32.151959
2147.000000	32.181901
2146.000000	32.215258
2145.000000	32.248703
2144.000000	32.278776
2143.000000	32.303212
2142.000000	32.321383
2141.000000	32.333866
2140.000000	32.342449
2139.000000	32.350342
2138.000000	32.361183
2137.000000	32.377346
2136.000000	32.399420
2135.000000	32.426958
2134.000000	32.458705
2133.000000	32.492180
2132.000000	32.524213
2131.000000	32.552476
2130.000000	32.576194
2129.000000	32.595798
2128.000000	32.612778
2127.000000	32.629793
2126.000000	32.649842
2125.000000	32.674740
2124.000000	32.704592
2123.000000	32.738398
2122.000000	32.774377
2121.000000	32.809800
2120.000000	32.841687
2119.000000	32.868313
2118.000000	32.889777
2117.000000	32.907382
2116.000000	32.923075
2115.000000	32.939249
2114.000000	32.958225
2113.000000	32.981528
2112.000000	33.009701
2111.000000	33.042260
2110.000000	33.077195
2109.000000	33.110991
2108.000000	33.140215
2107.000000	33.163275
2106.000000	33.180442
2105.000000	33.192995
2104.000000	33.203233
2103.000000	33.214544
2102.000000	33.230210
2101.000000	33.251732
2100.000000	33.278628
2099.000000	33.309349
2098.000000	33.341342
2097.000000	33.371147
2096.000000	33.395359
2095.000000	33.412040
2094.000000	33.421319
2093.000000	33.425003
2092.000000	33.425953
2091.000000	33.427251
2090.000000	33.431216
2089.000000	33.439195
2088.000000	33.452243
2087.000000	33.471094
2086.000000	33.494760
2085.000000	33.519952
2084.000000	33.542889
2083.000000	33.561549
2082.000000	33.575881
2081.000000	33.586909
2080.000000	33.596482
2079.000000	33.607363
2078.000000	33.622120
2077.000000	33.642259
2076.000000	33.668161
2075.000000	33.699237
2074.000000	33.733830
2073.000000	33.769057
2072.000000	33.802591
2071.000000	33.833541
2070.000000	33.861475
2069.000000	33.886422
2068.000000	33.910593
2067.000000	33.938188
2066.000000	33.971631
2065.000000	34.009182
2064.000000	34.047880
2063.000000	34.087440
2062.000000	34.128907
2061.000000	34.170791
2060.000000	34.209203
2059.000000	34.241569
2058.000000	34.268455
2057.000000	34.292160
2056.000000	34.315439
2055.000000	34.341487
2054.000000	34.373221
2053.000000	34.411493
2052.000000	34.455328
2051.000000	34.503189
2050.000000	34.552673
2049.000000	34.600117
2048.000000	34.642417
2047.000000	34.678427
2046.000000	34.708463
2045.000000	34.734129
2044.000000	34.759133
2043.000000	34.788274
2042.000000	34.824188
2041.000000	34.866273
2040.000000	34.913474
2039.000000	34.966296
2038.000000	35.024537
2037.000000	35.084675
2036.000000	35.141648
2035.000000	35.192409
2034.000000	35.236761
2033.000000	35.276188
2032.000000	35.313318
2031.000000	35.351882
2030.000000	35.395275
2029.000000	35.444894
2028.000000	35.500978
2027.000000	35.563035
2026.000000	35.629644
2025.000000	35.697557
2024.000000	35.763603
2023.000000	35.825792
2022.000000	35.882621
2021.000000	35.934224
2020.000000	35.984398
2019.000000	36.038449
2018.000000	36.097409
2017.000000	36.156898
2016.000000	36.213701
2015.000000	36.270683
2014.000000	36.332463
2013.000000	36.399088
2012.000000	36.466687
2011.000000	36.532154
2010.000000	36.595090
2009.000000	36.656454
2008.000000	36.717930
2007.000000	36.781684
2006.000000	36.849901
2005.000000	36.923048
2004.000000	37.000474
2003.000000	37.081011
2002.000000	37.161951
2001.000000	37.240162
2000.000000	37.312769
1999.000000	37.379852
1998.000000	37.442188
1997.000000	37.498778
1996.000000	37.551096
1995.000000	37.607310
1994.000000	37.676361
1993.000000	37.757627
1992.000000	37.840675
1991.000000	37.917536
1990.000000	37.990486
1989.000000	38.063953
1988.000000	38.135614
1987.000000	38.199110
1986.000000	38.251982
1985.000000	38.298022
1984.000000	38.343171
1983.000000	38.391428
1982.000000	38.444158
1981.000000	38.502280
1980.000000	38.565626
1979.000000	38.633754
1978.000000	38.704369
1977.000000	38.772802
1976.000000	38.834904
1975.000000	38.890002
1974.000000	38.939573
1973.000000	38.983965
1972.000000	39.023273
1971.000000	39.060998
1970.000000	39.103919
1969.000000	39.157111
1968.000000	39.219015
1967.000000	39.280964
1966.000000	39.334345
1965.000000	39.379346
1964.000000	39.423674
1963.000000	39.472651
1962.000000	39.523689
1961.000000	39.570610
1960.000000	39.611975
1959.000000	39.652552
1958.000000	39.697144
1957.000000	39.747011
1956.000000	39.801236
1955.000000	39.857346
1954.000000	39.911109
1953.000000	39.958464
1952.000000	40.000026
1951.000000	40.037844
1950.000000	40.073004
1949.000000	40.108247
1948.000000	40.146859
1947.000000	40.188686
1946.000000	40.231576
1945.000000	40.278476
1944.000000	40.336557
1943.000000	40.403338
1942.000000	40.462102
1941.000000	40.501956
1940.000000	40.532255
1939.000000	40.566446
1938.000000	40.604251
1937.000000	40.637014
1936.000000	40.663830
1935.000000	40.693993
1934.000000	40.733911
1933.000000	40.780879
1932.000000	40.832419
1931.000000	40.887451
1930.000000	40.943600
1929.000000	40.996970
1928.000000	41.041889
1927.000000	41.076770
1926.000000	41.104001
1925.000000	41.133952
1924.000000	41.173795
1923.000000	41.211603
1922.000000	41.228783
1921.000000	41.230899
1920.000000	41.246169
1919.000000	41.292043
1918.000000	41.353401
1917.000000	41.405019
1916.000000	41.446133
1915.000000	41.492217
1914.000000	41.544807
1913.000000	41.592271
1912.000000	41.632186
1911.000000	41.672791
1910.000000	41.716988
1909.000000	41.757068
1908.000000	41.788246
1907.000000	41.819124
1906.000000	41.854897
1905.000000	41.893457
1904.000000	41.931819
1903.000000	41.968282
1902.000000	42.003144
1901.000000	42.036992
1900.000000	42.070835
1899.000000	42.108448
1898.000000	42.151274
1897.000000	42.199874
1896.000000	42.253007
1895.000000	42.300465
1894.000000	42.328254
1893.000000	42.336478
1892.000000	42.343124
1891.000000	42.364234
1890.000000	42.393538
1889.000000	42.411759
1888.000000	42.419963
1887.000000	42.440692
1886.000000	42.484756
1885.000000	42.540591
1884.000000	42.593320
1883.000000	42.638316
1882.000000	42.678483
1881.000000	42.714588
1880.000000	42.744425
1879.000000	42.769234
1878.000000	42.789933
1877.000000	42.806080
1876.000000	42.823288
1875.000000	42.847389
1874.000000	42.873096
1873.000000	42.891067
1872.000000	42.904678
1871.000000	42.930810
1870.000000	42.980427
1869.000000	43.039723
1868.000000	43.081437
1867.000000	43.101296
1866.000000	43.117508
1865.000000	43.140318
1864.000000	43.169023
1863.000000	43.202285
1862.000000	43.237206
1861.000000	43.269476
1860.000000	43.298524
1859.000000	43.326800
1858.000000	43.352632
1857.000000	43.371440
1856.000000	43.384889
1855.000000	43.400546
1854.000000	43.420745
1853.000000	43.441301
1852.000000	43.457576
1851.000000	43.478226
1850.000000	43.508909
1849.000000	43.535829
1848.000000	43.541499
1847.000000	43.528854
1846.000000	43.516785
1845.000000	43.513462
1844.000000	43.508172
1843.000000	43.494381
1842.000000	43.489720
1841.000000	43.512708
1840.000000	43.561603
1839.000000	43.622932
1838.000000	43.678801
1837.000000	43.719543
1836.000000	43.745581
1835.000000	43.756293
1834.000000	43.746238
1833.000000	43.714779
1832.000000	43.678028
1831.000000	43.661187
1830.000000	43.654638
1829.000000	43.621056
1828.000000	43.570977
1827.000000	43.553939
1826.000000	43.586810
1825.000000	43.639239
1824.000000	43.678427
1823.000000	43.705879
1822.000000	43.731789
1821.000000	43.744873
1820.000000	43.733226
1819.000000	43.704665
1818.000000	43.669062
1817.000000	43.629949
1816.000000	43.592014
1815.000000	43.564394
1814.000000	43.553735
1813.000000	43.555910
1812.000000	43.567569
1811.000000	43.581268
1810.000000	43.580833
1809.000000	43.562383
1808.000000	43.537109
1807.000000	43.511898
1806.000000	43.479961
1805.000000	43.434474
1804.000000	43.383585
1803.000000	43.342733
1802.000000	43.319695
1801.000000	43.304079
1800.000000	43.291173
1799.000000	43.287775
1798.000000	43.292195
1797.000000	43.288841
1796.000000	43.265195
1795.000000	43.225948
1794.000000	43.185865
1793.000000	43.154145
1792.000000	43.133889
1791.000000	43.124969
1790.000000	43.133489
1789.000000	43.160115
1788.000000	43.190848
1787.000000	43.211492
1786.000000	43.211974
1785.000000	43.187077
1784.000000	43.143198
1783.000000	43.100536
1782.000000	43.079643
1781.000000	43.068074
1780.000000	43.044863
1779.000000	43.013475
1778.000000	42.990380
1777.000000	42.974935
1776.000000	42.952976
1775.000000	42.928083
1774.000000	42.908864
1773.000000	42.873553
1772.000000	42.780294
1771.000000	42.638042
1770.000000	42.515115
1769.000000	42.452756
1768.000000	42.433862
1767.000000	42.424496
1766.000000	42.407602
1765.000000	42.384300
1764.000000	42.363842
1763.000000	42.351287
1762.000000	42.332969
1761.000000	42.281476
1760.000000	42.206907
1759.000000	42.142389
1758.000000	42.101146
1757.000000	42.061569
1756.000000	41.997859
1755.000000	41.929416
1754.000000	41.887633
1753.000000	41.867026
1752.000000	41.841368
1751.000000	41.804840
1750.000000	41.764818
1749.000000	41.724096
1748.000000	41.676451
1747.000000	41.623373
1746.000000	41.574553
1745.000000	41.523477
1744.000000	41.460663
1743.000000	41.384736
1742.000000	41.302003
1741.000000	41.224690
1740.000000	41.159147
1739.000000	41.086895
1738.000000	40.990334
1737.000000	40.884791
1736.000000	40.794054
1735.000000	40.721124
1734.000000	40.636333
1733.000000	40.505251
1732.000000	40.370919
1731.000000	40.288930
1730.000000	40.247204
1729.000000	40.196974
1728.000000	40.112566
1727.000000	40.013709
1726.000000	39.913217
1725.000000	39.792663
1724.000000	39.644280
1723.000000	39.473906
1722.000000	39.282159
1721.000000	39.077743
1720.000000	38.896331
1719.000000	38.778087
1718.000000	38.696322
1717.000000	38.561743
1716.000000	38.361401
1715.000000	38.162208
1714.000000	37.992315
1713.000000	37.835257
1712.000000	37.675174
1711.000000	37.506431
1710.000000	37.321118
1709.000000	37.107940
1708.000000	36.878389
1707.000000	36.668652
1706.000000	36.481431
1705.000000	36.273623
1704.000000	36.030886
1703.000000	35.786684
1702.000000	35.538357
1701.000000	35.246920
1700.000000	34.934882
1699.000000	34.681916
1698.000000	34.523870
1697.000000	34.409694
1696.000000	34.237356
1695.000000	33.969753
1694.000000	33.683413
1693.000000	33.442354
1692.000000	33.244038
1691.000000	33.051416
1690.000000	32.824620
1689.000000	32.553845
1688.000000	32.267165
1687.000000	32.004011
1686.000000	31.747425
1685.000000	31.449872
1684.000000	31.078209
1683.000000	30.682308
1682.000000	30.386343
1681.000000	30.191685
1680.000000	30.003115
1679.000000	29.769180
1678.000000	29.492586
1677.000000	29.186236
1676.000000	28.852047
1675.000000	28.511436
1674.000000	28.202085
1673.000000	27.931629
1672.000000	27.685786
1671.000000	27.451657
1670.000000	27.217422
1669.000000	26.969282
1668.000000	26.718362
1667.000000	26.491129
1666.000000	26.279597
1665.000000	26.052359
1664.000000	25.795661
1663.000000	25.521847
1662.000000	25.252251
1661.000000	24.999217
1660.000000	24.767200
1659.000000	24.555694
1658.000000	24.351306
1657.000000	24.136480
1656.000000	23.916654
1655.000000	23.711664
1654.000000	23.520834
1653.000000	23.278751
1652.000000	22.980479
1651.000000	22.721680
1650.000000	22.513136
1649.000000	22.333681
1648.000000	22.174740
1647.000000	22.010728
1646.000000	21.828571
1645.000000	21.649089
1644.000000	21.491420
1643.000000	21.347919
1642.000000	21.210107
1641.000000	21.059281
1640.000000	20.885847
1639.000000	20.711140
1638.000000	20.560651
1637.000000	20.437135
1636.000000	20.321744
1635.000000	20.211078
1634.000000	20.131800
1633.000000	20.088594
1632.000000	20.057551
1631.000000	20.023600
1630.000000	19.982107
1629.000000	19.929340
1628.000000	19.863244
1627.000000	19.789650
1626.000000	19.722519
1625.000000	19.670573
1624.000000	19.640178
1623.000000	19.633432
1622.000000	19.640828
1621.000000	19.649640
1620.000000	19.661070
1619.000000	19.692903
1618.000000	19.756674
1617.000000	19.831680
1616.000000	19.874905
1615.000000	19.884018
1614.000000	19.897246
1613.000000	19.936632
1612.000000	19.998272
1611.000000	20.074050
1610.000000	20.163122
1609.000000	20.260432
1608.000000	20.353251
1607.000000	20.434984
1606.000000	20.510112
1605.000000	20.578689
1604.000000	20.637027
1603.000000	20.690183
1602.000000	20.745599
1601.000000	20.803927
1600.000000	20.864285
1599.000000	20.933359
1598.000000	21.017669
1597.000000	21.112305
1596.000000	21.206462
1595.000000	21.293584
1594.000000	21.371251
1593.000000	21.436100
1592.000000	21.487196
1591.000000	21.531494
1590.000000	21.578332
1589.000000	21.629751
1588.000000	21.684593
1587.000000	21.746891
1586.000000	21.821911
1585.000000	21.905281
1584.000000	21.983499
1583.000000	22.052573
1582.000000	22.113144
1581.000000	22.155022
1580.000000	22.171600
1579.000000	22.184609
1578.000000	22.226935
1577.000000	22.303251
1576.000000	22.372244
1575.000000	22.395893
1574.000000	22.393743
1573.000000	22.398671
1572.000000	22.421876
1571.000000	22.464120
1570.000000	22.519490
1569.000000	22.562388
1568.000000	22.575620
1567.000000	22.580499
1566.000000	22.598685
1565.000000	22.625809
1564.000000	22.642309
1563.000000	22.638307
1562.000000	22.628580
1561.000000	22.619787
1560.000000	22.661477
1559.000000	22.782713
1558.000000	22.853874
1557.000000	22.888723
1556.000000	22.959529
1555.000000	23.042087
1554.000000	23.121589
1553.000000	23.179954
1552.000000	23.233151
1551.000000	23.310878
1550.000000	23.418300
1549.000000	23.527200
1548.000000	23.613404
1547.000000	23.683789
1546.000000	23.759306
1545.000000	23.844836
1544.000000	23.918669
1543.000000	23.973653
1542.000000	24.049176
1541.000000	24.207225
1540.000000	24.428895
1539.000000	24.618726
1538.000000	24.753184
1537.000000	24.854588
1536.000000	24.949089
1535.000000	25.077856
1534.000000	25.259505
1533.000000	25.455145
1532.000000	25.619068
1531.000000	25.760732
1530.000000	25.899957
1529.000000	26.047648
1528.000000	26.216226
1527.000000	26.411816
1526.000000	26.623013
1525.000000	26.826576
1524.000000	27.023358
1523.000000	27.249810
1522.000000	27.526957
1521.000000	27.793392
1520.000000	27.982147
1519.000000	28.134257
1518.000000	28.332616
1517.000000	28.597325
1516.000000	28.874255
1515.000000	29.128658
1514.000000	29.386756
1513.000000	29.665795
1512.000000	29.949566
1511.000000	30.204990
1510.000000	30.428403
1509.000000	30.656588
1508.000000	30.955923
1507.000000	31.313932
1506.000000	31.617101
1505.000000	31.881149
1504.000000	32.148876
1503.000000	32.411511
1502.000000	32.689937
1501.000000	32.977964
1500.000000	33.258842
1499.000000	33.545117
1498.000000	33.862563
1497.000000	34.197211
1496.000000	34.497637
1495.000000	34.731148
1494.000000	34.911923
1493.000000	35.076127
1492.000000	35.266506
1491.000000	35.529330
1490.000000	35.867889
1489.000000	36.221238
1488.000000	36.550595
1487.000000	36.861161
1486.000000	37.153669
1485.000000	37.415815
1484.000000	37.638577
1483.000000	37.844753
1482.000000	38.056163
1481.000000	38.260225
1480.000000	38.437169
1479.000000	38.596637
1478.000000	38.760281
1477.000000	38.927748
1476.000000	39.082265
1475.000000	39.213607
1474.000000	39.325288
1473.000000	39.390185
1472.000000	39.360949
1471.000000	39.246956
1470.000000	39.078820
1469.000000	38.845451
1468.000000	38.543518
1467.000000	38.214886
1466.000000	37.920024
1465.000000	37.685095
1464.000000	37.498045
1463.000000	37.344320
1462.000000	37.188642
1461.000000	36.988240
1460.000000	36.742137
1459.000000	36.487012
1458.000000	36.222675
1457.000000	35.874271
1456.000000	35.446946
1455.000000	35.043766
1454.000000	34.657323
1453.000000	34.196853
1452.000000	33.614491
1451.000000	32.917929
1450.000000	32.113396
1449.000000	31.172080
1448.000000	30.099898
1447.000000	28.968720
1446.000000	27.834944
1445.000000	26.679094
1444.000000	25.474802
1443.000000	24.228423
1442.000000	22.938898
1441.000000	21.608519
1440.000000	20.273666
1439.000000	18.938449
1438.000000	17.494085
1437.000000	15.852505
1436.000000	14.190394
1435.000000	12.793255
1434.000000	11.681930
1433.000000	10.708082
1432.000000	9.822947
1431.000000	9.076919
1430.000000	8.490163
1429.000000	8.045167
1428.000000	7.769884
1427.000000	7.695320
1426.000000	7.788315
1425.000000	8.007848
1424.000000	8.360350
1423.000000	8.832441
1422.000000	9.359198
1421.000000	9.924517
1420.000000	10.611636
1419.000000	11.459831
1418.000000	12.335116
1417.000000	13.114642
1416.000000	13.840030
1415.000000	14.580464
1414.000000	15.327991
1413.000000	16.054720
1412.000000	16.777574
1411.000000	17.519118
1410.000000	18.256049
1409.000000	18.963739
1408.000000	19.665509
1407.000000	20.398024
1406.000000	21.170749
1405.000000	21.970112
1404.000000	22.770403
1403.000000	23.533159
1402.000000	24.233451
1401.000000	24.899796
1400.000000	25.589751
1399.000000	26.307801
1398.000000	27.000098
1397.000000	27.658529
1396.000000	28.348421
1395.000000	29.115071
1394.000000	29.924412
1393.000000	30.716212
1392.000000	31.467610
1391.000000	32.177155
1390.000000	32.844424
1389.000000	33.481225
1388.000000	34.101928
1387.000000	34.692874
1386.000000	35.240149
1385.000000	35.785949
1384.000000	36.399971
1383.000000	37.105545
1382.000000	37.857889
1381.000000	38.588472
1380.000000	39.242511
1379.000000	39.773348
1378.000000	40.144737
1377.000000	40.348478
1376.000000	40.388136
1375.000000	40.249159
1374.000000	39.911204
1373.000000	39.394885
1372.000000	38.761677
1371.000000	38.060418
1370.000000	37.325409
1369.000000	36.601323
1368.000000	35.938233
1367.000000	35.374859
1366.000000	34.938550
1365.000000	34.667705
1364.000000	34.628788
1363.000000	34.897539
1362.000000	35.507300
1361.000000	36.426387
1360.000000	37.574639
1359.000000	38.847448
1358.000000	40.140768
1357.000000	41.364308
1356.000000	42.439210
1355.000000	43.296815
1354.000000	43.888270
1353.000000	44.196785
1352.000000	44.230533
1351.000000	43.999603
1350.000000	43.517580
1349.000000	42.806987
1348.000000	41.888635
1347.000000	40.777319
1346.000000	39.483505
1345.000000	38.020031
1344.000000	36.410624
1343.000000	34.684631
1342.000000	32.864861
1341.000000	30.967549
1340.000000	29.025188
1339.000000	27.109762
1338.000000	25.305519
1337.000000	23.653844
1336.000000	22.147613
1335.000000	20.771864
1334.000000	19.531426
1333.000000	18.458325
1332.000000	17.603376
1331.000000	17.004825
1330.000000	16.641582
1329.000000	16.411433
1328.000000	16.170707
1327.000000	15.797204
1326.000000	15.228473
1325.000000	14.468769
1324.000000	13.574226
1323.000000	12.619184
1322.000000	11.656592
1321.000000	10.704081
1320.000000	9.765038
1319.000000	8.853235
1318.000000	7.993772
1317.000000	7.215974
1316.000000	6.554670
1315.000000	6.043529
1314.000000	5.689652
1313.000000	5.466505
1312.000000	5.335728
1311.000000	5.263204
1310.000000	5.220809
1309.000000	5.189851
1308.000000	5.173632
1307.000000	5.193152
1306.000000	5.263337
1305.000000	5.387918
1304.000000	5.573062
1303.000000	5.828295
1302.000000	6.151520
1301.000000	6.527013
1300.000000	6.942706
1299.000000	7.393318
1298.000000	7.867830
1297.000000	8.349913
1296.000000	8.830058
1295.000000	9.306101
1294.000000	9.771374
1293.000000	10.214301
1292.000000	10.628924
1291.000000	11.014174
1290.000000	11.360951
1289.000000	11.651550
1288.000000	11.873670
1287.000000	12.028797
1286.000000	12.132759
1285.000000	12.215544
1284.000000	12.317788
1283.000000	12.473623
1282.000000	12.691128
1281.000000	12.955982
1280.000000	13.252679
1279.000000	13.573108
1278.000000	13.909206
1277.000000	14.252123
1276.000000	14.598830
1275.000000	14.950898
1274.000000	15.306105
1273.000000	15.657580
1272.000000	16.000285
1271.000000	16.331226
1270.000000	16.644676
1269.000000	16.934973
1268.000000	17.204158
1267.000000	17.460274
1266.000000	17.709537
1265.000000	17.955581
1264.000000	18.204360
1263.000000	18.462699
1262.000000	18.730994
1261.000000	19.003056
1260.000000	19.272231
1259.000000	19.533049
1258.000000	19.779261
1257.000000	20.006412
1256.000000	20.216782
1255.000000	20.417675
1254.000000	20.615788
1253.000000	20.816498
1252.000000	21.025933
1251.000000	21.248465
1250.000000	21.482239
1249.000000	21.720333
1248.000000	21.955850
1247.000000	22.183348
1246.000000	22.397282
1245.000000	22.593722
1244.000000	22.773941
1243.000000	22.944070
1242.000000	23.111575
1241.000000	23.283683
1240.000000	23.467109
1239.000000	23.665279
1238.000000	23.875678
1237.000000	24.091507
1236.000000	24.305242
1235.000000	24.509717
1234.000000	24.698291
1233.000000	24.867515
1232.000000	25.019654
1231.000000	25.161633
1230.000000	25.302121
1229.000000	25.449660
1228.000000	25.611376
1227.000000	25.790522
1226.000000	25.984828
1225.000000	26.187948
1224.000000	26.392033
1223.000000	26.589146
1222.000000	26.772729
1221.000000	26.939999
1220.000000	27.093129
1219.000000	27.238048
1218.000000	27.382520
1217.000000	27.534590
1216.000000	27.700503
1215.000000	27.882393
1214.000000	28.077527
1213.000000	28.279438
1212.000000	28.479523
1211.000000	28.668819
1210.000000	28.841118
1209.000000	28.995401
1208.000000	29.135436
1207.000000	29.268032
1206.000000	29.401886
1205.000000	29.546124
1204.000000	29.707229
1203.000000	29.886519
1202.000000	30.080371
1201.000000	30.281589
1200.000000	30.480333
1199.000000	30.666020
1198.000000	30.830970
1197.000000	30.973077
1196.000000	31.094920
1195.000000	31.202405
1194.000000	31.303648
1193.000000	31.405580
1192.000000	31.509819
1191.000000	31.610847
1190.000000	31.699264
1189.000000	31.764975
1188.000000	31.798217
1187.000000	31.793109
1186.000000	31.751318
1185.000000	31.682340
1184.000000	31.599882
1183.000000	31.519569
1182.000000	31.459528
1181.000000	31.439724
1180.000000	31.476973
1179.000000	31.579078
1178.000000	31.742648
1177.000000	31.952545
1176.000000	32.185616
1175.000000	32.417967
1174.000000	32.632917
1173.000000	32.824434
1172.000000	32.993459
1171.000000	33.145316
1170.000000	33.289929
1169.000000	33.439261
1168.000000	33.601379
1167.000000	33.777934
1166.000000	33.966052
1165.000000	34.159130
1164.000000	34.346456
1163.000000	34.516707
1162.000000	34.664646
1161.000000	34.792101
1160.000000	34.903510
1159.000000	35.005434
1158.000000	35.109216
1157.000000	35.228009
1156.000000	35.368921
1155.000000	35.530709
1154.000000	35.708263
1153.000000	35.894083
1152.000000	36.075816
1151.000000	36.239098
1150.000000	36.376095
1149.000000	36.488458
1148.000000	36.581956
1147.000000	36.664095
1146.000000	36.746759
1145.000000	36.843670
1144.000000	36.962415
1143.000000	37.101876
1142.000000	37.257026
1141.000000	37.421019
1140.000000	37.582660
1139.000000	37.728810
1138.000000	37.851785
1137.000000	37.951307
1136.000000	38.030315
1135.000000	38.094724
1134.000000	38.157023
1133.000000	38.232404
1132.000000	38.329073
1131.000000	38.446023
1130.000000	38.578935
1129.000000	38.722366
1128.000000	38.866649
1127.000000	39.000024
1126.000000	39.116282
1125.000000	39.216271
1124.000000	39.302903
1123.000000	39.380896
1122.000000	39.460361
1121.000000	39.552737
1120.000000	39.661773
1119.000000	39.783600
1118.000000	39.914306
1117.000000	40.050588
1116.000000	40.184132
1115.000000	40.304254
1114.000000	40.407791
1113.000000	40.500316
1112.000000	40.587885
1111.000000	40.675261
1110.000000	40.771208
1109.000000	40.885810
1108.000000	41.021219
1107.000000	41.170708
1106.000000	41.326660
1105.000000	41.482477
1104.000000	41.627594
1103.000000	41.750321
1102.000000	41.848285
1101.000000	41.928807
1100.000000	42.000810
1099.000000	42.072422
1098.000000	42.155567
1097.000000	42.263311
1096.000000	42.398652
1095.000000	42.553963
1094.000000	42.720018
1093.000000	42.888251
1092.000000	43.045559
1091.000000	43.178087
1090.000000	43.282505
1089.000000	43.366551
1088.000000	43.439454
1087.000000	43.510647
1086.000000	43.595525
1085.000000	43.710476
1084.000000	43.859868
1083.000000	44.035273
1082.000000	44.226798
1081.000000	44.425921
1080.000000	44.619165
1079.000000	44.791602
1078.000000	44.939210
1077.000000	45.068858
1076.000000	45.186674
1075.000000	45.296339
1074.000000	45.406532
1073.000000	45.528005
1072.000000	45.659593
1071.000000	45.786730
1070.000000	45.892599
1069.000000	45.958821
1068.000000	45.959833
1067.000000	45.866946
1066.000000	45.665458
1065.000000	45.362925
1064.000000	44.983725
1063.000000	44.570631
1062.000000	44.185458
1061.000000	43.891178
1060.000000	43.724868
1059.000000	43.689930
1058.000000	43.765766
1057.000000	43.918256
1056.000000	44.105085
1055.000000	44.285817
1054.000000	44.437619
1053.000000	44.554594
1052.000000	44.635215
1051.000000	44.678896
1050.000000	44.692099
1049.000000	44.682622
1048.000000	44.647413
1047.000000	44.574175
1046.000000	44.454715
1045.000000	44.290215
1044.000000	44.085971
1043.000000	43.856042
1042.000000	43.633065
1041.000000	43.463002
1040.000000	43.385424
1039.000000	43.425517
1038.000000	43.595096
1037.000000	43.889209
1036.000000	44.282455
1035.000000	44.733828
1034.000000	45.204572
1033.000000	45.664741
1032.000000	46.086911
1031.000000	46.448790
1030.000000	46.744374
1029.000000	46.983924
1028.000000	47.181786
1027.000000	47.353396
1026.000000	47.519956
1025.000000	47.703167
1024.000000	47.910352
1023.000000	48.133606
1022.000000	48.363646
1021.000000	48.592947
1020.000000	48.808432
1019.000000	48.994555
1018.000000	49.147209
1017.000000	49.275087
1016.000000	49.387278
1015.000000	49.491439
1014.000000	49.601358
1013.000000	49.731992
1012.000000	49.885246
1011.000000	50.050411
1010.000000	50.218006
1009.000000	50.382495
1008.000000	50.533783
1007.000000	50.660774
1006.000000	50.765262
1005.000000	50.861314
1004.000000	50.961018
1003.000000	51.071347
1002.000000	51.202300
1001.000000	51.363460
1000.000000	51.550400
999.000000	51.745161
998.000000	51.931142
997.000000	52.097863
996.000000	52.233598
995.000000	52.328622
994.000000	52.388415
993.000000	52.432381
992.000000	52.479319
991.000000	52.543639
990.000000	52.641684
989.000000	52.786282
988.000000	52.972735
987.000000	53.180557
986.000000	53.389106
985.000000	53.582075
984.000000	53.740305
983.000000	53.846767
982.000000	53.902369
981.000000	53.925815
980.000000	53.937985
979.000000	53.957181
978.000000	54.005123
977.000000	54.100688
976.000000	54.244569
975.000000	54.420493
974.000000	54.611293
973.000000	54.802896
972.000000	54.975747
971.000000	55.109190
970.000000	55.197892
969.000000	55.252958
968.000000	55.287545
967.000000	55.313944
966.000000	55.351162
965.000000	55.418297
964.000000	55.518417
963.000000	55.639761
962.000000	55.771629
961.000000	55.907064
960.000000	56.032725
959.000000	56.133152
958.000000	56.207178
957.000000	56.267533
956.000000	56.324423
955.000000	56.382419
954.000000	56.450956
953.000000	56.540718
952.000000	56.648174
951.000000	56.757154
950.000000	56.855914
949.000000	56.940357
948.000000	57.003119
947.000000	57.036650
946.000000	57.048705
945.000000	57.060063
944.000000	57.086634
943.000000	57.135912
942.000000	57.216911
941.000000	57.335872
940.000000	57.480891
939.000000	57.625313
938.000000	57.747481
937.000000	57.835817
936.000000	57.878797
935.000000	57.868784
934.000000	57.818269
933.000000	57.756720
932.000000	57.709418
931.000000	57.691658
930.000000	57.718449
929.000000	57.800358
928.000000	57.927478
927.000000	58.071921
926.000000	58.207552
925.000000	58.315170
924.000000	58.373401
923.000000	58.364821
922.000000	58.294344
921.000000	58.187668
920.000000	58.070413
919.000000	57.961708
918.000000	57.883082
917.000000	57.852877
916.000000	57.869327
915.000000	57.911698
914.000000	57.958462
913.000000	57.992351
912.000000	57.990764
911.000000	57.931554
910.000000	57.811410
909.000000	57.645850
908.000000	57.451867
907.000000	57.242839
906.000000	57.037363
905.000000	56.853143
904.000000	56.690136
903.000000	56.533466
902.000000	56.370191
901.000000	56.191474
900.000000	55.982141
899.000000	55.725611
898.000000	55.421389
897.000000	55.082022
896.000000	54.716094
895.000000	54.326705
894.000000	53.921506
893.000000	53.509414
892.000000	53.085697
891.000000	52.635291
890.000000	52.148413
889.000000	51.620074
888.000000	51.041302
887.000000	50.404225
886.000000	49.716081
885.000000	48.994583
884.000000	48.249812
883.000000	47.484242
882.000000	46.702586
881.000000	45.908490
880.000000	45.093505
879.000000	44.240171
878.000000	43.337370
877.000000	42.382234
876.000000	41.373722
875.000000	40.316510
874.000000	39.227548
873.000000	38.130601
872.000000	37.045004
871.000000	35.984726
870.000000	34.961181
869.000000	33.978979
868.000000	33.031875
867.000000	32.108960
866.000000	31.202536
865.000000	30.306692
864.000000	29.415993
863.000000	28.529574
862.000000	27.654420
861.000000	26.801779
860.000000	25.981687
859.000000	25.204113
858.000000	24.477402
857.000000	23.803677
856.000000	23.179770
855.000000	22.601011
854.000000	22.064070
853.000000	21.564297
852.000000	21.096357
851.000000	20.659888
850.000000	20.257839
849.000000	19.893007
848.000000	19.567537
847.000000	19.285161
846.000000	19.050779
845.000000	18.864631
844.000000	18.724354
843.000000	18.630029
842.000000	18.582540
841.000000	18.580790
840.000000	18.622676
839.000000	18.712489
838.000000	18.859786
837.000000	19.070544
836.000000	19.348122
835.000000	19.698794
834.000000	20.130717
833.000000	20.642118
832.000000	21.213995
831.000000	21.800915
830.000000	22.307836
829.000000	22.567782
828.000000	22.379972
827.000000	21.618237
826.000000	20.302365
825.000000	18.578691
824.000000	16.676552
823.000000	14.923055
822.000000	13.725954
821.000000	13.413141
820.000000	14.017740
819.000000	15.239492
818.000000	16.657715
817.000000	17.979779
816.000000	19.115970
815.000000	20.085971
814.000000	20.927579
813.000000	21.678696
812.000000	22.375800
811.000000	23.039961
810.000000	23.675495
809.000000	24.287143
808.000000	24.880647
807.000000	25.450416
806.000000	25.982782
805.000000	26.474580
804.000000	26.934685
803.000000	27.368726
802.000000	27.778897
801.000000	28.174223
800.000000	28.566957
799.000000	28.960333
798.000000	29.351384
797.000000	29.742826
796.000000	30.139219
795.000000	30.535942
794.000000	30.923919
793.000000	31.301017
792.000000	31.668773
791.000000	32.023905
790.000000	32.364693
789.000000	32.700124
788.000000	33.041665
787.000000	33.390862
786.000000	33.743797
785.000000	34.100796
784.000000	34.461773
783.000000	34.818191
782.000000	35.159806
781.000000	35.484323
780.000000	35.792776
779.000000	36.083218
778.000000	36.357960
777.000000	36.629904
776.000000	36.912006
775.000000	37.205837
774.000000	37.507337
773.000000	37.815268
772.000000	38.125721
771.000000	38.426388
770.000000	38.705592
769.000000	38.961372
768.000000	39.195146
767.000000	39.405753
766.000000	39.597689
765.000000	39.786070
764.000000	39.984803
763.000000	40.196301
762.000000	40.418706
761.000000	40.653355
760.000000	40.897176
759.000000	41.137226
758.000000	41.361132
757.000000	41.565371
756.000000	41.747764
755.000000	41.903103
754.000000	42.034823
753.000000	42.160602
752.000000	42.297657
751.000000	42.450466
750.000000	42.618236
749.000000	42.803207
748.000000	43.003178
747.000000	43.206099
746.000000	43.400611
745.000000	43.583728
744.000000	43.752512
743.000000	43.899975
742.000000	44.026961
741.000000	44.147150
740.000000	44.272269
739.000000	44.402270
738.000000	44.535858
737.000000	44.677924
736.000000	44.828625
735.000000	44.976566
734.000000	45.111398
733.000000	45.232604
732.000000	45.339497
731.000000	45.425402
730.000000	45.489879
729.000000	45.544251
728.000000	45.596965
727.000000	45.645073
726.000000	45.686265
725.000000	45.726533
724.000000	45.768791
723.000000	45.806663
722.000000	45.837364
721.000000	45.868453
720.000000	45.904222
719.000000	45.939556
718.000000	45.976105
717.000000	46.030232
716.000000	46.114812
715.000000	46.225918
714.000000	46.355884
713.000000	46.505044
712.000000	46.670612
711.000000	46.837799
710.000000	46.993730
709.000000	47.138117
708.000000	47.271667
707.000000	47.388606
706.000000	47.490072
705.000000	47.590787
704.000000	47.702419
703.000000	47.822249
702.000000	47.946755
701.000000	48.082030
700.000000	48.229728
699.000000	48.378602
698.000000	48.521131
697.000000	48.663929
696.000000	48.812055
695.000000	48.957684
694.000000	49.094978
693.000000	49.230738
692.000000	49.368096
691.000000	49.497364
690.000000	49.614704
689.000000	49.732910
688.000000	49.860887
687.000000	49.987843
686.000000	50.102511
685.000000	50.210039
684.000000	50.315408
683.000000	50.410557
682.000000	50.492988
681.000000	50.577486
680.000000	50.674079
679.000000	50.773162
678.000000	50.867357
677.000000	50.965369
676.000000	51.069146
675.000000	51.167210
674.000000	51.254047
673.000000	51.331693
672.000000	51.392927
671.000000	51.432250
670.000000	51.478870
669.000000	51.606703
668.000000	51.852885
667.000000	52.080145
666.000000	52.165456
665.000000	52.173948
664.000000	52.199402
663.000000	52.265885
662.000000	52.353872
661.000000	52.438728
660.000000	52.509666
659.000000	52.563828
658.000000	52.607164
657.000000	52.654883
656.000000	52.716682
655.000000	52.793084
654.000000	52.885244
653.000000	52.995466
652.000000	53.120221
651.000000	53.249052
650.000000	53.373140
649.000000	53.488197
648.000000	53.587277
647.000000	53.662223
646.000000	53.715157
645.000000	53.758985
644.000000	53.802659
643.000000	53.846784
642.000000	53.896997
641.000000	53.966472
640.000000	54.060156
639.000000	54.169270
638.000000	54.285176
637.000000	54.405916
636.000000	54.525392
635.000000	54.630024
634.000000	54.713675
633.000000	54.783403
632.000000	54.844533
631.000000	54.894321
630.000000	54.936834
629.000000	54.987871
628.000000	55.057537
627.000000	55.141917
626.000000	55.236401
625.000000	55.343948
624.000000	55.463208
623.000000	55.583266
622.000000	55.697664
621.000000	55.809674
620.000000	55.919479
619.000000	56.021020
618.000000	56.116459
617.000000	56.217196
616.000000	56.324170
615.000000	56.424991
614.000000	56.515048
613.000000	56.602802
612.000000	56.689450
611.000000	56.763137
610.000000	56.819214
609.000000	56.864110
608.000000	56.892062
607.000000	56.874765
606.000000	56.780724
605.000000	56.576501
604.000000	56.195374
603.000000	55.524075
602.000000	54.412366
601.000000	52.704088
600.000000	50.291046
599.000000	47.203427
598.000000	43.664902
597.000000	40.027933
596.000000	36.680677
595.000000	34.002446
594.000000	32.309058
593.000000	31.757080
592.000000	32.299872
591.000000	33.690165
590.000000	35.547003
589.000000	37.518776
588.000000	39.394195
587.000000	41.094061
586.000000	42.602564
585.000000	43.926113
584.000000	45.080398
583.000000	46.084285
582.000000	46.962583
581.000000	47.747432
580.000000	48.465059
579.000000	49.123959
578.000000	49.733502
577.000000	50.313094
576.000000	50.868735
575.000000	51.377386
574.000000	51.812303
573.000000	52.173880
572.000000	52.476639
571.000000	52.727472
570.000000	52.935450
569.000000	53.120316
568.000000	53.296916
567.000000	53.465727
566.000000	53.630828
565.000000	53.809724
564.000000	54.008570
563.000000	54.209883
562.000000	54.397605
561.000000	54.575665
560.000000	54.748336
559.000000	54.904069
558.000000	55.037253
557.000000	55.164210
556.000000	55.298339
555.000000	55.428916
554.000000	55.541682
553.000000	55.639151
552.000000	55.724412
551.000000	55.787855
550.000000	55.829328
549.000000	55.870942
548.000000	55.932235
547.000000	56.014178
546.000000	56.119323
545.000000	56.261246
544.000000	56.438427
543.000000	56.622570
542.000000	56.787213
541.000000	56.926510
540.000000	57.032908
539.000000	57.085800
538.000000	57.080526
537.000000	57.044833
536.000000	57.009553
535.000000	56.990751
534.000000	57.009205
533.000000	57.097020
532.000000	57.263561
531.000000	57.477274
530.000000	57.698084
529.000000	57.904583
528.000000	58.076601
527.000000	58.184853
526.000000	58.219890
525.000000	58.205289
524.000000	58.163483
523.000000	58.092832
522.000000	57.999621
521.000000	57.914762
520.000000	57.853344
519.000000	57.788405
518.000000	57.686950
517.000000	57.548687
516.000000	57.389553
515.000000	57.218333
514.000000	57.049499
513.000000	56.905040
512.000000	56.779106
511.000000	56.630030
510.000000	56.429563
509.000000	56.194506
508.000000	55.946652
507.000000	55.675050
506.000000	55.351885
505.000000	54.948481
504.000000	54.425624
503.000000	53.754121
502.000000	52.979551
501.000000	52.219289
500.000000	51.555976
499.000000	50.973922
498.000000	50.414980
497.000000	49.851002
496.000000	49.302233
495.000000	48.837274
494.000000	48.564481
493.000000	48.583827
492.000000	48.906424
491.000000	49.448110
490.000000	50.107146
489.000000	50.816709
488.000000	51.525191
487.000000	52.169986
486.000000	52.702791
485.000000	53.112852
484.000000	53.411486
483.000000	53.630587
482.000000	53.846535
481.000000	54.147426
480.000000	54.550336
479.000000	54.990970
478.000000	55.404899
477.000000	55.785128
476.000000	56.149821
475.000000	56.509274
474.000000	56.894297
473.000000	57.356756
472.000000	57.889023
471.000000	58.406102
470.000000	58.832415
469.000000	59.156698
468.000000	59.384235
467.000000	59.495221
466.000000	59.492664
465.000000	59.438396
464.000000	59.400162
463.000000	59.401444
462.000000	59.444164
461.000000	59.533509
460.000000	59.662655
459.000000	59.815113
458.000000	59.993183
457.000000	60.204512
456.000000	60.410502
455.000000	60.530401
454.000000	60.538046
453.000000	60.503622
452.000000	60.495674
451.000000	60.504702
450.000000	60.498994
449.000000	60.488710
448.000000	60.470479
447.000000	60.372115
446.000000	60.129696
445.000000	59.755166
444.000000	59.262968
443.000000	58.602822
442.000000	57.732552
441.000000	56.692065
440.000000	55.525104
439.000000	54.211903
438.000000	52.748808
437.000000	51.227330
436.000000	49.779978
435.000000	48.481245
434.000000	47.337682
433.000000	46.350269
432.000000	45.567165
431.000000	45.068417
430.000000	44.943831
429.000000	45.283019
428.000000	46.120424
427.000000	47.376533
426.000000	48.888569
425.000000	50.537049
424.000000	52.231422
423.000000	53.773244
422.000000	54.951480
421.000000	55.778504
420.000000	56.462912
419.000000	57.133080
418.000000	57.747161
417.000000	58.338538
416.000000	58.980131
415.000000	59.640838
414.000000	60.286940
413.000000	60.968686
412.000000	61.696520
411.000000	62.318661
410.000000	62.691123
409.000000	62.881586
408.000000	63.018421
407.000000	63.082739
406.000000	63.044682
405.000000	63.060282
404.000000	63.246817
403.000000	63.529635
402.000000	63.607672
401.000000	63.637829
400.000000	63.709658
