PE IR       SUBTECH     SPECTRUM    ASCII       PEDS        4.00        
   -1
23MS002_nitrito.asc
24/09/03
16:56:00.00
24/09/03
16:56:00.00
Administrator
Sample 1101 By Administrator Date Tuesday, September 03 2024
400.000000
#HDR
-1
-1
#GR
cm-1
%T
1.0
0.0
4000.000000
-1.000000
3601
8
85.250154
6.460065
#DATA
4000.000000	70.456775
3999.000000	70.508230
3998.000000	70.559746
3997.000000	70.611319
3996.000000	70.662269
3995.000000	70.711240
3994.000000	70.757893
3993.000000	70.804388
3992.000000	70.853942
3991.000000	70.907574
3990.000000	70.963000
3989.000000	71.017008
3988.000000	71.068310
3987.000000	71.117473
3986.000000	71.165016
3985.000000	71.210757
3984.000000	71.255025
3983.000000	71.299453
3982.000000	71.345792
3981.000000	71.394228
3980.000000	71.443558
3979.000000	71.492813
3978.000000	71.541845
3977.000000	71.590610
3976.000000	71.638469
3975.000000	71.684505
3974.000000	71.728413
3973.000000	71.770765
3972.000000	71.813042
3971.000000	71.856837
3970.000000	71.902882
3969.000000	71.950487
3968.000000	71.997536
3967.000000	72.041754
3966.000000	72.082240
3965.000000	72.120580
3964.000000	72.160187
3963.000000	72.203640
3962.000000	72.250184
3961.000000	72.296343
3960.000000	72.340196
3959.000000	72.383042
3958.000000	72.426851
3957.000000	72.471513
3956.000000	72.514591
3955.000000	72.553997
3954.000000	72.589466
3953.000000	72.623102
3952.000000	72.658771
3951.000000	72.700563
3950.000000	72.751038
3949.000000	72.807789
3948.000000	72.862730
3947.000000	72.908263
3946.000000	72.946152
3945.000000	72.987810
3944.000000	73.042438
3943.000000	73.106205
3942.000000	73.164928
3941.000000	73.209065
3940.000000	73.244551
3939.000000	73.283364
3938.000000	73.328178
3937.000000	73.372151
3936.000000	73.409863
3935.000000	73.445667
3934.000000	73.488580
3933.000000	73.542835
3932.000000	73.604087
3931.000000	73.662619
3930.000000	73.711445
3929.000000	73.750083
3928.000000	73.784734
3927.000000	73.826917
3926.000000	73.884151
3925.000000	73.949769
3924.000000	74.006581
3923.000000	74.044816
3922.000000	74.071770
3921.000000	74.099501
3920.000000	74.133693
3919.000000	74.176812
3918.000000	74.231128
3917.000000	74.293135
3916.000000	74.351001
3915.000000	74.395977
3914.000000	74.432197
3913.000000	74.467890
3912.000000	74.506172
3911.000000	74.544524
3910.000000	74.579617
3909.000000	74.612542
3908.000000	74.647609
3907.000000	74.691806
3906.000000	74.749556
3905.000000	74.816747
3904.000000	74.879346
3903.000000	74.924373
3902.000000	74.957174
3901.000000	74.997702
3900.000000	75.053795
3899.000000	75.111945
3898.000000	75.155998
3897.000000	75.185520
3896.000000	75.212740
3895.000000	75.246040
3894.000000	75.287716
3893.000000	75.340476
3892.000000	75.404116
3891.000000	75.463495
3890.000000	75.496157
3889.000000	75.507972
3888.000000	75.529180
3887.000000	75.578581
3886.000000	75.648933
3885.000000	75.712087
3884.000000	75.748338
3883.000000	75.774626
3882.000000	75.818302
3881.000000	75.882334
3880.000000	75.943804
3879.000000	75.977979
3878.000000	75.989756
3877.000000	76.008164
3876.000000	76.050988
3875.000000	76.112072
3874.000000	76.168343
3873.000000	76.204872
3872.000000	76.236427
3871.000000	76.287306
3870.000000	76.353119
3869.000000	76.398704
3868.000000	76.412634
3867.000000	76.431300
3866.000000	76.479984
3865.000000	76.542758
3864.000000	76.598388
3863.000000	76.642650
3862.000000	76.682244
3861.000000	76.719489
3860.000000	76.752881
3859.000000	76.788373
3858.000000	76.833522
3857.000000	76.888676
3856.000000	76.944169
3855.000000	76.996375
3854.000000	77.068093
3853.000000	77.160119
3852.000000	77.220926
3851.000000	77.241671
3850.000000	77.260714
3849.000000	77.284599
3848.000000	77.302869
3847.000000	77.317415
3846.000000	77.339235
3845.000000	77.375872
3844.000000	77.428371
3843.000000	77.488872
3842.000000	77.549528
3841.000000	77.611321
3840.000000	77.676160
3839.000000	77.739231
3838.000000	77.791281
3837.000000	77.830040
3836.000000	77.862066
3835.000000	77.896523
3834.000000	77.937884
3833.000000	77.983774
3832.000000	78.027581
3831.000000	78.063467
3830.000000	78.091430
3829.000000	78.119960
3828.000000	78.161548
3827.000000	78.217530
3826.000000	78.273118
3825.000000	78.316332
3824.000000	78.354525
3823.000000	78.402610
3822.000000	78.467766
3821.000000	78.540199
3820.000000	78.589961
3819.000000	78.617933
3818.000000	78.658878
3817.000000	78.720370
3816.000000	78.780395
3815.000000	78.818165
3814.000000	78.840756
3813.000000	78.875432
3812.000000	78.927842
3811.000000	78.977337
3810.000000	79.010995
3809.000000	79.039343
3808.000000	79.081941
3807.000000	79.139395
3806.000000	79.190732
3805.000000	79.228018
3804.000000	79.272601
3803.000000	79.334435
3802.000000	79.400804
3801.000000	79.453763
3800.000000	79.484604
3799.000000	79.516755
3798.000000	79.571095
3797.000000	79.631626
3796.000000	79.673221
3795.000000	79.694900
3794.000000	79.718251
3793.000000	79.759641
3792.000000	79.814358
3791.000000	79.869479
3790.000000	79.919460
3789.000000	79.965827
3788.000000	80.010731
3787.000000	80.055116
3786.000000	80.100931
3785.000000	80.147983
3784.000000	80.192829
3783.000000	80.235370
3782.000000	80.283072
3781.000000	80.341355
3780.000000	80.405722
3779.000000	80.462717
3778.000000	80.502096
3777.000000	80.530690
3776.000000	80.563748
3775.000000	80.604685
3774.000000	80.645435
3773.000000	80.684608
3772.000000	80.731369
3771.000000	80.789060
3770.000000	80.845433
3769.000000	80.887239
3768.000000	80.919047
3767.000000	80.959478
3766.000000	81.014753
3765.000000	81.071484
3764.000000	81.116773
3763.000000	81.155231
3762.000000	81.201077
3761.000000	81.255004
3760.000000	81.308526
3759.000000	81.360149
3758.000000	81.411726
3757.000000	81.462612
3756.000000	81.513000
3755.000000	81.568224
3754.000000	81.628725
3753.000000	81.682377
3752.000000	81.721350
3751.000000	81.758422
3750.000000	81.804600
3749.000000	81.849423
3748.000000	81.888025
3747.000000	81.935495
3746.000000	81.995450
3745.000000	82.060240
3744.000000	82.122199
3743.000000	82.161869
3742.000000	82.198024
3741.000000	82.261648
3740.000000	82.329848
3739.000000	82.369414
3738.000000	82.385020
3737.000000	82.415379
3736.000000	82.486443
3735.000000	82.581848
3734.000000	82.664814
3733.000000	82.716388
3732.000000	82.740850
3731.000000	82.752210
3730.000000	82.768654
3729.000000	82.804645
3728.000000	82.859601
3727.000000	82.920838
3726.000000	82.975883
3725.000000	83.021824
3724.000000	83.066068
3723.000000	83.112852
3722.000000	83.161201
3721.000000	83.208950
3720.000000	83.258049
3719.000000	83.313284
3718.000000	83.371474
3717.000000	83.423340
3716.000000	83.465704
3715.000000	83.504550
3714.000000	83.542341
3713.000000	83.575447
3712.000000	83.610382
3711.000000	83.659051
3710.000000	83.720061
3709.000000	83.783785
3708.000000	83.843348
3707.000000	83.895696
3706.000000	83.938938
3705.000000	83.973997
3704.000000	84.006261
3703.000000	84.044182
3702.000000	84.092826
3701.000000	84.146774
3700.000000	84.196172
3699.000000	84.242621
3698.000000	84.292205
3697.000000	84.339591
3696.000000	84.376346
3695.000000	84.406154
3694.000000	84.442287
3693.000000	84.491143
3692.000000	84.550039
3691.000000	84.614003
3690.000000	84.675669
3689.000000	84.722971
3688.000000	84.746297
3687.000000	84.754616
3686.000000	84.771787
3685.000000	84.808417
3684.000000	84.849505
3683.000000	84.877548
3682.000000	84.893733
3681.000000	84.915186
3680.000000	84.948770
3679.000000	84.983441
3678.000000	85.008837
3677.000000	85.024824
3676.000000	85.046418
3675.000000	85.076221
3674.000000	85.095774
3673.000000	85.115873
3672.000000	85.149492
3671.000000	85.172237
3670.000000	85.171797
3669.000000	85.162660
3668.000000	85.162753
3667.000000	85.184493
3666.000000	85.219597
3665.000000	85.245229
3664.000000	85.250154
3663.000000	85.243533
3662.000000	85.239789
3661.000000	85.243634
3660.000000	85.247082
3659.000000	85.241382
3658.000000	85.225362
3657.000000	85.204099
3656.000000	85.181633
3655.000000	85.157564
3654.000000	85.142372
3653.000000	85.145781
3652.000000	85.147010
3651.000000	85.112217
3650.000000	85.042516
3649.000000	84.972444
3648.000000	84.925419
3647.000000	84.895101
3646.000000	84.866868
3645.000000	84.833758
3644.000000	84.796640
3643.000000	84.757330
3642.000000	84.715365
3641.000000	84.671157
3640.000000	84.626450
3639.000000	84.583285
3638.000000	84.537747
3637.000000	84.483517
3636.000000	84.421678
3635.000000	84.360589
3634.000000	84.305844
3633.000000	84.254078
3632.000000	84.199476
3631.000000	84.131187
3630.000000	84.041543
3629.000000	83.945234
3628.000000	83.855019
3627.000000	83.774919
3626.000000	83.721222
3625.000000	83.691250
3624.000000	83.658967
3623.000000	83.609409
3622.000000	83.545077
3621.000000	83.470059
3620.000000	83.385314
3619.000000	83.296065
3618.000000	83.207018
3617.000000	83.123769
3616.000000	83.053898
3615.000000	82.996367
3614.000000	82.939629
3613.000000	82.870821
3612.000000	82.786379
3611.000000	82.694641
3610.000000	82.606640
3609.000000	82.527773
3608.000000	82.460551
3607.000000	82.405482
3606.000000	82.359848
3605.000000	82.318376
3604.000000	82.272050
3603.000000	82.214897
3602.000000	82.147292
3601.000000	82.071582
3600.000000	81.989924
3599.000000	81.907703
3598.000000	81.830290
3597.000000	81.758415
3596.000000	81.691654
3595.000000	81.629122
3594.000000	81.567094
3593.000000	81.497946
3592.000000	81.419065
3591.000000	81.334355
3590.000000	81.249876
3589.000000	81.173316
3588.000000	81.115315
3587.000000	81.073901
3586.000000	81.029856
3585.000000	80.970736
3584.000000	80.899484
3583.000000	80.821870
3582.000000	80.740938
3581.000000	80.659266
3580.000000	80.580627
3579.000000	80.507508
3578.000000	80.438411
3577.000000	80.367339
3576.000000	80.291169
3575.000000	80.211899
3574.000000	80.133285
3573.000000	80.057108
3572.000000	79.982834
3571.000000	79.907807
3570.000000	79.826988
3569.000000	79.737862
3568.000000	79.647588
3567.000000	79.566930
3566.000000	79.493508
3565.000000	79.419578
3564.000000	79.346177
3563.000000	79.276446
3562.000000	79.207275
3561.000000	79.132229
3560.000000	79.047330
3559.000000	78.952716
3558.000000	78.851226
3557.000000	78.746710
3556.000000	78.644547
3555.000000	78.550901
3554.000000	78.467662
3553.000000	78.389332
3552.000000	78.306383
3551.000000	78.213108
3550.000000	78.112008
3549.000000	78.010305
3548.000000	77.914566
3547.000000	77.828202
3546.000000	77.749176
3545.000000	77.669998
3544.000000	77.584447
3543.000000	77.491903
3542.000000	77.394233
3541.000000	77.292690
3540.000000	77.190034
3539.000000	77.092252
3538.000000	77.003384
3537.000000	76.921218
3536.000000	76.839590
3535.000000	76.754981
3534.000000	76.668344
3533.000000	76.581632
3532.000000	76.495514
3531.000000	76.409714
3530.000000	76.324433
3529.000000	76.240759
3528.000000	76.161405
3527.000000	76.089716
3526.000000	76.026715
3525.000000	75.968100
3524.000000	75.905762
3523.000000	75.832794
3522.000000	75.748186
3521.000000	75.657995
3520.000000	75.571281
3519.000000	75.493545
3518.000000	75.423183
3517.000000	75.355008
3516.000000	75.285693
3515.000000	75.213562
3514.000000	75.135669
3513.000000	75.049840
3512.000000	74.959748
3511.000000	74.873002
3510.000000	74.792854
3509.000000	74.714865
3508.000000	74.633260
3507.000000	74.547539
3506.000000	74.460682
3505.000000	74.374059
3504.000000	74.287084
3503.000000	74.198819
3502.000000	74.108630
3501.000000	74.016767
3500.000000	73.924811
3499.000000	73.832878
3498.000000	73.737037
3497.000000	73.632328
3496.000000	73.518827
3495.000000	73.402483
3494.000000	73.289366
3493.000000	73.181590
3492.000000	73.078751
3491.000000	72.979288
3490.000000	72.879446
3489.000000	72.773926
3488.000000	72.659478
3487.000000	72.536818
3486.000000	72.409172
3485.000000	72.281324
3484.000000	72.159306
3483.000000	72.047149
3482.000000	71.942051
3481.000000	71.834881
3480.000000	71.717268
3479.000000	71.587120
3478.000000	71.447962
3477.000000	71.305707
3476.000000	71.166403
3475.000000	71.033725
3474.000000	70.907232
3473.000000	70.784560
3472.000000	70.664489
3471.000000	70.545461
3470.000000	70.422394
3469.000000	70.288999
3468.000000	70.143627
3467.000000	69.990154
3466.000000	69.833578
3465.000000	69.677630
3464.000000	69.525321
3463.000000	69.377593
3462.000000	69.230991
3461.000000	69.080235
3460.000000	68.923963
3459.000000	68.765391
3458.000000	68.607568
3457.000000	68.450891
3456.000000	68.294350
3455.000000	68.136340
3454.000000	67.974555
3453.000000	67.807659
3452.000000	67.637606
3451.000000	67.468178
3450.000000	67.301555
3449.000000	67.137059
3448.000000	66.972235
3447.000000	66.803412
3446.000000	66.626986
3445.000000	66.442695
3444.000000	66.254391
3443.000000	66.066226
3442.000000	65.880022
3441.000000	65.697213
3440.000000	65.520043
3439.000000	65.347670
3438.000000	65.172866
3437.000000	64.986268
3436.000000	64.783385
3435.000000	64.566320
3434.000000	64.340928
3433.000000	64.114362
3432.000000	63.892506
3431.000000	63.675858
3430.000000	63.458607
3429.000000	63.233702
3428.000000	62.998755
3427.000000	62.755443
3426.000000	62.505869
3425.000000	62.252362
3424.000000	61.998773
3423.000000	61.748290
3422.000000	61.499601
3421.000000	61.247745
3420.000000	60.988421
3419.000000	60.719827
3418.000000	60.442028
3417.000000	60.156942
3416.000000	59.868192
3415.000000	59.578312
3414.000000	59.286212
3413.000000	58.989273
3412.000000	58.686364
3411.000000	58.376999
3410.000000	58.059066
3409.000000	57.730197
3408.000000	57.391365
3407.000000	57.046652
3406.000000	56.699985
3405.000000	56.353658
3404.000000	56.007990
3403.000000	55.659875
3402.000000	55.302183
3401.000000	54.927837
3400.000000	54.535327
3399.000000	54.128802
3398.000000	53.714158
3397.000000	53.296407
3396.000000	52.878833
3395.000000	52.461373
3394.000000	52.039161
3393.000000	51.605194
3392.000000	51.155238
3391.000000	50.689820
3390.000000	50.213372
3389.000000	49.731878
3388.000000	49.249630
3387.000000	48.766041
3386.000000	48.276125
3385.000000	47.775711
3384.000000	47.264338
3383.000000	46.743213
3382.000000	46.213056
3381.000000	45.675335
3380.000000	45.133234
3379.000000	44.588509
3378.000000	44.039280
3377.000000	43.482542
3376.000000	42.916855
3375.000000	42.341921
3374.000000	41.757995
3373.000000	41.167475
3372.000000	40.574643
3371.000000	39.981280
3370.000000	39.385052
3369.000000	38.783014
3368.000000	38.174251
3367.000000	37.558251
3366.000000	36.933893
3365.000000	36.302357
3364.000000	35.667886
3363.000000	35.033894
3362.000000	34.400821
3361.000000	33.768631
3360.000000	33.138304
3359.000000	32.509333
3358.000000	31.878923
3357.000000	31.245664
3356.000000	30.611233
3355.000000	29.977504
3354.000000	29.344964
3353.000000	28.714894
3352.000000	28.089824
3351.000000	27.470568
3350.000000	26.855589
3349.000000	26.244174
3348.000000	25.637277
3347.000000	25.034715
3346.000000	24.435352
3345.000000	23.840633
3344.000000	23.254369
3343.000000	22.678240
3342.000000	22.110491
3341.000000	21.549770
3340.000000	20.996779
3339.000000	20.451949
3338.000000	19.915502
3337.000000	19.389724
3336.000000	18.877675
3335.000000	18.378998
3334.000000	17.890399
3333.000000	17.410672
3332.000000	16.940973
3331.000000	16.481093
3330.000000	16.029497
3329.000000	15.586798
3328.000000	15.155846
3327.000000	14.737790
3326.000000	14.332415
3325.000000	13.941480
3324.000000	13.566871
3323.000000	13.206451
3322.000000	12.855690
3321.000000	12.513533
3320.000000	12.182776
3319.000000	11.864411
3318.000000	11.557210
3317.000000	11.261465
3316.000000	10.978740
3315.000000	10.708067
3314.000000	10.446246
3313.000000	10.192379
3312.000000	9.947692
3311.000000	9.711506
3310.000000	9.482310
3309.000000	9.261655
3308.000000	9.053378
3307.000000	8.859062
3306.000000	8.678097
3305.000000	8.511461
3304.000000	8.359720
3303.000000	8.219077
3302.000000	8.083818
3301.000000	7.952171
3300.000000	7.825994
3299.000000	7.705428
3298.000000	7.589017
3297.000000	7.477960
3296.000000	7.374922
3295.000000	7.279681
3294.000000	7.190274
3293.000000	7.107991
3292.000000	7.036370
3291.000000	6.975166
3290.000000	6.920498
3289.000000	6.869808
3288.000000	6.822738
3287.000000	6.778111
3286.000000	6.734459
3285.000000	6.693513
3284.000000	6.658306
3283.000000	6.628622
3282.000000	6.602127
3281.000000	6.578683
3280.000000	6.559487
3279.000000	6.542849
3278.000000	6.525683
3277.000000	6.508460
3276.000000	6.494136
3275.000000	6.483022
3274.000000	6.473002
3273.000000	6.464353
3272.000000	6.460065
3271.000000	6.461568
3270.000000	6.467985
3269.000000	6.478624
3268.000000	6.492500
3267.000000	6.506632
3266.000000	6.518594
3265.000000	6.529935
3264.000000	6.543534
3263.000000	6.558769
3262.000000	6.573141
3261.000000	6.586815
3260.000000	6.601510
3259.000000	6.616482
3258.000000	6.630033
3257.000000	6.643892
3256.000000	6.661531
3255.000000	6.683128
3254.000000	6.705985
3253.000000	6.728827
3252.000000	6.751641
3251.000000	6.772625
3250.000000	6.789816
3249.000000	6.805087
3248.000000	6.822622
3247.000000	6.844047
3246.000000	6.868280
3245.000000	6.894699
3244.000000	6.922802
3243.000000	6.950044
3242.000000	6.974054
3241.000000	6.996055
3240.000000	7.018775
3239.000000	7.042075
3238.000000	7.063930
3237.000000	7.084141
3236.000000	7.103754
3235.000000	7.122597
3234.000000	7.140921
3233.000000	7.161598
3232.000000	7.186759
3231.000000	7.213804
3230.000000	7.238551
3229.000000	7.260672
3228.000000	7.282338
3227.000000	7.303450
3226.000000	7.322242
3225.000000	7.339117
3224.000000	7.355734
3223.000000	7.371629
3222.000000	7.385448
3221.000000	7.398187
3220.000000	7.411568
3219.000000	7.424540
3218.000000	7.434986
3217.000000	7.443399
3216.000000	7.451381
3215.000000	7.458270
3214.000000	7.462764
3213.000000	7.466265
3212.000000	7.470807
3211.000000	7.475240
3210.000000	7.477040
3209.000000	7.476171
3208.000000	7.473800
3207.000000	7.469034
3206.000000	7.460620
3205.000000	7.450272
3204.000000	7.440522
3203.000000	7.430929
3202.000000	7.419758
3201.000000	7.407517
3200.000000	7.395329
3199.000000	7.381641
3198.000000	7.364363
3197.000000	7.344587
3196.000000	7.324611
3195.000000	7.304127
3194.000000	7.281842
3193.000000	7.258884
3192.000000	7.236960
3191.000000	7.214819
3190.000000	7.190279
3189.000000	7.163962
3188.000000	7.137719
3187.000000	7.111237
3186.000000	7.083639
3185.000000	7.056433
3184.000000	7.031224
3183.000000	7.006494
3182.000000	6.980139
3181.000000	6.953238
3180.000000	6.927817
3179.000000	6.903092
3178.000000	6.877481
3177.000000	6.852254
3176.000000	6.829455
3175.000000	6.808214
3174.000000	6.786736
3173.000000	6.765843
3172.000000	6.746974
3171.000000	6.728850
3170.000000	6.709771
3169.000000	6.691188
3168.000000	6.675434
3167.000000	6.661854
3166.000000	6.648781
3165.000000	6.637110
3164.000000	6.628319
3163.000000	6.621079
3162.000000	6.613436
3161.000000	6.606456
3160.000000	6.602193
3159.000000	6.600061
3158.000000	6.598482
3157.000000	6.597711
3156.000000	6.597857
3155.000000	6.596830
3154.000000	6.594128
3153.000000	6.594288
3152.000000	6.602305
3151.000000	6.617643
3150.000000	6.636152
3149.000000	6.655727
3148.000000	6.676444
3147.000000	6.697407
3146.000000	6.717669
3145.000000	6.738549
3144.000000	6.761365
3143.000000	6.784683
3142.000000	6.807028
3141.000000	6.830564
3140.000000	6.858779
3139.000000	6.892190
3138.000000	6.929355
3137.000000	6.969775
3136.000000	7.012781
3135.000000	7.055919
3134.000000	7.097651
3133.000000	7.139879
3132.000000	7.184788
3131.000000	7.231659
3130.000000	7.279590
3129.000000	7.330363
3128.000000	7.385352
3127.000000	7.442145
3126.000000	7.497769
3125.000000	7.552796
3124.000000	7.608868
3123.000000	7.665028
3122.000000	7.720110
3121.000000	7.776234
3120.000000	7.836200
3119.000000	7.899526
3118.000000	7.964792
3117.000000	8.033559
3116.000000	8.108211
3115.000000	8.187865
3114.000000	8.269594
3113.000000	8.351805
3112.000000	8.433405
3111.000000	8.512295
3110.000000	8.588309
3109.000000	8.665394
3108.000000	8.747454
3107.000000	8.833853
3106.000000	8.921866
3105.000000	9.011043
3104.000000	9.101786
3103.000000	9.192411
3102.000000	9.281426
3101.000000	9.370759
3100.000000	9.463303
3099.000000	9.558890
3098.000000	9.655842
3097.000000	9.754360
3096.000000	9.855047
3095.000000	9.956135
3094.000000	10.055399
3093.000000	10.153348
3092.000000	10.251913
3091.000000	10.351790
3090.000000	10.453524
3089.000000	10.558755
3088.000000	10.667577
3087.000000	10.776941
3086.000000	10.884465
3085.000000	10.991724
3084.000000	11.101063
3083.000000	11.211636
3082.000000	11.321625
3081.000000	11.432016
3080.000000	11.545213
3079.000000	11.661861
3078.000000	11.781669
3077.000000	11.905080
3076.000000	12.031183
3075.000000	12.156391
3074.000000	12.278231
3073.000000	12.398393
3072.000000	12.519392
3071.000000	12.640466
3070.000000	12.759815
3069.000000	12.878665
3068.000000	12.999845
3067.000000	13.124075
3066.000000	13.250373
3065.000000	13.378457
3064.000000	13.508046
3063.000000	13.637563
3062.000000	13.766026
3061.000000	13.894520
3060.000000	14.023714
3059.000000	14.152045
3058.000000	14.278506
3057.000000	14.405025
3056.000000	14.533584
3055.000000	14.663117
3054.000000	14.791710
3053.000000	14.919835
3052.000000	15.049039
3051.000000	15.179377
3050.000000	15.310248
3049.000000	15.441672
3048.000000	15.572708
3047.000000	15.701000
3046.000000	15.826157
3045.000000	15.951342
3044.000000	16.079422
3043.000000	16.209843
3042.000000	16.341269
3041.000000	16.474424
3040.000000	16.609632
3039.000000	16.744184
3038.000000	16.875182
3037.000000	17.003155
3036.000000	17.130532
3035.000000	17.258584
3034.000000	17.388039
3033.000000	17.520278
3032.000000	17.655093
3031.000000	17.789324
3030.000000	17.920337
3029.000000	18.049010
3028.000000	18.177173
3027.000000	18.304487
3026.000000	18.430408
3025.000000	18.556786
3024.000000	18.685439
3023.000000	18.814981
3022.000000	18.942848
3021.000000	19.068847
3020.000000	19.194237
3019.000000	19.319023
3018.000000	19.442685
3017.000000	19.565989
3016.000000	19.689753
3015.000000	19.813394
3014.000000	19.936861
3013.000000	20.062347
3012.000000	20.191780
3011.000000	20.324152
3010.000000	20.457137
3009.000000	20.589660
3008.000000	20.721095
3007.000000	20.850033
3006.000000	20.976023
3005.000000	21.100820
3004.000000	21.226010
3003.000000	21.350996
3002.000000	21.474943
3001.000000	21.598549
3000.000000	21.722276
2999.000000	21.845018
2998.000000	21.966406
2997.000000	22.088126
2996.000000	22.210955
2995.000000	22.332963
2994.000000	22.452995
2993.000000	22.573580
2992.000000	22.697694
2991.000000	22.824544
2990.000000	22.951105
2989.000000	23.076077
2988.000000	23.199856
2987.000000	23.322335
2986.000000	23.443312
2985.000000	23.563706
2984.000000	23.684086
2983.000000	23.803305
2982.000000	23.920714
2981.000000	24.038230
2980.000000	24.158049
2979.000000	24.279666
2978.000000	24.401230
2977.000000	24.522410
2976.000000	24.643872
2975.000000	24.765391
2974.000000	24.886546
2973.000000	25.007856
2972.000000	25.129361
2971.000000	25.249546
2970.000000	25.367642
2969.000000	25.485479
2968.000000	25.604972
2967.000000	25.725338
2966.000000	25.844736
2965.000000	25.963104
2964.000000	26.081241
2963.000000	26.198689
2962.000000	26.314853
2961.000000	26.430771
2960.000000	26.547576
2959.000000	26.664499
2958.000000	26.780256
2957.000000	26.894863
2956.000000	27.008170
2955.000000	27.118578
2954.000000	27.225591
2953.000000	27.331967
2952.000000	27.440877
2951.000000	27.552060
2950.000000	27.662923
2949.000000	27.772000
2948.000000	27.879283
2947.000000	27.984689
2946.000000	28.088633
2945.000000	28.193129
2944.000000	28.300135
2943.000000	28.409450
2942.000000	28.519729
2941.000000	28.630321
2940.000000	28.740503
2939.000000	28.848423
2938.000000	28.952856
2937.000000	29.054955
2936.000000	29.156595
2935.000000	29.258223
2934.000000	29.359950
2933.000000	29.463006
2932.000000	29.567995
2931.000000	29.673066
2930.000000	29.775855
2929.000000	29.876187
2928.000000	29.975121
2927.000000	30.072976
2926.000000	30.170253
2925.000000	30.268856
2924.000000	30.370123
2923.000000	30.472845
2922.000000	30.575137
2921.000000	30.676758
2920.000000	30.777877
2919.000000	30.877480
2918.000000	30.975196
2917.000000	31.073022
2916.000000	31.172729
2915.000000	31.272686
2914.000000	31.369399
2913.000000	31.461215
2912.000000	31.548668
2911.000000	31.632536
2910.000000	31.713817
2909.000000	31.794803
2908.000000	31.878012
2907.000000	31.964232
2906.000000	32.052731
2905.000000	32.142517
2904.000000	32.231957
2903.000000	32.318504
2902.000000	32.400570
2901.000000	32.479597
2900.000000	32.558741
2899.000000	32.639825
2898.000000	32.723024
2897.000000	32.807311
2896.000000	32.890468
2895.000000	32.969726
2894.000000	33.044258
2893.000000	33.116203
2892.000000	33.188125
2891.000000	33.260523
2890.000000	33.332825
2889.000000	33.405155
2888.000000	33.477367
2887.000000	33.547605
2886.000000	33.613712
2885.000000	33.675313
2884.000000	33.733179
2883.000000	33.787746
2882.000000	33.839763
2881.000000	33.891165
2880.000000	33.943304
2879.000000	33.995102
2878.000000	34.044637
2877.000000	34.091778
2876.000000	34.137739
2875.000000	34.183031
2874.000000	34.227871
2873.000000	34.274025
2872.000000	34.324421
2871.000000	34.381106
2870.000000	34.444630
2869.000000	34.514696
2868.000000	34.590072
2867.000000	34.668839
2866.000000	34.750380
2865.000000	34.836662
2864.000000	34.930421
2863.000000	35.032605
2862.000000	35.142276
2861.000000	35.257518
2860.000000	35.375132
2859.000000	35.490892
2858.000000	35.602214
2857.000000	35.710211
2856.000000	35.817906
2855.000000	35.927244
2854.000000	36.038731
2853.000000	36.152443
2852.000000	36.267442
2851.000000	36.380963
2850.000000	36.489947
2849.000000	36.593176
2848.000000	36.691196
2847.000000	36.785276
2846.000000	36.877620
2845.000000	36.971271
2844.000000	37.067940
2843.000000	37.166310
2842.000000	37.263604
2841.000000	37.358049
2840.000000	37.448914
2839.000000	37.535729
2838.000000	37.619343
2837.000000	37.702762
2836.000000	37.788775
2835.000000	37.876900
2834.000000	37.963954
2833.000000	38.047264
2832.000000	38.126216
2831.000000	38.201663
2830.000000	38.275718
2829.000000	38.351696
2828.000000	38.432206
2827.000000	38.516849
2826.000000	38.602600
2825.000000	38.686215
2824.000000	38.765580
2823.000000	38.839763
2822.000000	38.909594
2821.000000	38.978148
2820.000000	39.049166
2819.000000	39.124562
2818.000000	39.203801
2817.000000	39.284903
2816.000000	39.365009
2815.000000	39.440942
2814.000000	39.511184
2813.000000	39.577572
2812.000000	39.644040
2811.000000	39.713749
2810.000000	39.787928
2809.000000	39.866358
2808.000000	39.947219
2807.000000	40.026898
2806.000000	40.101867
2805.000000	40.171354
2804.000000	40.237526
2803.000000	40.303397
2802.000000	40.371419
2801.000000	40.443206
2800.000000	40.518751
2799.000000	40.595687
2798.000000	40.670552
2797.000000	40.741183
2796.000000	40.807555
2795.000000	40.870999
2794.000000	40.933769
2793.000000	40.998755
2792.000000	41.067780
2791.000000	41.139728
2790.000000	41.211245
2789.000000	41.279399
2788.000000	41.343166
2787.000000	41.403064
2786.000000	41.460878
2785.000000	41.519547
2784.000000	41.581695
2783.000000	41.647514
2782.000000	41.714567
2781.000000	41.779668
2780.000000	41.840468
2779.000000	41.896054
2778.000000	41.947581
2777.000000	41.998445
2776.000000	42.052558
2775.000000	42.111825
2774.000000	42.175353
2773.000000	42.240451
2772.000000	42.303619
2771.000000	42.361498
2770.000000	42.412783
2769.000000	42.459654
2768.000000	42.506567
2767.000000	42.557377
2766.000000	42.613710
2765.000000	42.674905
2764.000000	42.737961
2763.000000	42.798088
2762.000000	42.851301
2761.000000	42.897289
2760.000000	42.939327
2759.000000	42.981635
2758.000000	43.027508
2757.000000	43.078866
2756.000000	43.135419
2755.000000	43.193800
2754.000000	43.248959
2753.000000	43.297412
2752.000000	43.339108
2751.000000	43.376746
2750.000000	43.414483
2749.000000	43.456573
2748.000000	43.505145
2747.000000	43.558350
2746.000000	43.611469
2745.000000	43.660233
2744.000000	43.702847
2743.000000	43.739860
2742.000000	43.773851
2741.000000	43.809113
2740.000000	43.849619
2739.000000	43.896108
2738.000000	43.945645
2737.000000	43.994109
2736.000000	44.038500
2735.000000	44.077535
2734.000000	44.111958
2733.000000	44.144865
2732.000000	44.180427
2731.000000	44.221229
2730.000000	44.266838
2729.000000	44.314572
2728.000000	44.360804
2727.000000	44.402095
2726.000000	44.436983
2725.000000	44.467576
2724.000000	44.498582
2723.000000	44.534187
2722.000000	44.575927
2721.000000	44.622635
2720.000000	44.670929
2719.000000	44.715986
2718.000000	44.753956
2717.000000	44.784840
2716.000000	44.812522
2715.000000	44.841830
2714.000000	44.876038
2713.000000	44.916336
2712.000000	44.961461
2711.000000	45.007137
2710.000000	45.047666
2709.000000	45.079483
2708.000000	45.103241
2707.000000	45.122729
2706.000000	45.142674
2705.000000	45.167159
2704.000000	45.197836
2703.000000	45.232297
2702.000000	45.265032
2701.000000	45.290916
2700.000000	45.308058
2699.000000	45.317891
2698.000000	45.323995
2697.000000	45.331010
2696.000000	45.342678
2695.000000	45.359513
2694.000000	45.378503
2693.000000	45.395383
2692.000000	45.407029
2691.000000	45.412263
2690.000000	45.412114
2689.000000	45.409901
2688.000000	45.409718
2687.000000	45.413842
2686.000000	45.421685
2685.000000	45.430987
2684.000000	45.439002
2683.000000	45.442813
2682.000000	45.440616
2681.000000	45.433717
2680.000000	45.426349
2679.000000	45.422740
2678.000000	45.424691
2677.000000	45.431585
2676.000000	45.441124
2675.000000	45.449685
2674.000000	45.453791
2673.000000	45.452958
2672.000000	45.450882
2671.000000	45.453520
2670.000000	45.466042
2669.000000	45.490854
2668.000000	45.526854
2667.000000	45.569526
2666.000000	45.613198
2665.000000	45.654608
2664.000000	45.694526
2663.000000	45.736637
2662.000000	45.785273
2661.000000	45.843850
2660.000000	45.913441
2659.000000	45.991272
2658.000000	46.071493
2657.000000	46.148283
2656.000000	46.218609
2655.000000	46.282789
2654.000000	46.343707
2653.000000	46.405906
2652.000000	46.473654
2651.000000	46.548162
2650.000000	46.626459
2649.000000	46.703214
2648.000000	46.773541
2647.000000	46.834846
2646.000000	46.887734
2645.000000	46.936010
2644.000000	46.984937
2643.000000	47.038091
2642.000000	47.095542
2641.000000	47.154482
2640.000000	47.210651
2639.000000	47.259787
2638.000000	47.299633
2637.000000	47.331868
2636.000000	47.361499
2635.000000	47.393368
2634.000000	47.429413
2633.000000	47.468651
2632.000000	47.508303
2631.000000	47.544586
2630.000000	47.574051
2629.000000	47.595966
2628.000000	47.613218
2627.000000	47.630358
2626.000000	47.651026
2625.000000	47.676712
2624.000000	47.706354
2623.000000	47.736223
2622.000000	47.761452
2621.000000	47.779236
2620.000000	47.790586
2619.000000	47.799139
2618.000000	47.809096
2617.000000	47.824111
2616.000000	47.846066
2615.000000	47.873235
2614.000000	47.900288
2613.000000	47.921325
2612.000000	47.933178
2611.000000	47.936375
2610.000000	47.934304
2609.000000	47.932006
2608.000000	47.934069
2607.000000	47.941644
2606.000000	47.951414
2605.000000	47.957609
2604.000000	47.955118
2603.000000	47.941475
2602.000000	47.917614
2601.000000	47.888036
2600.000000	47.859006
2599.000000	47.835194
2598.000000	47.817722
2597.000000	47.804832
2596.000000	47.793443
2595.000000	47.780424
2594.000000	47.764565
2593.000000	47.748721
2592.000000	47.739486
2591.000000	47.743400
2590.000000	47.763754
2589.000000	47.800563
2588.000000	47.851314
2587.000000	47.911624
2586.000000	47.976388
2585.000000	48.042599
2584.000000	48.111348
2583.000000	48.186046
2582.000000	48.269697
2581.000000	48.363275
2580.000000	48.465339
2579.000000	48.572109
2578.000000	48.678306
2577.000000	48.779840
2576.000000	48.876000
2575.000000	48.969225
2574.000000	49.063404
2573.000000	49.162088
2572.000000	49.266857
2571.000000	49.375934
2570.000000	49.484703
2569.000000	49.588519
2568.000000	49.685236
2567.000000	49.775438
2566.000000	49.861678
2565.000000	49.948038
2564.000000	50.038716
2563.000000	50.135243
2562.000000	50.234931
2561.000000	50.332693
2560.000000	50.424146
2559.000000	50.507085
2558.000000	50.581943
2557.000000	50.652167
2556.000000	50.723138
2555.000000	50.798953
2554.000000	50.879781
2553.000000	50.962576
2552.000000	51.043293
2551.000000	51.118062
2550.000000	51.184239
2549.000000	51.242200
2548.000000	51.295962
2547.000000	51.350660
2546.000000	51.409182
2545.000000	51.471337
2544.000000	51.534467
2543.000000	51.594029
2542.000000	51.645029
2541.000000	51.684911
2540.000000	51.715513
2539.000000	51.741077
2538.000000	51.765062
2537.000000	51.788882
2536.000000	51.811598
2535.000000	51.829713
2534.000000	51.837816
2533.000000	51.831829
2532.000000	51.811801
2531.000000	51.780705
2530.000000	51.742195
2529.000000	51.699744
2528.000000	51.656453
2527.000000	51.613759
2526.000000	51.570597
2525.000000	51.525639
2524.000000	51.479845
2523.000000	51.436417
2522.000000	51.399430
2521.000000	51.373770
2520.000000	51.364338
2519.000000	51.373531
2518.000000	51.399571
2517.000000	51.437855
2516.000000	51.484285
2515.000000	51.536040
2514.000000	51.591472
2513.000000	51.651179
2512.000000	51.717829
2511.000000	51.793866
2510.000000	51.878579
2509.000000	51.968315
2508.000000	52.058811
2507.000000	52.146111
2506.000000	52.226968
2505.000000	52.300361
2504.000000	52.368734
2503.000000	52.436325
2502.000000	52.506130
2501.000000	52.578679
2500.000000	52.652533
2499.000000	52.724659
2498.000000	52.791119
2497.000000	52.849482
2496.000000	52.900462
2495.000000	52.946723
2494.000000	52.990892
2493.000000	53.035121
2492.000000	53.081243
2491.000000	53.129257
2490.000000	53.176479
2489.000000	53.219725
2488.000000	53.257817
2487.000000	53.291484
2486.000000	53.321973
2485.000000	53.351169
2484.000000	53.381688
2483.000000	53.414753
2482.000000	53.448690
2481.000000	53.480795
2480.000000	53.510024
2479.000000	53.536794
2478.000000	53.561438
2477.000000	53.584706
2476.000000	53.608609
2475.000000	53.634648
2474.000000	53.661780
2473.000000	53.687613
2472.000000	53.710986
2471.000000	53.732059
2470.000000	53.750981
2469.000000	53.768430
2468.000000	53.786656
2467.000000	53.807956
2466.000000	53.832323
2465.000000	53.857811
2464.000000	53.882546
2463.000000	53.905123
2462.000000	53.924237
2461.000000	53.939929
2460.000000	53.954664
2459.000000	53.971549
2458.000000	53.991866
2457.000000	54.015242
2456.000000	54.040994
2455.000000	54.067669
2454.000000	54.092364
2453.000000	54.112551
2452.000000	54.128319
2451.000000	54.141767
2450.000000	54.155144
2449.000000	54.170790
2448.000000	54.191293
2447.000000	54.217409
2446.000000	54.246416
2445.000000	54.274220
2444.000000	54.298517
2443.000000	54.318992
2442.000000	54.335983
2441.000000	54.350908
2440.000000	54.366887
2439.000000	54.386652
2438.000000	54.410283
2437.000000	54.436282
2436.000000	54.463708
2435.000000	54.491554
2434.000000	54.517423
2433.000000	54.539148
2432.000000	54.557209
2431.000000	54.573853
2430.000000	54.590743
2429.000000	54.609139
2428.000000	54.631040
2427.000000	54.657766
2426.000000	54.687932
2425.000000	54.718661
2424.000000	54.748135
2423.000000	54.775576
2422.000000	54.800013
2421.000000	54.821281
2420.000000	54.841454
2419.000000	54.863219
2418.000000	54.887370
2417.000000	54.913438
2416.000000	54.941570
2415.000000	54.971748
2414.000000	55.002140
2413.000000	55.030412
2412.000000	55.056122
2411.000000	55.080145
2410.000000	55.102793
2409.000000	55.124407
2408.000000	55.146785
2407.000000	55.171856
2406.000000	55.199528
2405.000000	55.228528
2404.000000	55.258390
2403.000000	55.288834
2402.000000	55.318345
2401.000000	55.345447
2400.000000	55.370600
2399.000000	55.395126
2398.000000	55.419385
2397.000000	55.443843
2396.000000	55.470618
2395.000000	55.501817
2394.000000	55.537241
2393.000000	55.575439
2392.000000	55.615519
2391.000000	55.656058
2390.000000	55.694051
2389.000000	55.727385
2388.000000	55.758010
2387.000000	55.790136
2386.000000	55.826959
2385.000000	55.870961
2384.000000	55.924357
2383.000000	55.987481
2382.000000	56.056147
2381.000000	56.124338
2380.000000	56.188970
2379.000000	56.249250
2378.000000	56.305109
2377.000000	56.358166
2376.000000	56.413067
2375.000000	56.474255
2374.000000	56.541949
2373.000000	56.613180
2372.000000	56.685021
2371.000000	56.754469
2370.000000	56.816874
2369.000000	56.870786
2368.000000	56.921020
2367.000000	56.974550
2366.000000	57.034824
2365.000000	57.102238
2364.000000	57.179501
2363.000000	57.262787
2362.000000	57.341456
2361.000000	57.410233
2360.000000	57.466522
2359.000000	57.514582
2358.000000	57.557292
2357.000000	57.597037
2356.000000	57.642637
2355.000000	57.695273
2354.000000	57.754494
2353.000000	57.817198
2352.000000	57.886301
2351.000000	57.964524
2350.000000	58.038082
2349.000000	58.098504
2348.000000	58.148079
2347.000000	58.206493
2346.000000	58.284483
2345.000000	58.367056
2344.000000	58.439443
2343.000000	58.493623
2342.000000	58.542577
2341.000000	58.595329
2340.000000	58.652647
2339.000000	58.713193
2338.000000	58.774399
2337.000000	58.834445
2336.000000	58.892749
2335.000000	58.950137
2334.000000	59.009552
2333.000000	59.072517
2332.000000	59.139318
2331.000000	59.212704
2330.000000	59.285750
2329.000000	59.358178
2328.000000	59.423249
2327.000000	59.480789
2326.000000	59.531080
2325.000000	59.574353
2324.000000	59.620612
2323.000000	59.673669
2322.000000	59.738497
2321.000000	59.809761
2320.000000	59.883501
2319.000000	59.955027
2318.000000	60.018082
2317.000000	60.069257
2316.000000	60.109232
2315.000000	60.147700
2314.000000	60.192274
2313.000000	60.249055
2312.000000	60.318154
2311.000000	60.397440
2310.000000	60.478040
2309.000000	60.549419
2308.000000	60.605059
2307.000000	60.646085
2306.000000	60.678818
2305.000000	60.710894
2304.000000	60.751465
2303.000000	60.806667
2302.000000	60.875544
2301.000000	60.950622
2300.000000	61.022920
2299.000000	61.087004
2298.000000	61.139340
2297.000000	61.180922
2296.000000	61.217555
2295.000000	61.258101
2294.000000	61.307384
2293.000000	61.364415
2292.000000	61.425950
2291.000000	61.488134
2290.000000	61.546759
2289.000000	61.598439
2288.000000	61.644804
2287.000000	61.690354
2286.000000	61.738067
2285.000000	61.787328
2284.000000	61.837341
2283.000000	61.887225
2282.000000	61.934914
2281.000000	61.978834
2280.000000	62.021869
2279.000000	62.069502
2278.000000	62.123816
2277.000000	62.181982
2276.000000	62.239551
2275.000000	62.292474
2274.000000	62.335919
2273.000000	62.367238
2272.000000	62.390425
2271.000000	62.414923
2270.000000	62.448878
2269.000000	62.495320
2268.000000	62.553070
2267.000000	62.616401
2266.000000	62.674231
2265.000000	62.715322
2264.000000	62.736220
2263.000000	62.743221
2262.000000	62.747141
2261.000000	62.758790
2260.000000	62.787289
2259.000000	62.835238
2258.000000	62.894750
2257.000000	62.950754
2256.000000	62.990544
2255.000000	63.008890
2254.000000	63.007100
2253.000000	62.993021
2252.000000	62.980651
2251.000000	62.984129
2250.000000	63.008050
2249.000000	63.045952
2248.000000	63.086068
2247.000000	63.116630
2246.000000	63.128201
2245.000000	63.117354
2244.000000	63.091100
2243.000000	63.063091
2242.000000	63.044349
2241.000000	63.038634
2240.000000	63.044308
2239.000000	63.055538
2238.000000	63.062451
2237.000000	63.055867
2236.000000	63.034169
2235.000000	63.003090
2234.000000	62.969454
2233.000000	62.938085
2232.000000	62.912704
2231.000000	62.894304
2230.000000	62.878185
2229.000000	62.857189
2228.000000	62.828892
2227.000000	62.796846
2226.000000	62.765542
2225.000000	62.737665
2224.000000	62.714975
2223.000000	62.696847
2222.000000	62.677765
2221.000000	62.650756
2220.000000	62.614401
2219.000000	62.573933
2218.000000	62.536308
2217.000000	62.507415
2216.000000	62.492006
2215.000000	62.490456
2214.000000	62.494808
2213.000000	62.492398
2212.000000	62.474962
2211.000000	62.442651
2210.000000	62.401428
2209.000000	62.361249
2208.000000	62.335077
2207.000000	62.332795
2206.000000	62.353238
2205.000000	62.384408
2204.000000	62.411535
2203.000000	62.423305
2202.000000	62.413912
2201.000000	62.386193
2200.000000	62.353712
2199.000000	62.334486
2198.000000	62.339771
2197.000000	62.369335
2196.000000	62.414735
2195.000000	62.462720
2194.000000	62.497759
2193.000000	62.509033
2192.000000	62.498412
2191.000000	62.479086
2190.000000	62.466047
2189.000000	62.469431
2188.000000	62.493454
2187.000000	62.534844
2186.000000	62.581366
2185.000000	62.617458
2184.000000	62.634264
2183.000000	62.633161
2182.000000	62.621285
2181.000000	62.607797
2180.000000	62.602563
2179.000000	62.611571
2178.000000	62.631612
2177.000000	62.652857
2176.000000	62.667420
2175.000000	62.673148
2174.000000	62.671183
2173.000000	62.664964
2172.000000	62.660933
2171.000000	62.664488
2170.000000	62.674037
2169.000000	62.682554
2168.000000	62.685124
2167.000000	62.681807
2166.000000	62.674723
2165.000000	62.667434
2164.000000	62.666563
2163.000000	62.678176
2162.000000	62.700940
2161.000000	62.726012
2160.000000	62.743849
2159.000000	62.748762
2158.000000	62.739291
2157.000000	62.720092
2156.000000	62.703428
2155.000000	62.703030
2154.000000	62.724152
2153.000000	62.761143
2152.000000	62.802853
2151.000000	62.836619
2150.000000	62.850218
2149.000000	62.838144
2148.000000	62.808279
2147.000000	62.778368
2146.000000	62.764527
2145.000000	62.774253
2144.000000	62.806657
2143.000000	62.852397
2142.000000	62.893920
2141.000000	62.913523
2140.000000	62.905081
2139.000000	62.876391
2138.000000	62.841763
2137.000000	62.816079
2136.000000	62.812331
2135.000000	62.835839
2134.000000	62.878178
2133.000000	62.921206
2132.000000	62.949137
2131.000000	62.955723
2130.000000	62.942918
2129.000000	62.919304
2128.000000	62.899262
2127.000000	62.896256
2126.000000	62.913547
2125.000000	62.943588
2124.000000	62.975994
2123.000000	63.002552
2122.000000	63.017192
2121.000000	63.018387
2120.000000	63.012994
2119.000000	63.012387
2118.000000	63.022947
2117.000000	63.043073
2116.000000	63.068238
2115.000000	63.094257
2114.000000	63.116684
2113.000000	63.133465
2112.000000	63.149361
2111.000000	63.172823
2110.000000	63.207619
2109.000000	63.250918
2108.000000	63.298145
2107.000000	63.344933
2106.000000	63.385653
2105.000000	63.417098
2104.000000	63.445022
2103.000000	63.481883
2102.000000	63.536840
2101.000000	63.610691
2100.000000	63.698547
2099.000000	63.791312
2098.000000	63.875497
2097.000000	63.939583
2096.000000	63.983698
2095.000000	64.019949
2094.000000	64.062941
2093.000000	64.122880
2092.000000	64.204760
2091.000000	64.306018
2090.000000	64.413144
2089.000000	64.506817
2088.000000	64.574050
2087.000000	64.613994
2086.000000	64.634569
2085.000000	64.649360
2084.000000	64.675660
2083.000000	64.726129
2082.000000	64.798560
2081.000000	64.876834
2080.000000	64.942551
2079.000000	64.983299
2078.000000	64.993795
2077.000000	64.977971
2076.000000	64.950747
2075.000000	64.931353
2074.000000	64.930964
2073.000000	64.948686
2072.000000	64.977038
2071.000000	65.005501
2070.000000	65.021628
2069.000000	65.016825
2068.000000	64.993537
2067.000000	64.963033
2066.000000	64.936974
2065.000000	64.924290
2064.000000	64.931131
2063.000000	64.956304
2062.000000	64.988232
2061.000000	65.013379
2060.000000	65.028584
2059.000000	65.041031
2058.000000	65.057864
2057.000000	65.082034
2056.000000	65.115874
2055.000000	65.160212
2054.000000	65.209694
2053.000000	65.256302
2052.000000	65.298858
2051.000000	65.343950
2050.000000	65.397923
2049.000000	65.463870
2048.000000	65.544374
2047.000000	65.638872
2046.000000	65.738426
2045.000000	65.829970
2044.000000	65.907484
2043.000000	65.975194
2042.000000	66.042292
2041.000000	66.120440
2040.000000	66.222377
2039.000000	66.353602
2038.000000	66.504269
2037.000000	66.654808
2036.000000	66.790550
2035.000000	66.907228
2034.000000	67.006640
2033.000000	67.096748
2032.000000	67.194419
2031.000000	67.317587
2030.000000	67.470768
2029.000000	67.643121
2028.000000	67.818876
2027.000000	67.983672
2026.000000	68.124477
2025.000000	68.235334
2024.000000	68.326798
2023.000000	68.421094
2022.000000	68.535421
2021.000000	68.673567
2020.000000	68.830121
2019.000000	68.993360
2018.000000	69.146064
2017.000000	69.275110
2016.000000	69.381762
2015.000000	69.476936
2014.000000	69.569485
2013.000000	69.665422
2012.000000	69.773135
2011.000000	69.897909
2010.000000	70.031648
2009.000000	70.157998
2008.000000	70.267831
2007.000000	70.362544
2006.000000	70.444903
2005.000000	70.517476
2004.000000	70.589650
2003.000000	70.672281
2002.000000	70.765317
2001.000000	70.858588
2000.000000	70.944985
1999.000000	71.025591
1998.000000	71.101091
1997.000000	71.169891
1996.000000	71.234974
1995.000000	71.301635
1994.000000	71.367127
1993.000000	71.424408
1992.000000	71.477256
1991.000000	71.535207
1990.000000	71.595635
1989.000000	71.649576
1988.000000	71.701292
1987.000000	71.764909
1986.000000	71.842771
1985.000000	71.920921
1984.000000	71.986763
1983.000000	72.037251
1982.000000	72.071523
1981.000000	72.090109
1980.000000	72.104387
1979.000000	72.133667
1978.000000	72.186373
1977.000000	72.254779
1976.000000	72.328141
1975.000000	72.398124
1974.000000	72.451940
1973.000000	72.477138
1972.000000	72.478469
1971.000000	72.477295
1970.000000	72.490021
1969.000000	72.517475
1968.000000	72.557445
1967.000000	72.613376
1966.000000	72.680825
1965.000000	72.740369
1964.000000	72.776043
1963.000000	72.788361
1962.000000	72.786478
1961.000000	72.781729
1960.000000	72.789790
1959.000000	72.823869
1958.000000	72.879664
1957.000000	72.937291
1956.000000	72.980873
1955.000000	73.007823
1954.000000	73.019051
1953.000000	73.015643
1952.000000	73.008011
1951.000000	73.013084
1950.000000	73.038883
1949.000000	73.078545
1948.000000	73.119830
1947.000000	73.152751
1946.000000	73.168525
1945.000000	73.162955
1944.000000	73.142770
1943.000000	73.125987
1942.000000	73.130986
1941.000000	73.158968
1940.000000	73.197263
1939.000000	73.235037
1938.000000	73.263810
1937.000000	73.278271
1936.000000	73.283772
1935.000000	73.291348
1934.000000	73.302753
1933.000000	73.311754
1932.000000	73.317910
1931.000000	73.324819
1930.000000	73.330120
1929.000000	73.326283
1928.000000	73.316312
1927.000000	73.313675
1926.000000	73.323805
1925.000000	73.337369
1924.000000	73.338679
1923.000000	73.323598
1922.000000	73.298112
1921.000000	73.263834
1920.000000	73.226344
1919.000000	73.197063
1918.000000	73.183485
1917.000000	73.189775
1916.000000	73.214411
1915.000000	73.249101
1914.000000	73.280525
1913.000000	73.295614
1912.000000	73.289556
1911.000000	73.262694
1910.000000	73.216889
1909.000000	73.161454
1908.000000	73.117828
1907.000000	73.102868
1906.000000	73.110754
1905.000000	73.123382
1904.000000	73.128714
1903.000000	73.123782
1902.000000	73.106623
1901.000000	73.075635
1900.000000	73.039886
1899.000000	73.015268
1898.000000	73.006960
1897.000000	73.007565
1896.000000	73.010013
1895.000000	73.013176
1894.000000	73.012096
1893.000000	72.997296
1892.000000	72.970860
1891.000000	72.943519
1890.000000	72.923828
1889.000000	72.923302
1888.000000	72.948009
1887.000000	72.986976
1886.000000	73.020135
1885.000000	73.034114
1884.000000	73.032871
1883.000000	73.028557
1882.000000	73.024216
1881.000000	73.014514
1880.000000	73.001618
1879.000000	72.995513
1878.000000	72.996295
1877.000000	72.995293
1876.000000	72.991704
1875.000000	72.987865
1874.000000	72.973233
1873.000000	72.935465
1872.000000	72.887452
1871.000000	72.861429
1870.000000	72.858788
1869.000000	72.850165
1868.000000	72.835179
1867.000000	72.832428
1866.000000	72.837450
1865.000000	72.836063
1864.000000	72.827644
1863.000000	72.819356
1862.000000	72.810050
1861.000000	72.792390
1860.000000	72.766794
1859.000000	72.740242
1858.000000	72.713553
1857.000000	72.683111
1856.000000	72.653686
1855.000000	72.632545
1854.000000	72.616736
1853.000000	72.596123
1852.000000	72.569264
1851.000000	72.543214
1850.000000	72.510616
1849.000000	72.454609
1848.000000	72.378116
1847.000000	72.304232
1846.000000	72.253557
1845.000000	72.222712
1844.000000	72.197330
1843.000000	72.180068
1842.000000	72.173368
1841.000000	72.164076
1840.000000	72.142023
1839.000000	72.105564
1838.000000	72.053776
1837.000000	71.990608
1836.000000	71.925807
1835.000000	71.862270
1834.000000	71.791854
1833.000000	71.713050
1832.000000	71.648931
1831.000000	71.603949
1830.000000	71.547381
1829.000000	71.466804
1828.000000	71.373927
1827.000000	71.290617
1826.000000	71.231214
1825.000000	71.192528
1824.000000	71.174089
1823.000000	71.169210
1822.000000	71.153158
1821.000000	71.104953
1820.000000	71.030815
1819.000000	70.952738
1818.000000	70.880036
1817.000000	70.812888
1816.000000	70.756181
1815.000000	70.712531
1814.000000	70.668835
1813.000000	70.607376
1812.000000	70.530203
1811.000000	70.453517
1810.000000	70.383111
1809.000000	70.312716
1808.000000	70.243162
1807.000000	70.180361
1806.000000	70.114286
1805.000000	70.028197
1804.000000	69.924407
1803.000000	69.824190
1802.000000	69.741467
1801.000000	69.680012
1800.000000	69.647913
1799.000000	69.637689
1798.000000	69.616921
1797.000000	69.562949
1796.000000	69.484229
1795.000000	69.401566
1794.000000	69.321474
1793.000000	69.223005
1792.000000	69.110616
1791.000000	69.035053
1790.000000	69.005911
1789.000000	68.978313
1788.000000	68.924254
1787.000000	68.855498
1786.000000	68.791222
1785.000000	68.738270
1784.000000	68.697077
1783.000000	68.665037
1782.000000	68.623896
1781.000000	68.554211
1780.000000	68.474535
1779.000000	68.416897
1778.000000	68.387080
1777.000000	68.378908
1776.000000	68.390189
1775.000000	68.407050
1774.000000	68.386354
1773.000000	68.258422
1772.000000	68.036182
1771.000000	67.839175
1770.000000	67.724687
1769.000000	67.658889
1768.000000	67.611358
1767.000000	67.576365
1766.000000	67.537104
1765.000000	67.463461
1764.000000	67.359763
1763.000000	67.263212
1762.000000	67.189157
1761.000000	67.122087
1760.000000	67.047304
1759.000000	66.966329
1758.000000	66.884687
1757.000000	66.802392
1756.000000	66.739482
1755.000000	66.717733
1754.000000	66.705321
1753.000000	66.643676
1752.000000	66.520494
1751.000000	66.376763
1750.000000	66.251018
1749.000000	66.142687
1748.000000	66.040368
1747.000000	65.945807
1746.000000	65.846805
1745.000000	65.718504
1744.000000	65.566453
1743.000000	65.429895
1742.000000	65.330371
1741.000000	65.244447
1740.000000	65.136451
1739.000000	65.017533
1738.000000	64.939771
1737.000000	64.897761
1736.000000	64.867030
1735.000000	64.804868
1734.000000	64.612591
1733.000000	64.292912
1732.000000	63.954246
1731.000000	63.677329
1730.000000	63.462555
1729.000000	63.267831
1728.000000	63.078332
1727.000000	62.904213
1726.000000	62.738398
1725.000000	62.552734
1724.000000	62.335169
1723.000000	62.100828
1722.000000	61.885905
1721.000000	61.730768
1720.000000	61.663301
1719.000000	61.608770
1718.000000	61.379845
1717.000000	60.938356
1716.000000	60.456354
1715.000000	60.082504
1714.000000	59.822882
1713.000000	59.595139
1712.000000	59.342761
1711.000000	59.066907
1710.000000	58.773158
1709.000000	58.460306
1708.000000	58.154269
1707.000000	57.873703
1706.000000	57.582243
1705.000000	57.260302
1704.000000	56.947689
1703.000000	56.629951
1702.000000	56.327889
1701.000000	56.107928
1700.000000	55.936681
1699.000000	55.818381
1698.000000	55.708033
1697.000000	55.432106
1696.000000	54.941792
1695.000000	54.368049
1694.000000	53.858278
1693.000000	53.464177
1692.000000	53.137729
1691.000000	52.816983
1690.000000	52.505906
1689.000000	52.264666
1688.000000	52.121601
1687.000000	51.979419
1686.000000	51.705325
1685.000000	51.156051
1684.000000	50.404336
1683.000000	49.795222
1682.000000	49.416611
1681.000000	49.107938
1680.000000	48.765762
1679.000000	48.389402
1678.000000	48.005797
1677.000000	47.607203
1676.000000	47.190312
1675.000000	46.778741
1674.000000	46.405136
1673.000000	46.063157
1672.000000	45.728237
1671.000000	45.380141
1670.000000	44.993810
1669.000000	44.574021
1668.000000	44.161831
1667.000000	43.790155
1666.000000	43.449106
1665.000000	43.108174
1664.000000	42.752308
1663.000000	42.386117
1662.000000	42.029621
1661.000000	41.683038
1660.000000	41.330760
1659.000000	40.976978
1658.000000	40.656829
1657.000000	40.413786
1656.000000	40.249086
1655.000000	40.142820
1654.000000	39.946295
1653.000000	39.516623
1652.000000	38.947649
1651.000000	38.409490
1650.000000	38.016740
1649.000000	37.744389
1648.000000	37.457257
1647.000000	37.105344
1646.000000	36.763258
1645.000000	36.449490
1644.000000	36.139223
1643.000000	35.848648
1642.000000	35.570619
1641.000000	35.278283
1640.000000	34.990284
1639.000000	34.750955
1638.000000	34.556535
1637.000000	34.327670
1636.000000	34.022593
1635.000000	33.723854
1634.000000	33.478631
1633.000000	33.252072
1632.000000	33.022982
1631.000000	32.798887
1630.000000	32.595109
1629.000000	32.406304
1628.000000	32.223483
1627.000000	32.058479
1626.000000	31.914489
1625.000000	31.772492
1624.000000	31.616296
1623.000000	31.462138
1622.000000	31.344325
1621.000000	31.277846
1620.000000	31.265699
1619.000000	31.296378
1618.000000	31.316269
1617.000000	31.248538
1616.000000	31.088243
1615.000000	30.920277
1614.000000	30.809655
1613.000000	30.752035
1612.000000	30.723179
1611.000000	30.722417
1610.000000	30.751387
1609.000000	30.785436
1608.000000	30.803934
1607.000000	30.818564
1606.000000	30.844538
1605.000000	30.875690
1604.000000	30.908655
1603.000000	30.959556
1602.000000	31.037250
1601.000000	31.124923
1600.000000	31.205663
1599.000000	31.282817
1598.000000	31.360390
1597.000000	31.428866
1596.000000	31.486218
1595.000000	31.551926
1594.000000	31.641420
1593.000000	31.744236
1592.000000	31.844187
1591.000000	31.940004
1590.000000	32.031209
1589.000000	32.106713
1588.000000	32.164613
1587.000000	32.224103
1586.000000	32.301364
1585.000000	32.390713
1584.000000	32.483609
1583.000000	32.583159
1582.000000	32.688613
1581.000000	32.797425
1580.000000	32.928036
1579.000000	33.101739
1578.000000	33.293153
1577.000000	33.427740
1576.000000	33.466665
1575.000000	33.448848
1574.000000	33.427386
1573.000000	33.421728
1572.000000	33.434252
1571.000000	33.478512
1570.000000	33.560153
1569.000000	33.661926
1568.000000	33.760139
1567.000000	33.855482
1566.000000	33.967752
1565.000000	34.107486
1564.000000	34.256484
1563.000000	34.400196
1562.000000	34.470798
1561.000000	34.531784
1560.000000	34.653979
1559.000000	34.789582
1558.000000	35.001642
1557.000000	35.195818
1556.000000	35.310326
1555.000000	35.418137
1554.000000	35.533477
1553.000000	35.640054
1552.000000	35.735692
1551.000000	35.865107
1550.000000	36.058584
1549.000000	36.296379
1548.000000	36.525276
1547.000000	36.734071
1546.000000	36.959383
1545.000000	37.216044
1544.000000	37.502440
1543.000000	37.849144
1542.000000	38.299467
1541.000000	38.792989
1540.000000	39.250897
1539.000000	39.636490
1538.000000	39.867298
1537.000000	39.974690
1536.000000	40.084610
1535.000000	40.296454
1534.000000	40.654739
1533.000000	41.117162
1532.000000	41.594742
1531.000000	42.021046
1530.000000	42.403731
1529.000000	42.783493
1528.000000	43.180437
1527.000000	43.604492
1526.000000	44.063321
1525.000000	44.542929
1524.000000	45.033060
1523.000000	45.544849
1522.000000	46.074089
1521.000000	46.573845
1520.000000	46.977799
1519.000000	47.311957
1518.000000	47.668432
1517.000000	48.079452
1516.000000	48.531518
1515.000000	48.995496
1514.000000	49.445251
1513.000000	49.880446
1512.000000	50.304361
1511.000000	50.735688
1510.000000	51.191213
1509.000000	51.699926
1508.000000	52.194016
1507.000000	52.700080
1506.000000	53.361044
1505.000000	53.934263
1504.000000	54.267591
1503.000000	54.525674
1502.000000	54.805223
1501.000000	55.126272
1500.000000	55.511658
1499.000000	55.998396
1498.000000	56.560144
1497.000000	57.115043
1496.000000	57.600118
1495.000000	57.989276
1494.000000	58.281026
1493.000000	58.498631
1492.000000	58.712878
1491.000000	58.993613
1490.000000	59.331610
1489.000000	59.689798
1488.000000	60.062537
1487.000000	60.452005
1486.000000	60.823574
1485.000000	61.112001
1484.000000	61.297914
1483.000000	61.423217
1482.000000	61.508362
1481.000000	61.529795
1480.000000	61.480134
1479.000000	61.387183
1478.000000	61.259809
1477.000000	61.071819
1476.000000	60.803918
1475.000000	60.433944
1474.000000	59.847399
1473.000000	58.899471
1472.000000	57.685247
1471.000000	56.425789
1470.000000	55.117780
1469.000000	53.611095
1468.000000	51.813812
1467.000000	49.660965
1466.000000	47.000685
1465.000000	43.761399
1464.000000	40.257884
1463.000000	36.938083
1462.000000	33.923463
1461.000000	31.118998
1460.000000	28.467025
1459.000000	25.899384
1458.000000	23.230621
1457.000000	20.531373
1456.000000	18.369711
1455.000000	17.048584
1454.000000	16.298741
1453.000000	15.841885
1452.000000	15.629206
1451.000000	15.693416
1450.000000	16.015262
1449.000000	16.578585
1448.000000	17.415039
1447.000000	18.488007
1446.000000	19.670058
1445.000000	20.891397
1444.000000	22.189721
1443.000000	23.591162
1442.000000	25.033994
1441.000000	26.427745
1440.000000	27.735924
1439.000000	29.012784
1438.000000	30.410874
1437.000000	32.068041
1436.000000	33.863244
1435.000000	35.487104
1434.000000	36.827070
1433.000000	38.004531
1432.000000	39.135555
1431.000000	40.223288
1430.000000	41.204947
1429.000000	42.035306
1428.000000	42.691111
1427.000000	43.168037
1426.000000	43.505875
1425.000000	43.758863
1424.000000	43.955475
1423.000000	44.100002
1422.000000	44.193091
1421.000000	44.273498
1420.000000	44.419839
1419.000000	44.678338
1418.000000	45.048276
1417.000000	45.517886
1416.000000	46.077573
1415.000000	46.715550
1414.000000	47.419225
1413.000000	48.187138
1412.000000	49.021378
1411.000000	49.909538
1410.000000	50.825502
1409.000000	51.743872
1408.000000	52.641986
1407.000000	53.504624
1406.000000	54.343243
1405.000000	55.177427
1404.000000	55.979070
1403.000000	56.675616
1402.000000	57.247350
1401.000000	57.767803
1400.000000	58.306614
1399.000000	58.845023
1398.000000	59.324045
1397.000000	59.725595
1396.000000	60.070500
1395.000000	60.391555
1394.000000	60.715595
1393.000000	61.027316
1392.000000	61.279748
1391.000000	61.446188
1390.000000	61.536614
1389.000000	61.563777
1388.000000	61.505135
1387.000000	61.343446
1386.000000	61.136861
1385.000000	60.975018
1384.000000	60.898023
1383.000000	60.894248
1382.000000	60.928369
1381.000000	60.948996
1380.000000	60.893769
1379.000000	60.727797
1378.000000	60.473814
1377.000000	60.177887
1376.000000	59.855471
1375.000000	59.504814
1374.000000	59.165559
1373.000000	58.890105
1372.000000	58.656681
1371.000000	58.399205
1370.000000	58.091729
1369.000000	57.745310
1368.000000	57.368918
1367.000000	56.962442
1366.000000	56.531520
1365.000000	56.082437
1364.000000	55.600074
1363.000000	55.074734
1362.000000	54.551353
1361.000000	54.083706
1360.000000	53.670279
1359.000000	53.294563
1358.000000	52.978640
1357.000000	52.762323
1356.000000	52.661195
1355.000000	52.666144
1354.000000	52.758637
1353.000000	52.901676
1352.000000	53.029793
1351.000000	53.071857
1350.000000	52.981204
1349.000000	52.728636
1348.000000	52.284375
1347.000000	51.628190
1346.000000	50.763122
1345.000000	49.706761
1344.000000	48.481083
1343.000000	47.109557
1342.000000	45.608687
1341.000000	43.971594
1340.000000	42.190289
1339.000000	40.306827
1338.000000	38.386201
1337.000000	36.442125
1336.000000	34.439930
1335.000000	32.360279
1334.000000	30.223934
1333.000000	28.064461
1332.000000	25.918813
1331.000000	23.844841
1330.000000	21.909532
1329.000000	20.151735
1328.000000	18.580572
1327.000000	17.196350
1326.000000	15.985563
1325.000000	14.911831
1324.000000	13.937095
1323.000000	13.050385
1322.000000	12.254341
1321.000000	11.542190
1320.000000	10.918067
1319.000000	10.417851
1318.000000	10.089570
1317.000000	9.960286
1316.000000	10.037838
1315.000000	10.330820
1314.000000	10.834036
1313.000000	11.515149
1312.000000	12.333466
1311.000000	13.258570
1310.000000	14.268211
1309.000000	15.336360
1308.000000	16.439576
1307.000000	17.564396
1306.000000	18.696448
1305.000000	19.813975
1304.000000	20.897585
1303.000000	21.939060
1302.000000	22.935969
1301.000000	23.885301
1300.000000	24.786085
1299.000000	25.642108
1298.000000	26.454372
1297.000000	27.215465
1296.000000	27.920951
1295.000000	28.584175
1294.000000	29.236399
1293.000000	29.915147
1292.000000	30.655468
1291.000000	31.485962
1290.000000	32.423948
1289.000000	33.469022
1288.000000	34.602009
1287.000000	35.791185
1286.000000	36.998606
1285.000000	38.185039
1284.000000	39.314692
1283.000000	40.362300
1282.000000	41.317363
1281.000000	42.179162
1280.000000	42.946055
1279.000000	43.615790
1278.000000	44.193701
1277.000000	44.690078
1276.000000	45.117690
1275.000000	45.498811
1274.000000	45.871480
1273.000000	46.279766
1272.000000	46.755963
1271.000000	47.316514
1270.000000	47.967520
1269.000000	48.702531
1268.000000	49.497915
1267.000000	50.324754
1266.000000	51.166080
1265.000000	52.015651
1264.000000	52.862864
1263.000000	53.689946
1262.000000	54.481922
1261.000000	55.225348
1260.000000	55.898602
1259.000000	56.480878
1258.000000	56.975325
1257.000000	57.405263
1256.000000	57.790878
1255.000000	58.141903
1254.000000	58.462951
1253.000000	58.749550
1252.000000	58.975896
1251.000000	59.108369
1250.000000	59.134680
1249.000000	59.067147
1248.000000	58.927365
1247.000000	58.737632
1246.000000	58.521372
1245.000000	58.290322
1244.000000	58.025383
1243.000000	57.688795
1242.000000	57.251870
1241.000000	56.705530
1240.000000	56.057685
1239.000000	55.335662
1238.000000	54.588472
1237.000000	53.864914
1236.000000	53.187355
1235.000000	52.552305
1234.000000	51.946892
1233.000000	51.357276
1232.000000	50.772769
1231.000000	50.199090
1230.000000	49.665431
1229.000000	49.211993
1228.000000	48.867003
1227.000000	48.639668
1226.000000	48.525922
1225.000000	48.506941
1224.000000	48.553319
1223.000000	48.638428
1222.000000	48.752478
1221.000000	48.903145
1220.000000	49.101581
1219.000000	49.356802
1218.000000	49.673446
1217.000000	50.044842
1216.000000	50.450403
1215.000000	50.865502
1214.000000	51.278330
1213.000000	51.691630
1212.000000	52.111687
1211.000000	52.543940
1210.000000	52.993445
1209.000000	53.458773
1208.000000	53.924801
1207.000000	54.371281
1206.000000	54.790877
1205.000000	55.193286
1204.000000	55.594659
1203.000000	56.011407
1202.000000	56.458300
1201.000000	56.936499
1200.000000	57.422199
1199.000000	57.877716
1198.000000	58.277381
1197.000000	58.619701
1196.000000	58.921274
1195.000000	59.212931
1194.000000	59.535835
1193.000000	59.920179
1192.000000	60.359939
1191.000000	60.813458
1190.000000	61.230060
1189.000000	61.571184
1188.000000	61.818262
1187.000000	61.985434
1186.000000	62.126246
1185.000000	62.308909
1184.000000	62.573832
1183.000000	62.913865
1182.000000	63.285983
1181.000000	63.628736
1180.000000	63.882058
1179.000000	64.018744
1178.000000	64.065384
1177.000000	64.083482
1176.000000	64.129930
1175.000000	64.239386
1174.000000	64.424896
1173.000000	64.669281
1172.000000	64.920055
1171.000000	65.113961
1170.000000	65.216548
1169.000000	65.234514
1168.000000	65.199038
1167.000000	65.153372
1166.000000	65.145876
1165.000000	65.207658
1164.000000	65.329363
1163.000000	65.470142
1162.000000	65.591391
1161.000000	65.673536
1160.000000	65.710796
1159.000000	65.712135
1158.000000	65.706310
1157.000000	65.725264
1156.000000	65.778010
1155.000000	65.850802
1154.000000	65.929158
1153.000000	66.006507
1152.000000	66.077551
1151.000000	66.142879
1150.000000	66.219114
1149.000000	66.324941
1148.000000	66.455427
1147.000000	66.583265
1146.000000	66.684617
1145.000000	66.752459
1144.000000	66.791897
1143.000000	66.822967
1142.000000	66.884895
1141.000000	67.015046
1140.000000	67.216107
1139.000000	67.451816
1138.000000	67.671374
1137.000000	67.829551
1136.000000	67.896648
1135.000000	67.877235
1134.000000	67.823445
1133.000000	67.810691
1132.000000	67.891200
1131.000000	68.071580
1130.000000	68.318731
1129.000000	68.569273
1128.000000	68.742731
1127.000000	68.779094
1126.000000	68.680473
1125.000000	68.508839
1124.000000	68.345368
1123.000000	68.256873
1122.000000	68.279161
1121.000000	68.398795
1120.000000	68.542567
1119.000000	68.609695
1118.000000	68.529201
1117.000000	68.289202
1116.000000	67.928048
1115.000000	67.516124
1114.000000	67.135889
1113.000000	66.842885
1112.000000	66.627139
1111.000000	66.420926
1110.000000	66.138602
1109.000000	65.711812
1108.000000	65.106193
1107.000000	64.332330
1106.000000	63.448627
1105.000000	62.525671
1104.000000	61.600436
1103.000000	60.663236
1102.000000	59.669206
1101.000000	58.558743
1100.000000	57.273631
1099.000000	55.781626
1098.000000	54.096318
1097.000000	52.256611
1096.000000	50.300000
1095.000000	48.247378
1094.000000	46.100350
1093.000000	43.846097
1092.000000	41.466304
1091.000000	38.963489
1090.000000	36.371311
1089.000000	33.743264
1088.000000	31.140189
1087.000000	28.623107
1086.000000	26.239046
1085.000000	24.012285
1084.000000	21.956987
1083.000000	20.084094
1082.000000	18.401578
1081.000000	16.907723
1080.000000	15.599002
1079.000000	14.475955
1078.000000	13.521063
1077.000000	12.701718
1076.000000	11.988369
1075.000000	11.362326
1074.000000	10.808487
1073.000000	10.308572
1072.000000	9.858532
1071.000000	9.468206
1070.000000	9.139557
1069.000000	8.863273
1068.000000	8.632696
1067.000000	8.449798
1066.000000	8.310882
1065.000000	8.204147
1064.000000	8.129484
1063.000000	8.099054
1062.000000	8.119506
1061.000000	8.187106
1060.000000	8.300689
1059.000000	8.464530
1058.000000	8.671763
1057.000000	8.905821
1056.000000	9.161090
1055.000000	9.445720
1054.000000	9.766249
1053.000000	10.122297
1052.000000	10.519906
1051.000000	10.971730
1050.000000	11.477402
1049.000000	12.023407
1048.000000	12.600826
1047.000000	13.211536
1046.000000	13.858176
1045.000000	14.541314
1044.000000	15.270782
1043.000000	16.059949
1042.000000	16.908290
1041.000000	17.801426
1040.000000	18.724891
1039.000000	19.671516
1038.000000	20.635398
1037.000000	21.613140
1036.000000	22.613082
1035.000000	23.648988
1034.000000	24.724849
1033.000000	25.829388
1032.000000	26.943658
1031.000000	28.047770
1030.000000	29.123772
1029.000000	30.163870
1028.000000	31.178534
1027.000000	32.191751
1026.000000	33.224574
1025.000000	34.282745
1024.000000	35.353260
1023.000000	36.408369
1022.000000	37.417078
1021.000000	38.359010
1020.000000	39.235327
1019.000000	40.069041
1018.000000	40.895021
1017.000000	41.744438
1016.000000	42.628693
1015.000000	43.534074
1014.000000	44.428049
1013.000000	45.273175
1012.000000	46.043697
1011.000000	46.737998
1010.000000	47.382277
1009.000000	48.017711
1008.000000	48.677993
1007.000000	49.375919
1006.000000	50.101461
1005.000000	50.826300
1004.000000	51.513179
1003.000000	52.133708
1002.000000	52.686083
1001.000000	53.193548
1000.000000	53.687917
999.000000	54.196127
998.000000	54.733430
997.000000	55.297276
996.000000	55.864199
995.000000	56.403626
994.000000	56.899757
993.000000	57.356604
992.000000	57.787135
991.000000	58.206046
990.000000	58.628824
989.000000	59.063952
988.000000	59.502725
987.000000	59.927714
986.000000	60.331317
985.000000	60.719829
984.000000	61.102215
983.000000	61.485193
982.000000	61.876472
981.000000	62.277254
980.000000	62.670515
979.000000	63.030737
978.000000	63.347399
977.000000	63.632056
976.000000	63.904965
975.000000	64.186347
974.000000	64.496707
973.000000	64.845597
972.000000	65.215722
971.000000	65.568542
970.000000	65.870395
969.000000	66.109228
968.000000	66.292420
967.000000	66.446408
966.000000	66.615956
965.000000	66.842622
964.000000	67.135424
963.000000	67.466383
962.000000	67.791950
961.000000	68.071301
960.000000	68.274076
959.000000	68.395603
958.000000	68.470131
957.000000	68.554567
956.000000	68.691923
955.000000	68.893553
954.000000	69.147050
953.000000	69.420804
952.000000	69.665817
951.000000	69.838101
950.000000	69.929891
949.000000	69.971238
948.000000	70.003603
947.000000	70.061718
946.000000	70.171543
945.000000	70.340041
944.000000	70.542468
943.000000	70.734347
942.000000	70.882753
941.000000	70.979064
940.000000	71.028000
939.000000	71.044354
938.000000	71.057921
937.000000	71.099558
936.000000	71.176710
935.000000	71.273434
934.000000	71.372647
933.000000	71.464129
932.000000	71.534684
931.000000	71.571580
930.000000	71.577442
929.000000	71.566536
928.000000	71.545538
927.000000	71.512360
926.000000	71.473156
925.000000	71.441453
924.000000	71.420647
923.000000	71.402078
922.000000	71.378917
921.000000	71.346357
920.000000	71.288951
919.000000	71.187102
918.000000	71.039227
917.000000	70.862746
916.000000	70.675601
915.000000	70.490101
914.000000	70.319802
913.000000	70.171900
912.000000	70.029195
911.000000	69.857553
910.000000	69.632247
909.000000	69.347896
908.000000	69.009009
907.000000	68.628697
906.000000	68.235644
905.000000	67.860007
904.000000	67.506597
903.000000	67.154165
902.000000	66.776588
901.000000	66.354234
900.000000	65.870756
899.000000	65.319444
898.000000	64.716699
897.000000	64.090985
896.000000	63.458765
895.000000	62.819196
894.000000	62.165558
893.000000	61.488439
892.000000	60.768241
891.000000	59.984786
890.000000	59.136389
889.000000	58.237298
888.000000	57.299632
887.000000	56.325782
886.000000	55.315721
885.000000	54.268343
884.000000	53.175347
883.000000	52.028453
882.000000	50.830065
881.000000	49.590695
880.000000	48.317704
879.000000	47.011885
878.000000	45.673126
877.000000	44.299556
876.000000	42.886445
875.000000	41.434299
874.000000	39.955187
873.000000	38.467502
872.000000	36.985893
871.000000	35.518085
870.000000	34.065807
869.000000	32.625463
868.000000	31.191632
867.000000	29.763247
866.000000	28.346591
865.000000	26.952774
864.000000	25.596353
863.000000	24.290846
862.000000	23.041731
861.000000	21.846160
860.000000	20.699654
859.000000	19.605018
858.000000	18.572114
857.000000	17.618176
856.000000	16.772889
855.000000	16.068570
854.000000	15.526975
853.000000	15.149810
852.000000	14.919915
851.000000	14.805971
850.000000	14.762527
849.000000	14.745841
848.000000	14.730435
847.000000	14.710561
846.000000	14.691576
845.000000	14.683176
844.000000	14.699502
843.000000	14.751961
842.000000	14.840949
841.000000	14.962508
840.000000	15.119553
839.000000	15.322380
838.000000	15.580222
837.000000	15.898153
836.000000	16.280071
835.000000	16.722148
834.000000	17.206722
833.000000	17.709691
832.000000	18.214740
831.000000	18.720319
830.000000	19.236401
829.000000	19.781708
828.000000	20.378647
827.000000	21.041674
826.000000	21.770997
825.000000	22.556363
824.000000	23.383131
823.000000	24.234024
822.000000	25.093310
821.000000	25.957486
820.000000	26.835500
819.000000	27.736190
818.000000	28.656926
817.000000	29.581927
816.000000	30.484265
815.000000	31.331830
814.000000	32.102928
813.000000	32.801424
812.000000	33.455843
811.000000	34.104129
810.000000	34.779050
809.000000	35.497423
808.000000	36.250625
807.000000	37.006552
806.000000	37.728143
805.000000	38.396091
804.000000	39.016712
803.000000	39.616776
802.000000	40.234343
801.000000	40.902321
800.000000	41.626242
799.000000	42.377074
798.000000	43.109472
797.000000	43.787680
796.000000	44.398123
795.000000	44.954186
794.000000	45.496357
793.000000	46.074861
792.000000	46.717089
791.000000	47.409266
790.000000	48.107984
789.000000	48.764262
788.000000	49.341185
787.000000	49.831112
786.000000	50.268395
785.000000	50.714530
784.000000	51.218829
783.000000	51.790881
782.000000	52.402921
781.000000	53.003333
780.000000	53.531256
779.000000	53.945852
778.000000	54.260340
777.000000	54.540965
776.000000	54.864276
775.000000	55.276286
774.000000	55.781159
773.000000	56.341259
772.000000	56.881514
771.000000	57.320576
770.000000	57.624410
769.000000	57.830661
768.000000	58.019864
767.000000	58.271643
766.000000	58.637866
765.000000	59.121301
764.000000	59.660093
763.000000	60.148848
762.000000	60.501729
761.000000	60.702527
760.000000	60.802374
759.000000	60.888504
758.000000	61.053200
757.000000	61.354863
756.000000	61.779420
755.000000	62.240143
754.000000	62.629444
753.000000	62.876041
752.000000	62.969594
751.000000	62.961137
750.000000	62.949116
749.000000	63.034941
748.000000	63.262311
747.000000	63.591401
746.000000	63.929913
745.000000	64.182025
744.000000	64.284271
743.000000	64.234536
742.000000	64.107013
741.000000	64.017921
740.000000	64.053824
739.000000	64.226126
738.000000	64.481306
737.000000	64.732021
736.000000	64.886138
735.000000	64.890534
734.000000	64.777421
733.000000	64.654096
732.000000	64.632659
731.000000	64.769644
730.000000	65.056125
729.000000	65.426793
728.000000	65.772959
727.000000	65.990257
726.000000	66.050960
725.000000	66.027515
724.000000	66.037947
723.000000	66.178526
722.000000	66.493434
721.000000	66.959892
720.000000	67.476669
719.000000	67.900946
718.000000	68.137890
717.000000	68.200247
716.000000	68.184308
715.000000	68.212204
714.000000	68.389898
713.000000	68.765506
712.000000	69.286573
711.000000	69.811986
710.000000	70.196985
709.000000	70.375307
708.000000	70.375890
707.000000	70.300705
706.000000	70.291328
705.000000	70.469127
704.000000	70.859347
703.000000	71.367246
702.000000	71.840998
701.000000	72.156653
700.000000	72.258955
699.000000	72.181872
698.000000	72.053295
697.000000	72.040627
696.000000	72.245484
695.000000	72.642868
694.000000	73.117620
693.000000	73.533089
692.000000	73.771493
691.000000	73.781349
690.000000	73.630314
689.000000	73.487283
688.000000	73.510630
687.000000	73.748577
686.000000	74.146395
685.000000	74.594711
684.000000	74.949249
683.000000	75.080223
682.000000	74.973499
681.000000	74.761986
680.000000	74.624722
679.000000	74.671505
678.000000	74.926574
677.000000	75.338911
676.000000	75.764403
675.000000	76.029634
674.000000	76.049329
673.000000	75.883447
672.000000	75.687882
671.000000	75.624179
670.000000	75.812985
669.000000	76.295114
668.000000	76.895110
667.000000	77.281773
666.000000	77.329492
665.000000	77.124833
664.000000	76.801393
663.000000	76.507408
662.000000	76.389038
661.000000	76.530367
660.000000	76.898335
659.000000	77.356066
658.000000	77.729599
657.000000	77.885035
656.000000	77.786760
655.000000	77.535649
654.000000	77.312504
653.000000	77.265333
652.000000	77.450030
651.000000	77.822541
650.000000	78.248085
649.000000	78.548210
648.000000	78.599206
647.000000	78.413681
646.000000	78.131134
645.000000	77.930477
644.000000	77.938154
643.000000	78.180519
642.000000	78.573619
641.000000	78.952757
640.000000	79.150695
639.000000	79.091238
638.000000	78.832406
637.000000	78.530808
636.000000	78.360072
635.000000	78.431514
634.000000	78.739680
633.000000	79.154725
632.000000	79.480655
631.000000	79.561068
630.000000	79.369670
629.000000	79.019500
628.000000	78.696673
627.000000	78.574345
626.000000	78.736284
625.000000	79.130749
624.000000	79.586663
623.000000	79.899170
622.000000	79.941539
621.000000	79.727812
620.000000	79.391260
619.000000	79.115746
618.000000	79.057171
617.000000	79.270258
616.000000	79.674475
615.000000	80.092048
614.000000	80.340073
613.000000	80.321666
612.000000	80.066875
611.000000	79.717777
610.000000	79.466940
609.000000	79.459887
608.000000	79.714787
607.000000	80.114659
606.000000	80.473984
605.000000	80.630119
604.000000	80.512379
603.000000	80.174686
602.000000	79.778046
601.000000	79.503620
600.000000	79.446309
599.000000	79.562833
598.000000	79.704195
597.000000	79.698989
596.000000	79.440837
595.000000	78.952768
594.000000	78.397579
593.000000	77.997201
592.000000	77.914036
591.000000	78.179136
590.000000	78.690487
589.000000	79.262662
588.000000	79.701849
587.000000	79.889222
586.000000	79.843595
585.000000	79.708253
584.000000	79.656079
583.000000	79.796067
582.000000	80.138958
581.000000	80.596484
580.000000	81.004828
579.000000	81.199848
578.000000	81.122287
577.000000	80.857678
576.000000	80.580624
575.000000	80.462712
574.000000	80.591854
573.000000	80.932956
572.000000	81.344746
571.000000	81.643826
570.000000	81.700856
569.000000	81.508475
568.000000	81.170730
567.000000	80.851943
566.000000	80.712309
565.000000	80.826950
564.000000	81.133395
563.000000	81.465523
562.000000	81.653550
561.000000	81.613139
560.000000	81.366061
559.000000	81.021673
558.000000	80.740582
557.000000	80.659892
556.000000	80.810575
555.000000	81.102054
554.000000	81.383642
553.000000	81.523802
552.000000	81.458893
551.000000	81.225285
550.000000	80.961056
549.000000	80.830396
548.000000	80.913993
547.000000	81.171214
546.000000	81.486053
545.000000	81.732078
544.000000	81.811162
543.000000	81.692770
542.000000	81.452429
541.000000	81.244063
540.000000	81.198618
539.000000	81.350741
538.000000	81.639747
537.000000	81.946452
536.000000	82.133250
535.000000	82.109412
534.000000	81.899500
533.000000	81.636800
532.000000	81.472716
531.000000	81.493371
530.000000	81.694644
529.000000	81.990372
528.000000	82.241419
527.000000	82.319717
526.000000	82.190642
525.000000	81.936822
524.000000	81.683776
523.000000	81.525323
522.000000	81.519198
521.000000	81.677102
520.000000	81.921686
519.000000	82.097047
518.000000	82.067152
517.000000	81.809353
516.000000	81.404375
515.000000	80.971282
514.000000	80.621292
513.000000	80.416112
512.000000	80.328226
511.000000	80.248358
510.000000	80.055384
509.000000	79.677789
508.000000	79.102320
507.000000	78.380301
506.000000	77.632223
505.000000	76.983084
504.000000	76.484464
503.000000	76.117561
502.000000	75.841040
501.000000	75.605817
500.000000	75.353370
499.000000	75.057176
498.000000	74.782549
497.000000	74.650325
496.000000	74.732539
495.000000	75.008271
494.000000	75.411009
493.000000	75.878280
492.000000	76.348060
491.000000	76.771804
490.000000	77.154506
489.000000	77.548493
488.000000	77.996094
487.000000	78.497196
486.000000	79.025561
485.000000	79.529647
484.000000	79.919838
483.000000	80.113435
482.000000	80.123993
481.000000	80.063219
480.000000	80.040858
479.000000	80.098650
478.000000	80.228411
477.000000	80.395060
476.000000	80.527865
475.000000	80.545197
474.000000	80.434550
473.000000	80.278004
472.000000	80.193898
471.000000	80.268226
470.000000	80.520686
469.000000	80.926103
468.000000	81.412159
467.000000	81.843588
466.000000	82.090259
465.000000	82.121769
464.000000	82.007276
463.000000	81.860219
462.000000	81.796809
461.000000	81.883721
460.000000	82.096888
459.000000	82.359170
458.000000	82.593378
457.000000	82.746889
456.000000	82.780713
455.000000	82.666850
454.000000	82.462511
453.000000	82.324408
452.000000	82.382226
451.000000	82.619385
450.000000	82.920026
449.000000	83.190480
448.000000	83.363331
447.000000	83.378289
446.000000	83.254949
445.000000	83.125509
444.000000	83.127991
443.000000	83.298240
442.000000	83.589238
441.000000	83.938252
440.000000	84.252034
439.000000	84.409742
438.000000	84.373466
437.000000	84.250596
436.000000	84.184441
435.000000	84.224388
434.000000	84.347956
433.000000	84.540159
432.000000	84.769887
431.000000	84.950496
430.000000	85.019641
429.000000	85.013520
428.000000	84.982600
427.000000	84.916934
426.000000	84.813558
425.000000	84.735684
424.000000	84.724084
423.000000	84.712583
422.000000	84.609116
421.000000	84.391106
420.000000	84.115183
419.000000	83.857170
418.000000	83.765309
417.000000	83.950538
416.000000	84.258536
415.000000	84.457652
414.000000	84.464198
413.000000	84.368636
412.000000	84.273765
411.000000	84.190751
410.000000	84.160418
409.000000	84.299345
408.000000	84.605132
407.000000	84.886695
406.000000	85.005373
405.000000	85.023440
404.000000	85.017847
403.000000	84.936138
402.000000	84.789196
401.000000	84.739611
400.000000	84.875953
