PE IR       SUBTECH     SPECTRUM    ASCII       PEDS        4.00        
   -1
23ms142,146,187_nitrito.asc
24/08/30
17:06:35.00
24/08/30
17:06:35.00
Administrator
Sample 1070 By Administrator Date Friday, August 30 2024
400.000000
#HDR
-1
-1
#GR
cm-1
%T
1.0
0.0
4000.000000
-1.000000
3601
8
90.758074
16.992784
#DATA
4000.000000	75.205766
3999.000000	75.239810
3998.000000	75.271627
3997.000000	75.302360
3996.000000	75.333644
3995.000000	75.366893
3994.000000	75.402563
3993.000000	75.440302
3992.000000	75.479666
3991.000000	75.520106
3990.000000	75.560153
3989.000000	75.597571
3988.000000	75.631289
3987.000000	75.662663
3986.000000	75.694243
3985.000000	75.727553
3984.000000	75.762592
3983.000000	75.798743
3982.000000	75.835149
3981.000000	75.870423
3980.000000	75.902825
3979.000000	75.931533
3978.000000	75.957846
3977.000000	75.984468
3976.000000	76.013547
3975.000000	76.045388
3974.000000	76.079142
3973.000000	76.113951
3972.000000	76.148962
3971.000000	76.183535
3970.000000	76.217320
3969.000000	76.249920
3968.000000	76.280639
3967.000000	76.309022
3966.000000	76.335497
3965.000000	76.361718
3964.000000	76.389858
3963.000000	76.420807
3962.000000	76.453353
3961.000000	76.484842
3960.000000	76.512855
3959.000000	76.537818
3958.000000	76.562637
3957.000000	76.589543
3956.000000	76.618193
3955.000000	76.647163
3954.000000	76.675931
3953.000000	76.704718
3952.000000	76.733752
3951.000000	76.763483
3950.000000	76.794307
3949.000000	76.825206
3948.000000	76.854576
3947.000000	76.881746
3946.000000	76.907928
3945.000000	76.937283
3944.000000	76.975311
3943.000000	77.022103
3942.000000	77.068714
3941.000000	77.104732
3940.000000	77.128511
3939.000000	77.148659
3938.000000	77.173811
3937.000000	77.203329
3936.000000	77.230156
3935.000000	77.251906
3934.000000	77.276441
3933.000000	77.312703
3932.000000	77.359159
3931.000000	77.404740
3930.000000	77.440121
3929.000000	77.466505
3928.000000	77.491504
3927.000000	77.521539
3926.000000	77.559676
3925.000000	77.604328
3924.000000	77.646428
3923.000000	77.674831
3922.000000	77.688060
3921.000000	77.697024
3920.000000	77.713469
3919.000000	77.739362
3918.000000	77.770650
3917.000000	77.806631
3916.000000	77.848039
3915.000000	77.890834
3914.000000	77.929668
3913.000000	77.965801
3912.000000	78.002124
3911.000000	78.037127
3910.000000	78.065535
3909.000000	78.086268
3908.000000	78.104089
3907.000000	78.123789
3906.000000	78.145902
3905.000000	78.168979
3904.000000	78.191065
3903.000000	78.210063
3902.000000	78.227030
3901.000000	78.248870
3900.000000	78.284664
3899.000000	78.333406
3898.000000	78.380708
3897.000000	78.416141
3896.000000	78.443443
3895.000000	78.474696
3894.000000	78.515634
3893.000000	78.562088
3892.000000	78.604160
3891.000000	78.636410
3890.000000	78.655505
3889.000000	78.657971
3888.000000	78.650696
3887.000000	78.658825
3886.000000	78.703175
3885.000000	78.769486
3884.000000	78.819314
3883.000000	78.838380
3882.000000	78.851180
3881.000000	78.885235
3880.000000	78.935327
3879.000000	78.973939
3878.000000	78.986770
3877.000000	78.987084
3876.000000	79.001217
3875.000000	79.045527
3874.000000	79.108006
3873.000000	79.154109
3872.000000	79.162518
3871.000000	79.154545
3870.000000	79.169842
3869.000000	79.212859
3868.000000	79.248638
3867.000000	79.258391
3866.000000	79.269895
3865.000000	79.317554
3864.000000	79.388226
3863.000000	79.440424
3862.000000	79.459486
3861.000000	79.466022
3860.000000	79.481547
3859.000000	79.515002
3858.000000	79.565374
3857.000000	79.623240
3856.000000	79.671129
3855.000000	79.700745
3854.000000	79.726253
3853.000000	79.755967
3852.000000	79.776676
3851.000000	79.782911
3850.000000	79.788163
3849.000000	79.808445
3848.000000	79.843290
3847.000000	79.880124
3846.000000	79.912296
3845.000000	79.943220
3844.000000	79.975748
3843.000000	80.010627
3842.000000	80.043979
3841.000000	80.071941
3840.000000	80.096388
3839.000000	80.123300
3838.000000	80.154326
3837.000000	80.188111
3836.000000	80.223451
3835.000000	80.259628
3834.000000	80.294759
3833.000000	80.328614
3832.000000	80.362952
3831.000000	80.395836
3830.000000	80.422393
3829.000000	80.443395
3828.000000	80.466166
3827.000000	80.501005
3826.000000	80.547897
3825.000000	80.590497
3824.000000	80.611281
3823.000000	80.619081
3822.000000	80.645517
3821.000000	80.702984
3820.000000	80.761070
3819.000000	80.785736
3818.000000	80.783395
3817.000000	80.792813
3816.000000	80.842164
3815.000000	80.912180
3814.000000	80.961327
3813.000000	80.980251
3812.000000	80.995541
3811.000000	81.027405
3810.000000	81.067334
3809.000000	81.095529
3808.000000	81.112534
3807.000000	81.139568
3806.000000	81.182767
3805.000000	81.222178
3804.000000	81.242217
3803.000000	81.258432
3802.000000	81.296836
3801.000000	81.352827
3800.000000	81.392325
3799.000000	81.402700
3798.000000	81.411015
3797.000000	81.446440
3796.000000	81.506426
3795.000000	81.562392
3794.000000	81.595758
3793.000000	81.615230
3792.000000	81.639383
3791.000000	81.673116
3790.000000	81.708343
3789.000000	81.739091
3788.000000	81.768687
3787.000000	81.802559
3786.000000	81.841131
3785.000000	81.880480
3784.000000	81.915348
3783.000000	81.940812
3782.000000	81.957661
3781.000000	81.977026
3780.000000	82.010480
3779.000000	82.055906
3778.000000	82.098932
3777.000000	82.130406
3776.000000	82.155290
3775.000000	82.185312
3774.000000	82.222357
3773.000000	82.254258
3772.000000	82.271541
3771.000000	82.284751
3770.000000	82.309406
3769.000000	82.342521
3768.000000	82.371271
3767.000000	82.396610
3766.000000	82.432516
3765.000000	82.483535
3764.000000	82.532931
3763.000000	82.560650
3762.000000	82.568776
3761.000000	82.582760
3760.000000	82.618301
3759.000000	82.662161
3758.000000	82.698232
3757.000000	82.730900
3756.000000	82.766761
3755.000000	82.798697
3754.000000	82.819726
3753.000000	82.838210
3752.000000	82.863686
3751.000000	82.886506
3750.000000	82.899296
3749.000000	82.920511
3748.000000	82.959696
3747.000000	82.996858
3746.000000	83.021108
3745.000000	83.055350
3744.000000	83.114983
3743.000000	83.171877
3742.000000	83.196765
3741.000000	83.203673
3740.000000	83.220121
3739.000000	83.245278
3738.000000	83.262249
3737.000000	83.279778
3736.000000	83.329271
3735.000000	83.410236
3734.000000	83.482620
3733.000000	83.525185
3732.000000	83.554936
3731.000000	83.588053
3730.000000	83.618687
3729.000000	83.636791
3728.000000	83.651638
3727.000000	83.683787
3726.000000	83.735869
3725.000000	83.786781
3724.000000	83.823579
3723.000000	83.856820
3722.000000	83.896530
3721.000000	83.939240
3720.000000	83.977506
3719.000000	84.009684
3718.000000	84.040711
3717.000000	84.075143
3716.000000	84.108215
3715.000000	84.131854
3714.000000	84.147951
3713.000000	84.169672
3712.000000	84.205027
3711.000000	84.245944
3710.000000	84.283429
3709.000000	84.319356
3708.000000	84.358659
3707.000000	84.402637
3706.000000	84.447217
3705.000000	84.487301
3704.000000	84.522778
3703.000000	84.559021
3702.000000	84.598308
3701.000000	84.635591
3700.000000	84.665670
3699.000000	84.688589
3698.000000	84.711172
3697.000000	84.742585
3696.000000	84.780767
3695.000000	84.811230
3694.000000	84.827430
3693.000000	84.843129
3692.000000	84.874789
3691.000000	84.919822
3690.000000	84.959804
3689.000000	84.983976
3688.000000	85.000958
3687.000000	85.022133
3686.000000	85.045750
3685.000000	85.068255
3684.000000	85.092846
3683.000000	85.119772
3682.000000	85.143116
3681.000000	85.160638
3680.000000	85.181054
3679.000000	85.203746
3678.000000	85.209527
3677.000000	85.194966
3676.000000	85.193288
3675.000000	85.223426
3674.000000	85.255827
3673.000000	85.259314
3672.000000	85.243791
3671.000000	85.251512
3670.000000	85.301511
3669.000000	85.357465
3668.000000	85.382989
3667.000000	85.386624
3666.000000	85.390936
3665.000000	85.404303
3664.000000	85.421127
3663.000000	85.434158
3662.000000	85.443759
3661.000000	85.453138
3660.000000	85.460512
3659.000000	85.457334
3658.000000	85.438897
3657.000000	85.412822
3656.000000	85.391407
3655.000000	85.375002
3654.000000	85.351858
3653.000000	85.315537
3652.000000	85.277634
3651.000000	85.255492
3650.000000	85.245949
3649.000000	85.226387
3648.000000	85.197156
3647.000000	85.181850
3646.000000	85.184303
3645.000000	85.187705
3644.000000	85.183126
3643.000000	85.176739
3642.000000	85.174605
3641.000000	85.171324
3640.000000	85.157984
3639.000000	85.135445
3638.000000	85.109138
3637.000000	85.076413
3636.000000	85.030951
3635.000000	84.978842
3634.000000	84.935365
3633.000000	84.901298
3632.000000	84.857417
3631.000000	84.792260
3630.000000	84.727199
3629.000000	84.691286
3628.000000	84.674902
3627.000000	84.652792
3626.000000	84.622894
3625.000000	84.597674
3624.000000	84.582758
3623.000000	84.570051
3622.000000	84.546158
3621.000000	84.509671
3620.000000	84.470747
3619.000000	84.432599
3618.000000	84.388404
3617.000000	84.335340
3616.000000	84.277536
3615.000000	84.223223
3614.000000	84.179108
3613.000000	84.141805
3612.000000	84.100361
3611.000000	84.050178
3610.000000	84.001296
3609.000000	83.970407
3608.000000	83.959769
3607.000000	83.952381
3606.000000	83.932489
3605.000000	83.899428
3604.000000	83.862595
3603.000000	83.829372
3602.000000	83.799824
3601.000000	83.771481
3600.000000	83.742124
3599.000000	83.706647
3598.000000	83.662432
3597.000000	83.612637
3596.000000	83.563048
3595.000000	83.517809
3594.000000	83.477108
3593.000000	83.437206
3592.000000	83.394238
3591.000000	83.345441
3590.000000	83.293507
3589.000000	83.250038
3588.000000	83.224380
3587.000000	83.208374
3586.000000	83.186186
3585.000000	83.154108
3584.000000	83.120191
3583.000000	83.091693
3582.000000	83.068791
3581.000000	83.046916
3580.000000	83.022020
3579.000000	82.991947
3578.000000	82.955818
3577.000000	82.913856
3576.000000	82.867403
3575.000000	82.818427
3574.000000	82.768957
3573.000000	82.719732
3572.000000	82.669621
3571.000000	82.614836
3570.000000	82.551395
3569.000000	82.484324
3568.000000	82.427264
3567.000000	82.386212
3566.000000	82.352219
3565.000000	82.317505
3564.000000	82.284095
3563.000000	82.257165
3562.000000	82.236421
3561.000000	82.215411
3560.000000	82.187295
3559.000000	82.149240
3558.000000	82.102058
3557.000000	82.048311
3556.000000	81.991306
3555.000000	81.934074
3554.000000	81.878815
3553.000000	81.826367
3552.000000	81.775099
3551.000000	81.721036
3550.000000	81.660375
3549.000000	81.594627
3548.000000	81.531068
3547.000000	81.475549
3546.000000	81.425995
3545.000000	81.376539
3544.000000	81.325487
3543.000000	81.275501
3542.000000	81.228125
3541.000000	81.181940
3540.000000	81.135271
3539.000000	81.087231
3538.000000	81.037245
3537.000000	80.984867
3536.000000	80.930174
3535.000000	80.874143
3534.000000	80.818500
3533.000000	80.766104
3532.000000	80.719301
3531.000000	80.676909
3530.000000	80.633927
3529.000000	80.586446
3528.000000	80.535829
3527.000000	80.486394
3526.000000	80.441363
3525.000000	80.402811
3524.000000	80.372059
3523.000000	80.346878
3522.000000	80.321310
3521.000000	80.291026
3520.000000	80.257306
3519.000000	80.223312
3518.000000	80.188983
3517.000000	80.151985
3516.000000	80.112112
3515.000000	80.071956
3514.000000	80.032811
3513.000000	79.992848
3512.000000	79.950319
3511.000000	79.905620
3510.000000	79.858938
3509.000000	79.809055
3508.000000	79.755505
3507.000000	79.700265
3506.000000	79.646848
3505.000000	79.598567
3504.000000	79.556142
3503.000000	79.515848
3502.000000	79.471810
3501.000000	79.421320
3500.000000	79.366775
3499.000000	79.311476
3498.000000	79.255883
3497.000000	79.198627
3496.000000	79.139385
3495.000000	79.079103
3494.000000	79.018323
3493.000000	78.956639
3492.000000	78.893527
3491.000000	78.828394
3490.000000	78.760165
3489.000000	78.688580
3488.000000	78.615157
3487.000000	78.541258
3486.000000	78.466695
3485.000000	78.391717
3484.000000	78.318740
3483.000000	78.250103
3482.000000	78.184316
3481.000000	78.116859
3480.000000	78.044153
3479.000000	77.965527
3478.000000	77.882442
3477.000000	77.797836
3476.000000	77.715222
3475.000000	77.636000
3474.000000	77.558569
3473.000000	77.480944
3472.000000	77.402827
3471.000000	77.323960
3470.000000	77.241814
3469.000000	77.153231
3468.000000	77.057968
3467.000000	76.958640
3466.000000	76.858174
3465.000000	76.758819
3464.000000	76.662404
3463.000000	76.569048
3462.000000	76.475854
3461.000000	76.379121
3460.000000	76.277729
3459.000000	76.173343
3458.000000	76.068338
3457.000000	75.964569
3456.000000	75.863387
3455.000000	75.764487
3454.000000	75.665008
3453.000000	75.561736
3452.000000	75.453434
3451.000000	75.340198
3450.000000	75.222075
3449.000000	75.100098
3448.000000	74.977386
3447.000000	74.856662
3446.000000	74.737874
3445.000000	74.619980
3444.000000	74.502936
3443.000000	74.385842
3442.000000	74.265124
3441.000000	74.137527
3440.000000	74.004344
3439.000000	73.870310
3438.000000	73.738589
3437.000000	73.608521
3436.000000	73.477834
3435.000000	73.344312
3434.000000	73.205344
3433.000000	73.058826
3432.000000	72.904190
3431.000000	72.741827
3430.000000	72.572251
3429.000000	72.397187
3428.000000	72.220678
3427.000000	72.046664
3426.000000	71.876081
3425.000000	71.706975
3424.000000	71.536192
3423.000000	71.360003
3422.000000	71.174513
3421.000000	70.977978
3420.000000	70.772635
3419.000000	70.563201
3418.000000	70.354184
3417.000000	70.148709
3416.000000	69.947672
3415.000000	69.748020
3414.000000	69.543010
3413.000000	69.326468
3412.000000	69.096232
3411.000000	68.853418
3410.000000	68.600296
3409.000000	68.340129
3408.000000	68.077365
3407.000000	67.815418
3406.000000	67.555076
3405.000000	67.295472
3404.000000	67.034523
3403.000000	66.767706
3402.000000	66.488344
3401.000000	66.191590
3400.000000	65.877887
3399.000000	65.552027
3398.000000	65.220319
3397.000000	64.888556
3396.000000	64.559856
3395.000000	64.232589
3394.000000	63.900792
3393.000000	63.557912
3392.000000	63.199862
3391.000000	62.825068
3390.000000	62.435051
3389.000000	62.035037
3388.000000	61.631617
3387.000000	61.227996
3386.000000	60.822481
3385.000000	60.412131
3384.000000	59.994680
3383.000000	59.567409
3382.000000	59.127296
3381.000000	58.673812
3380.000000	58.209685
3379.000000	57.737754
3378.000000	57.259428
3377.000000	56.776443
3376.000000	56.290684
3375.000000	55.801461
3374.000000	55.305266
3373.000000	54.799201
3372.000000	54.282732
3371.000000	53.755261
3370.000000	53.216116
3369.000000	52.667187
3368.000000	52.112742
3367.000000	51.555510
3366.000000	50.994974
3365.000000	50.430208
3364.000000	49.860787
3363.000000	49.284652
3362.000000	48.699042
3361.000000	48.104425
3360.000000	47.504775
3359.000000	46.903149
3358.000000	46.299859
3357.000000	45.695564
3356.000000	45.091674
3355.000000	44.487205
3354.000000	43.878759
3353.000000	43.264745
3352.000000	42.646790
3351.000000	42.026568
3350.000000	41.404712
3349.000000	40.783202
3348.000000	40.164999
3347.000000	39.550520
3346.000000	38.937688
3345.000000	38.325764
3344.000000	37.715637
3343.000000	37.106553
3342.000000	36.496629
3341.000000	35.887067
3340.000000	35.282137
3339.000000	34.684663
3338.000000	34.095016
3337.000000	33.513959
3336.000000	32.942397
3335.000000	32.378242
3334.000000	31.817695
3333.000000	31.260300
3332.000000	30.708762
3331.000000	30.164520
3330.000000	29.627310
3329.000000	29.098473
3328.000000	28.581011
3327.000000	28.075776
3326.000000	27.581858
3325.000000	27.099863
3324.000000	26.630473
3323.000000	26.171278
3322.000000	25.719040
3321.000000	25.274732
3320.000000	24.842583
3319.000000	24.424055
3318.000000	24.018180
3317.000000	23.625467
3316.000000	23.247219
3315.000000	22.881771
3314.000000	22.525564
3313.000000	22.177890
3312.000000	21.840097
3311.000000	21.511448
3310.000000	21.191137
3309.000000	20.882349
3308.000000	20.590488
3307.000000	20.317696
3306.000000	20.062948
3305.000000	19.826321
3304.000000	19.606856
3303.000000	19.399278
3302.000000	19.197584
3301.000000	19.001106
3300.000000	18.813066
3299.000000	18.634365
3298.000000	18.464280
3297.000000	18.305154
3296.000000	18.160034
3295.000000	18.027510
3294.000000	17.903633
3293.000000	17.788344
3292.000000	17.684932
3291.000000	17.593379
3290.000000	17.510610
3289.000000	17.435340
3288.000000	17.368304
3287.000000	17.308528
3286.000000	17.253788
3285.000000	17.204646
3284.000000	17.162669
3283.000000	17.126326
3282.000000	17.092985
3281.000000	17.063390
3280.000000	17.040069
3279.000000	17.022411
3278.000000	17.008130
3277.000000	16.997934
3276.000000	16.993598
3275.000000	16.993135
3274.000000	16.992784
3273.000000	16.993035
3272.000000	16.998154
3271.000000	17.010465
3270.000000	17.029419
3269.000000	17.054580
3268.000000	17.085000
3267.000000	17.117184
3266.000000	17.147876
3265.000000	17.177945
3264.000000	17.209730
3263.000000	17.242234
3262.000000	17.273352
3261.000000	17.304385
3260.000000	17.338003
3259.000000	17.373555
3258.000000	17.408899
3257.000000	17.445264
3256.000000	17.485322
3255.000000	17.528185
3254.000000	17.570721
3253.000000	17.612475
3252.000000	17.654710
3251.000000	17.696306
3250.000000	17.735307
3249.000000	17.773373
3248.000000	17.814264
3247.000000	17.858790
3246.000000	17.905044
3245.000000	17.952062
3244.000000	17.999502
3243.000000	18.045331
3242.000000	18.088044
3241.000000	18.129649
3240.000000	18.172822
3239.000000	18.216468
3238.000000	18.257733
3237.000000	18.296377
3236.000000	18.333829
3235.000000	18.370101
3234.000000	18.405479
3233.000000	18.442949
3232.000000	18.484590
3231.000000	18.527553
3230.000000	18.567639
3229.000000	18.604773
3228.000000	18.641080
3227.000000	18.675924
3226.000000	18.707176
3225.000000	18.735519
3224.000000	18.762926
3223.000000	18.788793
3222.000000	18.811589
3221.000000	18.832613
3220.000000	18.854057
3219.000000	18.874950
3218.000000	18.892995
3217.000000	18.908460
3216.000000	18.922489
3215.000000	18.933736
3214.000000	18.940494
3213.000000	18.944426
3212.000000	18.948097
3211.000000	18.950696
3210.000000	18.950044
3209.000000	18.946612
3208.000000	18.941869
3207.000000	18.934643
3206.000000	18.922957
3205.000000	18.907749
3204.000000	18.890866
3203.000000	18.871650
3202.000000	18.849123
3201.000000	18.825141
3200.000000	18.801661
3199.000000	18.776807
3198.000000	18.747660
3197.000000	18.714717
3196.000000	18.679893
3195.000000	18.642644
3194.000000	18.601939
3193.000000	18.559852
3192.000000	18.519159
3191.000000	18.479250
3190.000000	18.438291
3189.000000	18.396926
3188.000000	18.356119
3187.000000	18.313773
3186.000000	18.267580
3185.000000	18.219163
3184.000000	18.171550
3183.000000	18.124798
3182.000000	18.077807
3181.000000	18.031957
3180.000000	17.988873
3179.000000	17.946850
3178.000000	17.903435
3177.000000	17.859459
3176.000000	17.816846
3175.000000	17.774849
3174.000000	17.732370
3173.000000	17.691585
3172.000000	17.655242
3171.000000	17.622616
3170.000000	17.591682
3169.000000	17.562852
3168.000000	17.536987
3167.000000	17.512143
3166.000000	17.486399
3165.000000	17.461476
3164.000000	17.439949
3163.000000	17.421407
3162.000000	17.404734
3161.000000	17.391614
3160.000000	17.383761
3159.000000	17.379188
3158.000000	17.374999
3157.000000	17.371236
3156.000000	17.368828
3155.000000	17.366836
3154.000000	17.365703
3153.000000	17.370367
3152.000000	17.385348
3151.000000	17.409199
3150.000000	17.437276
3149.000000	17.467514
3148.000000	17.499891
3147.000000	17.533004
3146.000000	17.565710
3145.000000	17.599879
3144.000000	17.637530
3143.000000	17.677653
3142.000000	17.719193
3141.000000	17.764893
3140.000000	17.818227
3139.000000	17.878562
3138.000000	17.942980
3137.000000	18.010309
3136.000000	18.080180
3135.000000	18.150895
3134.000000	18.221671
3133.000000	18.295148
3132.000000	18.374039
3131.000000	18.457786
3130.000000	18.545176
3129.000000	18.637099
3128.000000	18.733711
3127.000000	18.831784
3126.000000	18.928424
3125.000000	19.024780
3124.000000	19.122868
3123.000000	19.222109
3122.000000	19.322370
3121.000000	19.427052
3120.000000	19.539187
3119.000000	19.656966
3118.000000	19.777053
3117.000000	19.899455
3116.000000	20.025547
3115.000000	20.154128
3114.000000	20.283108
3113.000000	20.412911
3112.000000	20.544754
3111.000000	20.678097
3110.000000	20.813018
3109.000000	20.952102
3108.000000	21.096537
3107.000000	21.242864
3106.000000	21.387053
3105.000000	21.529471
3104.000000	21.672721
3103.000000	21.817417
3102.000000	21.963595
3101.000000	22.113275
3100.000000	22.267964
3099.000000	22.425520
3098.000000	22.582983
3097.000000	22.740235
3096.000000	22.897915
3095.000000	23.054485
3094.000000	23.208760
3093.000000	23.363144
3092.000000	23.521092
3091.000000	23.683181
3090.000000	23.848229
3089.000000	24.015681
3088.000000	24.184152
3087.000000	24.350401
3086.000000	24.512979
3085.000000	24.674733
3084.000000	24.838901
3083.000000	25.005099
3082.000000	25.171975
3081.000000	25.340864
3080.000000	25.513641
3079.000000	25.689239
3078.000000	25.865401
3077.000000	26.041682
3076.000000	26.217913
3075.000000	26.392295
3074.000000	26.563996
3073.000000	26.735391
3072.000000	26.908789
3071.000000	27.083049
3070.000000	27.256286
3069.000000	27.429511
3068.000000	27.604644
3067.000000	27.781101
3066.000000	27.957278
3065.000000	28.133467
3064.000000	28.310497
3063.000000	28.487445
3062.000000	28.663360
3061.000000	28.839258
3060.000000	29.015931
3059.000000	29.191827
3058.000000	29.365516
3057.000000	29.538124
3056.000000	29.710882
3055.000000	29.882527
3054.000000	30.051752
3053.000000	30.220309
3052.000000	30.390989
3051.000000	30.564140
3050.000000	30.738321
3049.000000	30.912402
3048.000000	31.085024
3047.000000	31.254134
3046.000000	31.419478
3045.000000	31.583742
3044.000000	31.749366
3043.000000	31.916182
3042.000000	32.083786
3041.000000	32.253349
3040.000000	32.424806
3039.000000	32.594737
3038.000000	32.759880
3037.000000	32.920814
3036.000000	33.080200
3035.000000	33.239525
3034.000000	33.399591
3033.000000	33.561691
3032.000000	33.725654
3031.000000	33.888821
3030.000000	34.049231
3029.000000	34.207801
3028.000000	34.365605
3027.000000	34.521624
3026.000000	34.675535
3025.000000	34.829985
3024.000000	34.987196
3023.000000	35.145431
3022.000000	35.301543
3021.000000	35.455001
3020.000000	35.606891
3019.000000	35.756847
3018.000000	35.903960
3017.000000	36.049163
3016.000000	36.194289
3015.000000	36.340136
3014.000000	36.487400
3013.000000	36.637707
3012.000000	36.791329
3011.000000	36.945527
3010.000000	37.097264
3009.000000	37.246182
3008.000000	37.393274
3007.000000	37.538672
3006.000000	37.682756
3005.000000	37.827405
3004.000000	37.973873
3003.000000	38.120681
3002.000000	38.265526
3001.000000	38.407752
3000.000000	38.547609
2999.000000	38.685074
2998.000000	38.821173
2997.000000	38.958343
2996.000000	39.097578
2995.000000	39.237193
2994.000000	39.376133
2993.000000	39.516207
2992.000000	39.658874
2991.000000	39.802022
2990.000000	39.942399
2989.000000	40.079442
2988.000000	40.214511
2987.000000	40.348278
2986.000000	40.481280
2985.000000	40.615292
2984.000000	40.751635
2983.000000	40.889304
2982.000000	41.026802
2981.000000	41.164231
2980.000000	41.301589
2979.000000	41.436742
2978.000000	41.567685
2977.000000	41.695720
2976.000000	41.824277
2975.000000	41.955573
2974.000000	42.090062
2973.000000	42.227486
2972.000000	42.366407
2971.000000	42.503953
2970.000000	42.638215
2969.000000	42.770107
2968.000000	42.901540
2967.000000	43.033350
2966.000000	43.166460
2965.000000	43.303103
2964.000000	43.444544
2963.000000	43.588851
2962.000000	43.732663
2961.000000	43.873722
2960.000000	44.010091
2959.000000	44.139247
2958.000000	44.260152
2957.000000	44.374842
2956.000000	44.485873
2955.000000	44.593889
2954.000000	44.699422
2953.000000	44.804542
2952.000000	44.910355
2951.000000	45.014594
2950.000000	45.114659
2949.000000	45.211687
2948.000000	45.309505
2947.000000	45.411077
2946.000000	45.518022
2945.000000	45.632014
2944.000000	45.753630
2943.000000	45.880624
2942.000000	46.009416
2941.000000	46.137766
2940.000000	46.264664
2939.000000	46.389214
2938.000000	46.511940
2937.000000	46.635965
2936.000000	46.764794
2935.000000	46.899649
2934.000000	47.040428
2933.000000	47.187566
2932.000000	47.340848
2931.000000	47.497848
2930.000000	47.656252
2929.000000	47.817018
2928.000000	47.983537
2927.000000	48.159026
2926.000000	48.346382
2925.000000	48.549004
2924.000000	48.768603
2923.000000	49.003021
2922.000000	49.247588
2921.000000	49.497076
2920.000000	49.743233
2919.000000	49.970456
2918.000000	50.157070
2917.000000	50.281438
2916.000000	50.329869
2915.000000	50.302728
2914.000000	50.217290
2913.000000	50.103236
2912.000000	49.990752
2911.000000	49.899439
2910.000000	49.836353
2909.000000	49.801382
2908.000000	49.791376
2907.000000	49.801977
2906.000000	49.828929
2905.000000	49.869319
2904.000000	49.920541
2903.000000	49.978898
2902.000000	50.040508
2901.000000	50.103517
2900.000000	50.167027
2899.000000	50.229929
2898.000000	50.291138
2897.000000	50.350549
2896.000000	50.408554
2895.000000	50.465482
2894.000000	50.522471
2893.000000	50.581557
2892.000000	50.643181
2891.000000	50.704625
2890.000000	50.762366
2889.000000	50.815169
2888.000000	50.863765
2887.000000	50.908992
2886.000000	50.951859
2885.000000	50.994204
2884.000000	51.037189
2883.000000	51.079781
2882.000000	51.120072
2881.000000	51.157168
2880.000000	51.190517
2879.000000	51.218983
2878.000000	51.242740
2877.000000	51.265092
2876.000000	51.290198
2875.000000	51.319317
2874.000000	51.351117
2873.000000	51.384888
2872.000000	51.421680
2871.000000	51.463003
2870.000000	51.510292
2869.000000	51.565508
2868.000000	51.630494
2867.000000	51.706011
2866.000000	51.792738
2865.000000	51.892316
2864.000000	52.005959
2863.000000	52.132497
2862.000000	52.269177
2861.000000	52.413708
2860.000000	52.564418
2859.000000	52.719916
2858.000000	52.881059
2857.000000	53.053039
2856.000000	53.244290
2855.000000	53.463405
2854.000000	53.716785
2853.000000	54.004574
2852.000000	54.312800
2851.000000	54.606755
2850.000000	54.838182
2849.000000	54.966308
2848.000000	54.979483
2847.000000	54.901433
2846.000000	54.777876
2845.000000	54.654533
2844.000000	54.561237
2843.000000	54.508187
2842.000000	54.492227
2841.000000	54.505248
2840.000000	54.537883
2839.000000	54.580939
2838.000000	54.627879
2837.000000	54.676526
2836.000000	54.727753
2835.000000	54.782835
2834.000000	54.842492
2833.000000	54.907187
2832.000000	54.976629
2831.000000	55.048806
2830.000000	55.120933
2829.000000	55.191094
2828.000000	55.258395
2827.000000	55.322375
2826.000000	55.383602
2825.000000	55.444372
2824.000000	55.507447
2823.000000	55.574059
2822.000000	55.643796
2821.000000	55.715578
2820.000000	55.787656
2819.000000	55.857472
2818.000000	55.923176
2817.000000	55.985199
2816.000000	56.045512
2815.000000	56.105814
2814.000000	56.167396
2813.000000	56.231845
2812.000000	56.300207
2811.000000	56.371541
2810.000000	56.443491
2809.000000	56.514091
2808.000000	56.582162
2807.000000	56.646712
2806.000000	56.707557
2805.000000	56.766414
2804.000000	56.826039
2803.000000	56.888181
2802.000000	56.953053
2801.000000	57.020224
2800.000000	57.088731
2799.000000	57.156637
2798.000000	57.221851
2797.000000	57.283579
2796.000000	57.342314
2795.000000	57.398843
2794.000000	57.454273
2793.000000	57.510541
2792.000000	57.569546
2791.000000	57.631632
2790.000000	57.695589
2789.000000	57.759709
2788.000000	57.822047
2787.000000	57.880497
2786.000000	57.934144
2785.000000	57.984464
2784.000000	58.034152
2783.000000	58.084993
2782.000000	58.137609
2781.000000	58.192443
2780.000000	58.249389
2779.000000	58.306713
2778.000000	58.361933
2777.000000	58.413864
2776.000000	58.462969
2775.000000	58.510058
2774.000000	58.555936
2773.000000	58.602080
2772.000000	58.650128
2771.000000	58.700498
2770.000000	58.752390
2769.000000	58.804949
2768.000000	58.857391
2767.000000	58.908352
2766.000000	58.956549
2765.000000	59.002165
2764.000000	59.046602
2763.000000	59.090987
2762.000000	59.135909
2761.000000	59.182246
2760.000000	59.230742
2759.000000	59.280705
2758.000000	59.330349
2757.000000	59.378490
2756.000000	59.424919
2755.000000	59.469339
2754.000000	59.511324
2753.000000	59.551510
2752.000000	59.591561
2751.000000	59.632728
2750.000000	59.675294
2749.000000	59.719293
2748.000000	59.764554
2747.000000	59.809977
2746.000000	59.853974
2745.000000	59.895932
2744.000000	59.936368
2743.000000	59.975737
2742.000000	60.014115
2741.000000	60.052017
2740.000000	60.090352
2739.000000	60.129370
2738.000000	60.168575
2737.000000	60.207617
2736.000000	60.246248
2735.000000	60.283549
2734.000000	60.318428
2733.000000	60.351040
2732.000000	60.382646
2731.000000	60.414056
2730.000000	60.445297
2729.000000	60.476674
2728.000000	60.508808
2727.000000	60.541424
2726.000000	60.573339
2725.000000	60.603990
2724.000000	60.633898
2723.000000	60.663448
2722.000000	60.692380
2721.000000	60.720749
2720.000000	60.749271
2719.000000	60.778337
2718.000000	60.807615
2717.000000	60.836856
2716.000000	60.866153
2715.000000	60.895212
2714.000000	60.923362
2713.000000	60.950562
2712.000000	60.977508
2711.000000	61.004456
2710.000000	61.030776
2709.000000	61.055789
2708.000000	61.079253
2707.000000	61.101011
2706.000000	61.121008
2705.000000	61.139758
2704.000000	61.157801
2703.000000	61.174675
2702.000000	61.189399
2701.000000	61.201838
2700.000000	61.212657
2699.000000	61.221930
2698.000000	61.228954
2697.000000	61.233629
2696.000000	61.236705
2695.000000	61.238589
2694.000000	61.238940
2693.000000	61.237623
2692.000000	61.235118
2691.000000	61.231685
2690.000000	61.227222
2689.000000	61.222028
2688.000000	61.216648
2687.000000	61.210858
2686.000000	61.203740
2685.000000	61.194919
2684.000000	61.184828
2683.000000	61.173742
2682.000000	61.161714
2681.000000	61.149406
2680.000000	61.137777
2679.000000	61.126884
2678.000000	61.116062
2677.000000	61.105343
2676.000000	61.095410
2675.000000	61.086127
2674.000000	61.076524
2673.000000	61.066618
2672.000000	61.058045
2671.000000	61.052757
2670.000000	61.052212
2669.000000	61.057905
2668.000000	61.071420
2667.000000	61.093017
2666.000000	61.121219
2665.000000	61.154210
2664.000000	61.190720
2663.000000	61.229961
2662.000000	61.271523
2661.000000	61.316004
2660.000000	61.364889
2659.000000	61.419143
2658.000000	61.478686
2657.000000	61.542781
2656.000000	61.609930
2655.000000	61.677367
2654.000000	61.741766
2653.000000	61.801222
2652.000000	61.856051
2651.000000	61.907829
2650.000000	61.958513
2649.000000	62.010352
2648.000000	62.065144
2647.000000	62.122869
2646.000000	62.181563
2645.000000	62.238490
2644.000000	62.290968
2643.000000	62.336410
2642.000000	62.373360
2641.000000	62.403192
2640.000000	62.429790
2639.000000	62.457254
2638.000000	62.488142
2637.000000	62.523396
2636.000000	62.562190
2635.000000	62.601241
2634.000000	62.635859
2633.000000	62.662656
2632.000000	62.681054
2631.000000	62.692654
2630.000000	62.700355
2629.000000	62.708302
2628.000000	62.720773
2627.000000	62.739707
2626.000000	62.763623
2625.000000	62.788810
2624.000000	62.810994
2623.000000	62.826136
2622.000000	62.831676
2621.000000	62.828379
2620.000000	62.820400
2619.000000	62.813050
2618.000000	62.810686
2617.000000	62.815940
2616.000000	62.829014
2615.000000	62.846665
2614.000000	62.863042
2613.000000	62.872523
2612.000000	62.871845
2611.000000	62.860443
2610.000000	62.840456
2609.000000	62.816894
2608.000000	62.796059
2607.000000	62.782047
2606.000000	62.774769
2605.000000	62.770613
2604.000000	62.763979
2603.000000	62.748601
2602.000000	62.719509
2601.000000	62.675832
2600.000000	62.621485
2599.000000	62.563070
2598.000000	62.507582
2597.000000	62.461052
2596.000000	62.427005
2595.000000	62.404733
2594.000000	62.389850
2593.000000	62.377245
2592.000000	62.363810
2591.000000	62.349045
2590.000000	62.335289
2589.000000	62.328105
2588.000000	62.334347
2587.000000	62.359167
2586.000000	62.403828
2585.000000	62.465885
2584.000000	62.540122
2583.000000	62.618902
2582.000000	62.694492
2581.000000	62.762439
2580.000000	62.823245
2579.000000	62.881302
2578.000000	62.942493
2577.000000	63.012582
2576.000000	63.095167
2575.000000	63.189522
2574.000000	63.290674
2573.000000	63.391875
2572.000000	63.487123
2571.000000	63.572364
2570.000000	63.646699
2569.000000	63.713717
2568.000000	63.780490
2567.000000	63.853914
2566.000000	63.937456
2565.000000	64.030598
2564.000000	64.129470
2563.000000	64.227602
2562.000000	64.317796
2561.000000	64.395320
2560.000000	64.459984
2559.000000	64.515387
2558.000000	64.567242
2557.000000	64.622065
2556.000000	64.685157
2555.000000	64.757961
2554.000000	64.837071
2553.000000	64.916273
2552.000000	64.989148
2551.000000	65.050518
2550.000000	65.098101
2549.000000	65.134350
2548.000000	65.166049
2547.000000	65.200700
2546.000000	65.242901
2545.000000	65.293626
2544.000000	65.350563
2543.000000	65.408250
2542.000000	65.459378
2541.000000	65.497985
2540.000000	65.522269
2539.000000	65.534299
2538.000000	65.538407
2537.000000	65.540080
2536.000000	65.544127
2535.000000	65.552303
2534.000000	65.561955
2533.000000	65.567504
2532.000000	65.562879
2531.000000	65.542643
2530.000000	65.503983
2529.000000	65.448799
2528.000000	65.383792
2527.000000	65.317529
2526.000000	65.257307
2525.000000	65.208398
2524.000000	65.173597
2523.000000	65.152141
2522.000000	65.140026
2521.000000	65.133166
2520.000000	65.129800
2519.000000	65.130687
2518.000000	65.138672
2517.000000	65.158172
2516.000000	65.194147
2515.000000	65.248730
2514.000000	65.319435
2513.000000	65.400810
2512.000000	65.486372
2511.000000	65.569852
2510.000000	65.646115
2509.000000	65.713313
2508.000000	65.773835
2507.000000	65.832224
2506.000000	65.892630
2505.000000	65.957966
2504.000000	66.029431
2503.000000	66.105071
2502.000000	66.179676
2501.000000	66.247357
2500.000000	66.304538
2499.000000	66.350765
2498.000000	66.388055
2497.000000	66.420879
2496.000000	66.454996
2495.000000	66.494657
2494.000000	66.540578
2493.000000	66.590509
2492.000000	66.640860
2491.000000	66.687257
2490.000000	66.725489
2489.000000	66.753868
2488.000000	66.774385
2487.000000	66.791175
2486.000000	66.808383
2485.000000	66.829596
2484.000000	66.857374
2483.000000	66.891465
2482.000000	66.928276
2481.000000	66.962906
2480.000000	66.991549
2479.000000	67.012091
2478.000000	67.024323
2477.000000	67.031036
2476.000000	67.037720
2475.000000	67.049498
2474.000000	67.068477
2473.000000	67.093968
2472.000000	67.123579
2471.000000	67.153313
2470.000000	67.178303
2469.000000	67.195485
2468.000000	67.205342
2467.000000	67.210749
2466.000000	67.215226
2465.000000	67.222641
2464.000000	67.236514
2463.000000	67.257669
2462.000000	67.283256
2461.000000	67.308928
2460.000000	67.331222
2459.000000	67.347716
2458.000000	67.357069
2457.000000	67.360718
2456.000000	67.363243
2455.000000	67.369458
2454.000000	67.381627
2453.000000	67.399832
2452.000000	67.423129
2451.000000	67.448864
2450.000000	67.472396
2449.000000	67.489710
2448.000000	67.500045
2447.000000	67.505475
2446.000000	67.509064
2445.000000	67.514415
2444.000000	67.525208
2443.000000	67.543114
2442.000000	67.566466
2441.000000	67.591824
2440.000000	67.615905
2439.000000	67.635627
2438.000000	67.648365
2437.000000	67.654133
2436.000000	67.656638
2435.000000	67.660826
2434.000000	67.669994
2433.000000	67.685730
2432.000000	67.708523
2431.000000	67.736533
2430.000000	67.764902
2429.000000	67.788243
2428.000000	67.803826
2427.000000	67.812064
2426.000000	67.815468
2425.000000	67.818446
2424.000000	67.826387
2423.000000	67.842663
2422.000000	67.866627
2421.000000	67.895069
2420.000000	67.924308
2419.000000	67.950279
2418.000000	67.968827
2417.000000	67.978334
2416.000000	67.981624
2415.000000	67.984101
2414.000000	67.990583
2413.000000	68.004287
2412.000000	68.026719
2411.000000	68.056370
2410.000000	68.088274
2409.000000	68.116517
2408.000000	68.137154
2407.000000	68.148768
2406.000000	68.152337
2405.000000	68.152055
2404.000000	68.154608
2403.000000	68.165509
2402.000000	68.186301
2401.000000	68.215325
2400.000000	68.249219
2399.000000	68.282759
2398.000000	68.309688
2397.000000	68.326312
2396.000000	68.333996
2395.000000	68.337467
2394.000000	68.341997
2393.000000	68.352820
2392.000000	68.374407
2391.000000	68.407704
2390.000000	68.448828
2389.000000	68.491473
2388.000000	68.530358
2387.000000	68.561653
2386.000000	68.583459
2385.000000	68.598573
2384.000000	68.614142
2383.000000	68.638132
2382.000000	68.674730
2381.000000	68.724179
2380.000000	68.784306
2379.000000	68.848593
2378.000000	68.907657
2377.000000	68.954056
2376.000000	68.986581
2375.000000	69.008367
2374.000000	69.024663
2373.000000	69.043409
2372.000000	69.074221
2371.000000	69.122178
2370.000000	69.183033
2369.000000	69.248836
2368.000000	69.312923
2367.000000	69.369049
2366.000000	69.411756
2365.000000	69.440609
2364.000000	69.464525
2363.000000	69.490921
2362.000000	69.523204
2361.000000	69.567947
2360.000000	69.627487
2359.000000	69.698052
2358.000000	69.768671
2357.000000	69.827492
2356.000000	69.873510
2355.000000	69.904927
2354.000000	69.930132
2353.000000	69.959383
2352.000000	70.002769
2351.000000	70.060125
2350.000000	70.116870
2349.000000	70.165136
2348.000000	70.209058
2347.000000	70.264111
2346.000000	70.333456
2345.000000	70.393903
2344.000000	70.431102
2343.000000	70.446118
2342.000000	70.461161
2341.000000	70.489454
2340.000000	70.534152
2339.000000	70.594044
2338.000000	70.662702
2337.000000	70.733730
2336.000000	70.796719
2335.000000	70.848957
2334.000000	70.888841
2333.000000	70.924330
2332.000000	70.957274
2331.000000	70.999319
2330.000000	71.048176
2329.000000	71.111338
2328.000000	71.179627
2327.000000	71.250259
2326.000000	71.314071
2325.000000	71.366077
2324.000000	71.406444
2323.000000	71.436618
2322.000000	71.462260
2321.000000	71.489128
2320.000000	71.523679
2319.000000	71.572620
2318.000000	71.632390
2317.000000	71.699935
2316.000000	71.764181
2315.000000	71.823377
2314.000000	71.868930
2313.000000	71.903801
2312.000000	71.928127
2311.000000	71.954328
2310.000000	71.986861
2309.000000	72.032812
2308.000000	72.089148
2307.000000	72.153967
2306.000000	72.216840
2305.000000	72.270724
2304.000000	72.309385
2303.000000	72.336147
2302.000000	72.354590
2301.000000	72.374083
2300.000000	72.401508
2299.000000	72.444888
2298.000000	72.501801
2297.000000	72.566758
2296.000000	72.629793
2295.000000	72.684866
2294.000000	72.726066
2293.000000	72.752657
2292.000000	72.769071
2291.000000	72.784651
2290.000000	72.807835
2289.000000	72.843370
2288.000000	72.892557
2287.000000	72.951982
2286.000000	73.013849
2285.000000	73.068283
2284.000000	73.109766
2283.000000	73.137859
2282.000000	73.156206
2281.000000	73.170875
2280.000000	73.190559
2279.000000	73.222880
2278.000000	73.269916
2277.000000	73.327635
2276.000000	73.388635
2275.000000	73.444597
2274.000000	73.487241
2273.000000	73.512531
2272.000000	73.523754
2271.000000	73.529904
2270.000000	73.540220
2269.000000	73.561638
2268.000000	73.598302
2267.000000	73.649413
2266.000000	73.707104
2265.000000	73.759901
2264.000000	73.798948
2263.000000	73.820857
2262.000000	73.827048
2261.000000	73.823583
2260.000000	73.821422
2259.000000	73.831371
2258.000000	73.858276
2257.000000	73.899419
2256.000000	73.947765
2255.000000	73.993906
2254.000000	74.027207
2253.000000	74.040558
2252.000000	74.035000
2251.000000	74.019100
2250.000000	74.003092
2249.000000	73.996166
2248.000000	74.004212
2247.000000	74.028787
2246.000000	74.063303
2245.000000	74.095866
2244.000000	74.115564
2243.000000	74.115991
2242.000000	74.095757
2241.000000	74.059849
2240.000000	74.020058
2239.000000	73.989800
2238.000000	73.976880
2237.000000	73.981084
2236.000000	73.996583
2235.000000	74.013496
2234.000000	74.019369
2233.000000	74.004315
2232.000000	73.966857
2231.000000	73.913863
2230.000000	73.855869
2229.000000	73.804118
2228.000000	73.768890
2227.000000	73.755066
2226.000000	73.757884
2225.000000	73.765183
2224.000000	73.764303
2223.000000	73.746409
2222.000000	73.707539
2221.000000	73.650599
2220.000000	73.586563
2219.000000	73.530040
2218.000000	73.491839
2217.000000	73.475599
2216.000000	73.478585
2215.000000	73.492145
2214.000000	73.502746
2213.000000	73.497522
2212.000000	73.471236
2211.000000	73.427741
2210.000000	73.376389
2209.000000	73.329161
2208.000000	73.298345
2207.000000	73.291603
2206.000000	73.307262
2205.000000	73.335636
2204.000000	73.364428
2203.000000	73.382310
2202.000000	73.380893
2201.000000	73.358791
2200.000000	73.324465
2199.000000	73.292287
2198.000000	73.274785
2197.000000	73.278727
2196.000000	73.304990
2195.000000	73.347596
2194.000000	73.393496
2193.000000	73.427897
2192.000000	73.442047
2191.000000	73.435827
2190.000000	73.415194
2189.000000	73.390308
2188.000000	73.373995
2187.000000	73.376683
2186.000000	73.400460
2185.000000	73.438898
2184.000000	73.481323
2183.000000	73.516013
2182.000000	73.532311
2181.000000	73.525417
2180.000000	73.500328
2179.000000	73.469019
2178.000000	73.443508
2177.000000	73.432356
2176.000000	73.440160
2175.000000	73.465353
2174.000000	73.498401
2173.000000	73.525939
2172.000000	73.537960
2171.000000	73.530772
2170.000000	73.505946
2169.000000	73.470585
2168.000000	73.437225
2167.000000	73.418508
2166.000000	73.420034
2165.000000	73.439032
2164.000000	73.467993
2163.000000	73.496969
2162.000000	73.514875
2161.000000	73.514218
2160.000000	73.496173
2159.000000	73.469210
2158.000000	73.443257
2157.000000	73.426723
2156.000000	73.426054
2155.000000	73.442922
2154.000000	73.471284
2153.000000	73.500250
2152.000000	73.520440
2151.000000	73.526631
2150.000000	73.517074
2149.000000	73.494715
2148.000000	73.468448
2147.000000	73.449038
2146.000000	73.442810
2145.000000	73.450307
2144.000000	73.468849
2143.000000	73.492611
2142.000000	73.511886
2141.000000	73.517385
2140.000000	73.506591
2139.000000	73.483888
2138.000000	73.455907
2137.000000	73.429687
2136.000000	73.413100
2135.000000	73.411578
2134.000000	73.423361
2133.000000	73.440685
2132.000000	73.455551
2131.000000	73.462591
2130.000000	73.458489
2129.000000	73.443354
2128.000000	73.422771
2127.000000	73.404942
2126.000000	73.395302
2125.000000	73.395534
2124.000000	73.405855
2123.000000	73.424188
2122.000000	73.444097
2121.000000	73.457881
2120.000000	73.462404
2119.000000	73.459465
2118.000000	73.451798
2117.000000	73.442349
2116.000000	73.436485
2115.000000	73.440216
2114.000000	73.455483
2113.000000	73.479495
2112.000000	73.508235
2111.000000	73.537672
2110.000000	73.562983
2109.000000	73.581029
2108.000000	73.594148
2107.000000	73.608665
2106.000000	73.629799
2105.000000	73.660267
2104.000000	73.702157
2103.000000	73.755582
2102.000000	73.815988
2101.000000	73.876426
2100.000000	73.932973
2099.000000	73.985630
2098.000000	74.034959
2097.000000	74.082190
2096.000000	74.131765
2095.000000	74.189535
2094.000000	74.257404
2093.000000	74.331935
2092.000000	74.407879
2091.000000	74.480299
2090.000000	74.544597
2089.000000	74.598614
2088.000000	74.644982
2087.000000	74.688469
2086.000000	74.731361
2085.000000	74.773904
2084.000000	74.817490
2083.000000	74.863380
2082.000000	74.908821
2081.000000	74.948444
2080.000000	74.979162
2079.000000	75.000866
2078.000000	75.013289
2077.000000	75.016699
2076.000000	75.014518
2075.000000	75.011675
2074.000000	75.010306
2073.000000	75.009451
2072.000000	75.008775
2071.000000	75.008522
2070.000000	75.007471
2069.000000	75.003631
2068.000000	74.995839
2067.000000	74.982282
2066.000000	74.960562
2065.000000	74.933484
2064.000000	74.911141
2063.000000	74.902079
2062.000000	74.904441
2061.000000	74.909810
2060.000000	74.913293
2059.000000	74.915540
2058.000000	74.917445
2057.000000	74.919226
2056.000000	74.924145
2055.000000	74.937272
2054.000000	74.960386
2053.000000	74.991567
2052.000000	75.029212
2051.000000	75.071893
2050.000000	75.115464
2049.000000	75.155468
2048.000000	75.192710
2047.000000	75.232719
2046.000000	75.280887
2045.000000	75.340139
2044.000000	75.411021
2043.000000	75.490117
2042.000000	75.570406
2041.000000	75.647453
2040.000000	75.723189
2039.000000	75.800557
2038.000000	75.877857
2037.000000	75.952797
2036.000000	76.029590
2035.000000	76.116077
2034.000000	76.215383
2033.000000	76.325219
2032.000000	76.442649
2031.000000	76.564116
2030.000000	76.682277
2029.000000	76.789379
2028.000000	76.885025
2027.000000	76.975126
2026.000000	77.065696
2025.000000	77.160491
2024.000000	77.264883
2023.000000	77.384030
2022.000000	77.516810
2021.000000	77.654703
2020.000000	77.785594
2019.000000	77.896383
2018.000000	77.977559
2017.000000	78.033315
2016.000000	78.083484
2015.000000	78.148548
2014.000000	78.235086
2013.000000	78.338207
2012.000000	78.451647
2011.000000	78.568638
2010.000000	78.677604
2009.000000	78.766468
2008.000000	78.832607
2007.000000	78.882768
2006.000000	78.926008
2005.000000	78.970840
2004.000000	79.027917
2003.000000	79.104857
2002.000000	79.197960
2001.000000	79.295723
2000.000000	79.386061
1999.000000	79.461480
1998.000000	79.517889
1997.000000	79.557976
1996.000000	79.592733
1995.000000	79.632157
1994.000000	79.675666
1993.000000	79.720166
1992.000000	79.774433
1991.000000	79.849076
1990.000000	79.933953
1989.000000	80.004073
1988.000000	80.045754
1987.000000	80.064338
1986.000000	80.071094
1985.000000	80.075458
1984.000000	80.089215
1983.000000	80.124311
1982.000000	80.182069
1981.000000	80.253584
1980.000000	80.327554
1979.000000	80.394663
1978.000000	80.442881
1977.000000	80.463300
1976.000000	80.461499
1975.000000	80.454601
1974.000000	80.456685
1973.000000	80.475694
1972.000000	80.520457
1971.000000	80.595508
1970.000000	80.686583
1969.000000	80.763141
1968.000000	80.801492
1967.000000	80.802277
1966.000000	80.782910
1965.000000	80.760855
1964.000000	80.750169
1963.000000	80.760599
1962.000000	80.792404
1961.000000	80.839019
1960.000000	80.895644
1959.000000	80.957073
1958.000000	81.009216
1957.000000	81.035536
1956.000000	81.033492
1955.000000	81.016078
1954.000000	80.998232
1953.000000	80.989455
1952.000000	81.000180
1951.000000	81.036906
1950.000000	81.092839
1949.000000	81.152306
1948.000000	81.203838
1947.000000	81.242593
1946.000000	81.262596
1945.000000	81.257104
1944.000000	81.227511
1943.000000	81.188559
1942.000000	81.164908
1941.000000	81.172632
1940.000000	81.209099
1939.000000	81.261105
1938.000000	81.310261
1937.000000	81.340555
1936.000000	81.349536
1935.000000	81.344967
1934.000000	81.332003
1933.000000	81.312870
1932.000000	81.298488
1931.000000	81.300931
1930.000000	81.320793
1929.000000	81.349318
1928.000000	81.381272
1927.000000	81.420403
1926.000000	81.459390
1925.000000	81.480284
1924.000000	81.466842
1923.000000	81.422813
1922.000000	81.369340
1921.000000	81.321784
1920.000000	81.288421
1919.000000	81.277190
1918.000000	81.287208
1917.000000	81.310956
1916.000000	81.336228
1915.000000	81.354375
1914.000000	81.363542
1913.000000	81.363937
1912.000000	81.357873
1911.000000	81.346440
1910.000000	81.328030
1909.000000	81.303540
1908.000000	81.280118
1907.000000	81.268131
1906.000000	81.264322
1905.000000	81.259138
1904.000000	81.247694
1903.000000	81.231720
1902.000000	81.215015
1901.000000	81.200840
1900.000000	81.193833
1899.000000	81.200447
1898.000000	81.216455
1897.000000	81.228987
1896.000000	81.230161
1895.000000	81.225744
1894.000000	81.224745
1893.000000	81.225646
1892.000000	81.222187
1891.000000	81.210986
1890.000000	81.193692
1889.000000	81.185493
1888.000000	81.200223
1887.000000	81.231130
1886.000000	81.260566
1885.000000	81.276329
1884.000000	81.280816
1883.000000	81.283702
1882.000000	81.288948
1881.000000	81.291943
1880.000000	81.289016
1879.000000	81.285350
1878.000000	81.284724
1877.000000	81.284749
1876.000000	81.288035
1875.000000	81.300484
1874.000000	81.315829
1873.000000	81.316767
1872.000000	81.296555
1871.000000	81.268797
1870.000000	81.242659
1869.000000	81.213219
1868.000000	81.191468
1867.000000	81.191947
1866.000000	81.207528
1865.000000	81.224274
1864.000000	81.235952
1863.000000	81.239988
1862.000000	81.232674
1861.000000	81.213729
1860.000000	81.188901
1859.000000	81.165685
1858.000000	81.146617
1857.000000	81.130753
1856.000000	81.118679
1855.000000	81.109730
1854.000000	81.098677
1853.000000	81.084837
1852.000000	81.071135
1851.000000	81.067874
1850.000000	81.072971
1849.000000	81.065038
1848.000000	81.023392
1847.000000	80.949240
1846.000000	80.869057
1845.000000	80.813676
1844.000000	80.793834
1843.000000	80.796373
1842.000000	80.793811
1841.000000	80.775022
1840.000000	80.752038
1839.000000	80.735817
1838.000000	80.717118
1837.000000	80.691585
1836.000000	80.669981
1835.000000	80.652560
1834.000000	80.614451
1833.000000	80.533611
1832.000000	80.424442
1831.000000	80.323344
1830.000000	80.250082
1829.000000	80.215597
1828.000000	80.207405
1827.000000	80.203215
1826.000000	80.193299
1825.000000	80.174860
1824.000000	80.152711
1823.000000	80.124233
1822.000000	80.078187
1821.000000	80.014730
1820.000000	79.949520
1819.000000	79.897057
1818.000000	79.855357
1817.000000	79.825974
1816.000000	79.818897
1815.000000	79.826469
1814.000000	79.817064
1813.000000	79.758660
1812.000000	79.655434
1811.000000	79.540793
1810.000000	79.444579
1809.000000	79.378172
1808.000000	79.341887
1807.000000	79.334411
1806.000000	79.348649
1805.000000	79.365531
1804.000000	79.355547
1803.000000	79.285313
1802.000000	79.147997
1801.000000	78.983468
1800.000000	78.867479
1799.000000	78.836973
1798.000000	78.858704
1797.000000	78.874748
1796.000000	78.853555
1795.000000	78.797172
1794.000000	78.725461
1793.000000	78.641442
1792.000000	78.545777
1791.000000	78.463883
1790.000000	78.407804
1789.000000	78.368126
1788.000000	78.341763
1787.000000	78.331658
1786.000000	78.333977
1785.000000	78.342871
1784.000000	78.351628
1783.000000	78.339504
1782.000000	78.286485
1781.000000	78.181854
1780.000000	78.059754
1779.000000	77.968221
1778.000000	77.922317
1777.000000	77.910037
1776.000000	77.908316
1775.000000	77.890356
1774.000000	77.836795
1773.000000	77.736047
1772.000000	77.613290
1771.000000	77.525718
1770.000000	77.464285
1769.000000	77.390926
1768.000000	77.321240
1767.000000	77.295691
1766.000000	77.308067
1765.000000	77.311358
1764.000000	77.283450
1763.000000	77.233192
1762.000000	77.170379
1761.000000	77.095107
1760.000000	77.005967
1759.000000	76.898022
1758.000000	76.785017
1757.000000	76.702278
1756.000000	76.693474
1755.000000	76.759934
1754.000000	76.836717
1753.000000	76.849273
1752.000000	76.767444
1751.000000	76.614628
1750.000000	76.431046
1749.000000	76.259935
1748.000000	76.145623
1747.000000	76.109637
1746.000000	76.117899
1745.000000	76.100708
1744.000000	76.021449
1743.000000	75.886799
1742.000000	75.716676
1741.000000	75.538467
1740.000000	75.393433
1739.000000	75.302383
1738.000000	75.245706
1737.000000	75.177530
1736.000000	75.098811
1735.000000	75.050039
1734.000000	75.000698
1733.000000	74.902191
1732.000000	74.730054
1731.000000	74.514065
1730.000000	74.291203
1729.000000	74.076919
1728.000000	73.888256
1727.000000	73.741825
1726.000000	73.625720
1725.000000	73.503231
1724.000000	73.361420
1723.000000	73.205779
1722.000000	73.034903
1721.000000	72.855338
1720.000000	72.699456
1719.000000	72.563301
1718.000000	72.341866
1717.000000	72.008677
1716.000000	71.666860
1715.000000	71.402587
1714.000000	71.228114
1713.000000	71.091288
1712.000000	70.933621
1711.000000	70.732270
1710.000000	70.482938
1709.000000	70.184048
1708.000000	69.858028
1707.000000	69.549971
1706.000000	69.276648
1705.000000	69.038287
1704.000000	68.810725
1703.000000	68.515313
1702.000000	68.145292
1701.000000	67.847487
1700.000000	67.702032
1699.000000	67.652390
1698.000000	67.550977
1697.000000	67.285135
1696.000000	66.906007
1695.000000	66.552378
1694.000000	66.261235
1693.000000	66.010285
1692.000000	65.780180
1691.000000	65.539061
1690.000000	65.270289
1689.000000	65.007916
1688.000000	64.784160
1687.000000	64.552902
1686.000000	64.229366
1685.000000	63.747600
1684.000000	63.185382
1683.000000	62.802045
1682.000000	62.579130
1681.000000	62.351659
1680.000000	62.049977
1679.000000	61.692670
1678.000000	61.305020
1677.000000	60.891483
1676.000000	60.486410
1675.000000	60.145380
1674.000000	59.872204
1673.000000	59.591959
1672.000000	59.264529
1671.000000	58.905687
1670.000000	58.541367
1669.000000	58.207670
1668.000000	57.927373
1667.000000	57.675862
1666.000000	57.403082
1665.000000	57.075506
1664.000000	56.710147
1663.000000	56.351531
1662.000000	56.042984
1661.000000	55.778244
1660.000000	55.522732
1659.000000	55.268814
1658.000000	55.025121
1657.000000	54.793140
1656.000000	54.544481
1655.000000	54.260028
1654.000000	53.885087
1653.000000	53.465747
1652.000000	53.157242
1651.000000	52.869043
1650.000000	52.582764
1649.000000	52.319173
1648.000000	52.026227
1647.000000	51.687493
1646.000000	51.406530
1645.000000	51.192402
1644.000000	50.975601
1643.000000	50.745864
1642.000000	50.514192
1641.000000	50.272299
1640.000000	50.024666
1639.000000	49.789237
1638.000000	49.546613
1637.000000	49.248210
1636.000000	48.904632
1635.000000	48.657409
1634.000000	48.529831
1633.000000	48.417285
1632.000000	48.267249
1631.000000	48.085824
1630.000000	47.893652
1629.000000	47.702826
1628.000000	47.523818
1627.000000	47.367680
1626.000000	47.223726
1625.000000	47.067630
1624.000000	46.903276
1623.000000	46.767199
1622.000000	46.688173
1621.000000	46.643535
1620.000000	46.607272
1619.000000	46.573994
1618.000000	46.529746
1617.000000	46.447424
1616.000000	46.339342
1615.000000	46.249252
1614.000000	46.192020
1613.000000	46.152942
1612.000000	46.118744
1611.000000	46.096653
1610.000000	46.098149
1609.000000	46.112547
1608.000000	46.128244
1607.000000	46.152671
1606.000000	46.192417
1605.000000	46.230947
1604.000000	46.255313
1603.000000	46.278280
1602.000000	46.314619
1601.000000	46.361361
1600.000000	46.415487
1599.000000	46.486275
1598.000000	46.573612
1597.000000	46.656374
1596.000000	46.719099
1595.000000	46.771354
1594.000000	46.827835
1593.000000	46.886309
1592.000000	46.942145
1591.000000	47.004474
1590.000000	47.081146
1589.000000	47.163504
1588.000000	47.241954
1587.000000	47.319929
1586.000000	47.398777
1585.000000	47.467693
1584.000000	47.518982
1583.000000	47.569195
1582.000000	47.637830
1581.000000	47.728212
1580.000000	47.840147
1579.000000	47.976167
1578.000000	48.111560
1577.000000	48.191588
1576.000000	48.201927
1575.000000	48.189964
1574.000000	48.175667
1573.000000	48.148997
1572.000000	48.112281
1571.000000	48.099975
1570.000000	48.143440
1569.000000	48.244227
1568.000000	48.361697
1567.000000	48.457416
1566.000000	48.532859
1565.000000	48.608600
1564.000000	48.697088
1563.000000	48.785598
1562.000000	48.813632
1561.000000	48.772992
1560.000000	48.748918
1559.000000	48.731007
1558.000000	48.930263
1557.000000	49.222602
1556.000000	49.422108
1555.000000	49.556416
1554.000000	49.686886
1553.000000	49.820713
1552.000000	49.947434
1551.000000	50.079285
1550.000000	50.233833
1549.000000	50.422546
1548.000000	50.631766
1547.000000	50.849115
1546.000000	51.073144
1545.000000	51.277715
1544.000000	51.438887
1543.000000	51.596288
1542.000000	51.814579
1541.000000	52.092477
1540.000000	52.419941
1539.000000	52.840310
1538.000000	53.217303
1537.000000	53.451527
1536.000000	53.607968
1535.000000	53.787309
1534.000000	54.047267
1533.000000	54.383530
1532.000000	54.758460
1531.000000	55.124408
1530.000000	55.474318
1529.000000	55.836345
1528.000000	56.220308
1527.000000	56.614650
1526.000000	57.009332
1525.000000	57.392285
1524.000000	57.761633
1523.000000	58.140112
1522.000000	58.532548
1521.000000	58.930969
1520.000000	59.312487
1519.000000	59.675040
1518.000000	60.066193
1517.000000	60.496232
1516.000000	60.941915
1515.000000	61.371582
1514.000000	61.765186
1513.000000	62.136213
1512.000000	62.512955
1511.000000	62.900566
1510.000000	63.288468
1509.000000	63.650661
1508.000000	63.925807
1507.000000	64.140504
1506.000000	64.603698
1505.000000	65.189727
1504.000000	65.616836
1503.000000	65.913334
1502.000000	66.166330
1501.000000	66.414075
1500.000000	66.702956
1499.000000	67.082041
1498.000000	67.538576
1497.000000	68.011799
1496.000000	68.463617
1495.000000	68.859864
1494.000000	69.168561
1493.000000	69.404049
1492.000000	69.633411
1491.000000	69.901504
1490.000000	70.169424
1489.000000	70.412612
1488.000000	70.672678
1487.000000	70.979669
1486.000000	71.301602
1485.000000	71.578009
1484.000000	71.778388
1483.000000	71.921342
1482.000000	72.012156
1481.000000	72.037831
1480.000000	72.009696
1479.000000	71.955507
1478.000000	71.875976
1477.000000	71.749044
1476.000000	71.571014
1475.000000	71.319165
1474.000000	70.888230
1473.000000	70.156299
1472.000000	69.216693
1471.000000	68.259245
1470.000000	67.270616
1469.000000	66.128724
1468.000000	64.769121
1467.000000	63.146081
1466.000000	61.146212
1465.000000	58.706817
1464.000000	56.017453
1463.000000	53.333822
1462.000000	50.690608
1461.000000	48.027706
1460.000000	45.346304
1459.000000	42.589673
1458.000000	39.545552
1457.000000	36.313235
1456.000000	33.597991
1455.000000	31.785270
1454.000000	30.617740
1453.000000	29.817643
1452.000000	29.350510
1451.000000	29.266104
1450.000000	29.545704
1449.000000	30.160323
1448.000000	31.117334
1447.000000	32.347435
1446.000000	33.696216
1445.000000	35.074747
1444.000000	36.502206
1443.000000	37.992036
1442.000000	39.485167
1441.000000	40.911597
1440.000000	42.253409
1439.000000	43.557733
1438.000000	44.935335
1437.000000	46.489316
1436.000000	48.147280
1435.000000	49.682021
1434.000000	50.995516
1433.000000	52.183587
1432.000000	53.354930
1431.000000	54.523495
1430.000000	55.643890
1429.000000	56.685367
1428.000000	57.628233
1427.000000	58.448451
1426.000000	59.165866
1425.000000	59.827473
1424.000000	60.454577
1423.000000	61.036757
1422.000000	61.570421
1421.000000	62.098400
1420.000000	62.677904
1419.000000	63.287691
1418.000000	63.868489
1417.000000	64.411175
1416.000000	64.945550
1415.000000	65.499832
1414.000000	66.089863
1413.000000	66.716905
1412.000000	67.365868
1411.000000	68.015429
1410.000000	68.656209
1409.000000	69.287531
1408.000000	69.897798
1407.000000	70.463202
1406.000000	70.983228
1405.000000	71.482074
1404.000000	71.970197
1403.000000	72.424155
1402.000000	72.831604
1401.000000	73.227008
1400.000000	73.639215
1399.000000	74.048507
1398.000000	74.419431
1397.000000	74.731574
1396.000000	74.976851
1395.000000	75.174308
1394.000000	75.377602
1393.000000	75.606384
1392.000000	75.825241
1391.000000	76.007879
1390.000000	76.165027
1389.000000	76.302320
1388.000000	76.386223
1387.000000	76.387872
1386.000000	76.340933
1385.000000	76.293048
1384.000000	76.249890
1383.000000	76.199488
1382.000000	76.144774
1381.000000	76.090337
1380.000000	76.014652
1379.000000	75.896280
1378.000000	75.750141
1377.000000	75.601932
1376.000000	75.441895
1375.000000	75.242706
1374.000000	75.028292
1373.000000	74.862681
1372.000000	74.755849
1371.000000	74.664750
1370.000000	74.563424
1369.000000	74.446003
1368.000000	74.307148
1367.000000	74.143678
1366.000000	73.957090
1365.000000	73.732821
1364.000000	73.419305
1363.000000	72.976187
1362.000000	72.454412
1361.000000	71.946405
1360.000000	71.484407
1359.000000	71.060962
1358.000000	70.692333
1357.000000	70.412014
1356.000000	70.237634
1355.000000	70.175960
1354.000000	70.236243
1353.000000	70.408602
1352.000000	70.641209
1351.000000	70.862735
1350.000000	71.018895
1349.000000	71.067375
1348.000000	70.961136
1347.000000	70.661639
1346.000000	70.155686
1345.000000	69.448180
1344.000000	68.552631
1343.000000	67.486357
1342.000000	66.256991
1341.000000	64.837104
1340.000000	63.187118
1339.000000	61.328102
1338.000000	59.328707
1337.000000	57.218957
1336.000000	54.972959
1335.000000	52.567703
1334.000000	50.018913
1333.000000	47.360542
1332.000000	44.640794
1331.000000	41.944000
1330.000000	39.374709
1329.000000	37.008696
1328.000000	34.879845
1327.000000	32.996667
1326.000000	31.337740
1325.000000	29.850271
1324.000000	28.482191
1323.000000	27.217106
1322.000000	26.057311
1321.000000	24.997575
1320.000000	24.050860
1319.000000	23.271964
1318.000000	22.734639
1317.000000	22.490424
1316.000000	22.561147
1315.000000	22.954904
1314.000000	23.648911
1313.000000	24.584076
1312.000000	25.695509
1311.000000	26.933246
1310.000000	28.258750
1309.000000	29.631311
1308.000000	31.017108
1307.000000	32.398367
1306.000000	33.760709
1305.000000	35.084182
1304.000000	36.353178
1303.000000	37.566757
1302.000000	38.732387
1301.000000	39.856715
1300.000000	40.943628
1299.000000	41.994207
1298.000000	42.999379
1297.000000	43.938113
1296.000000	44.796606
1295.000000	45.588360
1294.000000	46.352755
1293.000000	47.135929
1292.000000	47.975048
1291.000000	48.892351
1290.000000	49.891108
1289.000000	50.954103
1288.000000	52.052809
1287.000000	53.163623
1286.000000	54.273567
1285.000000	55.372162
1284.000000	56.443803
1283.000000	57.471727
1282.000000	58.443234
1281.000000	59.347028
1280.000000	60.169195
1279.000000	60.902117
1278.000000	61.555630
1277.000000	62.149257
1276.000000	62.702051
1275.000000	63.234202
1274.000000	63.769704
1273.000000	64.326029
1272.000000	64.901820
1271.000000	65.485144
1270.000000	66.067283
1269.000000	66.640425
1268.000000	67.191794
1267.000000	67.713145
1266.000000	68.213357
1265.000000	68.709380
1264.000000	69.207444
1263.000000	69.702539
1262.000000	70.187316
1261.000000	70.648872
1260.000000	71.063023
1259.000000	71.407229
1258.000000	71.679636
1257.000000	71.891791
1256.000000	72.052885
1255.000000	72.173254
1254.000000	72.270781
1253.000000	72.359226
1252.000000	72.430613
1251.000000	72.463361
1250.000000	72.441185
1249.000000	72.351888
1248.000000	72.182886
1247.000000	71.930395
1246.000000	71.609383
1245.000000	71.242606
1244.000000	70.841498
1243.000000	70.409829
1242.000000	69.951337
1241.000000	69.462340
1240.000000	68.927594
1239.000000	68.334787
1238.000000	67.692462
1237.000000	67.024119
1236.000000	66.355049
1235.000000	65.712946
1234.000000	65.129476
1233.000000	64.626947
1232.000000	64.208406
1231.000000	63.867113
1230.000000	63.596381
1229.000000	63.391024
1228.000000	63.244306
1227.000000	63.155295
1226.000000	63.136134
1225.000000	63.200331
1224.000000	63.353477
1223.000000	63.592385
1222.000000	63.907482
1221.000000	64.281115
1220.000000	64.685415
1219.000000	65.095724
1218.000000	65.502587
1217.000000	65.908571
1216.000000	66.320215
1215.000000	66.746156
1214.000000	67.197642
1213.000000	67.679028
1212.000000	68.179285
1211.000000	68.678799
1210.000000	69.161995
1209.000000	69.618350
1208.000000	70.039311
1207.000000	70.426279
1206.000000	70.797710
1205.000000	71.177477
1204.000000	71.577014
1203.000000	71.994812
1202.000000	72.425645
1201.000000	72.857660
1200.000000	73.267990
1199.000000	73.635216
1198.000000	73.957013
1197.000000	74.248488
1196.000000	74.527111
1195.000000	74.809227
1194.000000	75.112153
1193.000000	75.443095
1192.000000	75.787986
1191.000000	76.120580
1190.000000	76.421800
1189.000000	76.682195
1188.000000	76.895387
1187.000000	77.066831
1186.000000	77.223871
1185.000000	77.401157
1184.000000	77.614514
1183.000000	77.855516
1182.000000	78.105200
1181.000000	78.339757
1180.000000	78.532345
1179.000000	78.668188
1178.000000	78.757536
1177.000000	78.824240
1176.000000	78.886573
1175.000000	78.959041
1174.000000	79.060191
1173.000000	79.198909
1172.000000	79.357965
1171.000000	79.504106
1170.000000	79.612385
1169.000000	79.671888
1168.000000	79.678330
1167.000000	79.640618
1166.000000	79.589680
1165.000000	79.563213
1164.000000	79.580798
1163.000000	79.640000
1162.000000	79.728149
1161.000000	79.823111
1160.000000	79.891234
1159.000000	79.904978
1158.000000	79.864462
1157.000000	79.792667
1156.000000	79.716027
1155.000000	79.659703
1154.000000	79.649054
1153.000000	79.694400
1152.000000	79.776114
1151.000000	79.857507
1150.000000	79.910611
1149.000000	79.921856
1148.000000	79.884671
1147.000000	79.805979
1146.000000	79.715652
1145.000000	79.651706
1144.000000	79.635109
1143.000000	79.665999
1142.000000	79.734143
1141.000000	79.818606
1140.000000	79.884951
1139.000000	79.902464
1138.000000	79.865379
1137.000000	79.789638
1136.000000	79.696449
1135.000000	79.609939
1134.000000	79.558525
1133.000000	79.558205
1132.000000	79.595251
1131.000000	79.637222
1130.000000	79.656283
1129.000000	79.634230
1128.000000	79.556285
1127.000000	79.419980
1126.000000	79.247682
1125.000000	79.073366
1124.000000	78.918858
1123.000000	78.789498
1122.000000	78.681826
1121.000000	78.580935
1120.000000	78.454369
1119.000000	78.268173
1118.000000	78.008736
1117.000000	77.681462
1116.000000	77.298610
1115.000000	76.878010
1114.000000	76.445372
1113.000000	76.018975
1112.000000	75.591305
1111.000000	75.138744
1110.000000	74.638416
1109.000000	74.071284
1108.000000	73.419384
1107.000000	72.673700
1106.000000	71.846197
1105.000000	70.957735
1104.000000	70.020399
1103.000000	69.037339
1102.000000	68.004469
1101.000000	66.908742
1100.000000	65.727936
1099.000000	64.439834
1098.000000	63.037562
1097.000000	61.521492
1096.000000	59.897011
1095.000000	58.176480
1094.000000	56.374947
1093.000000	54.501141
1092.000000	52.551960
1091.000000	50.525887
1090.000000	48.427985
1089.000000	46.267573
1088.000000	44.063940
1087.000000	41.850491
1086.000000	39.665528
1085.000000	37.540295
1084.000000	35.503090
1083.000000	33.579374
1082.000000	31.785398
1081.000000	30.124285
1080.000000	28.598489
1079.000000	27.217988
1078.000000	25.979448
1077.000000	24.868142
1076.000000	23.873449
1075.000000	22.991387
1074.000000	22.213072
1073.000000	21.518126
1072.000000	20.897070
1071.000000	20.354137
1070.000000	19.887017
1069.000000	19.487633
1068.000000	19.156320
1067.000000	18.904906
1066.000000	18.737034
1065.000000	18.642924
1064.000000	18.621450
1063.000000	18.678992
1062.000000	18.813074
1061.000000	19.012389
1060.000000	19.273687
1059.000000	19.606045
1058.000000	20.009351
1057.000000	20.472628
1056.000000	20.991660
1055.000000	21.568234
1054.000000	22.195949
1053.000000	22.858646
1052.000000	23.548307
1051.000000	24.269190
1050.000000	25.021173
1049.000000	25.800363
1048.000000	26.611231
1047.000000	27.464391
1046.000000	28.360780
1045.000000	29.289075
1044.000000	30.239451
1043.000000	31.204917
1042.000000	32.173227
1041.000000	33.131834
1040.000000	34.080507
1039.000000	35.031589
1038.000000	35.996374
1037.000000	36.979155
1036.000000	37.981319
1035.000000	38.999437
1034.000000	40.018314
1033.000000	41.014773
1032.000000	41.971693
1031.000000	42.884791
1030.000000	43.759855
1029.000000	44.608997
1028.000000	45.449446
1027.000000	46.298537
1026.000000	47.162728
1025.000000	48.034184
1024.000000	48.895030
1023.000000	49.724691
1022.000000	50.506803
1021.000000	51.233569
1020.000000	51.910717
1019.000000	52.557079
1018.000000	53.196849
1017.000000	53.849260
1016.000000	54.520521
1015.000000	55.203879
1014.000000	55.882889
1013.000000	56.535830
1012.000000	57.143600
1011.000000	57.698176
1010.000000	58.207511
1009.000000	58.691054
1008.000000	59.170396
1007.000000	59.663584
1006.000000	60.180183
1005.000000	60.716165
1004.000000	61.253495
1003.000000	61.768993
1002.000000	62.246523
1001.000000	62.680462
1000.000000	63.074621
999.000000	63.443151
998.000000	63.808502
997.000000	64.191199
996.000000	64.598423
995.000000	65.023390
994.000000	65.452147
993.000000	65.866905
992.000000	66.249993
991.000000	66.593194
990.000000	66.904923
989.000000	67.203803
988.000000	67.505971
987.000000	67.822076
986.000000	68.158370
985.000000	68.511869
984.000000	68.866913
983.000000	69.204405
982.000000	69.515457
981.000000	69.802141
980.000000	70.069865
979.000000	70.326933
978.000000	70.586556
977.000000	70.859561
976.000000	71.144540
975.000000	71.430748
974.000000	71.709136
973.000000	71.973308
972.000000	72.216209
971.000000	72.435714
970.000000	72.642074
969.000000	72.851108
968.000000	73.070618
967.000000	73.299323
966.000000	73.534070
965.000000	73.768831
964.000000	73.991125
963.000000	74.189450
962.000000	74.364792
961.000000	74.528153
960.000000	74.689388
959.000000	74.856177
958.000000	75.037043
957.000000	75.234209
956.000000	75.435375
955.000000	75.621748
954.000000	75.783631
953.000000	75.921166
952.000000	76.036763
951.000000	76.137734
950.000000	76.241890
949.000000	76.367914
948.000000	76.519980
947.000000	76.688160
946.000000	76.860118
945.000000	77.022467
944.000000	77.157977
943.000000	77.255283
942.000000	77.322152
941.000000	77.379907
940.000000	77.446858
939.000000	77.534291
938.000000	77.650075
937.000000	77.792129
936.000000	77.941048
935.000000	78.070264
934.000000	78.164001
933.000000	78.219494
932.000000	78.239002
931.000000	78.233173
930.000000	78.226536
929.000000	78.245152
928.000000	78.297413
927.000000	78.373356
926.000000	78.458035
925.000000	78.533526
924.000000	78.575909
923.000000	78.566798
922.000000	78.509740
921.000000	78.426562
920.000000	78.340175
919.000000	78.268127
918.000000	78.224533
917.000000	78.211611
916.000000	78.211395
915.000000	78.195227
914.000000	78.142078
913.000000	78.042384
912.000000	77.891494
911.000000	77.694987
910.000000	77.475717
909.000000	77.262097
908.000000	77.068979
907.000000	76.894995
906.000000	76.732022
905.000000	76.564317
904.000000	76.364684
903.000000	76.108029
902.000000	75.788332
901.000000	75.417434
900.000000	75.012042
899.000000	74.589591
898.000000	74.170377
897.000000	73.765724
896.000000	73.366815
895.000000	72.951705
894.000000	72.500016
893.000000	71.996372
892.000000	71.426078
891.000000	70.783281
890.000000	70.080678
889.000000	69.339875
888.000000	68.576618
887.000000	67.797325
886.000000	67.003540
885.000000	66.189005
884.000000	65.334497
883.000000	64.418687
882.000000	63.430380
881.000000	62.369206
880.000000	61.240818
879.000000	60.056184
878.000000	58.833177
877.000000	57.587631
876.000000	56.324982
875.000000	55.043208
874.000000	53.737010
873.000000	52.399641
872.000000	51.024358
871.000000	49.609755
870.000000	48.162542
869.000000	46.693821
868.000000	45.217125
867.000000	43.747029
866.000000	42.295005
865.000000	40.866238
864.000000	39.462159
863.000000	38.082896
862.000000	36.725783
861.000000	35.388264
860.000000	34.074220
859.000000	32.798565
858.000000	31.583588
857.000000	30.457776
856.000000	29.461101
855.000000	28.633324
854.000000	28.000097
853.000000	27.563286
852.000000	27.301455
851.000000	27.174728
850.000000	27.125940
849.000000	27.101235
848.000000	27.068883
847.000000	27.021059
846.000000	26.965760
845.000000	26.920128
844.000000	26.909246
843.000000	26.955512
842.000000	27.067185
841.000000	27.243663
840.000000	27.484337
839.000000	27.788452
838.000000	28.151209
837.000000	28.568176
836.000000	29.044446
835.000000	29.587527
834.000000	30.198111
833.000000	30.871083
832.000000	31.599807
831.000000	32.374717
830.000000	33.179114
829.000000	33.995139
828.000000	34.811542
827.000000	35.623125
826.000000	36.429706
825.000000	37.239007
824.000000	38.065398
823.000000	38.918666
822.000000	39.795806
821.000000	40.683687
820.000000	41.564599
819.000000	42.418759
818.000000	43.228863
817.000000	43.987668
816.000000	44.699061
815.000000	45.373764
814.000000	46.026034
813.000000	46.670622
812.000000	47.317615
811.000000	47.967186
810.000000	48.612188
809.000000	49.244598
808.000000	49.857803
807.000000	50.447952
806.000000	51.017298
805.000000	51.575228
804.000000	52.133039
803.000000	52.698795
802.000000	53.277390
801.000000	53.869287
800.000000	54.466781
799.000000	55.056944
798.000000	55.631073
797.000000	56.187639
796.000000	56.725738
795.000000	57.243794
794.000000	57.746800
793.000000	58.245971
792.000000	58.747871
791.000000	59.249830
790.000000	59.747655
789.000000	60.240140
788.000000	60.723465
787.000000	61.190267
786.000000	61.637339
785.000000	62.066824
784.000000	62.478603
783.000000	62.869282
782.000000	63.240977
781.000000	63.602248
780.000000	63.958146
779.000000	64.308010
778.000000	64.653863
777.000000	65.001619
776.000000	65.350983
775.000000	65.692742
774.000000	66.018822
773.000000	66.326864
772.000000	66.615129
771.000000	66.883523
770.000000	67.141767
769.000000	67.406596
768.000000	67.687547
767.000000	67.983046
766.000000	68.289145
765.000000	68.599992
764.000000	68.899368
763.000000	69.165455
762.000000	69.389772
761.000000	69.582465
760.000000	69.758436
759.000000	69.930050
758.000000	70.113065
757.000000	70.323428
756.000000	70.561629
755.000000	70.809382
754.000000	71.045155
753.000000	71.253826
752.000000	71.422835
751.000000	71.544965
750.000000	71.630374
749.000000	71.704613
748.000000	71.789674
747.000000	71.894434
746.000000	72.021669
745.000000	72.168465
744.000000	72.316114
743.000000	72.434609
742.000000	72.504825
741.000000	72.528550
740.000000	72.517576
739.000000	72.487638
738.000000	72.463784
737.000000	72.473901
736.000000	72.528805
735.000000	72.618216
734.000000	72.728484
733.000000	72.850358
732.000000	72.968741
731.000000	73.063692
730.000000	73.130730
729.000000	73.186854
728.000000	73.254056
727.000000	73.349004
726.000000	73.486792
725.000000	73.677740
724.000000	73.913795
723.000000	74.171396
722.000000	74.431086
721.000000	74.680830
720.000000	74.901636
719.000000	75.074252
718.000000	75.206657
717.000000	75.334539
716.000000	75.487111
715.000000	75.667870
714.000000	75.871072
713.000000	76.094780
712.000000	76.329734
711.000000	76.555310
710.000000	76.758884
709.000000	76.943174
708.000000	77.109096
707.000000	77.250636
706.000000	77.372465
705.000000	77.496075
704.000000	77.640060
703.000000	77.806695
702.000000	77.995450
701.000000	78.209019
700.000000	78.433156
699.000000	78.634778
698.000000	78.789851
697.000000	78.899884
696.000000	78.976592
695.000000	79.029754
694.000000	79.084051
693.000000	79.180977
692.000000	79.342078
691.000000	79.550393
690.000000	79.774178
689.000000	79.987986
688.000000	80.161553
687.000000	80.258441
686.000000	80.274719
685.000000	80.253880
684.000000	80.245999
683.000000	80.278033
682.000000	80.372644
681.000000	80.553310
680.000000	80.802242
679.000000	81.049209
678.000000	81.230442
677.000000	81.322283
676.000000	81.317879
675.000000	81.235161
674.000000	81.137406
673.000000	81.112217
672.000000	81.212689
671.000000	81.437423
670.000000	81.769755
669.000000	82.180419
668.000000	82.520959
667.000000	82.606027
666.000000	82.479495
665.000000	82.265516
664.000000	82.053834
663.000000	81.924522
662.000000	81.941652
661.000000	82.117680
660.000000	82.404873
659.000000	82.723483
658.000000	82.988373
657.000000	83.127148
656.000000	83.105828
655.000000	82.962714
654.000000	82.785604
653.000000	82.659637
652.000000	82.650306
651.000000	82.796039
650.000000	83.079464
649.000000	83.414963
648.000000	83.693492
647.000000	83.837338
646.000000	83.817786
645.000000	83.656537
644.000000	83.427134
643.000000	83.240114
642.000000	83.194564
641.000000	83.323992
640.000000	83.590940
639.000000	83.917412
638.000000	84.206512
637.000000	84.364310
636.000000	84.340653
635.000000	84.161765
634.000000	83.919662
633.000000	83.724392
632.000000	83.660082
631.000000	83.765499
630.000000	84.021326
629.000000	84.348018
628.000000	84.635172
627.000000	84.789726
626.000000	84.771080
625.000000	84.604907
624.000000	84.371794
623.000000	84.178639
622.000000	84.115336
621.000000	84.215571
620.000000	84.449202
619.000000	84.740708
618.000000	84.994275
617.000000	85.123780
616.000000	85.089093
615.000000	84.920371
614.000000	84.704038
613.000000	84.537730
612.000000	84.490329
611.000000	84.584943
610.000000	84.796452
609.000000	85.055205
608.000000	85.270018
607.000000	85.368641
606.000000	85.328698
605.000000	85.183833
604.000000	85.005672
603.000000	84.875399
602.000000	84.851554
601.000000	84.940304
600.000000	85.091795
599.000000	85.230118
598.000000	85.288793
597.000000	85.232466
596.000000	85.068260
595.000000	84.851758
594.000000	84.668822
593.000000	84.589343
592.000000	84.635971
591.000000	84.789972
590.000000	85.008016
589.000000	85.229846
588.000000	85.393409
587.000000	85.462869
586.000000	85.447956
585.000000	85.396606
584.000000	85.367031
583.000000	85.403051
582.000000	85.516759
581.000000	85.681213
580.000000	85.844178
579.000000	85.958399
578.000000	85.997914
577.000000	85.957770
576.000000	85.858587
575.000000	85.755497
574.000000	85.716442
573.000000	85.773672
572.000000	85.905061
571.000000	86.054848
570.000000	86.163551
569.000000	86.185299
568.000000	86.102927
567.000000	85.942699
566.000000	85.770506
565.000000	85.656634
564.000000	85.640663
563.000000	85.723691
562.000000	85.870118
561.000000	86.015498
560.000000	86.091091
559.000000	86.059012
558.000000	85.930720
557.000000	85.754943
556.000000	85.593992
555.000000	85.511050
554.000000	85.552840
553.000000	85.718674
552.000000	85.949232
551.000000	86.155770
550.000000	86.267793
549.000000	86.259104
548.000000	86.145649
547.000000	85.978328
546.000000	85.834882
545.000000	85.790768
544.000000	85.883045
543.000000	86.093464
542.000000	86.355035
541.000000	86.575701
540.000000	86.676899
539.000000	86.631381
538.000000	86.475598
537.000000	86.284965
536.000000	86.137678
535.000000	86.096605
534.000000	86.194785
533.000000	86.417500
532.000000	86.695172
531.000000	86.932456
530.000000	87.057903
529.000000	87.048571
528.000000	86.921952
527.000000	86.733183
526.000000	86.570073
525.000000	86.516273
524.000000	86.603079
523.000000	86.794179
522.000000	87.018559
521.000000	87.200676
520.000000	87.272913
519.000000	87.196582
518.000000	86.985787
517.000000	86.701893
516.000000	86.417943
515.000000	86.187050
514.000000	86.031629
513.000000	85.935741
512.000000	85.842039
511.000000	85.676181
510.000000	85.393317
509.000000	84.995636
508.000000	84.505973
507.000000	83.963386
506.000000	83.429078
505.000000	82.957166
504.000000	82.561080
503.000000	82.223046
502.000000	81.929232
501.000000	81.680571
500.000000	81.476314
499.000000	81.312678
498.000000	81.202342
497.000000	81.168468
496.000000	81.224342
495.000000	81.371556
494.000000	81.608724
493.000000	81.927083
492.000000	82.300120
491.000000	82.705308
490.000000	83.141016
489.000000	83.606813
488.000000	84.069162
487.000000	84.468275
486.000000	84.759473
485.000000	84.933685
484.000000	85.010724
483.000000	85.033554
482.000000	85.062732
481.000000	85.147728
480.000000	85.299587
479.000000	85.494345
478.000000	85.683532
477.000000	85.807619
476.000000	85.821176
475.000000	85.722977
474.000000	85.563978
473.000000	85.426663
472.000000	85.403854
471.000000	85.579711
470.000000	85.961826
469.000000	86.461327
468.000000	86.940402
467.000000	87.269292
466.000000	87.382956
465.000000	87.301742
464.000000	87.100376
463.000000	86.883465
462.000000	86.766716
461.000000	86.829383
460.000000	87.084870
459.000000	87.488301
458.000000	87.926701
457.000000	88.244715
456.000000	88.332630
455.000000	88.168648
454.000000	87.822010
453.000000	87.441151
452.000000	87.211496
451.000000	87.275957
450.000000	87.651479
449.000000	88.230691
448.000000	88.819068
447.000000	89.198010
446.000000	89.238809
445.000000	88.967770
444.000000	88.517684
443.000000	88.069955
442.000000	87.826789
441.000000	87.935363
440.000000	88.390740
439.000000	89.024015
438.000000	89.599390
437.000000	89.917631
436.000000	89.873458
435.000000	89.500470
434.000000	88.980795
433.000000	88.559190
432.000000	88.420767
431.000000	88.622801
430.000000	89.101787
429.000000	89.710415
428.000000	90.245865
427.000000	90.501828
426.000000	90.379895
425.000000	89.957223
424.000000	89.430730
423.000000	89.025375
422.000000	88.904252
421.000000	89.130466
420.000000	89.672713
419.000000	90.295943
418.000000	90.643068
417.000000	90.601536
416.000000	90.270374
415.000000	89.792552
414.000000	89.350598
413.000000	89.140842
412.000000	89.253882
411.000000	89.622001
410.000000	90.103920
409.000000	90.539954
408.000000	90.758074
407.000000	90.629971
406.000000	90.197443
405.000000	89.669286
404.000000	89.257734
403.000000	89.092393
402.000000	88.762607
401.000000	88.763495
400.000000	88.795119
