PE IR       SUBTECH     SPECTRUM    ASCII       PEDS        4.00        
   -1
23ms131_nitrito.asc
24/08/30
16:51:32.00
24/08/30
16:51:32.00
Administrator
Sample 1068 By Administrator Date Friday, August 30 2024
400.000000
#HDR
-1
-1
#GR
cm-1
%T
1.0
0.0
4000.000000
-1.000000
3601
8
92.439556
29.482735
#DATA
4000.000000	82.887606
3999.000000	82.914197
3998.000000	82.938845
3997.000000	82.963195
3996.000000	82.988801
3995.000000	83.016750
3994.000000	83.047529
3993.000000	83.081065
3992.000000	83.116712
3991.000000	83.152839
3990.000000	83.186838
3989.000000	83.216424
3988.000000	83.241469
3987.000000	83.264286
3986.000000	83.287944
3985.000000	83.314462
3984.000000	83.344425
3983.000000	83.377394
3982.000000	83.411982
3981.000000	83.445800
3980.000000	83.476054
3979.000000	83.501336
3978.000000	83.523110
3977.000000	83.544922
3976.000000	83.570131
3975.000000	83.599834
3974.000000	83.632797
3973.000000	83.666668
3972.000000	83.699091
3971.000000	83.728650
3970.000000	83.754878
3969.000000	83.778004
3968.000000	83.798979
3967.000000	83.819288
3966.000000	83.840570
3965.000000	83.864248
3964.000000	83.891169
3963.000000	83.921039
3962.000000	83.952321
3961.000000	83.982462
3960.000000	84.009218
3959.000000	84.032617
3958.000000	84.054560
3957.000000	84.076940
3956.000000	84.100649
3955.000000	84.125995
3954.000000	84.153169
3953.000000	84.181775
3952.000000	84.210598
3951.000000	84.238113
3950.000000	84.263036
3949.000000	84.285169
3948.000000	84.305790
3947.000000	84.326523
3946.000000	84.348708
3945.000000	84.374674
3944.000000	84.407382
3943.000000	84.445854
3942.000000	84.483706
3941.000000	84.514182
3940.000000	84.536317
3939.000000	84.556033
3938.000000	84.579289
3937.000000	84.605829
3936.000000	84.631491
3935.000000	84.655318
3934.000000	84.682182
3933.000000	84.716042
3932.000000	84.754016
3931.000000	84.789006
3930.000000	84.816632
3929.000000	84.839085
3928.000000	84.861215
3927.000000	84.886927
3926.000000	84.918298
3925.000000	84.953106
3924.000000	84.984503
3923.000000	85.006713
3922.000000	85.020893
3921.000000	85.033796
3920.000000	85.050503
3919.000000	85.071003
3918.000000	85.094385
3917.000000	85.121962
3916.000000	85.154218
3915.000000	85.187747
3914.000000	85.220231
3913.000000	85.253445
3912.000000	85.289059
3911.000000	85.325148
3910.000000	85.357091
3909.000000	85.382387
3908.000000	85.402677
3907.000000	85.420572
3906.000000	85.437681
3905.000000	85.454056
3904.000000	85.468291
3903.000000	85.479711
3902.000000	85.490109
3901.000000	85.505300
3900.000000	85.531835
3899.000000	85.568512
3898.000000	85.607275
3897.000000	85.642646
3896.000000	85.675868
3895.000000	85.710927
3894.000000	85.748085
3893.000000	85.783904
3892.000000	85.815396
3891.000000	85.841824
3890.000000	85.859094
3889.000000	85.861753
3888.000000	85.857448
3887.000000	85.869713
3886.000000	85.913222
3885.000000	85.970812
3884.000000	86.010621
3883.000000	86.023714
3882.000000	86.029908
3881.000000	86.050968
3880.000000	86.087049
3879.000000	86.120751
3878.000000	86.139261
3877.000000	86.148717
3876.000000	86.169064
3875.000000	86.213287
3874.000000	86.268396
3873.000000	86.305224
3872.000000	86.312247
3871.000000	86.310877
3870.000000	86.328400
3869.000000	86.361518
3868.000000	86.384369
3867.000000	86.390338
3866.000000	86.404021
3865.000000	86.443935
3864.000000	86.494516
3863.000000	86.529193
3862.000000	86.544090
3861.000000	86.555473
3860.000000	86.577906
3859.000000	86.615298
3858.000000	86.663579
3857.000000	86.713301
3856.000000	86.753623
3855.000000	86.782264
3854.000000	86.806247
3853.000000	86.828229
3852.000000	86.842754
3851.000000	86.846835
3850.000000	86.849124
3849.000000	86.863012
3848.000000	86.890130
3847.000000	86.922575
3846.000000	86.954331
3845.000000	86.984696
3844.000000	87.016022
3843.000000	87.048782
3842.000000	87.078712
3841.000000	87.103388
3840.000000	87.125296
3839.000000	87.147667
3838.000000	87.171522
3837.000000	87.195414
3836.000000	87.217499
3835.000000	87.237659
3834.000000	87.258596
3833.000000	87.285174
3832.000000	87.318592
3831.000000	87.352551
3830.000000	87.379939
3829.000000	87.400874
3828.000000	87.424310
3827.000000	87.460502
3826.000000	87.505653
3825.000000	87.541456
3824.000000	87.555439
3823.000000	87.560113
3822.000000	87.581778
3821.000000	87.624534
3820.000000	87.662302
3819.000000	87.674491
3818.000000	87.672547
3817.000000	87.688908
3816.000000	87.738703
3815.000000	87.797476
3814.000000	87.834171
3813.000000	87.848856
3812.000000	87.863186
3811.000000	87.889750
3810.000000	87.921571
3809.000000	87.947721
3808.000000	87.972549
3807.000000	88.007403
3806.000000	88.046949
3805.000000	88.073589
3804.000000	88.083362
3803.000000	88.098081
3802.000000	88.137559
3801.000000	88.187237
3800.000000	88.214637
3799.000000	88.212984
3798.000000	88.208029
3797.000000	88.227379
3796.000000	88.272300
3795.000000	88.321273
3794.000000	88.357635
3793.000000	88.383199
3792.000000	88.407412
3791.000000	88.434381
3790.000000	88.462410
3789.000000	88.490457
3788.000000	88.520613
3787.000000	88.554393
3786.000000	88.590119
3785.000000	88.623414
3784.000000	88.648916
3783.000000	88.663352
3782.000000	88.670935
3781.000000	88.683270
3780.000000	88.709543
3779.000000	88.747065
3778.000000	88.784834
3777.000000	88.815557
3776.000000	88.841573
3775.000000	88.869206
3774.000000	88.898070
3773.000000	88.920770
3772.000000	88.936006
3771.000000	88.954390
3770.000000	88.982674
3769.000000	89.012384
3768.000000	89.032990
3767.000000	89.048844
3766.000000	89.075417
3765.000000	89.117255
3764.000000	89.159532
3763.000000	89.186252
3762.000000	89.200327
3761.000000	89.218478
3760.000000	89.247163
3759.000000	89.278145
3758.000000	89.307264
3757.000000	89.338896
3756.000000	89.373159
3755.000000	89.403526
3754.000000	89.427496
3753.000000	89.449614
3752.000000	89.469960
3751.000000	89.484332
3750.000000	89.501072
3749.000000	89.530952
3748.000000	89.562573
3747.000000	89.578130
3746.000000	89.585282
3745.000000	89.613981
3744.000000	89.671083
3743.000000	89.723684
3742.000000	89.747223
3741.000000	89.755298
3740.000000	89.770976
3739.000000	89.797288
3738.000000	89.825479
3737.000000	89.856211
3736.000000	89.895540
3735.000000	89.933975
3734.000000	89.958571
3733.000000	89.978208
3732.000000	90.010401
3731.000000	90.054069
3730.000000	90.091601
3729.000000	90.113909
3728.000000	90.133200
3727.000000	90.166353
3726.000000	90.211667
3725.000000	90.252004
3724.000000	90.279611
3723.000000	90.301342
3722.000000	90.323777
3721.000000	90.347683
3720.000000	90.372057
3719.000000	90.399794
3718.000000	90.435836
3717.000000	90.478308
3716.000000	90.516973
3715.000000	90.543416
3714.000000	90.560765
3713.000000	90.578977
3712.000000	90.600865
3711.000000	90.621526
3710.000000	90.642111
3709.000000	90.670560
3708.000000	90.710284
3707.000000	90.755606
3706.000000	90.796434
3705.000000	90.826295
3704.000000	90.847383
3703.000000	90.867646
3702.000000	90.892800
3701.000000	90.922716
3700.000000	90.953075
3699.000000	90.980390
3698.000000	91.007975
3697.000000	91.041518
3696.000000	91.077796
3695.000000	91.106823
3694.000000	91.126143
3693.000000	91.145446
3692.000000	91.172630
3691.000000	91.201690
3690.000000	91.220476
3689.000000	91.230773
3688.000000	91.247402
3687.000000	91.273747
3686.000000	91.300532
3685.000000	91.324101
3684.000000	91.347236
3683.000000	91.369721
3682.000000	91.388685
3681.000000	91.405953
3680.000000	91.426518
3679.000000	91.444471
3678.000000	91.447880
3677.000000	91.443650
3676.000000	91.454342
3675.000000	91.483279
3674.000000	91.505108
3673.000000	91.500515
3672.000000	91.484149
3671.000000	91.491781
3670.000000	91.532146
3669.000000	91.575531
3668.000000	91.599546
3667.000000	91.608867
3666.000000	91.615674
3665.000000	91.626549
3664.000000	91.640075
3663.000000	91.653295
3662.000000	91.665539
3661.000000	91.675094
3660.000000	91.677433
3659.000000	91.668205
3658.000000	91.650912
3657.000000	91.637813
3656.000000	91.636994
3655.000000	91.640709
3654.000000	91.632223
3653.000000	91.606710
3652.000000	91.579217
3651.000000	91.565554
3650.000000	91.557831
3649.000000	91.538014
3648.000000	91.514244
3647.000000	91.506137
3646.000000	91.511842
3645.000000	91.516138
3644.000000	91.512574
3643.000000	91.506626
3642.000000	91.502744
3641.000000	91.497565
3640.000000	91.487263
3639.000000	91.473808
3638.000000	91.458589
3637.000000	91.436667
3636.000000	91.404840
3635.000000	91.370687
3634.000000	91.343037
3633.000000	91.316299
3632.000000	91.275209
3631.000000	91.217614
3630.000000	91.164261
3629.000000	91.133883
3628.000000	91.120128
3627.000000	91.107571
3626.000000	91.090591
3625.000000	91.074517
3624.000000	91.063921
3623.000000	91.053083
3622.000000	91.032330
3621.000000	91.001003
3620.000000	90.966439
3619.000000	90.933489
3618.000000	90.901562
3617.000000	90.867096
3616.000000	90.827622
3615.000000	90.786269
3614.000000	90.747674
3613.000000	90.710914
3612.000000	90.671746
3611.000000	90.630406
3610.000000	90.595189
3609.000000	90.575329
3608.000000	90.567626
3607.000000	90.558767
3606.000000	90.540205
3605.000000	90.514280
3604.000000	90.488858
3603.000000	90.468219
3602.000000	90.450139
3601.000000	90.430392
3600.000000	90.404918
3599.000000	90.370703
3598.000000	90.328765
3597.000000	90.283770
3596.000000	90.241473
3595.000000	90.205264
3594.000000	90.173902
3593.000000	90.143365
3592.000000	90.109212
3591.000000	90.068933
3590.000000	90.026323
3589.000000	89.990752
3588.000000	89.965845
3587.000000	89.944256
3586.000000	89.918391
3585.000000	89.888579
3584.000000	89.859432
3583.000000	89.834064
3582.000000	89.811823
3581.000000	89.790124
3580.000000	89.767071
3579.000000	89.741223
3578.000000	89.710759
3577.000000	89.674368
3576.000000	89.632856
3575.000000	89.590038
3574.000000	89.550668
3573.000000	89.517218
3572.000000	89.487398
3571.000000	89.453932
3570.000000	89.409960
3569.000000	89.357105
3568.000000	89.303500
3567.000000	89.254462
3566.000000	89.211234
3565.000000	89.175735
3564.000000	89.149489
3563.000000	89.130659
3562.000000	89.112699
3561.000000	89.087617
3560.000000	89.051903
3559.000000	89.008188
3558.000000	88.961894
3557.000000	88.917343
3556.000000	88.876172
3555.000000	88.837403
3554.000000	88.798466
3553.000000	88.756762
3552.000000	88.711293
3551.000000	88.662495
3550.000000	88.611394
3549.000000	88.560723
3548.000000	88.513877
3547.000000	88.470667
3546.000000	88.426273
3545.000000	88.377377
3544.000000	88.327043
3543.000000	88.281363
3542.000000	88.243034
3541.000000	88.210065
3540.000000	88.178124
3539.000000	88.141968
3538.000000	88.097041
3537.000000	88.042631
3536.000000	87.984216
3535.000000	87.930497
3534.000000	87.887396
3533.000000	87.855142
3532.000000	87.828850
3531.000000	87.800514
3530.000000	87.762319
3529.000000	87.712111
3528.000000	87.655939
3527.000000	87.603250
3526.000000	87.559926
3525.000000	87.526286
3524.000000	87.498948
3523.000000	87.472576
3522.000000	87.441824
3521.000000	87.404538
3520.000000	87.363175
3519.000000	87.321791
3518.000000	87.282325
3517.000000	87.244307
3516.000000	87.207091
3515.000000	87.170501
3514.000000	87.133625
3513.000000	87.095318
3512.000000	87.055906
3511.000000	87.016242
3510.000000	86.975165
3509.000000	86.930131
3508.000000	86.880270
3507.000000	86.827656
3506.000000	86.776054
3505.000000	86.729047
3504.000000	86.687802
3503.000000	86.649849
3502.000000	86.610772
3501.000000	86.567332
3500.000000	86.518403
3499.000000	86.463371
3498.000000	86.402142
3497.000000	86.337393
3496.000000	86.275068
3495.000000	86.220494
3494.000000	86.174003
3493.000000	86.131036
3492.000000	86.085678
3491.000000	86.033274
3490.000000	85.971641
3489.000000	85.902470
3488.000000	85.830879
3487.000000	85.761778
3486.000000	85.697088
3485.000000	85.636811
3484.000000	85.580835
3483.000000	85.527821
3482.000000	85.473645
3481.000000	85.413808
3480.000000	85.346960
3479.000000	85.274871
3478.000000	85.199945
3477.000000	85.124362
3476.000000	85.050377
3475.000000	84.979649
3474.000000	84.912965
3473.000000	84.850866
3472.000000	84.792927
3471.000000	84.735256
3470.000000	84.670344
3469.000000	84.592185
3468.000000	84.501680
3467.000000	84.405960
3466.000000	84.313498
3465.000000	84.230302
3464.000000	84.158218
3463.000000	84.093562
3462.000000	84.027853
3461.000000	83.952711
3460.000000	83.865141
3459.000000	83.768340
3458.000000	83.668647
3457.000000	83.572366
3456.000000	83.483719
3455.000000	83.402627
3454.000000	83.324747
3453.000000	83.244933
3452.000000	83.160340
3451.000000	83.070180
3450.000000	82.974143
3449.000000	82.872815
3448.000000	82.768579
3447.000000	82.664241
3446.000000	82.561373
3445.000000	82.460803
3444.000000	82.363184
3443.000000	82.267786
3442.000000	82.171748
3441.000000	82.072158
3440.000000	81.968168
3439.000000	81.859916
3438.000000	81.746683
3437.000000	81.628009
3436.000000	81.506185
3435.000000	81.385332
3434.000000	81.268028
3433.000000	81.153500
3432.000000	81.037677
3431.000000	80.914563
3430.000000	80.779289
3429.000000	80.632190
3428.000000	80.479703
3427.000000	80.329829
3426.000000	80.187039
3425.000000	80.051005
3424.000000	79.917799
3423.000000	79.781012
3422.000000	79.633873
3421.000000	79.473387
3420.000000	79.302644
3419.000000	79.128014
3418.000000	78.954845
3417.000000	78.785803
3416.000000	78.620674
3415.000000	78.455709
3414.000000	78.284824
3413.000000	78.104044
3412.000000	77.913926
3411.000000	77.716812
3410.000000	77.513402
3409.000000	77.303472
3408.000000	77.088504
3407.000000	76.871322
3406.000000	76.654187
3405.000000	76.438316
3404.000000	76.223476
3403.000000	76.006277
3402.000000	75.780033
3401.000000	75.538747
3400.000000	75.281474
3399.000000	75.012295
3398.000000	74.737388
3397.000000	74.462625
3396.000000	74.191595
3395.000000	73.923424
3394.000000	73.652220
3393.000000	73.370245
3392.000000	73.072220
3391.000000	72.757361
3390.000000	72.429689
3389.000000	72.096310
3388.000000	71.763428
3387.000000	71.432252
3386.000000	71.099191
3385.000000	70.760249
3384.000000	70.413036
3383.000000	70.055352
3382.000000	69.685056
3381.000000	69.302596
3380.000000	68.911690
3379.000000	68.515805
3378.000000	68.115642
3377.000000	67.710613
3376.000000	67.300295
3375.000000	66.883932
3374.000000	66.460265
3373.000000	66.028714
3372.000000	65.589110
3371.000000	65.139553
3370.000000	64.677678
3369.000000	64.204217
3368.000000	63.723173
3367.000000	63.238076
3366.000000	62.749925
3365.000000	62.259052
3364.000000	61.765255
3363.000000	61.265506
3362.000000	60.755106
3361.000000	60.232338
3360.000000	59.700208
3359.000000	59.162957
3358.000000	58.623273
3357.000000	58.083392
3356.000000	57.544757
3355.000000	57.005553
3354.000000	56.460935
3353.000000	55.906962
3352.000000	55.343048
3351.000000	54.770963
3350.000000	54.194409
3349.000000	53.619235
3348.000000	53.050250
3347.000000	52.486911
3346.000000	51.924452
3345.000000	51.359315
3344.000000	50.790974
3343.000000	50.219418
3342.000000	49.644816
3341.000000	49.069750
3340.000000	48.498215
3339.000000	47.932103
3338.000000	47.371468
3337.000000	46.817474
3336.000000	46.271466
3335.000000	45.731576
3334.000000	45.194219
3333.000000	44.659007
3332.000000	44.128414
3331.000000	43.603468
3330.000000	43.083624
3329.000000	42.570311
3328.000000	42.066903
3327.000000	41.574849
3326.000000	41.093870
3325.000000	40.625019
3324.000000	40.169099
3323.000000	39.723259
3322.000000	39.283175
3321.000000	38.848771
3320.000000	38.424246
3319.000000	38.012416
3318.000000	37.613866
3317.000000	37.229627
3316.000000	36.860252
3315.000000	36.502742
3314.000000	36.152329
3313.000000	35.807788
3312.000000	35.471049
3311.000000	35.142788
3310.000000	34.823263
3309.000000	34.515658
3308.000000	34.224586
3307.000000	33.951242
3306.000000	33.693876
3305.000000	33.452343
3304.000000	33.226592
3303.000000	33.012957
3302.000000	32.806431
3301.000000	32.606040
3300.000000	32.414192
3299.000000	32.231246
3298.000000	32.055854
3297.000000	31.889407
3296.000000	31.734680
3295.000000	31.591222
3294.000000	31.456110
3293.000000	31.329154
3292.000000	31.212943
3291.000000	31.107722
3290.000000	31.011420
3289.000000	30.923337
3288.000000	30.844127
3287.000000	30.772719
3286.000000	30.706828
3285.000000	30.646404
3284.000000	30.592103
3283.000000	30.541971
3282.000000	30.493591
3281.000000	30.448255
3280.000000	30.409429
3279.000000	30.377745
3278.000000	30.351452
3277.000000	30.330305
3276.000000	30.314520
3275.000000	30.301356
3274.000000	30.287036
3273.000000	30.271773
3272.000000	30.259499
3271.000000	30.253393
3270.000000	30.254948
3269.000000	30.265340
3268.000000	30.283512
3267.000000	30.304494
3266.000000	30.323363
3265.000000	30.340071
3264.000000	30.357234
3263.000000	30.375020
3262.000000	30.392222
3261.000000	30.410025
3260.000000	30.430519
3259.000000	30.452933
3258.000000	30.475378
3257.000000	30.498972
3256.000000	30.526028
3255.000000	30.555660
3254.000000	30.585039
3253.000000	30.613621
3252.000000	30.642355
3251.000000	30.670372
3250.000000	30.696528
3249.000000	30.722936
3248.000000	30.753001
3247.000000	30.787023
3246.000000	30.822978
3245.000000	30.859939
3244.000000	30.897331
3243.000000	30.932753
3242.000000	30.964562
3241.000000	30.995113
3240.000000	31.027874
3239.000000	31.062670
3238.000000	31.097018
3237.000000	31.130097
3236.000000	31.162014
3235.000000	31.191393
3234.000000	31.217767
3233.000000	31.244563
3232.000000	31.275600
3231.000000	31.310060
3230.000000	31.344351
3229.000000	31.377117
3228.000000	31.408762
3227.000000	31.438133
3226.000000	31.463777
3225.000000	31.487015
3224.000000	31.509866
3223.000000	31.531484
3222.000000	31.550034
3221.000000	31.566452
3220.000000	31.582837
3219.000000	31.598714
3218.000000	31.612434
3217.000000	31.624352
3216.000000	31.635180
3215.000000	31.643155
3214.000000	31.646355
3213.000000	31.646223
3212.000000	31.645225
3211.000000	31.642934
3210.000000	31.637855
3209.000000	31.630864
3208.000000	31.623334
3207.000000	31.613697
3206.000000	31.599456
3205.000000	31.581033
3204.000000	31.560107
3203.000000	31.536398
3202.000000	31.509454
3201.000000	31.481363
3200.000000	31.454092
3199.000000	31.425774
3198.000000	31.393266
3197.000000	31.356423
3196.000000	31.316588
3195.000000	31.273352
3194.000000	31.226354
3193.000000	31.178190
3192.000000	31.131693
3191.000000	31.086046
3190.000000	31.039094
3189.000000	30.991108
3188.000000	30.942857
3187.000000	30.892401
3186.000000	30.837674
3185.000000	30.780364
3184.000000	30.723502
3183.000000	30.667291
3182.000000	30.610798
3181.000000	30.555410
3180.000000	30.502762
3179.000000	30.451265
3178.000000	30.398402
3177.000000	30.344568
3176.000000	30.291153
3175.000000	30.237175
3174.000000	30.181639
3173.000000	30.127051
3172.000000	30.076740
3171.000000	30.030571
3170.000000	29.986643
3169.000000	29.944970
3168.000000	29.905910
3167.000000	29.867163
3166.000000	29.826366
3165.000000	29.784909
3164.000000	29.745890
3163.000000	29.710288
3162.000000	29.678108
3161.000000	29.650910
3160.000000	29.629408
3159.000000	29.610674
3158.000000	29.591238
3157.000000	29.570784
3156.000000	29.550162
3155.000000	29.528616
3154.000000	29.506742
3153.000000	29.489646
3152.000000	29.482735
3151.000000	29.486131
3150.000000	29.496084
3149.000000	29.509588
3148.000000	29.524573
3147.000000	29.538288
3146.000000	29.549719
3145.000000	29.561670
3144.000000	29.577045
3143.000000	29.595232
3142.000000	29.615015
3141.000000	29.638605
3140.000000	29.669243
3139.000000	29.706775
3138.000000	29.748917
3137.000000	29.794382
3136.000000	29.841858
3135.000000	29.888645
3134.000000	29.933720
3133.000000	29.980357
3132.000000	30.032413
3131.000000	30.090293
3130.000000	30.153038
3129.000000	30.221079
3128.000000	30.293824
3127.000000	30.367363
3126.000000	30.438294
3125.000000	30.507651
3124.000000	30.577941
3123.000000	30.649315
3122.000000	30.721883
3121.000000	30.798724
3120.000000	30.882689
3119.000000	30.972221
3118.000000	31.064000
3117.000000	31.157536
3116.000000	31.254033
3115.000000	31.353197
3114.000000	31.454250
3113.000000	31.557984
3112.000000	31.664683
3111.000000	31.772385
3110.000000	31.880179
3109.000000	31.990570
3108.000000	32.105576
3107.000000	32.222922
3106.000000	32.339135
3105.000000	32.454127
3104.000000	32.569658
3103.000000	32.686017
3102.000000	32.803533
3101.000000	32.924824
3100.000000	33.052118
3099.000000	33.183830
3098.000000	33.316683
3097.000000	33.449275
3096.000000	33.581115
3095.000000	33.710837
3094.000000	33.838346
3093.000000	33.966717
3092.000000	34.099212
3091.000000	34.236089
3090.000000	34.376275
3089.000000	34.519377
3088.000000	34.663737
3087.000000	34.805608
3086.000000	34.943422
3085.000000	35.080699
3084.000000	35.221812
3083.000000	35.367003
3082.000000	35.514137
3081.000000	35.662706
3080.000000	35.813306
3079.000000	35.965446
3078.000000	36.118751
3077.000000	36.274295
3076.000000	36.432062
3075.000000	36.589361
3074.000000	36.744248
3073.000000	36.898404
3072.000000	37.054167
3071.000000	37.210962
3070.000000	37.367198
3069.000000	37.523350
3068.000000	37.680490
3067.000000	37.837858
3066.000000	37.994503
3065.000000	38.151498
3064.000000	38.310182
3063.000000	38.470133
3062.000000	38.630911
3061.000000	38.793458
3060.000000	38.957552
3059.000000	39.120165
3058.000000	39.278758
3057.000000	39.434285
3056.000000	39.588910
3055.000000	39.743069
3054.000000	39.896945
3053.000000	40.052496
3052.000000	40.211394
3051.000000	40.372656
3050.000000	40.534249
3049.000000	40.694985
3048.000000	40.853265
3047.000000	41.006641
3046.000000	41.155055
3045.000000	41.302315
3044.000000	41.452194
3043.000000	41.605162
3042.000000	41.760536
3041.000000	41.918857
3040.000000	42.079546
3039.000000	42.238795
3038.000000	42.392855
3037.000000	42.541751
3036.000000	42.687853
3035.000000	42.832981
3034.000000	42.978889
3033.000000	43.127987
3032.000000	43.280717
3031.000000	43.434166
3030.000000	43.585508
3029.000000	43.734721
3028.000000	43.882078
3027.000000	44.025782
3026.000000	44.165016
3025.000000	44.302971
3024.000000	44.443711
3023.000000	44.587664
3022.000000	44.732603
3021.000000	44.877187
3020.000000	45.020816
3019.000000	45.161664
3018.000000	45.297919
3017.000000	45.430098
3016.000000	45.560247
3015.000000	45.690099
3014.000000	45.821633
3013.000000	45.957573
3012.000000	46.098937
3011.000000	46.243435
3010.000000	46.387896
3009.000000	46.530835
3008.000000	46.671316
3007.000000	46.807757
3006.000000	46.940042
3005.000000	47.070944
3004.000000	47.203261
3003.000000	47.336826
3002.000000	47.469993
3001.000000	47.602110
3000.000000	47.732876
2999.000000	47.861359
2998.000000	47.987727
2997.000000	48.114071
2996.000000	48.241503
2995.000000	48.368446
2994.000000	48.493904
2993.000000	48.620351
2992.000000	48.750779
2991.000000	48.884474
2990.000000	49.018086
2989.000000	49.149431
2988.000000	49.278060
2987.000000	49.403722
2986.000000	49.526758
2985.000000	49.648970
2984.000000	49.771964
2983.000000	49.895603
2982.000000	50.019724
2981.000000	50.145737
2980.000000	50.274421
2979.000000	50.403453
2978.000000	50.529440
2977.000000	50.651615
2976.000000	50.771983
2975.000000	50.893034
2974.000000	51.016885
2973.000000	51.144991
2972.000000	51.276574
2971.000000	51.408283
2970.000000	51.537195
2969.000000	51.663277
2968.000000	51.787795
2967.000000	51.911127
2966.000000	52.033816
2965.000000	52.157890
2964.000000	52.284835
2963.000000	52.413410
2962.000000	52.541339
2961.000000	52.667694
2960.000000	52.791854
2959.000000	52.911985
2958.000000	53.026675
2957.000000	53.136658
2956.000000	53.242790
2955.000000	53.344066
2954.000000	53.439998
2953.000000	53.533370
2952.000000	53.628088
2951.000000	53.725082
2950.000000	53.822579
2949.000000	53.919417
2948.000000	54.016139
2947.000000	54.113857
2946.000000	54.214095
2945.000000	54.319139
2944.000000	54.430524
2943.000000	54.547456
2942.000000	54.667696
2941.000000	54.789174
2940.000000	54.909870
2939.000000	55.027804
2938.000000	55.142995
2937.000000	55.258310
2936.000000	55.376966
2935.000000	55.500165
2934.000000	55.628078
2933.000000	55.761139
2932.000000	55.898600
2931.000000	56.037693
2930.000000	56.176712
2929.000000	56.317932
2928.000000	56.465751
2927.000000	56.623151
2926.000000	56.791449
2925.000000	56.971694
2924.000000	57.163648
2923.000000	57.364602
2922.000000	57.571025
2921.000000	57.780121
2920.000000	57.986860
2919.000000	58.179535
2918.000000	58.340406
2917.000000	58.450965
2916.000000	58.498641
2915.000000	58.482528
2914.000000	58.416564
2913.000000	58.326110
2912.000000	58.237480
2911.000000	58.167889
2910.000000	58.123621
2909.000000	58.104481
2908.000000	58.107289
2907.000000	58.127316
2906.000000	58.159872
2905.000000	58.201900
2904.000000	58.251494
2903.000000	58.306194
2902.000000	58.363609
2901.000000	58.422061
2900.000000	58.480428
2899.000000	58.537565
2898.000000	58.592799
2897.000000	58.646623
2896.000000	58.699833
2895.000000	58.752951
2894.000000	58.806891
2893.000000	58.862719
2892.000000	58.919542
2891.000000	58.974101
2890.000000	59.023937
2889.000000	59.069930
2888.000000	59.114597
2887.000000	59.159277
2886.000000	59.204217
2885.000000	59.249801
2884.000000	59.295670
2883.000000	59.339705
2882.000000	59.379774
2881.000000	59.415868
2880.000000	59.449297
2879.000000	59.480953
2878.000000	59.511928
2877.000000	59.544479
2876.000000	59.580109
2875.000000	59.617290
2874.000000	59.653203
2873.000000	59.687408
2872.000000	59.722314
2871.000000	59.760568
2870.000000	59.803613
2869.000000	59.852446
2868.000000	59.907928
2867.000000	59.970516
2866.000000	60.041054
2865.000000	60.121429
2864.000000	60.213158
2863.000000	60.315377
2862.000000	60.425186
2861.000000	60.539665
2860.000000	60.657020
2859.000000	60.777246
2858.000000	60.903386
2857.000000	61.041792
2856.000000	61.199854
2855.000000	61.383530
2854.000000	61.596165
2853.000000	61.835760
2852.000000	62.088656
2851.000000	62.324927
2850.000000	62.505352
2849.000000	62.599170
2848.000000	62.600712
2847.000000	62.532555
2846.000000	62.433002
2845.000000	62.337860
2844.000000	62.268428
2843.000000	62.230104
2842.000000	62.218792
2841.000000	62.228010
2840.000000	62.251554
2839.000000	62.284132
2838.000000	62.322563
2837.000000	62.365978
2836.000000	62.414046
2835.000000	62.465593
2834.000000	62.519414
2833.000000	62.575374
2832.000000	62.633501
2831.000000	62.692560
2830.000000	62.750782
2829.000000	62.807408
2828.000000	62.862627
2827.000000	62.916786
2826.000000	62.970703
2825.000000	63.026036
2824.000000	63.083974
2823.000000	63.143814
2822.000000	63.203699
2821.000000	63.262258
2820.000000	63.318766
2819.000000	63.372625
2818.000000	63.424007
2817.000000	63.474610
2816.000000	63.526590
2815.000000	63.580842
2814.000000	63.636925
2813.000000	63.694033
2812.000000	63.751207
2811.000000	63.807286
2810.000000	63.861753
2809.000000	63.915283
2808.000000	63.968723
2807.000000	64.022142
2806.000000	64.075588
2805.000000	64.129943
2804.000000	64.185864
2803.000000	64.242429
2802.000000	64.297907
2801.000000	64.351409
2800.000000	64.402979
2799.000000	64.452791
2798.000000	64.501449
2797.000000	64.550490
2796.000000	64.601307
2795.000000	64.653761
2794.000000	64.706729
2793.000000	64.759501
2792.000000	64.811704
2791.000000	64.862527
2790.000000	64.911301
2789.000000	64.958563
2788.000000	65.005438
2787.000000	65.052215
2786.000000	65.098533
2785.000000	65.144628
2784.000000	65.191321
2783.000000	65.238909
2782.000000	65.286916
2781.000000	65.334700
2780.000000	65.381427
2779.000000	65.425839
2778.000000	65.467125
2777.000000	65.506051
2776.000000	65.544601
2775.000000	65.584686
2774.000000	65.627522
2773.000000	65.673412
2772.000000	65.721012
2771.000000	65.767316
2770.000000	65.809582
2769.000000	65.847437
2768.000000	65.882769
2767.000000	65.918157
2766.000000	65.955929
2765.000000	65.997691
2764.000000	66.043253
2763.000000	66.090137
2762.000000	66.135215
2761.000000	66.176891
2760.000000	66.215351
2759.000000	66.251498
2758.000000	66.286670
2757.000000	66.322659
2756.000000	66.360568
2755.000000	66.399700
2754.000000	66.438496
2753.000000	66.476429
2752.000000	66.514124
2751.000000	66.552017
2750.000000	66.589883
2749.000000	66.627351
2748.000000	66.663902
2747.000000	66.698668
2746.000000	66.731375
2745.000000	66.763437
2744.000000	66.797206
2743.000000	66.834087
2742.000000	66.873747
2741.000000	66.914484
2740.000000	66.953505
2739.000000	66.987639
2738.000000	67.015516
2737.000000	67.039319
2736.000000	67.063558
2735.000000	67.091972
2734.000000	67.125727
2733.000000	67.163627
2732.000000	67.202664
2731.000000	67.238798
2730.000000	67.268978
2729.000000	67.293183
2728.000000	67.314223
2727.000000	67.335724
2726.000000	67.360497
2725.000000	67.389695
2724.000000	67.422029
2723.000000	67.454123
2722.000000	67.483012
2721.000000	67.508573
2720.000000	67.532939
2719.000000	67.557900
2718.000000	67.583745
2717.000000	67.610075
2716.000000	67.636391
2715.000000	67.662017
2714.000000	67.686727
2713.000000	67.711589
2712.000000	67.738170
2711.000000	67.766608
2710.000000	67.795092
2709.000000	67.821114
2708.000000	67.842722
2707.000000	67.859232
2706.000000	67.872052
2705.000000	67.884845
2704.000000	67.901572
2703.000000	67.923677
2702.000000	67.949177
2701.000000	67.973948
2700.000000	67.993580
2699.000000	68.005132
2698.000000	68.008984
2697.000000	68.009390
2696.000000	68.011982
2695.000000	68.020118
2694.000000	68.033395
2693.000000	68.048724
2692.000000	68.061970
2691.000000	68.069563
2690.000000	68.070583
2689.000000	68.067830
2688.000000	68.065823
2687.000000	68.067398
2686.000000	68.072420
2685.000000	68.079040
2684.000000	68.085060
2683.000000	68.088566
2682.000000	68.088992
2681.000000	68.087850
2680.000000	68.087406
2679.000000	68.088393
2678.000000	68.089643
2677.000000	68.089750
2676.000000	68.088296
2675.000000	68.085956
2674.000000	68.084682
2673.000000	68.087566
2672.000000	68.096913
2671.000000	68.111990
2670.000000	68.129406
2669.000000	68.145851
2668.000000	68.160330
2667.000000	68.174394
2666.000000	68.191651
2665.000000	68.216642
2664.000000	68.252199
2663.000000	68.297139
2662.000000	68.346787
2661.000000	68.395973
2660.000000	68.441570
2659.000000	68.483178
2658.000000	68.523208
2657.000000	68.566033
2656.000000	68.615297
2655.000000	68.671098
2654.000000	68.729837
2653.000000	68.786849
2652.000000	68.838887
2651.000000	68.885045
2650.000000	68.926887
2649.000000	68.967791
2648.000000	69.010708
2647.000000	69.055894
2646.000000	69.101222
2645.000000	69.144521
2644.000000	69.184996
2643.000000	69.222746
2642.000000	69.258303
2641.000000	69.292743
2640.000000	69.326802
2639.000000	69.359564
2638.000000	69.388952
2637.000000	69.414052
2636.000000	69.436370
2635.000000	69.458551
2634.000000	69.482676
2633.000000	69.509506
2632.000000	69.538063
2631.000000	69.565498
2630.000000	69.588345
2629.000000	69.604947
2628.000000	69.616638
2627.000000	69.626752
2626.000000	69.639021
2625.000000	69.656197
2624.000000	69.678523
2623.000000	69.702785
2622.000000	69.723800
2621.000000	69.737851
2620.000000	69.744891
2619.000000	69.748008
2618.000000	69.751575
2617.000000	69.759423
2616.000000	69.773126
2615.000000	69.791018
2614.000000	69.809305
2613.000000	69.824532
2612.000000	69.834985
2611.000000	69.840561
2610.000000	69.842411
2609.000000	69.842698
2608.000000	69.843413
2607.000000	69.844821
2606.000000	69.845666
2605.000000	69.844743
2604.000000	69.841600
2603.000000	69.835907
2602.000000	69.827056
2601.000000	69.814722
2600.000000	69.798877
2599.000000	69.779393
2598.000000	69.756767
2597.000000	69.733336
2596.000000	69.712868
2595.000000	69.698546
2594.000000	69.691709
2593.000000	69.692039
2592.000000	69.698021
2591.000000	69.707178
2590.000000	69.717600
2589.000000	69.730070
2588.000000	69.747949
2587.000000	69.775172
2586.000000	69.814089
2585.000000	69.864621
2584.000000	69.924232
2583.000000	69.988199
2582.000000	70.051740
2581.000000	70.112488
2580.000000	70.171055
2579.000000	70.229694
2578.000000	70.290802
2577.000000	70.356382
2576.000000	70.427123
2575.000000	70.501398
2574.000000	70.576065
2573.000000	70.648637
2572.000000	70.718333
2571.000000	70.785255
2570.000000	70.849684
2569.000000	70.912457
2568.000000	70.975022
2567.000000	71.038483
2566.000000	71.103112
2565.000000	71.168899
2564.000000	71.235663
2563.000000	71.302388
2562.000000	71.367199
2561.000000	71.428484
2560.000000	71.485687
2559.000000	71.539009
2558.000000	71.589371
2557.000000	71.638785
2556.000000	71.689728
2555.000000	71.743465
2554.000000	71.799144
2553.000000	71.854612
2552.000000	71.907374
2551.000000	71.955056
2550.000000	71.996551
2549.000000	72.033304
2548.000000	72.068788
2547.000000	72.106003
2546.000000	72.145758
2545.000000	72.187244
2544.000000	72.228747
2543.000000	72.267598
2542.000000	72.300818
2541.000000	72.326934
2540.000000	72.347048
2539.000000	72.363436
2538.000000	72.377801
2537.000000	72.390905
2536.000000	72.402527
2535.000000	72.411325
2534.000000	72.414998
2533.000000	72.411586
2532.000000	72.400382
2531.000000	72.381371
2530.000000	72.355102
2529.000000	72.323060
2528.000000	72.287545
2527.000000	72.250790
2526.000000	72.214588
2525.000000	72.180911
2524.000000	72.151632
2523.000000	72.127379
2522.000000	72.107641
2521.000000	72.092553
2520.000000	72.083489
2519.000000	72.082085
2518.000000	72.089707
2517.000000	72.107659
2516.000000	72.137061
2515.000000	72.177104
2514.000000	72.224648
2513.000000	72.276098
2512.000000	72.328776
2511.000000	72.381143
2510.000000	72.432582
2509.000000	72.483847
2508.000000	72.536736
2507.000000	72.592311
2506.000000	72.650041
2505.000000	72.708550
2504.000000	72.766260
2503.000000	72.821061
2502.000000	72.870798
2501.000000	72.914934
2500.000000	72.955103
2499.000000	72.993510
2498.000000	73.031430
2497.000000	73.069624
2496.000000	73.108654
2495.000000	73.148009
2494.000000	73.185825
2493.000000	73.220269
2492.000000	73.250847
2491.000000	73.277901
2490.000000	73.301973
2489.000000	73.324350
2488.000000	73.347091
2487.000000	73.371678
2486.000000	73.397951
2485.000000	73.424746
2484.000000	73.450810
2483.000000	73.474685
2482.000000	73.495053
2481.000000	73.511969
2480.000000	73.527047
2479.000000	73.541873
2478.000000	73.556977
2477.000000	73.572773
2476.000000	73.590147
2475.000000	73.609286
2474.000000	73.628925
2473.000000	73.647502
2472.000000	73.664323
2471.000000	73.679106
2470.000000	73.691568
2469.000000	73.702370
2468.000000	73.713486
2467.000000	73.726680
2466.000000	73.742208
2465.000000	73.759411
2464.000000	73.777504
2463.000000	73.795072
2462.000000	73.810050
2461.000000	73.821389
2460.000000	73.830221
2459.000000	73.838727
2458.000000	73.848634
2457.000000	73.861171
2456.000000	73.877120
2455.000000	73.895766
2454.000000	73.914617
2453.000000	73.931178
2452.000000	73.944627
2451.000000	73.955498
2450.000000	73.964825
2449.000000	73.974295
2448.000000	73.986015
2447.000000	74.000940
2446.000000	74.018064
2445.000000	74.035716
2444.000000	74.052850
2443.000000	74.068728
2442.000000	74.082655
2441.000000	74.094942
2440.000000	74.107105
2439.000000	74.120208
2438.000000	74.133879
2437.000000	74.147635
2436.000000	74.162022
2435.000000	74.177587
2434.000000	74.193794
2433.000000	74.209828
2432.000000	74.225437
2431.000000	74.240124
2430.000000	74.252723
2429.000000	74.263006
2428.000000	74.272908
2427.000000	74.285096
2426.000000	74.300892
2425.000000	74.320131
2424.000000	74.341829
2423.000000	74.364000
2422.000000	74.383980
2421.000000	74.400283
2420.000000	74.413816
2419.000000	74.426647
2418.000000	74.440375
2417.000000	74.456120
2416.000000	74.474626
2415.000000	74.495133
2414.000000	74.515176
2413.000000	74.532709
2412.000000	74.547905
2411.000000	74.562260
2410.000000	74.576986
2409.000000	74.592923
2408.000000	74.610651
2407.000000	74.629472
2406.000000	74.647320
2405.000000	74.662910
2404.000000	74.677309
2403.000000	74.692556
2402.000000	74.709615
2401.000000	74.728373
2400.000000	74.748312
2399.000000	74.768145
2398.000000	74.786005
2397.000000	74.801411
2396.000000	74.816379
2395.000000	74.833588
2394.000000	74.854112
2393.000000	74.877442
2392.000000	74.902336
2391.000000	74.926782
2390.000000	74.948706
2389.000000	74.968077
2388.000000	74.987839
2387.000000	75.011324
2386.000000	75.039712
2385.000000	75.072471
2384.000000	75.108220
2383.000000	75.144971
2382.000000	75.180268
2381.000000	75.213562
2380.000000	75.247617
2379.000000	75.285543
2378.000000	75.328015
2377.000000	75.373549
2376.000000	75.419879
2375.000000	75.464050
2374.000000	75.503146
2373.000000	75.537127
2372.000000	75.569939
2371.000000	75.605964
2370.000000	75.645831
2369.000000	75.688288
2368.000000	75.732073
2367.000000	75.774654
2366.000000	75.812297
2365.000000	75.844724
2364.000000	75.878081
2363.000000	75.915682
2362.000000	75.956171
2361.000000	75.998918
2360.000000	76.041575
2359.000000	76.083357
2358.000000	76.120683
2357.000000	76.152592
2356.000000	76.183879
2355.000000	76.216021
2354.000000	76.250524
2353.000000	76.287388
2352.000000	76.330947
2351.000000	76.381328
2350.000000	76.427605
2349.000000	76.464275
2348.000000	76.494449
2347.000000	76.533409
2346.000000	76.586370
2345.000000	76.642217
2344.000000	76.688810
2343.000000	76.719319
2342.000000	76.742101
2341.000000	76.764282
2340.000000	76.791814
2339.000000	76.827542
2338.000000	76.871320
2337.000000	76.919043
2336.000000	76.966413
2335.000000	77.009309
2334.000000	77.048192
2333.000000	77.084212
2332.000000	77.121612
2331.000000	77.163972
2330.000000	77.208525
2329.000000	77.254517
2328.000000	77.296134
2327.000000	77.334023
2326.000000	77.368716
2325.000000	77.403163
2324.000000	77.442717
2323.000000	77.485910
2322.000000	77.530115
2321.000000	77.567627
2320.000000	77.597771
2319.000000	77.622970
2318.000000	77.648840
2317.000000	77.680061
2316.000000	77.719388
2315.000000	77.766371
2314.000000	77.814807
2313.000000	77.857612
2312.000000	77.890408
2311.000000	77.915613
2310.000000	77.938391
2309.000000	77.965087
2308.000000	77.999963
2307.000000	78.043262
2306.000000	78.090031
2305.000000	78.133037
2304.000000	78.168610
2303.000000	78.197541
2302.000000	78.223535
2301.000000	78.251036
2300.000000	78.283802
2299.000000	78.323086
2298.000000	78.365084
2297.000000	78.404624
2296.000000	78.438815
2295.000000	78.469544
2294.000000	78.499907
2293.000000	78.532483
2292.000000	78.568052
2291.000000	78.605031
2290.000000	78.639467
2289.000000	78.668168
2288.000000	78.692406
2287.000000	78.717017
2286.000000	78.746635
2285.000000	78.782852
2284.000000	78.824352
2283.000000	78.866585
2282.000000	78.903174
2281.000000	78.929896
2280.000000	78.948914
2279.000000	78.967162
2278.000000	78.991184
2277.000000	79.023724
2276.000000	79.063579
2275.000000	79.105989
2274.000000	79.143642
2273.000000	79.171047
2272.000000	79.188676
2271.000000	79.202278
2270.000000	79.218179
2269.000000	79.240159
2268.000000	79.269044
2267.000000	79.302302
2266.000000	79.334496
2265.000000	79.361043
2264.000000	79.381723
2263.000000	79.399745
2262.000000	79.417633
2261.000000	79.435855
2260.000000	79.454330
2259.000000	79.472405
2258.000000	79.488605
2257.000000	79.502249
2256.000000	79.515711
2255.000000	79.532322
2254.000000	79.552325
2253.000000	79.572460
2252.000000	79.588841
2251.000000	79.598872
2250.000000	79.601520
2249.000000	79.598771
2248.000000	79.596386
2247.000000	79.600474
2246.000000	79.612398
2245.000000	79.628228
2244.000000	79.642089
2243.000000	79.648701
2242.000000	79.644632
2241.000000	79.630726
2240.000000	79.613255
2239.000000	79.599998
2238.000000	79.594521
2237.000000	79.595043
2236.000000	79.597561
2235.000000	79.597847
2234.000000	79.591908
2233.000000	79.577963
2232.000000	79.558405
2231.000000	79.537729
2230.000000	79.518502
2229.000000	79.500890
2228.000000	79.485048
2227.000000	79.471460
2226.000000	79.459442
2225.000000	79.447562
2224.000000	79.435263
2223.000000	79.422094
2222.000000	79.406050
2221.000000	79.385151
2220.000000	79.360497
2219.000000	79.335910
2218.000000	79.314970
2217.000000	79.299941
2216.000000	79.292130
2215.000000	79.290405
2214.000000	79.289725
2213.000000	79.283901
2212.000000	79.270438
2211.000000	79.251557
2210.000000	79.231517
2209.000000	79.214863
2208.000000	79.205824
2207.000000	79.206086
2206.000000	79.212732
2205.000000	79.220316
2204.000000	79.225065
2203.000000	79.225910
2202.000000	79.222892
2201.000000	79.217153
2200.000000	79.211909
2199.000000	79.210756
2198.000000	79.214921
2197.000000	79.223748
2196.000000	79.236942
2195.000000	79.253971
2194.000000	79.271933
2193.000000	79.286565
2192.000000	79.295564
2191.000000	79.299373
2190.000000	79.299725
2189.000000	79.299676
2188.000000	79.304076
2187.000000	79.316883
2186.000000	79.337380
2185.000000	79.360477
2184.000000	79.380257
2183.000000	79.392210
2182.000000	79.394008
2181.000000	79.387442
2180.000000	79.379159
2179.000000	79.376565
2178.000000	79.382325
2177.000000	79.393864
2176.000000	79.406924
2175.000000	79.417635
2174.000000	79.422828
2173.000000	79.421760
2172.000000	79.417482
2171.000000	79.414055
2170.000000	79.412555
2169.000000	79.411555
2168.000000	79.410581
2167.000000	79.410761
2166.000000	79.413031
2165.000000	79.418056
2164.000000	79.426862
2163.000000	79.438681
2162.000000	79.448808
2161.000000	79.451593
2160.000000	79.445910
2159.000000	79.436112
2158.000000	79.428565
2157.000000	79.428975
2156.000000	79.440887
2155.000000	79.462680
2154.000000	79.485973
2153.000000	79.500301
2152.000000	79.500711
2151.000000	79.490251
2150.000000	79.476686
2149.000000	79.468725
2148.000000	79.472927
2147.000000	79.489676
2146.000000	79.511381
2145.000000	79.527312
2144.000000	79.531524
2143.000000	79.525543
2142.000000	79.515172
2141.000000	79.507127
2140.000000	79.506738
2139.000000	79.514639
2138.000000	79.525173
2137.000000	79.530926
2136.000000	79.529558
2135.000000	79.524948
2134.000000	79.522543
2133.000000	79.525742
2132.000000	79.534985
2131.000000	79.546737
2130.000000	79.554015
2129.000000	79.551590
2128.000000	79.541700
2127.000000	79.532865
2126.000000	79.533151
2125.000000	79.545455
2124.000000	79.566996
2123.000000	79.589823
2122.000000	79.603234
2121.000000	79.600628
2120.000000	79.585827
2119.000000	79.570954
2118.000000	79.567765
2117.000000	79.581256
2116.000000	79.608560
2115.000000	79.640150
2114.000000	79.663438
2113.000000	79.670621
2112.000000	79.665413
2111.000000	79.660478
2110.000000	79.667943
2109.000000	79.692705
2108.000000	79.731540
2107.000000	79.774870
2106.000000	79.810883
2105.000000	79.833330
2104.000000	79.847171
2103.000000	79.864638
2102.000000	79.895306
2101.000000	79.940376
2100.000000	79.994269
2099.000000	80.047864
2098.000000	80.092205
2097.000000	80.124651
2096.000000	80.152274
2095.000000	80.186783
2094.000000	80.234815
2093.000000	80.293694
2092.000000	80.354721
2091.000000	80.407919
2090.000000	80.446152
2089.000000	80.470294
2088.000000	80.491196
2087.000000	80.522419
2086.000000	80.569306
2085.000000	80.625542
2084.000000	80.678685
2083.000000	80.717030
2082.000000	80.734220
2081.000000	80.733392
2080.000000	80.728045
2079.000000	80.733892
2078.000000	80.757032
2077.000000	80.790518
2076.000000	80.820415
2075.000000	80.834350
2074.000000	80.826928
2073.000000	80.803228
2072.000000	80.778174
2071.000000	80.767013
2070.000000	80.774083
2069.000000	80.791019
2068.000000	80.804865
2067.000000	80.805928
2066.000000	80.791486
2065.000000	80.768149
2064.000000	80.750123
2063.000000	80.749716
2062.000000	80.767468
2061.000000	80.792696
2060.000000	80.812943
2059.000000	80.821791
2058.000000	80.820470
2057.000000	80.817265
2056.000000	80.824593
2055.000000	80.851113
2054.000000	80.893841
2053.000000	80.940031
2052.000000	80.977515
2051.000000	81.001949
2050.000000	81.017058
2049.000000	81.033281
2048.000000	81.064343
2047.000000	81.117928
2046.000000	81.188010
2045.000000	81.258845
2044.000000	81.317317
2043.000000	81.360429
2042.000000	81.394515
2041.000000	81.432014
2040.000000	81.486237
2039.000000	81.562714
2038.000000	81.653608
2037.000000	81.743123
2036.000000	81.819730
2035.000000	81.882388
2034.000000	81.938119
2033.000000	81.997946
2032.000000	82.072368
2031.000000	82.164577
2030.000000	82.265534
2029.000000	82.360387
2028.000000	82.440174
2027.000000	82.506857
2026.000000	82.569161
2025.000000	82.637136
2024.000000	82.719260
2023.000000	82.815740
2022.000000	82.914972
2021.000000	83.001475
2020.000000	83.068793
2019.000000	83.122563
2018.000000	83.173936
2017.000000	83.234051
2016.000000	83.310298
2015.000000	83.400912
2014.000000	83.493213
2013.000000	83.572134
2012.000000	83.632107
2011.000000	83.679410
2010.000000	83.724480
2009.000000	83.776006
2008.000000	83.838440
2007.000000	83.909326
2006.000000	83.978639
2005.000000	84.035432
2004.000000	84.078931
2003.000000	84.117041
2002.000000	84.158633
2001.000000	84.207582
2000.000000	84.262849
1999.000000	84.320490
1998.000000	84.371461
1997.000000	84.406732
1996.000000	84.427239
1995.000000	84.444994
1994.000000	84.472062
1993.000000	84.512861
1992.000000	84.565595
1991.000000	84.622582
1990.000000	84.670463
1989.000000	84.699801
1988.000000	84.714793
1987.000000	84.729044
1986.000000	84.753456
1985.000000	84.790527
1984.000000	84.837441
1983.000000	84.886489
1982.000000	84.926967
1981.000000	84.951774
1980.000000	84.964384
1979.000000	84.976254
1978.000000	84.994301
1977.000000	85.018146
1976.000000	85.046136
1975.000000	85.077024
1974.000000	85.106088
1973.000000	85.128460
1972.000000	85.146747
1971.000000	85.168185
1970.000000	85.193552
1969.000000	85.215653
1968.000000	85.229382
1967.000000	85.237199
1966.000000	85.243411
1965.000000	85.251503
1964.000000	85.267979
1963.000000	85.298160
1962.000000	85.337115
1961.000000	85.372380
1960.000000	85.395860
1959.000000	85.406525
1958.000000	85.404878
1957.000000	85.395029
1956.000000	85.389122
1955.000000	85.400615
1954.000000	85.429720
1953.000000	85.464740
1952.000000	85.495748
1951.000000	85.517727
1950.000000	85.528669
1949.000000	85.529934
1948.000000	85.527372
1947.000000	85.526542
1946.000000	85.527093
1945.000000	85.527202
1944.000000	85.529243
1943.000000	85.537894
1942.000000	85.554568
1941.000000	85.574715
1940.000000	85.594589
1939.000000	85.613507
1938.000000	85.625826
1937.000000	85.624471
1936.000000	85.613501
1935.000000	85.606649
1934.000000	85.611266
1933.000000	85.626075
1932.000000	85.649243
1931.000000	85.674948
1930.000000	85.693306
1929.000000	85.692986
1928.000000	85.674677
1927.000000	85.650213
1926.000000	85.630402
1925.000000	85.623820
1924.000000	85.631418
1923.000000	85.646726
1922.000000	85.656909
1921.000000	85.651024
1920.000000	85.634195
1919.000000	85.617038
1918.000000	85.602162
1917.000000	85.592016
1916.000000	85.591392
1915.000000	85.604068
1914.000000	85.624274
1913.000000	85.638665
1912.000000	85.640400
1911.000000	85.631650
1910.000000	85.617367
1909.000000	85.598282
1908.000000	85.578224
1907.000000	85.562164
1906.000000	85.547430
1905.000000	85.532376
1904.000000	85.520794
1903.000000	85.519964
1902.000000	85.532518
1901.000000	85.549508
1900.000000	85.559643
1899.000000	85.557028
1898.000000	85.538365
1897.000000	85.507062
1896.000000	85.475754
1895.000000	85.460905
1894.000000	85.468321
1893.000000	85.489184
1892.000000	85.512313
1891.000000	85.527608
1890.000000	85.525636
1889.000000	85.508278
1888.000000	85.488342
1887.000000	85.479186
1886.000000	85.486281
1885.000000	85.504907
1884.000000	85.526912
1883.000000	85.546232
1882.000000	85.558558
1881.000000	85.558806
1880.000000	85.548327
1879.000000	85.537047
1878.000000	85.529532
1877.000000	85.523653
1876.000000	85.520399
1875.000000	85.520538
1874.000000	85.517511
1873.000000	85.505663
1872.000000	85.494920
1871.000000	85.501257
1870.000000	85.513611
1869.000000	85.505336
1868.000000	85.476775
1867.000000	85.446529
1866.000000	85.425771
1865.000000	85.417743
1864.000000	85.423388
1863.000000	85.441301
1862.000000	85.463626
1861.000000	85.476603
1860.000000	85.469497
1859.000000	85.442366
1858.000000	85.403986
1857.000000	85.366298
1856.000000	85.343011
1855.000000	85.340947
1854.000000	85.356199
1853.000000	85.371299
1852.000000	85.369087
1851.000000	85.351134
1850.000000	85.320867
1849.000000	85.276182
1848.000000	85.221186
1847.000000	85.176026
1846.000000	85.159919
1845.000000	85.162540
1844.000000	85.161804
1843.000000	85.153601
1842.000000	85.141131
1841.000000	85.126560
1840.000000	85.114035
1839.000000	85.098945
1838.000000	85.070747
1837.000000	85.031416
1836.000000	84.992183
1835.000000	84.959641
1834.000000	84.932591
1833.000000	84.910120
1832.000000	84.899681
1831.000000	84.891308
1830.000000	84.856413
1829.000000	84.788874
1828.000000	84.706037
1827.000000	84.638696
1826.000000	84.604396
1825.000000	84.595663
1824.000000	84.603058
1823.000000	84.616571
1822.000000	84.618935
1821.000000	84.593070
1820.000000	84.540245
1819.000000	84.478246
1818.000000	84.422842
1817.000000	84.384878
1816.000000	84.366261
1815.000000	84.360994
1814.000000	84.354604
1813.000000	84.330950
1812.000000	84.287372
1811.000000	84.230193
1810.000000	84.170321
1809.000000	84.120168
1808.000000	84.086268
1807.000000	84.063072
1806.000000	84.033451
1805.000000	83.987658
1804.000000	83.932503
1803.000000	83.885033
1802.000000	83.850758
1801.000000	83.821753
1800.000000	83.798306
1799.000000	83.779990
1798.000000	83.758907
1797.000000	83.727832
1796.000000	83.687020
1795.000000	83.647098
1794.000000	83.612466
1793.000000	83.566842
1792.000000	83.513388
1791.000000	83.476114
1790.000000	83.450971
1789.000000	83.414617
1788.000000	83.362823
1787.000000	83.314243
1786.000000	83.287483
1785.000000	83.286584
1784.000000	83.294086
1783.000000	83.292096
1782.000000	83.269655
1781.000000	83.219249
1780.000000	83.158723
1779.000000	83.112250
1778.000000	83.091899
1777.000000	83.095515
1776.000000	83.116298
1775.000000	83.151628
1774.000000	83.174094
1773.000000	83.114564
1772.000000	82.968749
1771.000000	82.818001
1770.000000	82.712166
1769.000000	82.660164
1768.000000	82.652602
1767.000000	82.663000
1766.000000	82.658101
1765.000000	82.624270
1764.000000	82.580895
1763.000000	82.545969
1762.000000	82.508767
1761.000000	82.455295
1760.000000	82.388306
1759.000000	82.322416
1758.000000	82.277218
1757.000000	82.250335
1756.000000	82.235214
1755.000000	82.227053
1754.000000	82.212533
1753.000000	82.181387
1752.000000	82.130950
1751.000000	82.060697
1750.000000	81.975241
1749.000000	81.888589
1748.000000	81.817414
1747.000000	81.775507
1746.000000	81.749043
1745.000000	81.711158
1744.000000	81.658478
1743.000000	81.601223
1742.000000	81.537677
1741.000000	81.460466
1740.000000	81.373406
1739.000000	81.293797
1738.000000	81.232120
1737.000000	81.187122
1736.000000	81.183519
1735.000000	81.176997
1734.000000	81.073588
1733.000000	80.884463
1732.000000	80.672401
1731.000000	80.490695
1730.000000	80.359254
1729.000000	80.255008
1728.000000	80.157698
1727.000000	80.068777
1726.000000	79.979390
1725.000000	79.867814
1724.000000	79.733639
1723.000000	79.589893
1722.000000	79.452347
1721.000000	79.341310
1720.000000	79.284974
1719.000000	79.236847
1718.000000	79.079815
1717.000000	78.812089
1716.000000	78.536103
1715.000000	78.318565
1714.000000	78.158941
1713.000000	78.016510
1712.000000	77.861784
1711.000000	77.695734
1710.000000	77.524677
1709.000000	77.343354
1708.000000	77.158030
1707.000000	76.979174
1706.000000	76.792457
1705.000000	76.595333
1704.000000	76.397157
1703.000000	76.204729
1702.000000	76.064699
1701.000000	75.946353
1700.000000	75.780799
1699.000000	75.613019
1698.000000	75.451883
1697.000000	75.251680
1696.000000	74.994703
1695.000000	74.702572
1694.000000	74.416061
1693.000000	74.158072
1692.000000	73.926709
1691.000000	73.699023
1690.000000	73.474112
1689.000000	73.287912
1688.000000	73.164256
1687.000000	73.076435
1686.000000	72.946863
1685.000000	72.616578
1684.000000	72.114488
1683.000000	71.692817
1682.000000	71.404538
1681.000000	71.164634
1680.000000	70.925073
1679.000000	70.681127
1678.000000	70.443249
1677.000000	70.208562
1676.000000	69.959797
1675.000000	69.695586
1674.000000	69.434622
1673.000000	69.173450
1672.000000	68.910185
1671.000000	68.632144
1670.000000	68.319242
1669.000000	67.997686
1668.000000	67.715064
1667.000000	67.483859
1666.000000	67.275429
1665.000000	67.052918
1664.000000	66.786464
1663.000000	66.472987
1662.000000	66.157827
1661.000000	65.870412
1660.000000	65.612995
1659.000000	65.387822
1658.000000	65.199950
1657.000000	65.052314
1656.000000	64.959292
1655.000000	64.921930
1654.000000	64.727651
1653.000000	64.289627
1652.000000	63.834477
1651.000000	63.462534
1650.000000	63.188405
1649.000000	62.993254
1648.000000	62.772129
1647.000000	62.477780
1646.000000	62.182444
1645.000000	61.918955
1644.000000	61.664569
1643.000000	61.424449
1642.000000	61.205317
1641.000000	60.993735
1640.000000	60.797898
1639.000000	60.640747
1638.000000	60.512432
1637.000000	60.328050
1636.000000	60.038283
1635.000000	59.746073
1634.000000	59.521284
1633.000000	59.335751
1632.000000	59.164679
1631.000000	59.006427
1630.000000	58.857512
1629.000000	58.703386
1628.000000	58.543910
1627.000000	58.403165
1626.000000	58.288847
1625.000000	58.175180
1624.000000	58.033580
1623.000000	57.880130
1622.000000	57.762312
1621.000000	57.697529
1620.000000	57.684686
1619.000000	57.715786
1618.000000	57.735051
1617.000000	57.667049
1616.000000	57.527662
1615.000000	57.399190
1614.000000	57.320235
1613.000000	57.278113
1612.000000	57.249009
1611.000000	57.230872
1610.000000	57.235389
1609.000000	57.259230
1608.000000	57.292677
1607.000000	57.338095
1606.000000	57.395069
1605.000000	57.442936
1604.000000	57.469766
1603.000000	57.491144
1602.000000	57.525986
1601.000000	57.576207
1600.000000	57.640142
1599.000000	57.723997
1598.000000	57.823430
1597.000000	57.916398
1596.000000	57.987878
1595.000000	58.046377
1594.000000	58.105553
1593.000000	58.164795
1592.000000	58.221577
1591.000000	58.284762
1590.000000	58.361547
1589.000000	58.444592
1588.000000	58.527003
1587.000000	58.612485
1586.000000	58.703639
1585.000000	58.788792
1584.000000	58.856945
1583.000000	58.919000
1582.000000	58.989832
1581.000000	59.076602
1580.000000	59.193946
1579.000000	59.360986
1578.000000	59.551255
1577.000000	59.673062
1576.000000	59.680642
1575.000000	59.634562
1574.000000	59.595487
1573.000000	59.579371
1572.000000	59.593134
1571.000000	59.630198
1570.000000	59.677158
1569.000000	59.738962
1568.000000	59.815769
1567.000000	59.898856
1566.000000	59.984440
1565.000000	60.068160
1564.000000	60.146321
1563.000000	60.237732
1562.000000	60.337318
1561.000000	60.502358
1560.000000	60.622238
1559.000000	60.595340
1558.000000	60.647025
1557.000000	60.760523
1556.000000	60.844095
1555.000000	60.936057
1554.000000	61.043565
1553.000000	61.140838
1552.000000	61.225956
1551.000000	61.335735
1550.000000	61.488775
1549.000000	61.670119
1548.000000	61.852630
1547.000000	62.044976
1546.000000	62.275076
1545.000000	62.535465
1544.000000	62.809210
1543.000000	63.109125
1542.000000	63.434680
1541.000000	63.702238
1540.000000	63.902806
1539.000000	64.126077
1538.000000	64.332477
1537.000000	64.483774
1536.000000	64.632462
1535.000000	64.826609
1534.000000	65.060253
1533.000000	65.315328
1532.000000	65.591901
1531.000000	65.875197
1530.000000	66.161418
1529.000000	66.461246
1528.000000	66.779089
1527.000000	67.118833
1526.000000	67.477498
1525.000000	67.831428
1524.000000	68.169839
1523.000000	68.503246
1522.000000	68.832958
1521.000000	69.154657
1520.000000	69.446215
1519.000000	69.707641
1518.000000	69.977716
1517.000000	70.280224
1516.000000	70.614582
1515.000000	70.956575
1514.000000	71.280290
1513.000000	71.585158
1512.000000	71.877297
1511.000000	72.170814
1510.000000	72.488129
1509.000000	72.864173
1508.000000	73.237517
1507.000000	73.582576
1506.000000	74.004990
1505.000000	74.386472
1504.000000	74.620012
1503.000000	74.797479
1502.000000	74.999099
1501.000000	75.244649
1500.000000	75.536624
1499.000000	75.879811
1498.000000	76.244036
1497.000000	76.584603
1496.000000	76.886306
1495.000000	77.142039
1494.000000	77.344791
1493.000000	77.514135
1492.000000	77.703349
1491.000000	77.939512
1490.000000	78.191441
1489.000000	78.430736
1488.000000	78.664998
1487.000000	78.905803
1486.000000	79.145941
1485.000000	79.356760
1484.000000	79.523898
1483.000000	79.664872
1482.000000	79.777247
1481.000000	79.837176
1480.000000	79.842980
1479.000000	79.824398
1478.000000	79.795821
1477.000000	79.745891
1476.000000	79.665445
1475.000000	79.535072
1474.000000	79.264902
1473.000000	78.743033
1472.000000	78.025932
1471.000000	77.251644
1470.000000	76.416918
1469.000000	75.437149
1468.000000	74.260833
1467.000000	72.829014
1466.000000	71.009837
1465.000000	68.728670
1464.000000	66.174600
1463.000000	63.619573
1462.000000	61.130434
1461.000000	58.663209
1460.000000	56.208029
1459.000000	53.706322
1458.000000	50.970865
1457.000000	48.108194
1456.000000	45.723925
1455.000000	44.146994
1454.000000	43.145684
1453.000000	42.462416
1452.000000	42.051539
1451.000000	41.946565
1450.000000	42.132933
1449.000000	42.595881
1448.000000	43.354397
1447.000000	44.360043
1446.000000	45.487076
1445.000000	46.657727
1444.000000	47.887258
1443.000000	49.184110
1442.000000	50.493084
1441.000000	51.751396
1440.000000	52.947314
1439.000000	54.134100
1438.000000	55.416365
1437.000000	56.869777
1436.000000	58.403068
1435.000000	59.813535
1434.000000	61.035881
1433.000000	62.175832
1432.000000	63.329778
1431.000000	64.492349
1430.000000	65.605054
1429.000000	66.630032
1428.000000	67.536841
1427.000000	68.303860
1426.000000	68.967229
1425.000000	69.584434
1424.000000	70.170739
1423.000000	70.697229
1422.000000	71.148882
1421.000000	71.564849
1420.000000	71.983876
1419.000000	72.397481
1418.000000	72.800341
1417.000000	73.210066
1416.000000	73.633452
1415.000000	74.059805
1414.000000	74.478487
1413.000000	74.890200
1412.000000	75.299013
1411.000000	75.707151
1410.000000	76.117772
1409.000000	76.530743
1408.000000	76.926631
1407.000000	77.277357
1406.000000	77.583842
1405.000000	77.868625
1404.000000	78.138497
1403.000000	78.376163
1402.000000	78.582111
1401.000000	78.788118
1400.000000	79.004303
1399.000000	79.200248
1398.000000	79.348222
1397.000000	79.450282
1396.000000	79.520323
1395.000000	79.581920
1394.000000	79.666618
1393.000000	79.769495
1392.000000	79.845258
1391.000000	79.857065
1390.000000	79.800043
1389.000000	79.677148
1388.000000	79.477406
1387.000000	79.212552
1386.000000	78.952626
1385.000000	78.773897
1384.000000	78.703590
1383.000000	78.722678
1382.000000	78.787173
1381.000000	78.849201
1380.000000	78.871707
1379.000000	78.843775
1378.000000	78.777215
1377.000000	78.677021
1376.000000	78.523697
1375.000000	78.305906
1374.000000	78.063983
1373.000000	77.857866
1372.000000	77.698521
1371.000000	77.559524
1370.000000	77.424169
1369.000000	77.275868
1368.000000	77.085269
1367.000000	76.830875
1366.000000	76.519725
1365.000000	76.175306
1364.000000	75.811768
1363.000000	75.444057
1362.000000	75.104593
1361.000000	74.808101
1360.000000	74.530187
1359.000000	74.253141
1358.000000	74.001484
1357.000000	73.817411
1356.000000	73.723629
1355.000000	73.719067
1354.000000	73.785662
1353.000000	73.886391
1352.000000	73.969404
1351.000000	73.992260
1350.000000	73.941825
1349.000000	73.813483
1348.000000	73.587209
1347.000000	73.234312
1346.000000	72.733717
1345.000000	72.074790
1344.000000	71.260393
1343.000000	70.311974
1342.000000	69.259670
1341.000000	68.115854
1340.000000	66.873470
1339.000000	65.534847
1338.000000	64.106157
1337.000000	62.571773
1336.000000	60.907318
1335.000000	59.115652
1334.000000	57.231753
1333.000000	55.294780
1332.000000	53.341906
1331.000000	51.424992
1330.000000	49.602940
1329.000000	47.914656
1328.000000	46.375365
1327.000000	44.985672
1326.000000	43.723626
1325.000000	42.542321
1324.000000	41.398365
1323.000000	40.280434
1322.000000	39.197022
1321.000000	38.159170
1320.000000	37.201622
1319.000000	36.397133
1318.000000	35.828680
1317.000000	35.550462
1316.000000	35.583736
1315.000000	35.933311
1314.000000	36.576012
1313.000000	37.459158
1312.000000	38.526725
1311.000000	39.734488
1310.000000	41.045649
1309.000000	42.419114
1308.000000	43.814007
1307.000000	45.195673
1306.000000	46.531609
1305.000000	47.795453
1304.000000	48.979614
1303.000000	50.096036
1302.000000	51.159593
1301.000000	52.173595
1300.000000	53.127500
1299.000000	54.004626
1298.000000	54.789186
1297.000000	55.474543
1296.000000	56.077376
1295.000000	56.641222
1294.000000	57.220889
1293.000000	57.859395
1292.000000	58.575596
1291.000000	59.367193
1290.000000	60.220916
1289.000000	61.121656
1288.000000	62.057445
1287.000000	63.019112
1286.000000	63.993171
1285.000000	64.954247
1284.000000	65.866843
1283.000000	66.698498
1282.000000	67.433467
1281.000000	68.075987
1280.000000	68.640899
1279.000000	69.145071
1278.000000	69.601748
1277.000000	70.011816
1276.000000	70.367119
1275.000000	70.668312
1274.000000	70.939108
1273.000000	71.220003
1272.000000	71.547986
1271.000000	71.942912
1270.000000	72.402535
1269.000000	72.900666
1268.000000	73.396396
1267.000000	73.859851
1266.000000	74.293000
1265.000000	74.721393
1264.000000	75.167420
1263.000000	75.633709
1262.000000	76.102200
1261.000000	76.538489
1260.000000	76.902634
1259.000000	77.173334
1258.000000	77.367360
1257.000000	77.524921
1256.000000	77.678407
1255.000000	77.837820
1254.000000	77.992826
1253.000000	78.118869
1252.000000	78.185820
1251.000000	78.178431
1250.000000	78.110403
1249.000000	78.009003
1248.000000	77.889504
1247.000000	77.746550
1246.000000	77.564105
1245.000000	77.325645
1244.000000	77.020603
1243.000000	76.656949
1242.000000	76.261269
1241.000000	75.856947
1240.000000	75.443735
1239.000000	75.000288
1238.000000	74.505305
1237.000000	73.952246
1236.000000	73.355367
1235.000000	72.752658
1234.000000	72.194867
1233.000000	71.717953
1232.000000	71.323678
1231.000000	70.986276
1230.000000	70.672648
1229.000000	70.361689
1228.000000	70.054858
1227.000000	69.779387
1226.000000	69.577952
1225.000000	69.481868
1224.000000	69.493577
1223.000000	69.588526
1222.000000	69.730441
1221.000000	69.887947
1220.000000	70.044332
1219.000000	70.204485
1218.000000	70.388574
1217.000000	70.613774
1216.000000	70.881485
1215.000000	71.178980
1214.000000	71.491720
1213.000000	71.811073
1212.000000	72.135448
1211.000000	72.470021
1210.000000	72.820622
1209.000000	73.182355
1208.000000	73.535301
1207.000000	73.857369
1206.000000	74.142918
1205.000000	74.407816
1204.000000	74.679687
1203.000000	74.985340
1202.000000	75.338031
1201.000000	75.723879
1200.000000	76.101881
1199.000000	76.426908
1198.000000	76.679230
1197.000000	76.874845
1196.000000	77.053168
1195.000000	77.258152
1194.000000	77.519708
1193.000000	77.836162
1192.000000	78.171609
1191.000000	78.477584
1190.000000	78.723974
1189.000000	78.911243
1188.000000	79.061789
1187.000000	79.207717
1186.000000	79.377738
1185.000000	79.581459
1184.000000	79.803274
1183.000000	80.016798
1182.000000	80.206625
1181.000000	80.372996
1180.000000	80.522064
1179.000000	80.659926
1178.000000	80.790846
1177.000000	80.912141
1176.000000	81.013383
1175.000000	81.090647
1174.000000	81.159415
1173.000000	81.244134
1172.000000	81.356332
1171.000000	81.486800
1170.000000	81.613248
1169.000000	81.708333
1168.000000	81.748402
1167.000000	81.731620
1166.000000	81.688338
1165.000000	81.663887
1164.000000	81.688316
1163.000000	81.761962
1162.000000	81.861342
1161.000000	81.949470
1160.000000	81.989544
1159.000000	81.967247
1158.000000	81.904381
1157.000000	81.843506
1156.000000	81.818812
1155.000000	81.842520
1154.000000	81.907829
1153.000000	81.992673
1152.000000	82.066636
1151.000000	82.109103
1150.000000	82.124051
1149.000000	82.131008
1148.000000	82.145115
1147.000000	82.171930
1146.000000	82.214619
1145.000000	82.274721
1144.000000	82.348506
1143.000000	82.432306
1142.000000	82.528014
1141.000000	82.634495
1140.000000	82.737666
1139.000000	82.819396
1138.000000	82.875257
1137.000000	82.916904
1136.000000	82.961919
1135.000000	83.029216
1134.000000	83.135531
1133.000000	83.281504
1132.000000	83.441173
1131.000000	83.575856
1130.000000	83.660129
1129.000000	83.692168
1128.000000	83.687239
1127.000000	83.672435
1126.000000	83.680520
1125.000000	83.730555
1124.000000	83.811798
1123.000000	83.892283
1122.000000	83.941825
1121.000000	83.943391
1120.000000	83.890414
1119.000000	83.789064
1118.000000	83.660083
1117.000000	83.524977
1116.000000	83.390694
1115.000000	83.250810
1114.000000	83.097494
1113.000000	82.921604
1112.000000	82.705011
1111.000000	82.428333
1110.000000	82.082332
1109.000000	81.667759
1108.000000	81.189277
1107.000000	80.656194
1106.000000	80.086877
1105.000000	79.494837
1104.000000	78.872830
1103.000000	78.195995
1102.000000	77.431702
1101.000000	76.550684
1100.000000	75.532191
1099.000000	74.373063
1098.000000	73.093326
1097.000000	71.716660
1096.000000	70.256996
1095.000000	68.713887
1094.000000	67.074284
1093.000000	65.319203
1092.000000	63.430600
1091.000000	61.408481
1090.000000	59.274915
1089.000000	57.067471
1088.000000	54.836616
1087.000000	52.639836
1086.000000	50.526622
1085.000000	48.528495
1084.000000	46.666544
1083.000000	44.952847
1082.000000	43.387032
1081.000000	41.956676
1080.000000	40.653231
1079.000000	39.480130
1078.000000	38.432494
1077.000000	37.497249
1076.000000	36.665537
1075.000000	35.932322
1074.000000	35.284262
1073.000000	34.696062
1072.000000	34.151907
1071.000000	33.649614
1070.000000	33.185201
1069.000000	32.755339
1068.000000	32.370113
1067.000000	32.050948
1066.000000	31.808584
1065.000000	31.637721
1064.000000	31.536672
1063.000000	31.507339
1062.000000	31.541741
1061.000000	31.625434
1060.000000	31.755326
1059.000000	31.942390
1058.000000	32.190883
1057.000000	32.496632
1056.000000	32.862539
1055.000000	33.295049
1054.000000	33.789346
1053.000000	34.329440
1052.000000	34.907096
1051.000000	35.525492
1050.000000	36.182769
1049.000000	36.874043
1048.000000	37.603790
1047.000000	38.382460
1046.000000	39.211299
1045.000000	40.081249
1044.000000	40.987297
1043.000000	41.927137
1042.000000	42.890439
1041.000000	43.863532
1040.000000	44.841817
1039.000000	45.830095
1038.000000	46.830703
1037.000000	47.841265
1036.000000	48.861487
1035.000000	49.890593
1034.000000	50.919111
1033.000000	51.931249
1032.000000	52.915902
1031.000000	53.869824
1030.000000	54.794157
1029.000000	55.693266
1028.000000	56.575955
1027.000000	57.451271
1026.000000	58.319606
1025.000000	59.172866
1024.000000	59.999960
1023.000000	60.791263
1022.000000	61.541486
1021.000000	62.251041
1020.000000	62.928436
1019.000000	63.587163
1018.000000	64.238578
1017.000000	64.887357
1016.000000	65.529770
1015.000000	66.156847
1014.000000	66.757945
1013.000000	67.323809
1012.000000	67.850888
1011.000000	68.343933
1010.000000	68.816004
1009.000000	69.282784
1008.000000	69.754929
1007.000000	70.235320
1006.000000	70.718626
1005.000000	71.192221
1004.000000	71.639730
1003.000000	72.049118
1002.000000	72.420817
1001.000000	72.766793
1000.000000	73.104002
999.000000	73.448780
998.000000	73.811436
997.000000	74.190545
996.000000	74.571099
995.000000	74.933213
994.000000	75.264448
993.000000	75.563036
992.000000	75.834513
991.000000	76.089744
990.000000	76.343624
989.000000	76.608728
988.000000	76.888237
987.000000	77.177916
986.000000	77.471221
985.000000	77.759094
984.000000	78.028563
983.000000	78.268015
982.000000	78.475160
981.000000	78.656900
980.000000	78.825103
979.000000	78.997063
978.000000	79.193573
977.000000	79.426787
976.000000	79.687507
975.000000	79.948125
974.000000	80.179033
973.000000	80.360870
972.000000	80.490755
971.000000	80.587578
970.000000	80.688662
969.000000	80.829484
968.000000	81.021094
967.000000	81.246416
966.000000	81.473706
965.000000	81.671039
964.000000	81.817577
963.000000	81.914368
962.000000	81.986490
961.000000	82.066364
960.000000	82.171756
959.000000	82.301651
958.000000	82.445483
957.000000	82.589900
956.000000	82.722169
955.000000	82.837563
954.000000	82.942915
953.000000	83.045423
952.000000	83.139709
951.000000	83.213711
950.000000	83.265536
949.000000	83.308329
948.000000	83.361622
947.000000	83.443278
946.000000	83.562680
945.000000	83.709176
944.000000	83.848700
943.000000	83.942405
942.000000	83.974812
941.000000	83.963028
940.000000	83.944050
939.000000	83.958090
938.000000	84.032234
937.000000	84.161883
936.000000	84.306843
935.000000	84.415158
934.000000	84.457828
933.000000	84.442827
932.000000	84.403140
931.000000	84.377786
930.000000	84.394641
929.000000	84.453783
928.000000	84.524239
927.000000	84.566578
926.000000	84.563545
925.000000	84.527356
924.000000	84.484076
923.000000	84.456263
922.000000	84.451970
921.000000	84.458354
920.000000	84.445995
919.000000	84.391496
918.000000	84.299433
917.000000	84.197634
916.000000	84.113731
915.000000	84.058647
914.000000	84.022668
913.000000	83.977630
912.000000	83.888338
911.000000	83.737995
910.000000	83.545854
909.000000	83.353846
908.000000	83.193900
907.000000	83.068271
906.000000	82.952859
905.000000	82.809493
904.000000	82.604547
903.000000	82.332927
902.000000	82.025988
901.000000	81.728990
900.000000	81.466381
899.000000	81.226362
898.000000	80.973679
897.000000	80.668573
896.000000	80.286641
895.000000	79.835860
894.000000	79.355349
893.000000	78.888023
892.000000	78.448522
891.000000	78.016472
890.000000	77.553655
889.000000	77.024552
888.000000	76.413013
887.000000	75.731117
886.000000	75.013590
885.000000	74.293560
884.000000	73.577939
883.000000	72.848124
882.000000	72.076570
881.000000	71.243312
880.000000	70.345127
879.000000	69.395396
878.000000	68.415111
877.000000	67.415825
876.000000	66.390785
875.000000	65.324259
874.000000	64.205980
873.000000	63.040513
872.000000	61.846115
871.000000	60.645379
870.000000	59.451508
869.000000	58.259051
868.000000	57.050100
867.000000	55.807915
866.000000	54.527901
865.000000	53.222236
864.000000	51.917142
863.000000	50.640514
862.000000	49.405461
861.000000	48.206612
860.000000	47.031919
859.000000	45.876529
858.000000	44.747962
857.000000	43.670218
856.000000	42.688059
855.000000	41.851469
854.000000	41.195304
853.000000	40.727029
852.000000	40.428621
851.000000	40.263065
850.000000	40.176856
849.000000	40.119470
848.000000	40.061885
847.000000	39.996559
846.000000	39.926373
845.000000	39.858012
844.000000	39.805528
843.000000	39.786421
842.000000	39.813292
841.000000	39.896657
840.000000	40.048933
839.000000	40.278696
838.000000	40.581522
837.000000	40.943572
836.000000	41.355092
835.000000	41.811172
834.000000	42.307793
833.000000	42.844654
832.000000	43.427611
831.000000	44.061623
830.000000	44.739495
829.000000	45.444794
828.000000	46.163879
827.000000	46.891369
826.000000	47.630170
825.000000	48.390217
824.000000	49.183208
823.000000	50.010262
822.000000	50.855202
821.000000	51.691946
820.000000	52.496534
819.000000	53.254349
818.000000	53.964193
817.000000	54.639384
816.000000	55.298738
815.000000	55.952023
814.000000	56.593407
813.000000	57.207834
812.000000	57.783230
811.000000	58.318155
810.000000	58.825276
809.000000	59.327573
808.000000	59.844951
807.000000	60.381223
806.000000	60.922788
805.000000	61.450261
804.000000	61.952019
803.000000	62.431194
802.000000	62.904373
801.000000	63.390878
800.000000	63.897569
799.000000	64.412614
798.000000	64.914532
797.000000	65.387627
796.000000	65.830587
795.000000	66.257319
794.000000	66.690921
793.000000	67.149274
792.000000	67.629275
791.000000	68.105239
790.000000	68.546440
789.000000	68.938351
788.000000	69.291278
787.000000	69.635383
786.000000	70.005405
785.000000	70.417665
784.000000	70.854457
783.000000	71.272400
782.000000	71.631956
781.000000	71.922111
780.000000	72.164094
779.000000	72.399314
778.000000	72.669781
777.000000	72.994434
776.000000	73.354628
775.000000	73.705670
774.000000	74.008965
773.000000	74.255309
772.000000	74.464268
771.000000	74.669628
770.000000	74.902108
769.000000	75.172022
768.000000	75.460968
767.000000	75.736071
766.000000	75.977314
765.000000	76.189801
764.000000	76.392291
763.000000	76.600685
762.000000	76.819222
761.000000	77.036008
760.000000	77.225210
759.000000	77.367014
758.000000	77.472676
757.000000	77.584438
756.000000	77.745031
755.000000	77.966661
754.000000	78.223599
753.000000	78.464476
752.000000	78.635721
751.000000	78.712865
750.000000	78.722322
749.000000	78.728336
748.000000	78.790661
747.000000	78.928889
746.000000	79.117304
745.000000	79.300713
744.000000	79.420301
743.000000	79.446029
742.000000	79.399231
741.000000	79.339357
740.000000	79.321924
739.000000	79.366521
738.000000	79.456962
737.000000	79.558449
736.000000	79.636174
735.000000	79.675803
734.000000	79.696748
733.000000	79.737202
732.000000	79.818860
731.000000	79.929223
730.000000	80.038329
729.000000	80.125042
728.000000	80.190061
727.000000	80.257745
726.000000	80.366326
725.000000	80.541751
724.000000	80.770322
723.000000	81.002370
722.000000	81.187103
721.000000	81.303355
720.000000	81.366096
719.000000	81.420221
718.000000	81.524756
717.000000	81.718347
716.000000	81.983316
715.000000	82.249488
714.000000	82.444005
713.000000	82.539997
712.000000	82.566430
711.000000	82.587237
710.000000	82.670371
709.000000	82.850881
708.000000	83.104159
707.000000	83.359936
706.000000	83.553126
705.000000	83.663464
704.000000	83.715377
703.000000	83.754998
702.000000	83.828172
701.000000	83.957830
700.000000	84.126576
699.000000	84.290746
698.000000	84.420429
697.000000	84.521812
696.000000	84.620061
695.000000	84.732143
694.000000	84.859427
693.000000	84.987752
692.000000	85.087141
691.000000	85.133575
690.000000	85.142636
689.000000	85.171365
688.000000	85.272619
687.000000	85.449842
686.000000	85.660709
685.000000	85.844683
684.000000	85.943692
683.000000	85.932065
682.000000	85.849935
681.000000	85.791309
680.000000	85.837762
679.000000	86.002716
678.000000	86.238672
677.000000	86.467472
676.000000	86.605502
675.000000	86.611316
674.000000	86.522576
673.000000	86.436156
672.000000	86.440314
671.000000	86.565976
670.000000	86.796990
669.000000	87.078947
668.000000	87.287558
667.000000	87.329025
666.000000	87.266857
665.000000	87.193585
664.000000	87.154351
663.000000	87.160836
662.000000	87.201316
661.000000	87.254072
660.000000	87.307712
659.000000	87.372787
658.000000	87.469305
657.000000	87.597350
656.000000	87.724868
655.000000	87.809564
654.000000	87.820574
653.000000	87.756279
652.000000	87.660233
651.000000	87.610195
650.000000	87.670920
649.000000	87.845823
648.000000	88.074400
647.000000	88.266400
646.000000	88.344761
645.000000	88.285644
644.000000	88.136107
643.000000	87.993929
642.000000	87.954519
641.000000	88.054143
640.000000	88.254470
639.000000	88.472122
638.000000	88.622092
637.000000	88.657731
636.000000	88.593102
635.000000	88.491854
634.000000	88.424861
633.000000	88.427271
632.000000	88.489428
631.000000	88.581192
630.000000	88.676563
629.000000	88.760853
628.000000	88.828878
627.000000	88.881161
626.000000	88.915774
625.000000	88.923172
624.000000	88.894501
623.000000	88.840644
622.000000	88.799867
621.000000	88.818216
620.000000	88.917643
619.000000	89.077643
618.000000	89.239568
617.000000	89.332480
616.000000	89.312119
615.000000	89.191985
614.000000	89.041509
613.000000	88.948008
612.000000	88.969355
611.000000	89.106655
610.000000	89.305804
609.000000	89.481771
608.000000	89.559058
607.000000	89.513356
606.000000	89.386199
605.000000	89.256941
604.000000	89.193496
603.000000	89.220804
602.000000	89.319850
601.000000	89.443355
600.000000	89.536611
599.000000	89.562702
598.000000	89.518506
597.000000	89.426213
596.000000	89.313279
595.000000	89.205362
594.000000	89.129472
593.000000	89.110475
592.000000	89.161665
591.000000	89.279286
590.000000	89.439403
589.000000	89.596790
588.000000	89.697139
587.000000	89.706713
586.000000	89.638835
585.000000	89.550442
584.000000	89.509888
583.000000	89.564562
582.000000	89.721340
581.000000	89.936386
580.000000	90.125275
579.000000	90.205532
578.000000	90.149393
577.000000	90.000952
576.000000	89.848692
575.000000	89.779011
574.000000	89.833268
573.000000	89.989797
572.000000	90.180444
571.000000	90.326282
570.000000	90.376289
569.000000	90.327954
568.000000	90.218466
567.000000	90.101969
566.000000	90.025772
565.000000	90.012044
564.000000	90.056024
563.000000	90.139826
562.000000	90.242119
561.000000	90.336485
560.000000	90.390526
559.000000	90.377675
558.000000	90.293856
557.000000	90.162723
556.000000	90.029998
555.000000	89.954323
554.000000	89.986272
553.000000	90.133797
552.000000	90.343991
551.000000	90.522995
550.000000	90.586421
549.000000	90.505411
548.000000	90.320795
547.000000	90.127213
546.000000	90.032784
545.000000	90.099922
544.000000	90.308480
543.000000	90.569086
542.000000	90.771330
541.000000	90.836990
540.000000	90.753554
539.000000	90.577633
538.000000	90.404577
537.000000	90.314557
536.000000	90.334007
535.000000	90.440923
534.000000	90.591262
533.000000	90.740001
532.000000	90.849721
531.000000	90.896114
530.000000	90.872773
529.000000	90.786697
528.000000	90.655430
527.000000	90.519748
526.000000	90.447037
525.000000	90.492700
524.000000	90.651755
523.000000	90.856049
522.000000	91.015352
521.000000	91.054383
520.000000	90.934369
519.000000	90.676108
518.000000	90.370688
517.000000	90.142169
516.000000	90.073589
515.000000	90.156350
514.000000	90.298153
513.000000	90.368626
512.000000	90.258715
511.000000	89.936183
510.000000	89.468850
509.000000	88.983007
508.000000	88.588764
507.000000	88.334512
506.000000	88.197267
505.000000	88.097206
504.000000	87.941221
503.000000	87.680532
502.000000	87.341540
501.000000	86.998854
500.000000	86.714049
499.000000	86.513944
498.000000	86.417115
497.000000	86.440729
496.000000	86.582020
495.000000	86.814298
494.000000	87.100172
493.000000	87.397546
492.000000	87.658527
491.000000	87.850955
490.000000	87.985035
489.000000	88.111641
488.000000	88.294292
487.000000	88.579944
486.000000	88.973663
485.000000	89.411818
484.000000	89.770555
483.000000	89.935852
482.000000	89.885214
481.000000	89.695185
480.000000	89.484472
479.000000	89.361066
478.000000	89.389048
477.000000	89.559933
476.000000	89.786338
475.000000	89.948409
474.000000	89.971315
473.000000	89.864061
472.000000	89.709199
471.000000	89.616666
470.000000	89.656768
469.000000	89.840472
468.000000	90.135259
467.000000	90.469231
466.000000	90.747336
465.000000	90.897007
464.000000	90.900825
463.000000	90.794652
462.000000	90.648840
461.000000	90.531708
460.000000	90.486204
459.000000	90.543357
458.000000	90.718651
457.000000	90.971690
456.000000	91.191708
455.000000	91.261842
454.000000	91.149752
453.000000	90.929466
452.000000	90.731248
451.000000	90.661318
450.000000	90.754549
449.000000	90.989623
448.000000	91.301679
447.000000	91.581196
446.000000	91.716928
445.000000	91.666821
444.000000	91.477656
443.000000	91.255445
442.000000	91.125951
441.000000	91.175494
440.000000	91.396854
439.000000	91.696025
438.000000	91.959926
437.000000	92.114046
436.000000	92.129362
435.000000	92.013976
434.000000	91.822089
433.000000	91.649575
432.000000	91.592652
431.000000	91.694378
430.000000	91.921769
429.000000	92.191165
428.000000	92.396928
427.000000	92.439556
426.000000	92.273925
425.000000	91.950074
424.000000	91.593855
423.000000	91.342317
422.000000	91.266996
421.000000	91.359217
420.000000	91.576475
419.000000	91.834451
418.000000	92.008720
417.000000	92.021892
416.000000	91.867453
415.000000	91.614431
414.000000	91.398592
413.000000	91.353278
412.000000	91.507367
411.000000	91.777344
410.000000	92.047270
409.000000	92.221785
408.000000	92.224607
407.000000	92.030376
406.000000	91.726473
405.000000	91.463962
404.000000	91.325813
403.000000	91.302511
402.000000	91.371132
401.000000	91.524259
400.000000	91.686249
