PE IR       SUBTECH     SPECTRUM    ASCII       PEDS        4.00        
   -1
23ms220,23ms254-nitrito.asc
24/09/09
17:19:34.00
24/09/09
17:19:34.00
Administrator
Sample 1151 By Administrator Date Monday, September 09 2024
400.000000
#HDR
-1
-1
#GR
cm-1
%T
1.0
0.0
4000.000000
-1.000000
3601
8
69.680334
0.112725
#DATA
4000.000000	29.857307
3999.000000	29.899997
3998.000000	29.945054
3997.000000	29.992571
3996.000000	30.040660
3995.000000	30.086534
3994.000000	30.128766
3993.000000	30.168645
3992.000000	30.209032
3991.000000	30.251786
3990.000000	30.296178
3989.000000	30.340069
3988.000000	30.382376
3987.000000	30.423855
3986.000000	30.465498
3985.000000	30.506814
3984.000000	30.546247
3983.000000	30.583114
3982.000000	30.618651
3981.000000	30.655001
3980.000000	30.693403
3979.000000	30.733345
3978.000000	30.773303
3977.000000	30.812161
3976.000000	30.849787
3975.000000	30.886455
3974.000000	30.922137
3973.000000	30.956598
3972.000000	30.990061
3971.000000	31.023554
3970.000000	31.058243
3969.000000	31.094322
3968.000000	31.130746
3967.000000	31.166278
3966.000000	31.200530
3965.000000	31.234135
3964.000000	31.268023
3963.000000	31.302465
3962.000000	31.336924
3961.000000	31.370845
3960.000000	31.404558
3959.000000	31.439289
3958.000000	31.475963
3957.000000	31.513966
3956.000000	31.551556
3955.000000	31.587680
3954.000000	31.622744
3953.000000	31.657519
3952.000000	31.692126
3951.000000	31.726569
3950.000000	31.761575
3949.000000	31.797693
3948.000000	31.834131
3947.000000	31.869101
3946.000000	31.901721
3945.000000	31.933812
3944.000000	31.969225
3943.000000	32.010343
3942.000000	32.055111
3941.000000	32.098871
3940.000000	32.139052
3939.000000	32.176971
3938.000000	32.214734
3937.000000	32.251827
3936.000000	32.285723
3935.000000	32.315747
3934.000000	32.345345
3933.000000	32.379277
3932.000000	32.418816
3931.000000	32.460441
3930.000000	32.499391
3929.000000	32.533986
3928.000000	32.566059
3927.000000	32.598585
3926.000000	32.633363
3925.000000	32.670046
3924.000000	32.706011
3923.000000	32.738290
3922.000000	32.766916
3921.000000	32.795544
3920.000000	32.828006
3919.000000	32.864823
3918.000000	32.903710
3917.000000	32.942804
3916.000000	32.981482
3915.000000	33.019189
3914.000000	33.055508
3913.000000	33.091637
3912.000000	33.129323
3911.000000	33.168547
3910.000000	33.207002
3909.000000	33.242298
3908.000000	33.273645
3907.000000	33.301479
3906.000000	33.326256
3905.000000	33.348245
3904.000000	33.367923
3903.000000	33.386038
3902.000000	33.404706
3901.000000	33.427839
3900.000000	33.459245
3899.000000	33.498892
3898.000000	33.541406
3897.000000	33.581151
3896.000000	33.617139
3895.000000	33.652719
3894.000000	33.691268
3893.000000	33.733329
3892.000000	33.775963
3891.000000	33.815130
3890.000000	33.847248
3889.000000	33.870549
3888.000000	33.887717
3887.000000	33.906477
3886.000000	33.933414
3885.000000	33.965929
3884.000000	33.994689
3883.000000	34.016693
3882.000000	34.040617
3881.000000	34.075712
3880.000000	34.119378
3879.000000	34.160099
3878.000000	34.190451
3877.000000	34.213461
3876.000000	34.237567
3875.000000	34.268656
3874.000000	34.305145
3873.000000	34.338936
3872.000000	34.363804
3871.000000	34.384065
3870.000000	34.410375
3869.000000	34.445278
3868.000000	34.479220
3867.000000	34.504898
3866.000000	34.528207
3865.000000	34.560222
3864.000000	34.601885
3863.000000	34.644063
3862.000000	34.680862
3861.000000	34.715267
3860.000000	34.752060
3859.000000	34.793807
3858.000000	34.840399
3857.000000	34.888080
3856.000000	34.928348
3855.000000	34.952202
3854.000000	34.960475
3853.000000	34.965402
3852.000000	34.976682
3851.000000	34.996729
3850.000000	35.028275
3849.000000	35.073518
3848.000000	35.129268
3847.000000	35.187594
3846.000000	35.241059
3845.000000	35.286216
3844.000000	35.322677
3843.000000	35.352965
3842.000000	35.380476
3841.000000	35.406589
3840.000000	35.430944
3839.000000	35.454336
3838.000000	35.478818
3837.000000	35.506503
3836.000000	35.537748
3835.000000	35.571030
3834.000000	35.605054
3833.000000	35.640317
3832.000000	35.678613
3831.000000	35.720205
3830.000000	35.762398
3829.000000	35.802711
3828.000000	35.841415
3827.000000	35.880972
3826.000000	35.922307
3825.000000	35.961520
3824.000000	35.992079
3823.000000	36.013061
3822.000000	36.032395
3821.000000	36.059154
3820.000000	36.091706
3819.000000	36.119404
3818.000000	36.138256
3817.000000	36.156347
3816.000000	36.185170
3815.000000	36.226746
3814.000000	36.271349
3813.000000	36.311459
3812.000000	36.350685
3811.000000	36.395150
3810.000000	36.443522
3809.000000	36.487795
3808.000000	36.521962
3807.000000	36.548332
3806.000000	36.572326
3805.000000	36.593775
3804.000000	36.609991
3803.000000	36.623834
3802.000000	36.642479
3801.000000	36.669996
3800.000000	36.701842
3799.000000	36.731902
3798.000000	36.762787
3797.000000	36.800322
3796.000000	36.844299
3795.000000	36.888429
3794.000000	36.927735
3793.000000	36.963452
3792.000000	36.999958
3791.000000	37.038940
3790.000000	37.078615
3789.000000	37.117266
3788.000000	37.154946
3787.000000	37.191688
3786.000000	37.226310
3785.000000	37.257869
3784.000000	37.287127
3783.000000	37.315796
3782.000000	37.345657
3781.000000	37.379042
3780.000000	37.417408
3779.000000	37.459010
3778.000000	37.499342
3777.000000	37.535330
3776.000000	37.568222
3775.000000	37.601851
3774.000000	37.637986
3773.000000	37.674327
3772.000000	37.707947
3771.000000	37.739766
3770.000000	37.772443
3769.000000	37.804997
3768.000000	37.834478
3767.000000	37.862506
3766.000000	37.894676
3765.000000	37.933320
3764.000000	37.973888
3763.000000	38.009862
3762.000000	38.040418
3761.000000	38.071585
3760.000000	38.107984
3759.000000	38.146374
3758.000000	38.180725
3757.000000	38.210756
3756.000000	38.239433
3755.000000	38.266889
3754.000000	38.292036
3753.000000	38.316094
3752.000000	38.340493
3751.000000	38.362630
3750.000000	38.380772
3749.000000	38.400621
3748.000000	38.427097
3747.000000	38.457070
3746.000000	38.487878
3745.000000	38.525163
3744.000000	38.574251
3743.000000	38.627038
3742.000000	38.671743
3741.000000	38.709807
3740.000000	38.748736
3739.000000	38.788444
3738.000000	38.823370
3737.000000	38.855485
3736.000000	38.895728
3735.000000	38.946915
3734.000000	38.997641
3733.000000	39.039664
3732.000000	39.078826
3731.000000	39.123113
3730.000000	39.171149
3729.000000	39.216884
3728.000000	39.259996
3727.000000	39.306140
3726.000000	39.357173
3725.000000	39.406984
3724.000000	39.450835
3723.000000	39.492513
3722.000000	39.537366
3721.000000	39.584856
3720.000000	39.630764
3719.000000	39.672712
3718.000000	39.711945
3717.000000	39.751264
3716.000000	39.790763
3715.000000	39.826871
3714.000000	39.856788
3713.000000	39.882217
3712.000000	39.908597
3711.000000	39.940568
3710.000000	39.978271
3709.000000	40.019342
3708.000000	40.062158
3707.000000	40.107494
3706.000000	40.155327
3705.000000	40.203454
3704.000000	40.250179
3703.000000	40.296595
3702.000000	40.344376
3701.000000	40.391842
3700.000000	40.435579
3699.000000	40.474101
3698.000000	40.509348
3697.000000	40.544395
3696.000000	40.580366
3695.000000	40.614967
3694.000000	40.646744
3693.000000	40.678372
3692.000000	40.713491
3691.000000	40.751726
3690.000000	40.788480
3689.000000	40.820349
3688.000000	40.848513
3687.000000	40.877357
3686.000000	40.909422
3685.000000	40.945943
3684.000000	40.988267
3683.000000	41.035589
3682.000000	41.083218
3681.000000	41.125335
3680.000000	41.160087
3679.000000	41.186426
3678.000000	41.200554
3677.000000	41.203134
3676.000000	41.208878
3675.000000	41.232088
3674.000000	41.265021
3673.000000	41.290530
3672.000000	41.307539
3671.000000	41.332518
3670.000000	41.379222
3669.000000	41.440043
3668.000000	41.496319
3667.000000	41.542080
3666.000000	41.583871
3665.000000	41.627874
3664.000000	41.675344
3663.000000	41.724718
3662.000000	41.773791
3661.000000	41.819259
3660.000000	41.856116
3659.000000	41.879494
3658.000000	41.889236
3657.000000	41.892306
3656.000000	41.898185
3655.000000	41.909438
3654.000000	41.920335
3653.000000	41.925635
3652.000000	41.927242
3651.000000	41.931330
3650.000000	41.939927
3649.000000	41.949157
3648.000000	41.959574
3647.000000	41.978541
3646.000000	42.008794
3645.000000	42.045563
3644.000000	42.085190
3643.000000	42.128268
3642.000000	42.174401
3641.000000	42.218299
3640.000000	42.253642
3639.000000	42.279314
3638.000000	42.297959
3637.000000	42.310269
3636.000000	42.315597
3635.000000	42.317260
3634.000000	42.321193
3633.000000	42.326800
3632.000000	42.325569
3631.000000	42.312982
3630.000000	42.299971
3629.000000	42.304106
3628.000000	42.325801
3627.000000	42.349769
3626.000000	42.368505
3625.000000	42.386427
3624.000000	42.408381
3623.000000	42.433280
3622.000000	42.455126
3621.000000	42.469521
3620.000000	42.477908
3619.000000	42.483568
3618.000000	42.485951
3617.000000	42.482853
3616.000000	42.475538
3615.000000	42.470245
3614.000000	42.474284
3613.000000	42.488281
3612.000000	42.504711
3611.000000	42.516450
3610.000000	42.525223
3609.000000	42.539851
3608.000000	42.565384
3607.000000	42.596913
3606.000000	42.625440
3605.000000	42.646662
3604.000000	42.662690
3603.000000	42.678523
3602.000000	42.697491
3601.000000	42.718603
3600.000000	42.737206
3599.000000	42.747001
3598.000000	42.745510
3597.000000	42.737463
3596.000000	42.732178
3595.000000	42.736843
3594.000000	42.751173
3593.000000	42.767235
3592.000000	42.776132
3591.000000	42.774804
3590.000000	42.768650
3589.000000	42.770211
3588.000000	42.790018
3587.000000	42.825208
3586.000000	42.861547
3585.000000	42.888972
3584.000000	42.908895
3583.000000	42.928099
3582.000000	42.950642
3581.000000	42.975420
3580.000000	42.999507
3579.000000	43.020878
3578.000000	43.038861
3577.000000	43.053298
3576.000000	43.065161
3575.000000	43.076569
3574.000000	43.089241
3573.000000	43.102296
3572.000000	43.111877
3571.000000	43.113533
3570.000000	43.105666
3569.000000	43.094496
3568.000000	43.093389
3567.000000	43.111484
3566.000000	43.143205
3565.000000	43.176128
3564.000000	43.204671
3563.000000	43.232118
3562.000000	43.263087
3561.000000	43.297560
3560.000000	43.331411
3559.000000	43.360258
3558.000000	43.381575
3557.000000	43.394874
3556.000000	43.402145
3555.000000	43.407866
3554.000000	43.417131
3553.000000	43.432709
3552.000000	43.452762
3551.000000	43.471777
3550.000000	43.484677
3549.000000	43.491812
3548.000000	43.500034
3547.000000	43.517170
3546.000000	43.544217
3545.000000	43.574719
3544.000000	43.601969
3543.000000	43.624301
3542.000000	43.643512
3541.000000	43.661473
3540.000000	43.679708
3539.000000	43.699746
3538.000000	43.721769
3537.000000	43.743251
3536.000000	43.760143
3535.000000	43.770096
3534.000000	43.774147
3533.000000	43.775832
3532.000000	43.779004
3531.000000	43.785676
3530.000000	43.795325
3529.000000	43.806384
3528.000000	43.818243
3527.000000	43.831135
3526.000000	43.844754
3525.000000	43.858311
3524.000000	43.871376
3523.000000	43.883176
3522.000000	43.891952
3521.000000	43.896610
3520.000000	43.898545
3519.000000	43.900251
3518.000000	43.902391
3517.000000	43.903643
3516.000000	43.902902
3515.000000	43.899924
3514.000000	43.894037
3513.000000	43.884620
3512.000000	43.873902
3511.000000	43.866911
3510.000000	43.866755
3509.000000	43.871332
3508.000000	43.875841
3507.000000	43.877426
3506.000000	43.876718
3505.000000	43.876523
3504.000000	43.879563
3503.000000	43.886020
3502.000000	43.893000
3501.000000	43.897384
3500.000000	43.898813
3499.000000	43.898319
3498.000000	43.895168
3497.000000	43.887256
3496.000000	43.874184
3495.000000	43.857596
3494.000000	43.838317
3493.000000	43.815524
3492.000000	43.789581
3491.000000	43.763326
3490.000000	43.739151
3489.000000	43.716493
3488.000000	43.692994
3487.000000	43.666423
3486.000000	43.635056
3485.000000	43.598428
3484.000000	43.558966
3483.000000	43.521040
3482.000000	43.486638
3481.000000	43.452842
3480.000000	43.414409
3479.000000	43.367940
3478.000000	43.313187
3477.000000	43.252356
3476.000000	43.189506
3475.000000	43.129052
3474.000000	43.073549
3473.000000	43.022930
3472.000000	42.975335
3471.000000	42.927415
3470.000000	42.874106
3469.000000	42.810443
3468.000000	42.734762
3467.000000	42.649188
3466.000000	42.557321
3465.000000	42.463072
3464.000000	42.371233
3463.000000	42.285802
3462.000000	42.206090
3461.000000	42.126298
3460.000000	42.040366
3459.000000	41.946528
3458.000000	41.847039
3457.000000	41.745050
3456.000000	41.642380
3455.000000	41.538734
3454.000000	41.432313
3453.000000	41.321984
3452.000000	41.208667
3451.000000	41.093437
3450.000000	40.975276
3449.000000	40.852950
3448.000000	40.728500
3447.000000	40.605715
3446.000000	40.484869
3445.000000	40.361985
3444.000000	40.233799
3443.000000	40.100865
3442.000000	39.965211
3441.000000	39.827676
3440.000000	39.688406
3439.000000	39.547645
3438.000000	39.404605
3437.000000	39.256890
3436.000000	39.102397
3435.000000	38.940737
3434.000000	38.772521
3433.000000	38.598930
3432.000000	38.421548
3431.000000	38.240803
3430.000000	38.054256
3429.000000	37.858448
3428.000000	37.653403
3427.000000	37.443418
3426.000000	37.233273
3425.000000	37.024850
3424.000000	36.817000
3423.000000	36.606925
3422.000000	36.391078
3421.000000	36.166810
3420.000000	35.934054
3419.000000	35.694581
3418.000000	35.450057
3417.000000	35.201657
3416.000000	34.950846
3415.000000	34.698321
3414.000000	34.441995
3413.000000	34.178156
3412.000000	33.904577
3411.000000	33.621548
3410.000000	33.330327
3409.000000	33.032128
3408.000000	32.728736
3407.000000	32.422005
3406.000000	32.112767
3405.000000	31.801300
3404.000000	31.487904
3403.000000	31.171447
3402.000000	30.847441
3401.000000	30.509846
3400.000000	30.155769
3399.000000	29.787703
3398.000000	29.411743
3397.000000	29.034252
3396.000000	28.659191
3395.000000	28.286823
3394.000000	27.913894
3393.000000	27.535684
3392.000000	27.148092
3391.000000	26.748315
3390.000000	26.335910
3389.000000	25.913939
3388.000000	25.487938
3387.000000	25.062240
3386.000000	24.637625
3385.000000	24.213099
3384.000000	23.787841
3383.000000	23.360652
3382.000000	22.929339
3381.000000	22.492370
3380.000000	22.050434
3379.000000	21.605282
3378.000000	21.158280
3377.000000	20.710924
3376.000000	20.264986
3375.000000	19.820926
3374.000000	19.377309
3373.000000	18.932801
3372.000000	18.487540
3371.000000	18.041721
3370.000000	17.594708
3369.000000	17.146584
3368.000000	16.699097
3367.000000	16.254138
3366.000000	15.812724
3365.000000	15.375979
3364.000000	14.945270
3363.000000	14.520423
3362.000000	14.099482
3361.000000	13.681209
3360.000000	13.266293
3359.000000	12.855748
3358.000000	12.450077
3357.000000	12.050291
3356.000000	11.657984
3355.000000	11.273403
3354.000000	10.895363
3353.000000	10.523431
3352.000000	10.158171
3351.000000	9.799465
3350.000000	9.446562
3349.000000	9.100108
3348.000000	8.762114
3347.000000	8.433229
3346.000000	8.112615
3345.000000	7.800204
3344.000000	7.496696
3343.000000	7.201481
3342.000000	6.912733
3341.000000	6.630208
3340.000000	6.355424
3339.000000	6.088969
3338.000000	5.830375
3337.000000	5.580147
3336.000000	5.339556
3335.000000	5.108128
3334.000000	4.883932
3333.000000	4.666844
3332.000000	4.458345
3331.000000	4.258413
3330.000000	4.065171
3329.000000	3.877656
3328.000000	3.696851
3327.000000	3.523339
3326.000000	3.356796
3325.000000	3.197647
3324.000000	3.046399
3323.000000	2.901864
3322.000000	2.762318
3321.000000	2.628434
3320.000000	2.502468
3319.000000	2.384185
3318.000000	2.271011
3317.000000	2.161697
3316.000000	2.057284
3315.000000	1.958500
3314.000000	1.864583
3313.000000	1.775048
3312.000000	1.689920
3311.000000	1.608335
3310.000000	1.529656
3309.000000	1.455406
3308.000000	1.387915
3307.000000	1.327196
3306.000000	1.271620
3305.000000	1.221271
3304.000000	1.177173
3303.000000	1.137976
3302.000000	1.100404
3301.000000	1.062980
3300.000000	1.026831
3299.000000	0.992816
3298.000000	0.960734
3297.000000	0.931111
3296.000000	0.904843
3295.000000	0.881342
3294.000000	0.859517
3293.000000	0.840330
3292.000000	0.825631
3291.000000	0.814565
3290.000000	0.804345
3289.000000	0.794108
3288.000000	0.785241
3287.000000	0.778061
3286.000000	0.771061
3285.000000	0.763744
3284.000000	0.757289
3283.000000	0.752279
3282.000000	0.748159
3281.000000	0.744865
3280.000000	0.742690
3279.000000	0.740633
3278.000000	0.737383
3277.000000	0.733702
3276.000000	0.731405
3275.000000	0.730307
3274.000000	0.728755
3273.000000	0.727022
3272.000000	0.727414
3271.000000	0.730931
3270.000000	0.736197
3269.000000	0.741605
3268.000000	0.746305
3267.000000	0.749342
3266.000000	0.750256
3265.000000	0.750473
3264.000000	0.751980
3263.000000	0.754771
3262.000000	0.757588
3261.000000	0.760464
3260.000000	0.764277
3259.000000	0.768529
3258.000000	0.772069
3257.000000	0.775563
3256.000000	0.780594
3255.000000	0.786762
3254.000000	0.792113
3253.000000	0.796093
3252.000000	0.799584
3251.000000	0.802603
3250.000000	0.804612
3249.000000	0.806710
3248.000000	0.810794
3247.000000	0.816625
3246.000000	0.822227
3245.000000	0.827001
3244.000000	0.832061
3243.000000	0.837715
3242.000000	0.843191
3241.000000	0.848610
3240.000000	0.854775
3239.000000	0.861059
3238.000000	0.865870
3237.000000	0.869179
3236.000000	0.872425
3235.000000	0.876082
3234.000000	0.879536
3233.000000	0.883157
3232.000000	0.888067
3231.000000	0.893852
3230.000000	0.898787
3229.000000	0.902452
3228.000000	0.906154
3227.000000	0.910769
3226.000000	0.915997
3225.000000	0.921651
3224.000000	0.927736
3223.000000	0.933349
3222.000000	0.937296
3221.000000	0.939721
3220.000000	0.941606
3219.000000	0.943049
3218.000000	0.943675
3217.000000	0.944221
3216.000000	0.945902
3215.000000	0.948557
3214.000000	0.951038
3213.000000	0.952970
3212.000000	0.954570
3211.000000	0.955447
3210.000000	0.955263
3209.000000	0.954857
3208.000000	0.955007
3207.000000	0.954850
3206.000000	0.953248
3205.000000	0.950895
3204.000000	0.949220
3203.000000	0.948051
3202.000000	0.946243
3201.000000	0.943792
3200.000000	0.941426
3199.000000	0.938880
3198.000000	0.935500
3197.000000	0.931773
3196.000000	0.928389
3195.000000	0.924676
3194.000000	0.919898
3193.000000	0.915152
3192.000000	0.911932
3191.000000	0.909592
3190.000000	0.906305
3189.000000	0.901751
3188.000000	0.896870
3187.000000	0.891748
3186.000000	0.885840
3185.000000	0.879657
3184.000000	0.874198
3183.000000	0.869263
3182.000000	0.864094
3181.000000	0.858994
3180.000000	0.854550
3179.000000	0.850165
3178.000000	0.845214
3177.000000	0.840782
3176.000000	0.838235
3175.000000	0.836782
3174.000000	0.834436
3173.000000	0.830721
3172.000000	0.826672
3171.000000	0.822907
3170.000000	0.819489
3169.000000	0.816960
3168.000000	0.815696
3167.000000	0.814911
3166.000000	0.813873
3165.000000	0.813288
3164.000000	0.813890
3163.000000	0.814654
3162.000000	0.814134
3161.000000	0.812672
3160.000000	0.811641
3159.000000	0.811406
3158.000000	0.811655
3157.000000	0.812734
3156.000000	0.814979
3155.000000	0.817672
3154.000000	0.820236
3153.000000	0.823489
3152.000000	0.828187
3151.000000	0.833503
3150.000000	0.838477
3149.000000	0.843673
3148.000000	0.849776
3147.000000	0.855933
3146.000000	0.861335
3145.000000	0.867067
3144.000000	0.874436
3143.000000	0.882668
3142.000000	0.890185
3141.000000	0.897076
3140.000000	0.904491
3139.000000	0.912717
3138.000000	0.921702
3137.000000	0.932181
3136.000000	0.944453
3135.000000	0.957193
3134.000000	0.969227
3133.000000	0.981296
3132.000000	0.994275
3131.000000	1.007140
3130.000000	1.018717
3129.000000	1.030089
3128.000000	1.043160
3127.000000	1.057873
3126.000000	1.072801
3125.000000	1.087409
3124.000000	1.101865
3123.000000	1.115887
3122.000000	1.129732
3121.000000	1.145195
3120.000000	1.163627
3119.000000	1.183930
3118.000000	1.204376
3117.000000	1.225179
3116.000000	1.247319
3115.000000	1.270027
3114.000000	1.291627
3113.000000	1.312100
3112.000000	1.332898
3111.000000	1.355004
3110.000000	1.378751
3109.000000	1.404513
3108.000000	1.431938
3107.000000	1.459497
3106.000000	1.486346
3105.000000	1.513512
3104.000000	1.541786
3103.000000	1.569929
3102.000000	1.596697
3101.000000	1.623208
3100.000000	1.651423
3099.000000	1.681520
3098.000000	1.712646
3097.000000	1.744910
3096.000000	1.778572
3095.000000	1.812497
3094.000000	1.845372
3093.000000	1.877532
3092.000000	1.909949
3091.000000	1.942651
3090.000000	1.975824
3089.000000	2.010949
3088.000000	2.048873
3087.000000	2.088058
3086.000000	2.126687
3085.000000	2.165216
3084.000000	2.204806
3083.000000	2.244620
3082.000000	2.283113
3081.000000	2.320972
3080.000000	2.360530
3079.000000	2.402816
3078.000000	2.447089
3077.000000	2.492492
3076.000000	2.538312
3075.000000	2.583465
3074.000000	2.627584
3073.000000	2.671894
3072.000000	2.717426
3071.000000	2.763195
3070.000000	2.807838
3069.000000	2.852006
3068.000000	2.897377
3067.000000	2.944205
3066.000000	2.991614
3065.000000	3.039561
3064.000000	3.088740
3063.000000	3.139179
3062.000000	3.190375
3061.000000	3.242104
3060.000000	3.293866
3059.000000	3.344582
3058.000000	3.394098
3057.000000	3.443895
3056.000000	3.494936
3055.000000	3.546064
3054.000000	3.596030
3053.000000	3.645768
3052.000000	3.697026
3051.000000	3.749925
3050.000000	3.803540
3049.000000	3.857676
3048.000000	3.912320
3047.000000	3.966440
3046.000000	4.019181
3045.000000	4.071365
3044.000000	4.124265
3043.000000	4.177903
3042.000000	4.232059
3041.000000	4.287685
3040.000000	4.345414
3039.000000	4.403785
3038.000000	4.460817
3037.000000	4.516526
3036.000000	4.572234
3035.000000	4.628327
3034.000000	4.684505
3033.000000	4.741304
3032.000000	4.799448
3031.000000	4.858342
3030.000000	4.916929
3029.000000	4.975360
3028.000000	5.034261
3027.000000	5.093181
3026.000000	5.151469
3025.000000	5.209862
3024.000000	5.269452
3023.000000	5.329694
3022.000000	5.389148
3021.000000	5.447625
3020.000000	5.505952
3019.000000	5.564181
3018.000000	5.621746
3017.000000	5.679021
3016.000000	5.737140
3015.000000	5.796503
3014.000000	5.856808
3013.000000	5.918236
3012.000000	5.981234
3011.000000	6.045359
3010.000000	6.109449
3009.000000	6.172765
3008.000000	6.235228
3007.000000	6.297091
3006.000000	6.359180
3005.000000	6.422637
3004.000000	6.487437
3003.000000	6.551816
3002.000000	6.614170
3001.000000	6.674886
3000.000000	6.735477
2999.000000	6.796663
2998.000000	6.858179
2997.000000	6.919671
2996.000000	6.980951
2995.000000	7.042228
2994.000000	7.104849
2993.000000	7.170645
2992.000000	7.239484
2991.000000	7.308622
2990.000000	7.375632
2989.000000	7.440856
2988.000000	7.505768
2987.000000	7.570216
2986.000000	7.632960
2985.000000	7.694089
2984.000000	7.755176
2983.000000	7.817489
2982.000000	7.881379
2981.000000	7.946901
2980.000000	8.013667
2979.000000	8.080428
2978.000000	8.146097
2977.000000	8.210976
2976.000000	8.276101
2975.000000	8.341863
2974.000000	8.408169
2973.000000	8.475234
2972.000000	8.543102
2971.000000	8.610927
2970.000000	8.677860
2969.000000	8.744245
2968.000000	8.810926
2967.000000	8.877856
2966.000000	8.944370
2965.000000	9.010415
2964.000000	9.076574
2963.000000	9.143228
2962.000000	9.210524
2961.000000	9.278626
2960.000000	9.347225
2959.000000	9.415341
2958.000000	9.482341
2957.000000	9.548638
2956.000000	9.614715
2955.000000	9.680256
2954.000000	9.744907
2953.000000	9.809121
2952.000000	9.873503
2951.000000	9.938016
2950.000000	10.002495
2949.000000	10.067168
2948.000000	10.132055
2947.000000	10.196760
2946.000000	10.261499
2945.000000	10.327397
2944.000000	10.394976
2943.000000	10.463230
2942.000000	10.530957
2941.000000	10.598097
2940.000000	10.664926
2939.000000	10.730919
2938.000000	10.795458
2937.000000	10.858927
2936.000000	10.922171
2935.000000	10.985478
2934.000000	11.048914
2933.000000	11.112843
2932.000000	11.177266
2931.000000	11.241425
2930.000000	11.304880
2929.000000	11.368263
2928.000000	11.432111
2927.000000	11.495826
2926.000000	11.558667
2925.000000	11.620928
2924.000000	11.683271
2923.000000	11.745699
2922.000000	11.808113
2921.000000	11.871017
2920.000000	11.934711
2919.000000	11.998479
2918.000000	12.061388
2917.000000	12.123258
2916.000000	12.184173
2915.000000	12.243861
2914.000000	12.302400
2913.000000	12.360934
2912.000000	12.420875
2911.000000	12.482703
2910.000000	12.545881
2909.000000	12.609344
2908.000000	12.671740
2907.000000	12.732007
2906.000000	12.790278
2905.000000	12.847678
2904.000000	12.904939
2903.000000	12.962012
2902.000000	13.019246
2901.000000	13.077993
2900.000000	13.139319
2899.000000	13.202658
2898.000000	13.266290
2897.000000	13.328212
2896.000000	13.386707
2895.000000	13.441301
2894.000000	13.493843
2893.000000	13.547551
2892.000000	13.604232
2891.000000	13.663171
2890.000000	13.723046
2889.000000	13.783671
2888.000000	13.845082
2887.000000	13.906120
2886.000000	13.965146
2885.000000	14.021631
2884.000000	14.076253
2883.000000	14.130089
2882.000000	14.184412
2881.000000	14.240560
2880.000000	14.299043
2879.000000	14.359119
2878.000000	14.419815
2877.000000	14.480790
2876.000000	14.541635
2875.000000	14.601044
2874.000000	14.657643
2873.000000	14.711465
2872.000000	14.764076
2871.000000	14.817495
2870.000000	14.873161
2869.000000	14.931236
2868.000000	14.990288
2867.000000	15.048093
2866.000000	15.103211
2865.000000	15.155704
2864.000000	15.206656
2863.000000	15.257789
2862.000000	15.311322
2861.000000	15.368701
2860.000000	15.428853
2859.000000	15.488685
2858.000000	15.545853
2857.000000	15.600257
2856.000000	15.652822
2855.000000	15.704234
2854.000000	15.755506
2853.000000	15.808405
2852.000000	15.864244
2851.000000	15.922888
2850.000000	15.983344
2849.000000	16.044286
2848.000000	16.103655
2847.000000	16.159224
2846.000000	16.210529
2845.000000	16.259411
2844.000000	16.308211
2843.000000	16.358481
2842.000000	16.411722
2841.000000	16.469424
2840.000000	16.530969
2839.000000	16.592736
2838.000000	16.650893
2837.000000	16.704568
2836.000000	16.755346
2835.000000	16.804700
2834.000000	16.853281
2833.000000	16.901990
2832.000000	16.952232
2831.000000	17.005228
2830.000000	17.061889
2829.000000	17.122692
2828.000000	17.186514
2827.000000	17.250155
2826.000000	17.310395
2825.000000	17.366561
2824.000000	17.420459
2823.000000	17.474254
2822.000000	17.529336
2821.000000	17.586567
2820.000000	17.646104
2819.000000	17.706832
2818.000000	17.766801
2817.000000	17.824300
2816.000000	17.878195
2815.000000	17.927962
2814.000000	17.974519
2813.000000	18.020562
2812.000000	18.068787
2811.000000	18.119620
2810.000000	18.171395
2809.000000	18.222483
2808.000000	18.272243
2807.000000	18.320122
2806.000000	18.365134
2805.000000	18.406635
2804.000000	18.444986
2803.000000	18.481359
2802.000000	18.517373
2801.000000	18.554720
2800.000000	18.594236
2799.000000	18.635219
2798.000000	18.676198
2797.000000	18.716258
2796.000000	18.755125
2795.000000	18.792449
2794.000000	18.828067
2793.000000	18.863032
2792.000000	18.899440
2791.000000	18.938842
2790.000000	18.981140
2789.000000	19.024935
2788.000000	19.068384
2787.000000	19.109936
2786.000000	19.149032
2785.000000	19.186302
2784.000000	19.222825
2783.000000	19.259348
2782.000000	19.296403
2781.000000	19.334515
2780.000000	19.373396
2779.000000	19.411303
2778.000000	19.445988
2777.000000	19.476026
2776.000000	19.500759
2775.000000	19.519465
2774.000000	19.531780
2773.000000	19.538821
2772.000000	19.542660
2771.000000	19.544676
2770.000000	19.544975
2769.000000	19.542978
2768.000000	19.537593
2767.000000	19.527000
2766.000000	19.509756
2765.000000	19.486403
2764.000000	19.459031
2763.000000	19.429412
2762.000000	19.398486
2761.000000	19.367592
2760.000000	19.338670
2759.000000	19.312670
2758.000000	19.288796
2757.000000	19.265613
2756.000000	19.242030
2755.000000	19.217078
2754.000000	19.189912
2753.000000	19.160599
2752.000000	19.129972
2751.000000	19.098202
2750.000000	19.064112
2749.000000	19.026071
2748.000000	18.982873
2747.000000	18.933325
2746.000000	18.876055
2745.000000	18.810582
2744.000000	18.738107
2743.000000	18.661126
2742.000000	18.582711
2741.000000	18.506115
2740.000000	18.434413
2739.000000	18.370131
2738.000000	18.315495
2737.000000	18.273354
2736.000000	18.246987
2735.000000	18.238694
2734.000000	18.249416
2733.000000	18.279105
2732.000000	18.327195
2731.000000	18.392648
2730.000000	18.473673
2729.000000	18.568265
2728.000000	18.674151
2727.000000	18.788437
2726.000000	18.908150
2725.000000	19.030767
2724.000000	19.154356
2723.000000	19.277133
2722.000000	19.397321
2721.000000	19.513690
2720.000000	19.625577
2719.000000	19.732175
2718.000000	19.832296
2717.000000	19.924842
2716.000000	20.008933
2715.000000	20.083849
2714.000000	20.149124
2713.000000	20.205010
2712.000000	20.252383
2711.000000	20.291577
2710.000000	20.322349
2709.000000	20.344864
2708.000000	20.360198
2707.000000	20.369866
2706.000000	20.374997
2705.000000	20.376592
2704.000000	20.375599
2703.000000	20.372282
2702.000000	20.366290
2701.000000	20.357479
2700.000000	20.346383
2699.000000	20.333527
2698.000000	20.318964
2697.000000	20.303081
2696.000000	20.287030
2695.000000	20.271763
2694.000000	20.257087
2693.000000	20.242203
2692.000000	20.226802
2691.000000	20.210972
2690.000000	20.194417
2689.000000	20.176510
2688.000000	20.157086
2687.000000	20.136810
2686.000000	20.116811
2685.000000	20.098163
2684.000000	20.081434
2683.000000	20.066298
2682.000000	20.051654
2681.000000	20.036495
2680.000000	20.020693
2679.000000	20.004952
2678.000000	19.990314
2677.000000	19.977858
2676.000000	19.968790
2675.000000	19.964325
2674.000000	19.965165
2673.000000	19.971075
2672.000000	19.980853
2671.000000	19.993226
2670.000000	20.007996
2669.000000	20.025986
2668.000000	20.047787
2667.000000	20.072592
2666.000000	20.098706
2665.000000	20.124918
2664.000000	20.150676
2663.000000	20.175008
2662.000000	20.195963
2661.000000	20.211445
2660.000000	20.220557
2659.000000	20.224216
2658.000000	20.224743
2657.000000	20.224896
2656.000000	20.226849
2655.000000	20.231855
2654.000000	20.240839
2653.000000	20.254734
2652.000000	20.273538
2651.000000	20.295449
2650.000000	20.318146
2649.000000	20.341364
2648.000000	20.368141
2647.000000	20.403083
2646.000000	20.449634
2645.000000	20.509064
2644.000000	20.580684
2643.000000	20.662681
2642.000000	20.752557
2641.000000	20.847017
2640.000000	20.942092
2639.000000	21.033601
2638.000000	21.118600
2637.000000	21.196724
2636.000000	21.269721
2635.000000	21.339349
2634.000000	21.405895
2633.000000	21.468439
2632.000000	21.525800
2631.000000	21.576829
2630.000000	21.619945
2629.000000	21.653738
2628.000000	21.678117
2627.000000	21.694745
2626.000000	21.706794
2625.000000	21.717740
2624.000000	21.730055
2623.000000	21.744047
2622.000000	21.757795
2621.000000	21.768613
2620.000000	21.774171
2619.000000	21.772707
2618.000000	21.762994
2617.000000	21.744921
2616.000000	21.720245
2615.000000	21.691802
2614.000000	21.661921
2613.000000	21.631391
2612.000000	21.599334
2611.000000	21.564011
2610.000000	21.523904
2609.000000	21.478910
2608.000000	21.431026
2607.000000	21.384135
2606.000000	21.343239
2605.000000	21.313683
2604.000000	21.299926
2603.000000	21.304006
2602.000000	21.325213
2601.000000	21.360465
2600.000000	21.405705
2599.000000	21.457457
2598.000000	21.513633
2597.000000	21.574133
2596.000000	21.639858
2595.000000	21.711576
2594.000000	21.789611
2593.000000	21.873596
2592.000000	21.962100
2591.000000	22.051923
2590.000000	22.138728
2589.000000	22.219226
2588.000000	22.292949
2587.000000	22.362252
2586.000000	22.431030
2585.000000	22.503445
2584.000000	22.582812
2583.000000	22.670407
2582.000000	22.765008
2581.000000	22.863613
2580.000000	22.962556
2579.000000	23.058252
2578.000000	23.147996
2577.000000	23.231398
2576.000000	23.311128
2575.000000	23.391527
2574.000000	23.475877
2573.000000	23.564645
2572.000000	23.655449
2571.000000	23.744123
2570.000000	23.826142
2569.000000	23.897863
2568.000000	23.957598
2567.000000	24.005589
2566.000000	24.043615
2565.000000	24.074702
2564.000000	24.101581
2563.000000	24.124865
2562.000000	24.141756
2561.000000	24.146967
2560.000000	24.135065
2559.000000	24.101625
2558.000000	24.044895
2557.000000	23.967441
2556.000000	23.876770
2555.000000	23.784120
2554.000000	23.702038
2553.000000	23.642324
2552.000000	23.613850
2551.000000	23.620247
2550.000000	23.658925
2549.000000	23.723920
2548.000000	23.808718
2547.000000	23.907468
2546.000000	24.015391
2545.000000	24.128652
2544.000000	24.245267
2543.000000	24.364037
2542.000000	24.482632
2541.000000	24.597451
2540.000000	24.704651
2539.000000	24.801033
2538.000000	24.884571
2537.000000	24.955600
2536.000000	25.017350
2535.000000	25.074581
2534.000000	25.130914
2533.000000	25.188015
2532.000000	25.246549
2531.000000	25.305924
2530.000000	25.363465
2529.000000	25.415111
2528.000000	25.458266
2527.000000	25.493870
2526.000000	25.525444
2525.000000	25.557020
2524.000000	25.591600
2523.000000	25.630294
2522.000000	25.672063
2521.000000	25.714263
2520.000000	25.753886
2519.000000	25.788374
2518.000000	25.816138
2517.000000	25.837539
2516.000000	25.855374
2515.000000	25.873779
2514.000000	25.896128
2513.000000	25.923728
2512.000000	25.955715
2511.000000	25.989340
2510.000000	26.020928
2509.000000	26.047573
2508.000000	26.068217
2507.000000	26.083238
2506.000000	26.093967
2505.000000	26.103342
2504.000000	26.115742
2503.000000	26.134309
2502.000000	26.158478
2501.000000	26.184853
2500.000000	26.210029
2499.000000	26.231704
2498.000000	26.248059
2497.000000	26.258262
2496.000000	26.263835
2495.000000	26.268266
2494.000000	26.274920
2493.000000	26.285699
2492.000000	26.301021
2491.000000	26.319507
2490.000000	26.337884
2489.000000	26.352817
2488.000000	26.363258
2487.000000	26.370330
2486.000000	26.375286
2485.000000	26.378944
2484.000000	26.382886
2483.000000	26.389362
2482.000000	26.399306
2481.000000	26.411276
2480.000000	26.422645
2479.000000	26.431258
2478.000000	26.436139
2477.000000	26.437893
2476.000000	26.438806
2475.000000	26.441532
2474.000000	26.447277
2473.000000	26.455595
2472.000000	26.465542
2471.000000	26.476075
2470.000000	26.485510
2469.000000	26.491955
2468.000000	26.494773
2467.000000	26.495054
2466.000000	26.494641
2465.000000	26.495302
2464.000000	26.498573
2463.000000	26.505276
2462.000000	26.514892
2461.000000	26.525903
2460.000000	26.536709
2459.000000	26.545850
2458.000000	26.551973
2457.000000	26.554706
2456.000000	26.555450
2455.000000	26.556475
2454.000000	26.559308
2453.000000	26.564474
2452.000000	26.572148
2451.000000	26.581933
2450.000000	26.592394
2449.000000	26.601895
2448.000000	26.609859
2447.000000	26.616579
2446.000000	26.622347
2445.000000	26.627783
2444.000000	26.634340
2443.000000	26.643075
2442.000000	26.653132
2441.000000	26.662584
2440.000000	26.670526
2439.000000	26.677342
2438.000000	26.683481
2437.000000	26.689370
2436.000000	26.696208
2435.000000	26.705321
2434.000000	26.716640
2433.000000	26.728917
2432.000000	26.741249
2431.000000	26.753169
2430.000000	26.763658
2429.000000	26.771692
2428.000000	26.777916
2427.000000	26.784423
2426.000000	26.792714
2425.000000	26.802981
2424.000000	26.815157
2423.000000	26.829203
2422.000000	26.844186
2421.000000	26.858399
2420.000000	26.870783
2419.000000	26.881364
2418.000000	26.890442
2417.000000	26.898563
2416.000000	26.907240
2415.000000	26.918277
2414.000000	26.932004
2413.000000	26.947110
2412.000000	26.962328
2411.000000	26.977281
2410.000000	26.991769
2409.000000	27.005504
2408.000000	27.018782
2407.000000	27.032465
2406.000000	27.047071
2405.000000	27.062698
2404.000000	27.079654
2403.000000	27.098001
2402.000000	27.116535
2401.000000	27.133332
2400.000000	27.147640
2399.000000	27.160549
2398.000000	27.173944
2397.000000	27.189673
2396.000000	27.209254
2395.000000	27.233020
2394.000000	27.259396
2393.000000	27.285977
2392.000000	27.311238
2391.000000	27.334543
2390.000000	27.355248
2389.000000	27.373244
2388.000000	27.390375
2387.000000	27.409683
2386.000000	27.433114
2385.000000	27.460857
2384.000000	27.492392
2383.000000	27.527248
2382.000000	27.564469
2381.000000	27.603093
2380.000000	27.643392
2379.000000	27.686593
2378.000000	27.733640
2377.000000	27.785212
2376.000000	27.842557
2375.000000	27.906002
2374.000000	27.973157
2373.000000	28.039428
2372.000000	28.101254
2371.000000	28.157799
2370.000000	28.208631
2369.000000	28.253110
2368.000000	28.292944
2367.000000	28.332826
2366.000000	28.376013
2365.000000	28.422170
2364.000000	28.472825
2363.000000	28.527293
2362.000000	28.579504
2361.000000	28.628512
2360.000000	28.674991
2359.000000	28.721934
2358.000000	28.771566
2357.000000	28.819957
2356.000000	28.869467
2355.000000	28.919210
2354.000000	28.965409
2353.000000	29.005578
2352.000000	29.045581
2351.000000	29.098862
2350.000000	29.155277
2349.000000	29.197385
2348.000000	29.219411
2347.000000	29.237117
2346.000000	29.279002
2345.000000	29.349561
2344.000000	29.436296
2343.000000	29.513229
2342.000000	29.570190
2341.000000	29.615276
2340.000000	29.652330
2339.000000	29.686869
2338.000000	29.719662
2337.000000	29.754217
2336.000000	29.792995
2335.000000	29.837680
2334.000000	29.885959
2333.000000	29.934682
2332.000000	29.980547
2331.000000	30.028317
2330.000000	30.073922
2329.000000	30.117397
2328.000000	30.160044
2327.000000	30.201974
2326.000000	30.247858
2325.000000	30.291806
2324.000000	30.339345
2323.000000	30.389002
2322.000000	30.440251
2321.000000	30.488475
2320.000000	30.529669
2319.000000	30.566847
2318.000000	30.599949
2317.000000	30.632465
2316.000000	30.665054
2315.000000	30.701940
2314.000000	30.742789
2313.000000	30.785434
2312.000000	30.826974
2311.000000	30.866086
2310.000000	30.902999
2309.000000	30.936572
2308.000000	30.968981
2307.000000	31.002032
2306.000000	31.038854
2305.000000	31.078685
2304.000000	31.121300
2303.000000	31.164762
2302.000000	31.206727
2301.000000	31.244862
2300.000000	31.279363
2299.000000	31.312004
2298.000000	31.344039
2297.000000	31.375633
2296.000000	31.408641
2295.000000	31.444570
2294.000000	31.483597
2293.000000	31.521980
2292.000000	31.557384
2291.000000	31.588196
2290.000000	31.614883
2289.000000	31.638138
2288.000000	31.661235
2287.000000	31.687287
2286.000000	31.717191
2285.000000	31.749350
2284.000000	31.782777
2283.000000	31.817017
2282.000000	31.850017
2281.000000	31.878851
2280.000000	31.902831
2279.000000	31.924534
2278.000000	31.946684
2277.000000	31.971142
2276.000000	31.999152
2275.000000	32.031475
2274.000000	32.066233
2273.000000	32.099876
2272.000000	32.130141
2271.000000	32.156476
2270.000000	32.178458
2269.000000	32.195976
2268.000000	32.211573
2267.000000	32.229353
2266.000000	32.250980
2265.000000	32.274888
2264.000000	32.299087
2263.000000	32.322327
2262.000000	32.342847
2261.000000	32.358155
2260.000000	32.367905
2259.000000	32.373868
2258.000000	32.377635
2257.000000	32.379830
2256.000000	32.381160
2255.000000	32.381971
2254.000000	32.379876
2253.000000	32.371272
2252.000000	32.354515
2251.000000	32.330419
2250.000000	32.299310
2249.000000	32.260482
2248.000000	32.214944
2247.000000	32.165091
2246.000000	32.111814
2245.000000	32.053712
2244.000000	31.989118
2243.000000	31.916628
2242.000000	31.834094
2241.000000	31.740122
2240.000000	31.637007
2239.000000	31.530210
2238.000000	31.424847
2237.000000	31.324737
2236.000000	31.234137
2235.000000	31.157285
2234.000000	31.095698
2233.000000	31.047799
2232.000000	31.011506
2231.000000	30.985126
2230.000000	30.966352
2229.000000	30.952974
2228.000000	30.944717
2227.000000	30.942219
2226.000000	30.943807
2225.000000	30.945793
2224.000000	30.945783
2223.000000	30.943501
2222.000000	30.938571
2221.000000	30.930212
2220.000000	30.919519
2219.000000	30.909359
2218.000000	30.901516
2217.000000	30.895809
2216.000000	30.891928
2215.000000	30.889586
2214.000000	30.886889
2213.000000	30.881282
2212.000000	30.872729
2211.000000	30.863736
2210.000000	30.856066
2209.000000	30.849822
2208.000000	30.845706
2207.000000	30.845302
2206.000000	30.848353
2205.000000	30.852061
2204.000000	30.853709
2203.000000	30.852125
2202.000000	30.846696
2201.000000	30.837559
2200.000000	30.827145
2199.000000	30.819021
2198.000000	30.814567
2197.000000	30.812530
2196.000000	30.811594
2195.000000	30.810838
2194.000000	30.807630
2193.000000	30.798110
2192.000000	30.780683
2191.000000	30.757152
2190.000000	30.730252
2189.000000	30.702243
2188.000000	30.675751
2187.000000	30.653091
2186.000000	30.634114
2185.000000	30.616819
2184.000000	30.600376
2183.000000	30.585535
2182.000000	30.572349
2181.000000	30.560429
2180.000000	30.551628
2179.000000	30.549709
2178.000000	30.556561
2177.000000	30.570765
2176.000000	30.590043
2175.000000	30.612711
2174.000000	30.636783
2173.000000	30.660497
2172.000000	30.684418
2171.000000	30.710783
2170.000000	30.740527
2169.000000	30.773279
2168.000000	30.809919
2167.000000	30.851829
2166.000000	30.897055
2165.000000	30.940419
2164.000000	30.978512
2163.000000	31.012111
2162.000000	31.043292
2161.000000	31.073265
2160.000000	31.103859
2159.000000	31.138047
2158.000000	31.177433
2157.000000	31.221074
2156.000000	31.267179
2155.000000	31.313674
2154.000000	31.357011
2153.000000	31.393597
2152.000000	31.423471
2151.000000	31.450219
2150.000000	31.476698
2149.000000	31.503405
2148.000000	31.531204
2147.000000	31.562218
2146.000000	31.596904
2145.000000	31.632863
2144.000000	31.667502
2143.000000	31.699917
2142.000000	31.730060
2141.000000	31.758702
2140.000000	31.788747
2139.000000	31.823865
2138.000000	31.865018
2137.000000	31.910284
2136.000000	31.957793
2135.000000	32.006007
2134.000000	32.051473
2133.000000	32.090114
2132.000000	32.121777
2131.000000	32.150739
2130.000000	32.181035
2129.000000	32.214023
2128.000000	32.250207
2127.000000	32.289604
2126.000000	32.329479
2125.000000	32.365131
2124.000000	32.394136
2123.000000	32.417431
2122.000000	32.436365
2121.000000	32.452076
2120.000000	32.468056
2119.000000	32.489479
2118.000000	32.518796
2117.000000	32.554611
2116.000000	32.594974
2115.000000	32.638374
2114.000000	32.681166
2113.000000	32.718182
2112.000000	32.747446
2111.000000	32.771469
2110.000000	32.793395
2109.000000	32.815114
2108.000000	32.839104
2107.000000	32.867709
2106.000000	32.899153
2105.000000	32.927490
2104.000000	32.947854
2103.000000	32.959151
2102.000000	32.961460
2101.000000	32.955030
2100.000000	32.942613
2099.000000	32.929070
2098.000000	32.916848
2097.000000	32.904417
2096.000000	32.889736
2095.000000	32.871336
2094.000000	32.846072
2093.000000	32.810711
2092.000000	32.767581
2091.000000	32.725056
2090.000000	32.691014
2089.000000	32.668434
2088.000000	32.657605
2087.000000	32.658566
2086.000000	32.669525
2085.000000	32.686356
2084.000000	32.705844
2083.000000	32.727221
2082.000000	32.750029
2081.000000	32.773992
2080.000000	32.801827
2079.000000	32.838846
2078.000000	32.887626
2077.000000	32.945687
2076.000000	33.009492
2075.000000	33.076561
2074.000000	33.143703
2073.000000	33.206693
2072.000000	33.264011
2071.000000	33.318487
2070.000000	33.372864
2069.000000	33.427496
2068.000000	33.484326
2067.000000	33.549664
2066.000000	33.629553
2065.000000	33.723175
2064.000000	33.822638
2063.000000	33.918587
2062.000000	34.005512
2061.000000	34.083940
2060.000000	34.159404
2059.000000	34.237790
2058.000000	34.320877
2057.000000	34.407257
2056.000000	34.496142
2055.000000	34.586825
2054.000000	34.675524
2053.000000	34.756905
2052.000000	34.829364
2051.000000	34.895890
2050.000000	34.959203
2049.000000	35.019866
2048.000000	35.080050
2047.000000	35.143953
2046.000000	35.211854
2045.000000	35.278575
2044.000000	35.340478
2043.000000	35.400216
2042.000000	35.462561
2041.000000	35.529088
2040.000000	35.599002
2039.000000	35.671955
2038.000000	35.747942
2037.000000	35.827098
2036.000000	35.911076
2035.000000	36.001393
2034.000000	36.095463
2033.000000	36.187654
2032.000000	36.274848
2031.000000	36.357818
2030.000000	36.438102
2029.000000	36.516834
2028.000000	36.597306
2027.000000	36.683095
2026.000000	36.773242
2025.000000	36.863424
2024.000000	36.951391
2023.000000	37.037170
2022.000000	37.116393
2021.000000	37.181171
2020.000000	37.231235
2019.000000	37.279326
2018.000000	37.342040
2017.000000	37.426665
2016.000000	37.527558
2015.000000	37.632902
2014.000000	37.733304
2013.000000	37.826273
2012.000000	37.915434
2011.000000	38.004576
2010.000000	38.093294
2009.000000	38.180784
2008.000000	38.271696
2007.000000	38.371679
2006.000000	38.479202
2005.000000	38.587778
2004.000000	38.694144
2003.000000	38.800334
2002.000000	38.905970
2001.000000	39.007798
2000.000000	39.105436
1999.000000	39.201818
1998.000000	39.298359
1997.000000	39.390145
1996.000000	39.469656
1995.000000	39.535562
1994.000000	39.597978
1993.000000	39.674337
1992.000000	39.774158
1991.000000	39.885147
1990.000000	39.985081
1989.000000	40.067731
1988.000000	40.145732
1987.000000	40.229093
1986.000000	40.311944
1985.000000	40.385575
1984.000000	40.453577
1983.000000	40.525174
1982.000000	40.599691
1981.000000	40.670118
1980.000000	40.734731
1979.000000	40.795703
1978.000000	40.851775
1977.000000	40.900040
1976.000000	40.944269
1975.000000	40.991880
1974.000000	41.044653
1973.000000	41.098628
1972.000000	41.149775
1971.000000	41.192678
1970.000000	41.219659
1969.000000	41.232718
1968.000000	41.252931
1967.000000	41.301887
1966.000000	41.373092
1965.000000	41.440112
1964.000000	41.491461
1963.000000	41.538211
1962.000000	41.591131
1961.000000	41.647799
1960.000000	41.701437
1959.000000	41.748498
1958.000000	41.784969
1957.000000	41.808174
1956.000000	41.826216
1955.000000	41.852584
1954.000000	41.890841
1953.000000	41.933988
1952.000000	41.979641
1951.000000	42.030869
1950.000000	42.080272
1949.000000	42.113949
1948.000000	42.129311
1947.000000	42.132835
1946.000000	42.124083
1945.000000	42.101180
1944.000000	42.084529
1943.000000	42.112016
1942.000000	42.192349
1941.000000	42.285938
1940.000000	42.354448
1939.000000	42.397340
1938.000000	42.428154
1937.000000	42.448788
1936.000000	42.457170
1935.000000	42.460441
1934.000000	42.469490
1933.000000	42.487862
1932.000000	42.516970
1931.000000	42.559791
1930.000000	42.609558
1929.000000	42.654444
1928.000000	42.685165
1927.000000	42.693018
1926.000000	42.666420
1925.000000	42.608358
1924.000000	42.559653
1923.000000	42.569179
1922.000000	42.636096
1921.000000	42.718060
1920.000000	42.791124
1919.000000	42.863548
1918.000000	42.935502
1917.000000	42.973987
1916.000000	42.956279
1915.000000	42.909283
1914.000000	42.871352
1913.000000	42.849124
1912.000000	42.834769
1911.000000	42.836476
1910.000000	42.869603
1909.000000	42.932926
1908.000000	43.003524
1907.000000	43.058845
1906.000000	43.088408
1905.000000	43.092262
1904.000000	43.085775
1903.000000	43.088665
1902.000000	43.108753
1901.000000	43.142318
1900.000000	43.180503
1899.000000	43.212221
1898.000000	43.223038
1897.000000	43.206159
1896.000000	43.180870
1895.000000	43.173477
1894.000000	43.178458
1893.000000	43.167033
1892.000000	43.134319
1891.000000	43.114010
1890.000000	43.143340
1889.000000	43.212379
1888.000000	43.267299
1887.000000	43.274563
1886.000000	43.245780
1885.000000	43.206760
1884.000000	43.176069
1883.000000	43.161099
1882.000000	43.160314
1881.000000	43.172011
1880.000000	43.197362
1879.000000	43.234891
1878.000000	43.272811
1877.000000	43.292553
1876.000000	43.287312
1875.000000	43.264765
1874.000000	43.229702
1873.000000	43.182897
1872.000000	43.132270
1871.000000	43.088398
1870.000000	43.061681
1869.000000	43.072761
1868.000000	43.126362
1867.000000	43.188067
1866.000000	43.222619
1865.000000	43.220537
1864.000000	43.190501
1863.000000	43.151527
1862.000000	43.121249
1861.000000	43.107948
1860.000000	43.114578
1859.000000	43.140352
1858.000000	43.172363
1857.000000	43.188916
1856.000000	43.176791
1855.000000	43.141478
1854.000000	43.094402
1853.000000	43.044077
1852.000000	42.994941
1851.000000	42.949181
1850.000000	42.907963
1849.000000	42.873885
1848.000000	42.865342
1847.000000	42.905706
1846.000000	42.988252
1845.000000	43.070443
1844.000000	43.102844
1843.000000	43.046712
1842.000000	42.914901
1841.000000	42.779487
1840.000000	42.692986
1839.000000	42.654736
1838.000000	42.638518
1837.000000	42.621484
1836.000000	42.592409
1835.000000	42.541612
1834.000000	42.459942
1833.000000	42.348516
1832.000000	42.222881
1831.000000	42.124854
1830.000000	42.107619
1829.000000	42.145044
1828.000000	42.153433
1827.000000	42.113888
1826.000000	42.062711
1825.000000	42.020651
1824.000000	41.971931
1823.000000	41.897281
1822.000000	41.808909
1821.000000	41.729304
1820.000000	41.666201
1819.000000	41.618544
1818.000000	41.578435
1817.000000	41.530857
1816.000000	41.461821
1815.000000	41.358488
1814.000000	41.217175
1813.000000	41.055016
1812.000000	40.915718
1811.000000	40.844754
1810.000000	40.836472
1809.000000	40.845927
1808.000000	40.846904
1807.000000	40.836246
1806.000000	40.803323
1805.000000	40.729373
1804.000000	40.617631
1803.000000	40.496708
1802.000000	40.403562
1801.000000	40.361001
1800.000000	40.360350
1799.000000	40.366506
1798.000000	40.343663
1797.000000	40.292113
1796.000000	40.250302
1795.000000	40.245479
1794.000000	40.255612
1793.000000	40.244233
1792.000000	40.219185
1791.000000	40.190920
1790.000000	40.140364
1789.000000	40.072816
1788.000000	40.015570
1787.000000	39.976991
1786.000000	39.937187
1785.000000	39.862391
1784.000000	39.732098
1783.000000	39.553069
1782.000000	39.366368
1781.000000	39.224483
1780.000000	39.147129
1779.000000	39.102214
1778.000000	39.037662
1777.000000	38.943997
1776.000000	38.857591
1775.000000	38.807762
1774.000000	38.769904
1773.000000	38.706931
1772.000000	38.630258
1771.000000	38.543634
1770.000000	38.439958
1769.000000	38.346317
1768.000000	38.280818
1767.000000	38.214216
1766.000000	38.109277
1765.000000	37.975725
1764.000000	37.854078
1763.000000	37.766792
1762.000000	37.706689
1761.000000	37.626869
1760.000000	37.499188
1759.000000	37.369546
1758.000000	37.289003
1757.000000	37.256340
1756.000000	37.219663
1755.000000	37.139427
1754.000000	37.030233
1753.000000	36.905396
1752.000000	36.742539
1751.000000	36.535136
1750.000000	36.313133
1749.000000	36.122377
1748.000000	35.999258
1747.000000	35.922437
1746.000000	35.832136
1745.000000	35.699335
1744.000000	35.560240
1743.000000	35.468671
1742.000000	35.420804
1741.000000	35.362121
1740.000000	35.262057
1739.000000	35.134864
1738.000000	35.013444
1737.000000	34.944801
1736.000000	34.930503
1735.000000	34.891148
1734.000000	34.756949
1733.000000	34.450189
1732.000000	33.994023
1731.000000	33.578161
1730.000000	33.315401
1729.000000	33.160163
1728.000000	33.019063
1727.000000	32.845750
1726.000000	32.639310
1725.000000	32.400184
1724.000000	32.143126
1723.000000	31.897462
1722.000000	31.676673
1721.000000	31.476751
1720.000000	31.278826
1719.000000	31.054825
1718.000000	30.816558
1717.000000	30.573193
1716.000000	30.294838
1715.000000	29.996912
1714.000000	29.707292
1713.000000	29.409397
1712.000000	29.096802
1711.000000	28.793290
1710.000000	28.512239
1709.000000	28.237072
1708.000000	27.948560
1707.000000	27.650771
1706.000000	27.367491
1705.000000	27.121277
1704.000000	26.938820
1703.000000	26.860766
1702.000000	26.844292
1701.000000	26.722131
1700.000000	26.403156
1699.000000	25.958888
1698.000000	25.536272
1697.000000	25.246003
1696.000000	25.062171
1695.000000	24.828743
1694.000000	24.447514
1693.000000	24.003311
1692.000000	23.600854
1691.000000	23.254138
1690.000000	22.942013
1689.000000	22.671656
1688.000000	22.473015
1687.000000	22.350709
1686.000000	22.226073
1685.000000	22.001003
1684.000000	21.731462
1683.000000	21.438149
1682.000000	21.077776
1681.000000	20.724246
1680.000000	20.446961
1679.000000	20.252988
1678.000000	20.116984
1677.000000	19.989111
1676.000000	19.822922
1675.000000	19.599141
1674.000000	19.320319
1673.000000	19.012608
1672.000000	18.727465
1671.000000	18.493490
1670.000000	18.304173
1669.000000	18.125475
1668.000000	17.917684
1667.000000	17.691166
1666.000000	17.481070
1665.000000	17.287105
1664.000000	17.089800
1663.000000	16.892496
1662.000000	16.699436
1661.000000	16.490390
1660.000000	16.264230
1659.000000	16.045305
1658.000000	15.855191
1657.000000	15.709428
1656.000000	15.627172
1655.000000	15.583907
1654.000000	15.529782
1653.000000	15.452158
1652.000000	15.219927
1651.000000	14.821930
1650.000000	14.451874
1649.000000	14.179421
1648.000000	13.986732
1647.000000	13.878440
1646.000000	13.809981
1645.000000	13.678583
1644.000000	13.474009
1643.000000	13.266807
1642.000000	13.088148
1641.000000	12.922788
1640.000000	12.758404
1639.000000	12.611817
1638.000000	12.496443
1637.000000	12.399350
1636.000000	12.319989
1635.000000	12.239889
1634.000000	12.102715
1633.000000	11.913779
1632.000000	11.731929
1631.000000	11.585178
1630.000000	11.461790
1629.000000	11.341081
1628.000000	11.224799
1627.000000	11.125909
1626.000000	11.041479
1625.000000	10.955355
1624.000000	10.864649
1623.000000	10.785007
1622.000000	10.712981
1621.000000	10.633780
1620.000000	10.560922
1619.000000	10.517971
1618.000000	10.500059
1617.000000	10.482346
1616.000000	10.440643
1615.000000	10.367325
1614.000000	10.283636
1613.000000	10.212381
1612.000000	10.157312
1611.000000	10.115290
1610.000000	10.083264
1609.000000	10.056754
1608.000000	10.034781
1607.000000	10.021230
1606.000000	10.014948
1605.000000	10.007515
1604.000000	9.996747
1603.000000	9.992515
1602.000000	9.999657
1601.000000	10.008905
1600.000000	10.012552
1599.000000	10.013863
1598.000000	10.015899
1597.000000	10.015056
1596.000000	10.013362
1595.000000	10.022040
1594.000000	10.044029
1593.000000	10.067492
1592.000000	10.083861
1591.000000	10.098182
1590.000000	10.115620
1589.000000	10.131470
1588.000000	10.141432
1587.000000	10.150654
1586.000000	10.163647
1585.000000	10.176596
1584.000000	10.186142
1583.000000	10.196585
1582.000000	10.208148
1581.000000	10.211386
1580.000000	10.205825
1579.000000	10.208681
1578.000000	10.231886
1577.000000	10.267401
1576.000000	10.296723
1575.000000	10.288969
1574.000000	10.239296
1573.000000	10.186164
1572.000000	10.157200
1571.000000	10.149835
1570.000000	10.157658
1569.000000	10.168306
1568.000000	10.156843
1567.000000	10.127501
1566.000000	10.109467
1565.000000	10.115116
1564.000000	10.141664
1563.000000	10.200097
1562.000000	10.298174
1561.000000	10.412872
1560.000000	10.478618
1559.000000	10.584992
1558.000000	10.738856
1557.000000	10.772991
1556.000000	10.741093
1555.000000	10.760721
1554.000000	10.834044
1553.000000	10.909600
1552.000000	10.961796
1551.000000	11.027723
1550.000000	11.139094
1549.000000	11.278838
1548.000000	11.405617
1547.000000	11.509187
1546.000000	11.605368
1545.000000	11.711173
1544.000000	11.841160
1543.000000	12.000389
1542.000000	12.182958
1541.000000	12.398974
1540.000000	12.689059
1539.000000	12.968208
1538.000000	13.097786
1537.000000	13.123118
1536.000000	13.164735
1535.000000	13.279164
1534.000000	13.480425
1533.000000	13.739414
1532.000000	13.980605
1531.000000	14.171686
1530.000000	14.348062
1529.000000	14.540885
1528.000000	14.762505
1527.000000	15.020988
1526.000000	15.307455
1525.000000	15.588546
1524.000000	15.856518
1523.000000	16.155765
1522.000000	16.544643
1521.000000	16.986760
1520.000000	17.332976
1519.000000	17.546548
1518.000000	17.751521
1517.000000	18.052915
1516.000000	18.436741
1515.000000	18.814985
1514.000000	19.156629
1513.000000	19.479808
1512.000000	19.778079
1511.000000	20.045594
1510.000000	20.298495
1509.000000	20.579664
1508.000000	20.962825
1507.000000	21.632235
1506.000000	22.452364
1505.000000	22.943966
1504.000000	23.083284
1503.000000	23.177681
1502.000000	23.385852
1501.000000	23.708880
1500.000000	24.082772
1499.000000	24.477331
1498.000000	24.901602
1497.000000	25.346615
1496.000000	25.746658
1495.000000	26.034424
1494.000000	26.228016
1493.000000	26.394049
1492.000000	26.566216
1491.000000	26.759044
1490.000000	27.013078
1489.000000	27.330998
1488.000000	27.653239
1487.000000	27.942977
1486.000000	28.187276
1485.000000	28.372721
1484.000000	28.506201
1483.000000	28.625151
1482.000000	28.763526
1481.000000	28.909895
1480.000000	29.028617
1479.000000	29.103410
1478.000000	29.131816
1477.000000	29.112070
1476.000000	29.066850
1475.000000	29.029153
1474.000000	28.996152
1473.000000	28.952076
1472.000000	28.874447
1471.000000	28.705675
1470.000000	28.426617
1469.000000	28.085558
1468.000000	27.723544
1467.000000	27.335895
1466.000000	26.869725
1465.000000	26.283618
1464.000000	25.608557
1463.000000	24.921409
1462.000000	24.284525
1461.000000	23.725809
1460.000000	23.257515
1459.000000	22.862858
1458.000000	22.474541
1457.000000	22.005482
1456.000000	21.382734
1455.000000	20.643831
1454.000000	19.889510
1453.000000	19.131141
1452.000000	18.343867
1451.000000	17.529124
1450.000000	16.665209
1449.000000	15.701125
1448.000000	14.644104
1447.000000	13.570559
1446.000000	12.514956
1445.000000	11.451101
1444.000000	10.372899
1443.000000	9.302696
1442.000000	8.243318
1441.000000	7.204311
1440.000000	6.236225
1439.000000	5.358912
1438.000000	4.490989
1437.000000	3.563735
1436.000000	2.694893
1435.000000	2.050574
1434.000000	1.610679
1433.000000	1.267978
1432.000000	0.992251
1431.000000	0.802243
1430.000000	0.678276
1429.000000	0.581721
1428.000000	0.525703
1427.000000	0.536560
1426.000000	0.594180
1425.000000	0.674165
1424.000000	0.800443
1423.000000	0.996705
1422.000000	1.239419
1421.000000	1.517458
1420.000000	1.884386
1419.000000	2.375940
1418.000000	2.916138
1417.000000	3.426724
1416.000000	3.939602
1415.000000	4.507701
1414.000000	5.121398
1413.000000	5.756590
1412.000000	6.429880
1411.000000	7.159139
1410.000000	7.914954
1409.000000	8.661994
1408.000000	9.408606
1407.000000	10.179419
1406.000000	10.980598
1405.000000	11.811439
1404.000000	12.661476
1403.000000	13.492688
1402.000000	14.279164
1401.000000	15.052888
1400.000000	15.868564
1399.000000	16.722443
1398.000000	17.551343
1397.000000	18.341961
1396.000000	19.167912
1395.000000	20.080374
1394.000000	21.021550
1393.000000	21.895714
1392.000000	22.688152
1391.000000	23.449408
1390.000000	24.217218
1389.000000	25.003274
1388.000000	25.803532
1387.000000	26.580647
1386.000000	27.268347
1385.000000	27.839331
1384.000000	28.320840
1383.000000	28.728293
1382.000000	29.038838
1381.000000	29.222201
1380.000000	29.255572
1379.000000	29.108310
1378.000000	28.745591
1377.000000	28.144021
1376.000000	27.283054
1375.000000	26.156140
1374.000000	24.811765
1373.000000	23.344200
1372.000000	21.853024
1371.000000	20.437448
1370.000000	19.218444
1369.000000	18.346635
1368.000000	17.951421
1367.000000	18.068510
1366.000000	18.645716
1365.000000	19.612319
1364.000000	20.919318
1363.000000	22.512778
1362.000000	24.269834
1361.000000	26.007049
1360.000000	27.575307
1359.000000	28.902720
1358.000000	29.957244
1357.000000	30.713335
1356.000000	31.143674
1355.000000	31.228058
1354.000000	30.965121
1353.000000	30.364911
1352.000000	29.444949
1351.000000	28.228688
1350.000000	26.751272
1349.000000	25.062480
1348.000000	23.210397
1347.000000	21.239417
1346.000000	19.196793
1345.000000	17.133616
1344.000000	15.102867
1343.000000	13.150176
1342.000000	11.303587
1341.000000	9.585140
1340.000000	8.039474
1339.000000	6.732677
1338.000000	5.712849
1337.000000	4.977614
1336.000000	4.486155
1335.000000	4.182522
1334.000000	3.995954
1333.000000	3.847448
1332.000000	3.669440
1331.000000	3.419416
1330.000000	3.080980
1329.000000	2.660829
1328.000000	2.190435
1327.000000	1.718097
1326.000000	1.287843
1325.000000	0.926138
1324.000000	0.645393
1323.000000	0.447982
1322.000000	0.321666
1321.000000	0.243876
1320.000000	0.197556
1319.000000	0.174483
1318.000000	0.165445
1317.000000	0.158717
1316.000000	0.149499
1315.000000	0.141570
1314.000000	0.136252
1313.000000	0.129448
1312.000000	0.120508
1311.000000	0.114213
1310.000000	0.112725
1309.000000	0.113497
1308.000000	0.117210
1307.000000	0.129080
1306.000000	0.150790
1305.000000	0.180122
1304.000000	0.219771
1303.000000	0.277239
1302.000000	0.354221
1301.000000	0.445323
1300.000000	0.549100
1299.000000	0.669390
1298.000000	0.805713
1297.000000	0.952999
1296.000000	1.110267
1295.000000	1.280589
1294.000000	1.462400
1293.000000	1.650186
1292.000000	1.842447
1291.000000	2.039192
1290.000000	2.232354
1289.000000	2.407585
1288.000000	2.553827
1287.000000	2.662979
1286.000000	2.724865
1285.000000	2.734007
1284.000000	2.703350
1283.000000	2.664115
1282.000000	2.650911
1281.000000	2.690682
1280.000000	2.800807
1279.000000	2.984432
1278.000000	3.225900
1277.000000	3.501060
1276.000000	3.792467
1275.000000	4.091205
1274.000000	4.389704
1273.000000	4.682002
1272.000000	4.969514
1271.000000	5.256606
1270.000000	5.541581
1269.000000	5.818826
1268.000000	6.087258
1267.000000	6.349403
1266.000000	6.604831
1265.000000	6.851470
1264.000000	7.091515
1263.000000	7.330050
1262.000000	7.568844
1261.000000	7.807535
1260.000000	8.047940
1259.000000	8.290741
1258.000000	8.530911
1257.000000	8.762224
1256.000000	8.984418
1255.000000	9.201309
1254.000000	9.414983
1253.000000	9.626664
1252.000000	9.840041
1251.000000	10.058324
1250.000000	10.279666
1249.000000	10.499428
1248.000000	10.715027
1247.000000	10.925142
1246.000000	11.127174
1245.000000	11.319754
1244.000000	11.505970
1243.000000	11.690854
1242.000000	11.876919
1241.000000	12.064602
1240.000000	12.254344
1239.000000	12.444705
1238.000000	12.630851
1237.000000	12.808008
1236.000000	12.975238
1235.000000	13.134352
1234.000000	13.287416
1233.000000	13.437744
1232.000000	13.590545
1231.000000	13.749531
1230.000000	13.914010
1229.000000	14.080687
1228.000000	14.246829
1227.000000	14.410288
1226.000000	14.569131
1225.000000	14.723756
1224.000000	14.878082
1223.000000	15.037008
1222.000000	15.204011
1221.000000	15.381655
1220.000000	15.571286
1219.000000	15.770285
1218.000000	15.971335
1217.000000	16.166148
1216.000000	16.349469
1215.000000	16.520167
1214.000000	16.681287
1213.000000	16.839779
1212.000000	17.003764
1211.000000	17.178207
1210.000000	17.363315
1209.000000	17.556115
1208.000000	17.751521
1207.000000	17.942441
1206.000000	18.121931
1205.000000	18.287046
1204.000000	18.439879
1203.000000	18.585555
1202.000000	18.730599
1201.000000	18.881319
1200.000000	19.040976
1199.000000	19.207118
1198.000000	19.372076
1197.000000	19.525593
1196.000000	19.655618
1195.000000	19.750629
1194.000000	19.803389
1193.000000	19.812124
1192.000000	19.778381
1191.000000	19.703988
1190.000000	19.594047
1189.000000	19.461304
1188.000000	19.326258
1187.000000	19.213589
1186.000000	19.147058
1185.000000	19.143592
1184.000000	19.208441
1183.000000	19.335335
1182.000000	19.510625
1181.000000	19.721500
1180.000000	19.959020
1179.000000	20.215216
1178.000000	20.481010
1177.000000	20.744985
1176.000000	20.994644
1175.000000	21.219772
1174.000000	21.417211
1173.000000	21.592373
1172.000000	21.755667
1171.000000	21.918043
1170.000000	22.088703
1169.000000	22.272738
1168.000000	22.467767
1167.000000	22.665046
1166.000000	22.854956
1165.000000	23.030841
1164.000000	23.189286
1163.000000	23.331410
1162.000000	23.465578
1161.000000	23.604836
1160.000000	23.759137
1159.000000	23.931010
1158.000000	24.117187
1157.000000	24.310316
1156.000000	24.498663
1155.000000	24.669790
1154.000000	24.818240
1153.000000	24.947466
1152.000000	25.064779
1151.000000	25.178766
1150.000000	25.300795
1149.000000	25.441674
1148.000000	25.602542
1147.000000	25.772378
1146.000000	25.935879
1145.000000	26.080954
1144.000000	26.200449
1143.000000	26.293952
1142.000000	26.371352
1141.000000	26.449679
1140.000000	26.542984
1139.000000	26.657022
1138.000000	26.791157
1137.000000	26.938988
1136.000000	27.086270
1135.000000	27.215208
1134.000000	27.315596
1133.000000	27.389628
1132.000000	27.446990
1131.000000	27.500911
1130.000000	27.567749
1129.000000	27.661503
1128.000000	27.784407
1127.000000	27.925948
1126.000000	28.071495
1125.000000	28.207823
1124.000000	28.322647
1123.000000	28.408506
1122.000000	28.471066
1121.000000	28.527850
1120.000000	28.596221
1119.000000	28.685849
1118.000000	28.800232
1117.000000	28.936487
1116.000000	29.081580
1115.000000	29.216214
1114.000000	29.327223
1113.000000	29.413556
1112.000000	29.481765
1111.000000	29.543009
1110.000000	29.614455
1109.000000	29.713176
1108.000000	29.843371
1107.000000	29.993449
1106.000000	30.145703
1105.000000	30.283712
1104.000000	30.392752
1103.000000	30.464327
1102.000000	30.504819
1101.000000	30.534636
1100.000000	30.575199
1099.000000	30.642109
1098.000000	30.744720
1097.000000	30.882067
1096.000000	31.037660
1095.000000	31.185739
1094.000000	31.307387
1093.000000	31.397373
1092.000000	31.459207
1091.000000	31.503886
1090.000000	31.553142
1089.000000	31.631695
1088.000000	31.750810
1087.000000	31.903541
1086.000000	32.074262
1085.000000	32.245056
1084.000000	32.394724
1083.000000	32.505006
1082.000000	32.573619
1081.000000	32.615560
1080.000000	32.650803
1079.000000	32.696631
1078.000000	32.768324
1077.000000	32.872421
1076.000000	32.995885
1075.000000	33.110288
1074.000000	33.189828
1073.000000	33.221656
1072.000000	33.199813
1071.000000	33.122961
1070.000000	32.998765
1069.000000	32.835611
1068.000000	32.629072
1067.000000	32.359208
1066.000000	32.006585
1065.000000	31.568380
1064.000000	31.064291
1063.000000	30.541818
1062.000000	30.075054
1061.000000	29.743703
1060.000000	29.600322
1059.000000	29.657260
1058.000000	29.890969
1057.000000	30.255342
1056.000000	30.692108
1055.000000	31.140558
1054.000000	31.555280
1053.000000	31.911488
1052.000000	32.200668
1051.000000	32.429705
1050.000000	32.623957
1049.000000	32.817221
1048.000000	33.031374
1047.000000	33.267811
1046.000000	33.515149
1045.000000	33.756779
1044.000000	33.970408
1043.000000	34.136323
1042.000000	34.252609
1041.000000	34.336920
1040.000000	34.413328
1039.000000	34.503831
1038.000000	34.628459
1037.000000	34.798815
1036.000000	35.006489
1035.000000	35.226119
1034.000000	35.432544
1033.000000	35.610532
1032.000000	35.751918
1031.000000	35.857589
1030.000000	35.944952
1029.000000	36.041562
1028.000000	36.166078
1027.000000	36.320157
1026.000000	36.495705
1025.000000	36.679059
1024.000000	36.848400
1023.000000	36.982025
1022.000000	37.075941
1021.000000	37.145982
1020.000000	37.212613
1019.000000	37.292329
1018.000000	37.400298
1017.000000	37.545688
1016.000000	37.719201
1015.000000	37.895118
1014.000000	38.049156
1013.000000	38.168954
1012.000000	38.250608
1011.000000	38.299802
1010.000000	38.338527
1009.000000	38.397740
1008.000000	38.497273
1007.000000	38.637782
1006.000000	38.808753
1005.000000	38.992664
1004.000000	39.162557
1003.000000	39.291147
1002.000000	39.369832
1001.000000	39.412562
1000.000000	39.441751
999.000000	39.478939
998.000000	39.545817
997.000000	39.658106
996.000000	39.812151
995.000000	39.984960
994.000000	40.150247
993.000000	40.288913
992.000000	40.388069
991.000000	40.445486
990.000000	40.478660
989.000000	40.517786
988.000000	40.584878
987.000000	40.685633
986.000000	40.817349
985.000000	40.972031
984.000000	41.130751
983.000000	41.268715
982.000000	41.372264
981.000000	41.445301
980.000000	41.500094
979.000000	41.551738
978.000000	41.619712
977.000000	41.719736
976.000000	41.848705
975.000000	41.985584
974.000000	42.109642
973.000000	42.209744
972.000000	42.279672
971.000000	42.319081
970.000000	42.342274
969.000000	42.374042
968.000000	42.432765
967.000000	42.523446
966.000000	42.643708
965.000000	42.784204
964.000000	42.923262
963.000000	43.034804
962.000000	43.107012
961.000000	43.146747
960.000000	43.167351
959.000000	43.183859
958.000000	43.217575
957.000000	43.288805
956.000000	43.399575
955.000000	43.532022
954.000000	43.664670
953.000000	43.781108
952.000000	43.866561
951.000000	43.912091
950.000000	43.926421
949.000000	43.932568
948.000000	43.950662
947.000000	43.991459
946.000000	44.062643
945.000000	44.165582
944.000000	44.284447
943.000000	44.391525
942.000000	44.468066
941.000000	44.512101
940.000000	44.528076
939.000000	44.523591
938.000000	44.516220
937.000000	44.528141
936.000000	44.568986
935.000000	44.632082
934.000000	44.706408
933.000000	44.781369
932.000000	44.841648
931.000000	44.872693
930.000000	44.874389
929.000000	44.859711
928.000000	44.840024
927.000000	44.821561
926.000000	44.813318
925.000000	44.822177
924.000000	44.839675
923.000000	44.846185
922.000000	44.829423
921.000000	44.788619
920.000000	44.722689
919.000000	44.629991
918.000000	44.520246
917.000000	44.410943
916.000000	44.310185
915.000000	44.212502
914.000000	44.110337
913.000000	43.997216
912.000000	43.858900
911.000000	43.678201
910.000000	43.450714
909.000000	43.186302
908.000000	42.895890
907.000000	42.586797
906.000000	42.269987
905.000000	41.955368
904.000000	41.637674
903.000000	41.299130
902.000000	40.924284
901.000000	40.504935
900.000000	40.032672
899.000000	39.501431
898.000000	38.919901
897.000000	38.307670
896.000000	37.679561
895.000000	37.039684
894.000000	36.386694
893.000000	35.715243
892.000000	35.010019
891.000000	34.251587
890.000000	33.429987
889.000000	32.546369
888.000000	31.606639
887.000000	30.619710
886.000000	29.600967
885.000000	28.567148
884.000000	27.525230
883.000000	26.472275
882.000000	25.401709
881.000000	24.306427
880.000000	23.179548
879.000000	22.019467
878.000000	20.835270
877.000000	19.644307
876.000000	18.466116
875.000000	17.318662
874.000000	16.217596
873.000000	15.172761
872.000000	14.187002
871.000000	13.258674
870.000000	12.383918
869.000000	11.562213
868.000000	10.797346
867.000000	10.095405
866.000000	9.460700
865.000000	8.892028
864.000000	8.386483
863.000000	7.939211
862.000000	7.542392
861.000000	7.187560
860.000000	6.866855
859.000000	6.574115
858.000000	6.303560
857.000000	6.052461
856.000000	5.823964
855.000000	5.621695
854.000000	5.445582
853.000000	5.294067
852.000000	5.168832
851.000000	5.073313
850.000000	5.006074
849.000000	4.962482
848.000000	4.940924
847.000000	4.943896
846.000000	4.975347
845.000000	5.038911
844.000000	5.139995
843.000000	5.283897
842.000000	5.471443
841.000000	5.700973
840.000000	5.971107
839.000000	6.281379
838.000000	6.630399
837.000000	7.016948
836.000000	7.443406
835.000000	7.912333
834.000000	8.417330
833.000000	8.929355
832.000000	9.383456
831.000000	9.658080
830.000000	9.576675
829.000000	8.959395
828.000000	7.745779
827.000000	6.119387
826.000000	4.494350
825.000000	3.322331
824.000000	2.855113
823.000000	3.059060
822.000000	3.724337
821.000000	4.634774
820.000000	5.639165
819.000000	6.634518
818.000000	7.553320
817.000000	8.369923
816.000000	9.098145
815.000000	9.762563
814.000000	10.383380
813.000000	10.978929
812.000000	11.563169
811.000000	12.133516
810.000000	12.673636
809.000000	13.170488
808.000000	13.620442
807.000000	14.025275
806.000000	14.393573
805.000000	14.746069
804.000000	15.106898
803.000000	15.487467
802.000000	15.885901
801.000000	16.296341
800.000000	16.709205
799.000000	17.106663
798.000000	17.471470
797.000000	17.802086
796.000000	18.111887
795.000000	18.417340
794.000000	18.734421
793.000000	19.079820
792.000000	19.462264
791.000000	19.871842
790.000000	20.284739
789.000000	20.677407
788.000000	21.032914
787.000000	21.343039
786.000000	21.615843
785.000000	21.877686
784.000000	22.158296
783.000000	22.473913
782.000000	22.826074
781.000000	23.207213
780.000000	23.598824
779.000000	23.971455
778.000000	24.298804
777.000000	24.573312
776.000000	24.805882
775.000000	25.017334
774.000000	25.234389
773.000000	25.483144
772.000000	25.774553
771.000000	26.097107
770.000000	26.426913
769.000000	26.740223
768.000000	27.015041
767.000000	27.235231
766.000000	27.404963
765.000000	27.552739
764.000000	27.712773
763.000000	27.905473
762.000000	28.136105
761.000000	28.399124
760.000000	28.674341
759.000000	28.928908
758.000000	29.135980
757.000000	29.291302
756.000000	29.409954
755.000000	29.517001
754.000000	29.645110
753.000000	29.826481
752.000000	30.072532
751.000000	30.363934
750.000000	30.664643
749.000000	30.940367
748.000000	31.163493
747.000000	31.318390
746.000000	31.415650
745.000000	31.493840
744.000000	31.596868
743.000000	31.751969
742.000000	31.967443
741.000000	32.235218
740.000000	32.525418
739.000000	32.791184
738.000000	32.993920
737.000000	33.122660
736.000000	33.188350
735.000000	33.212427
734.000000	33.226557
733.000000	33.267146
732.000000	33.354688
731.000000	33.481119
730.000000	33.620254
729.000000	33.742314
728.000000	33.817700
727.000000	33.826168
726.000000	33.776122
725.000000	33.706623
724.000000	33.661840
723.000000	33.669358
722.000000	33.742358
721.000000	33.883841
720.000000	34.076498
719.000000	34.282182
718.000000	34.466303
717.000000	34.618790
716.000000	34.749035
715.000000	34.876336
714.000000	35.031301
713.000000	35.246874
712.000000	35.531753
711.000000	35.859754
710.000000	36.191977
709.000000	36.497880
708.000000	36.753297
707.000000	36.941220
706.000000	37.070289
705.000000	37.179048
704.000000	37.309782
703.000000	37.485482
702.000000	37.713834
701.000000	37.992295
700.000000	38.296865
699.000000	38.583614
698.000000	38.816961
697.000000	38.988816
696.000000	39.106817
695.000000	39.184747
694.000000	39.253255
693.000000	39.356088
692.000000	39.516871
691.000000	39.722790
690.000000	39.949560
689.000000	40.183262
688.000000	40.407078
687.000000	40.593106
686.000000	40.730567
685.000000	40.843447
684.000000	40.963555
683.000000	41.103668
682.000000	41.268616
681.000000	41.465886
680.000000	41.686050
679.000000	41.894925
678.000000	42.067246
677.000000	42.207064
676.000000	42.328786
675.000000	42.445529
674.000000	42.579540
673.000000	42.757246
672.000000	42.987670
671.000000	43.266431
670.000000	43.597768
669.000000	43.979960
668.000000	44.336216
667.000000	44.511363
666.000000	44.479214
665.000000	44.397318
664.000000	44.392400
663.000000	44.494119
662.000000	44.683057
661.000000	44.928181
660.000000	45.200712
659.000000	45.469795
658.000000	45.709304
657.000000	45.906881
656.000000	46.061153
655.000000	46.182336
654.000000	46.295146
653.000000	46.426627
652.000000	46.589329
651.000000	46.780144
650.000000	46.991999
649.000000	47.217607
648.000000	47.442415
647.000000	47.647726
646.000000	47.828224
645.000000	47.997279
644.000000	48.168097
643.000000	48.340781
642.000000	48.513414
641.000000	48.690912
640.000000	48.873462
639.000000	49.050935
638.000000	49.217663
637.000000	49.382504
636.000000	49.557753
635.000000	49.749105
634.000000	49.961975
633.000000	50.202594
632.000000	50.464887
631.000000	50.728531
630.000000	50.975734
629.000000	51.198700
628.000000	51.390916
627.000000	51.551042
626.000000	51.700093
625.000000	51.871726
624.000000	52.077776
623.000000	52.302845
622.000000	52.538195
621.000000	52.794709
620.000000	53.073255
619.000000	53.351171
618.000000	53.610491
617.000000	53.857160
616.000000	54.098715
615.000000	54.326768
614.000000	54.533741
613.000000	54.723549
612.000000	54.891807
611.000000	55.020936
610.000000	55.101168
609.000000	55.128521
608.000000	55.071612
607.000000	54.850190
606.000000	54.359388
605.000000	53.474336
604.000000	52.016826
603.000000	49.767268
602.000000	46.519089
601.000000	42.181335
600.000000	36.907781
599.000000	31.205732
598.000000	25.865075
597.000000	21.666619
596.000000	19.097496
595.000000	18.242108
594.000000	18.837632
593.000000	20.428607
592.000000	22.575337
591.000000	24.940975
590.000000	27.288073
589.000000	29.495287
588.000000	31.534689
587.000000	33.419808
586.000000	35.161855
585.000000	36.765670
584.000000	38.231925
583.000000	39.562317
582.000000	40.771024
581.000000	41.885858
580.000000	42.923104
579.000000	43.867787
578.000000	44.712513
577.000000	45.485703
576.000000	46.217904
575.000000	46.902300
574.000000	47.509986
573.000000	48.035033
572.000000	48.490614
571.000000	48.887962
570.000000	49.250354
569.000000	49.621118
568.000000	50.029128
567.000000	50.462187
566.000000	50.891474
565.000000	51.303697
564.000000	51.687908
563.000000	52.021165
562.000000	52.293896
561.000000	52.527038
560.000000	52.746137
559.000000	52.961674
558.000000	53.190068
557.000000	53.459880
556.000000	53.778425
555.000000	54.117459
554.000000	54.446655
553.000000	54.754881
552.000000	55.028225
551.000000	55.244258
550.000000	55.408801
549.000000	55.562499
548.000000	55.733856
547.000000	55.922250
546.000000	56.134553
545.000000	56.392739
544.000000	56.686352
543.000000	56.965873
542.000000	57.202748
541.000000	57.415616
540.000000	57.618797
539.000000	57.795518
538.000000	57.945511
537.000000	58.109690
536.000000	58.317046
535.000000	58.548019
534.000000	58.776298
533.000000	59.006425
532.000000	59.242587
531.000000	59.461687
530.000000	59.651652
529.000000	59.837035
528.000000	60.039256
527.000000	60.249917
526.000000	60.466205
525.000000	60.693533
524.000000	60.888523
523.000000	60.958692
522.000000	60.838198
521.000000	60.512430
520.000000	59.969606
519.000000	59.185832
518.000000	58.194351
517.000000	57.134217
516.000000	56.185391
515.000000	55.490376
514.000000	55.134250
513.000000	55.137207
512.000000	55.419257
511.000000	55.810265
510.000000	56.132238
509.000000	56.260254
508.000000	56.085423
507.000000	55.486267
506.000000	54.379155
505.000000	52.750838
504.000000	50.639627
503.000000	48.190358
502.000000	45.773448
501.000000	43.880785
500.000000	42.825755
499.000000	42.622367
498.000000	43.113462
497.000000	44.067864
496.000000	45.202291
495.000000	46.244275
494.000000	47.029935
493.000000	47.563774
492.000000	47.965209
491.000000	48.386884
490.000000	48.968035
489.000000	49.790713
488.000000	50.831357
487.000000	51.980335
486.000000	53.134962
485.000000	54.258266
484.000000	55.337940
483.000000	56.336117
482.000000	57.222387
481.000000	58.010795
480.000000	58.714727
479.000000	59.322411
478.000000	59.847459
477.000000	60.344355
476.000000	60.835586
475.000000	61.278182
474.000000	61.651426
473.000000	62.020571
472.000000	62.439602
471.000000	62.827982
470.000000	63.087389
469.000000	63.252844
468.000000	63.413538
467.000000	63.603399
466.000000	63.813357
465.000000	64.053921
464.000000	64.324189
463.000000	64.571095
462.000000	64.757155
461.000000	64.914560
460.000000	65.058487
459.000000	65.124499
458.000000	65.094503
457.000000	65.067761
456.000000	65.082419
455.000000	65.077323
454.000000	65.033980
453.000000	64.991371
452.000000	64.944182
451.000000	64.786653
450.000000	64.421338
449.000000	63.854362
448.000000	63.125986
447.000000	62.223623
446.000000	61.103937
445.000000	59.716051
444.000000	57.952953
443.000000	55.679281
442.000000	52.866930
441.000000	49.653706
440.000000	46.235446
439.000000	42.801667
438.000000	39.569560
437.000000	36.843201
436.000000	34.949360
435.000000	34.070997
434.000000	34.153547
433.000000	35.010712
432.000000	36.478941
431.000000	38.367097
430.000000	40.448979
429.000000	42.593592
428.000000	44.774079
427.000000	46.950701
426.000000	49.069216
425.000000	51.154074
424.000000	53.219268
423.000000	55.136768
422.000000	56.765307
421.000000	58.138961
420.000000	59.338038
419.000000	60.426960
418.000000	61.469359
417.000000	62.418970
416.000000	63.304981
415.000000	64.150717
414.000000	64.877343
413.000000	65.500495
412.000000	66.083471
411.000000	66.554312
410.000000	66.862346
409.000000	67.177664
408.000000	67.653986
407.000000	68.162484
406.000000	68.584536
405.000000	68.969220
404.000000	69.407654
403.000000	69.680334
402.000000	69.573925
401.000000	69.262902
400.000000	69.012726
