PE IR       SUBTECH     SPECTRUM    ASCII       PEDS        4.00        
   -1
23MS119_nitrito.asc
24/09/05
16:15:32.00
24/09/05
16:15:32.00
Administrator
Sample 1106 By Administrator Date Thursday, September 05 2024
400.000000
#HDR
-1
-1
#GR
cm-1
%T
1.0
0.0
4000.000000
-1.000000
3601
8
80.457418
5.055251
#DATA
4000.000000	62.697395
3999.000000	62.751987
3998.000000	62.805895
3997.000000	62.859029
3996.000000	62.911375
3995.000000	62.963456
3994.000000	63.016339
3993.000000	63.070924
3992.000000	63.127208
3991.000000	63.184363
3990.000000	63.241384
3989.000000	63.297637
3988.000000	63.353058
3987.000000	63.408023
3986.000000	63.462962
3985.000000	63.517859
3984.000000	63.572085
3983.000000	63.624726
3982.000000	63.674995
3981.000000	63.722668
3980.000000	63.768466
3979.000000	63.814121
3978.000000	63.861816
3977.000000	63.912979
3976.000000	63.967179
3975.000000	64.022297
3974.000000	64.076122
3973.000000	64.128146
3972.000000	64.179475
3971.000000	64.231221
3970.000000	64.283286
3969.000000	64.334317
3968.000000	64.382829
3967.000000	64.428352
3966.000000	64.471853
3965.000000	64.515203
3964.000000	64.560119
3963.000000	64.606952
3962.000000	64.654536
3961.000000	64.701486
3960.000000	64.747463
3959.000000	64.793482
3958.000000	64.841178
3957.000000	64.891111
3956.000000	64.942242
3955.000000	64.992654
3954.000000	65.041050
3953.000000	65.087596
3952.000000	65.133815
3951.000000	65.181976
3950.000000	65.233027
3949.000000	65.284774
3948.000000	65.333411
3947.000000	65.377819
3946.000000	65.421298
3945.000000	65.468886
3944.000000	65.523516
3943.000000	65.583292
3942.000000	65.642812
3941.000000	65.697987
3940.000000	65.748235
3939.000000	65.795004
3938.000000	65.840014
3937.000000	65.884127
3936.000000	65.929089
3935.000000	65.978437
3934.000000	66.035808
3933.000000	66.100679
3932.000000	66.165924
3931.000000	66.222536
3930.000000	66.266598
3929.000000	66.302996
3928.000000	66.342177
3927.000000	66.391396
3926.000000	66.449781
3925.000000	66.511042
3924.000000	66.569669
3923.000000	66.623727
3922.000000	66.673119
3921.000000	66.720114
3920.000000	66.769792
3919.000000	66.825343
3918.000000	66.883529
3917.000000	66.937077
3916.000000	66.982170
3915.000000	67.020786
3914.000000	67.057050
3913.000000	67.095247
3912.000000	67.138499
3911.000000	67.186032
3910.000000	67.234727
3909.000000	67.281653
3908.000000	67.328267
3907.000000	67.378473
3906.000000	67.434629
3905.000000	67.494954
3904.000000	67.555850
3903.000000	67.616796
3902.000000	67.678854
3901.000000	67.738499
3900.000000	67.789748
3899.000000	67.830522
3898.000000	67.863937
3897.000000	67.894842
3896.000000	67.927279
3895.000000	67.966884
3894.000000	68.020461
3893.000000	68.086979
3892.000000	68.152890
3891.000000	68.203252
3890.000000	68.242006
3889.000000	68.282417
3888.000000	68.331549
3887.000000	68.390524
3886.000000	68.451348
3885.000000	68.503524
3884.000000	68.549324
3883.000000	68.596018
3882.000000	68.646983
3881.000000	68.699641
3880.000000	68.746365
3879.000000	68.786763
3878.000000	68.829274
3877.000000	68.877727
3876.000000	68.929105
3875.000000	68.976257
3874.000000	69.016988
3873.000000	69.060111
3872.000000	69.113273
3871.000000	69.170446
3870.000000	69.216920
3869.000000	69.251833
3868.000000	69.290645
3867.000000	69.338135
3866.000000	69.390288
3865.000000	69.447259
3864.000000	69.506321
3863.000000	69.562544
3862.000000	69.614580
3861.000000	69.662338
3860.000000	69.704454
3859.000000	69.735245
3858.000000	69.752157
3857.000000	69.762713
3856.000000	69.788956
3855.000000	69.852201
3854.000000	69.935149
3853.000000	69.996320
3852.000000	70.045121
3851.000000	70.108198
3850.000000	70.173860
3849.000000	70.231370
3848.000000	70.284587
3847.000000	70.338298
3846.000000	70.394585
3845.000000	70.452629
3844.000000	70.507831
3843.000000	70.558044
3842.000000	70.607236
3841.000000	70.658475
3840.000000	70.712002
3839.000000	70.765353
3838.000000	70.816040
3837.000000	70.864113
3836.000000	70.914238
3835.000000	70.969793
3834.000000	71.028613
3833.000000	71.085211
3832.000000	71.136228
3831.000000	71.184794
3830.000000	71.238501
3829.000000	71.299715
3828.000000	71.360022
3827.000000	71.408503
3826.000000	71.445686
3825.000000	71.483605
3824.000000	71.533924
3823.000000	71.598875
3822.000000	71.664855
3821.000000	71.710129
3820.000000	71.744587
3819.000000	71.794693
3818.000000	71.859271
3817.000000	71.922991
3816.000000	71.974388
3815.000000	72.019522
3814.000000	72.074232
3813.000000	72.135124
3812.000000	72.188673
3811.000000	72.234933
3810.000000	72.283066
3809.000000	72.336867
3808.000000	72.387813
3807.000000	72.426393
3806.000000	72.461559
3805.000000	72.511869
3804.000000	72.577172
3803.000000	72.645987
3802.000000	72.705257
3801.000000	72.749449
3800.000000	72.800581
3799.000000	72.872992
3798.000000	72.950448
3797.000000	73.015119
3796.000000	73.064116
3795.000000	73.107203
3794.000000	73.153576
3793.000000	73.203424
3792.000000	73.253651
3791.000000	73.303743
3790.000000	73.354577
3789.000000	73.407232
3788.000000	73.463237
3787.000000	73.523554
3786.000000	73.584798
3785.000000	73.641793
3784.000000	73.694984
3783.000000	73.751318
3782.000000	73.814772
3781.000000	73.880685
3780.000000	73.939663
3779.000000	73.987975
3778.000000	74.032849
3777.000000	74.080486
3776.000000	74.127923
3775.000000	74.172010
3774.000000	74.217739
3773.000000	74.271612
3772.000000	74.333472
3771.000000	74.397211
3770.000000	74.458364
3769.000000	74.519646
3768.000000	74.587477
3767.000000	74.659402
3766.000000	74.725299
3765.000000	74.779536
3764.000000	74.827420
3763.000000	74.877630
3762.000000	74.930778
3761.000000	74.983937
3760.000000	75.036858
3759.000000	75.089531
3758.000000	75.142164
3757.000000	75.194074
3756.000000	75.244426
3755.000000	75.292618
3754.000000	75.341373
3753.000000	75.398095
3752.000000	75.464642
3751.000000	75.527072
3750.000000	75.572844
3749.000000	75.614316
3748.000000	75.669399
3747.000000	75.736024
3746.000000	75.805934
3745.000000	75.868369
3744.000000	75.912527
3743.000000	75.967843
3742.000000	76.055141
3741.000000	76.145058
3740.000000	76.217198
3739.000000	76.277146
3738.000000	76.338129
3737.000000	76.408198
3736.000000	76.488851
3735.000000	76.574107
3734.000000	76.648670
3733.000000	76.697570
3732.000000	76.722705
3731.000000	76.744932
3730.000000	76.782157
3729.000000	76.833625
3728.000000	76.891071
3727.000000	76.951391
3726.000000	77.016083
3725.000000	77.086506
3724.000000	77.159065
3723.000000	77.229357
3722.000000	77.295020
3721.000000	77.356747
3720.000000	77.416843
3719.000000	77.473856
3718.000000	77.525542
3717.000000	77.573201
3716.000000	77.620108
3715.000000	77.667474
3714.000000	77.715949
3713.000000	77.766912
3712.000000	77.818199
3711.000000	77.867693
3710.000000	77.921924
3709.000000	77.985671
3708.000000	78.055065
3707.000000	78.123835
3706.000000	78.189053
3705.000000	78.250116
3704.000000	78.306180
3703.000000	78.356252
3702.000000	78.399577
3701.000000	78.440077
3700.000000	78.486560
3699.000000	78.541492
3698.000000	78.596256
3697.000000	78.643623
3696.000000	78.684846
3695.000000	78.725301
3694.000000	78.767583
3693.000000	78.812480
3692.000000	78.862600
3691.000000	78.919286
3690.000000	78.978039
3689.000000	79.028746
3688.000000	79.072561
3687.000000	79.122770
3686.000000	79.179952
3685.000000	79.229242
3684.000000	79.263208
3683.000000	79.287717
3682.000000	79.308821
3681.000000	79.324901
3680.000000	79.335454
3679.000000	79.350475
3678.000000	79.377666
3677.000000	79.410610
3676.000000	79.427741
3675.000000	79.426820
3674.000000	79.446428
3673.000000	79.498749
3672.000000	79.548506
3671.000000	79.568902
3670.000000	79.557541
3669.000000	79.535731
3668.000000	79.533341
3667.000000	79.551614
3666.000000	79.569280
3665.000000	79.571910
3664.000000	79.560494
3663.000000	79.542715
3662.000000	79.524631
3661.000000	79.508129
3660.000000	79.493350
3659.000000	79.477187
3658.000000	79.449580
3657.000000	79.401077
3656.000000	79.338100
3655.000000	79.286286
3654.000000	79.257615
3653.000000	79.233932
3652.000000	79.194552
3651.000000	79.135475
3650.000000	79.058997
3649.000000	78.969928
3648.000000	78.882970
3647.000000	78.815200
3646.000000	78.768210
3645.000000	78.727722
3644.000000	78.677543
3643.000000	78.609409
3642.000000	78.524787
3641.000000	78.429489
3640.000000	78.329588
3639.000000	78.228906
3638.000000	78.130449
3637.000000	78.036240
3636.000000	77.943372
3635.000000	77.846227
3634.000000	77.744074
3633.000000	77.643573
3632.000000	77.546802
3631.000000	77.444707
3630.000000	77.323873
3629.000000	77.181012
3628.000000	77.045856
3627.000000	76.956467
3626.000000	76.901661
3625.000000	76.842249
3624.000000	76.760628
3623.000000	76.661234
3622.000000	76.550216
3621.000000	76.427419
3620.000000	76.293163
3619.000000	76.155922
3618.000000	76.033265
3617.000000	75.937091
3616.000000	75.858886
3615.000000	75.778062
3614.000000	75.679723
3613.000000	75.565091
3612.000000	75.447165
3611.000000	75.334423
3610.000000	75.222146
3609.000000	75.102849
3608.000000	74.979333
3607.000000	74.862540
3606.000000	74.758108
3605.000000	74.660277
3604.000000	74.560586
3603.000000	74.454787
3602.000000	74.341650
3601.000000	74.223826
3600.000000	74.108029
3599.000000	73.998811
3598.000000	73.893129
3597.000000	73.785438
3596.000000	73.673035
3595.000000	73.557858
3594.000000	73.443384
3593.000000	73.333255
3592.000000	73.229059
3591.000000	73.127655
3590.000000	73.022639
3589.000000	72.910716
3588.000000	72.795897
3587.000000	72.687446
3586.000000	72.592494
3585.000000	72.507941
3584.000000	72.423278
3583.000000	72.330756
3582.000000	72.228300
3581.000000	72.117774
3580.000000	72.002349
3579.000000	71.884734
3578.000000	71.765214
3577.000000	71.643681
3576.000000	71.521238
3575.000000	71.399375
3574.000000	71.279259
3573.000000	71.162648
3572.000000	71.053018
3571.000000	70.951635
3570.000000	70.854329
3569.000000	70.754055
3568.000000	70.647769
3567.000000	70.538163
3566.000000	70.430631
3565.000000	70.327463
3564.000000	70.225072
3563.000000	70.117797
3562.000000	70.002372
3561.000000	69.879295
3560.000000	69.752190
3559.000000	69.624946
3558.000000	69.499427
3557.000000	69.376561
3556.000000	69.258101
3555.000000	69.144037
3554.000000	69.030707
3553.000000	68.914407
3552.000000	68.796633
3551.000000	68.681854
3550.000000	68.570608
3549.000000	68.459112
3548.000000	68.345411
3547.000000	68.230817
3546.000000	68.115251
3545.000000	67.996327
3544.000000	67.872802
3543.000000	67.745430
3542.000000	67.615209
3541.000000	67.484063
3540.000000	67.356582
3539.000000	67.237382
3538.000000	67.127248
3537.000000	67.023176
3536.000000	66.921554
3535.000000	66.819493
3534.000000	66.714223
3533.000000	66.604613
3532.000000	66.492170
3531.000000	66.378728
3530.000000	66.263794
3529.000000	66.147353
3528.000000	66.033957
3527.000000	65.930330
3526.000000	65.838636
3525.000000	65.754836
3524.000000	65.672794
3523.000000	65.587557
3522.000000	65.496480
3521.000000	65.400196
3520.000000	65.302017
3519.000000	65.204554
3518.000000	65.107631
3517.000000	65.010532
3516.000000	64.913954
3515.000000	64.818214
3514.000000	64.721109
3513.000000	64.619870
3512.000000	64.513840
3511.000000	64.404168
3510.000000	64.292396
3509.000000	64.181602
3508.000000	64.076319
3507.000000	63.978267
3506.000000	63.883832
3505.000000	63.788565
3504.000000	63.691972
3503.000000	63.595356
3502.000000	63.497143
3501.000000	63.393825
3500.000000	63.283909
3499.000000	63.167971
3498.000000	63.046575
3497.000000	62.921266
3496.000000	62.796134
3495.000000	62.675038
3494.000000	62.558153
3493.000000	62.443577
3492.000000	62.330709
3491.000000	62.219602
3490.000000	62.108441
3489.000000	61.994941
3488.000000	61.879235
3487.000000	61.762595
3486.000000	61.644127
3485.000000	61.521485
3484.000000	61.394241
3483.000000	61.264475
3482.000000	61.134744
3481.000000	61.007169
3480.000000	60.882683
3479.000000	60.759151
3478.000000	60.631897
3477.000000	60.498533
3476.000000	60.362089
3475.000000	60.227386
3474.000000	60.096260
3473.000000	59.968283
3472.000000	59.843665
3471.000000	59.722299
3470.000000	59.601363
3469.000000	59.476638
3468.000000	59.345593
3467.000000	59.207496
3466.000000	59.062234
3465.000000	58.911294
3464.000000	58.758759
3463.000000	58.609044
3462.000000	58.464181
3461.000000	58.324262
3460.000000	58.188434
3459.000000	58.053911
3458.000000	57.916426
3457.000000	57.773893
3456.000000	57.628162
3455.000000	57.481403
3454.000000	57.332747
3453.000000	57.180919
3452.000000	57.027715
3451.000000	56.875869
3450.000000	56.724815
3449.000000	56.571752
3448.000000	56.415882
3447.000000	56.258881
3446.000000	56.102036
3445.000000	55.945132
3444.000000	55.787452
3443.000000	55.628060
3442.000000	55.465964
3441.000000	55.301881
3440.000000	55.138365
3439.000000	54.976484
3438.000000	54.813731
3437.000000	54.646520
3436.000000	54.473249
3435.000000	54.293554
3434.000000	54.106839
3433.000000	53.914253
3432.000000	53.719708
3431.000000	53.526481
3430.000000	53.333970
3429.000000	53.139770
3428.000000	52.943176
3427.000000	52.744250
3426.000000	52.541803
3425.000000	52.334704
3424.000000	52.123358
3423.000000	51.907850
3422.000000	51.686509
3421.000000	51.458695
3420.000000	51.226811
3419.000000	50.993111
3418.000000	50.756767
3417.000000	50.516144
3416.000000	50.271807
3415.000000	50.024851
3414.000000	49.774113
3413.000000	49.517753
3412.000000	49.255573
3411.000000	48.987903
3410.000000	48.714053
3409.000000	48.433627
3408.000000	48.147649
3407.000000	47.856330
3406.000000	47.558158
3405.000000	47.252895
3404.000000	46.942860
3403.000000	46.629674
3402.000000	46.311766
3401.000000	45.986694
3400.000000	45.653483
3399.000000	45.311433
3398.000000	44.959965
3397.000000	44.601096
3396.000000	44.238639
3395.000000	43.873428
3394.000000	43.502029
3393.000000	43.121788
3392.000000	42.733610
3391.000000	42.337810
3390.000000	41.931793
3389.000000	41.513972
3388.000000	41.086965
3387.000000	40.654280
3386.000000	40.216530
3385.000000	39.773497
3384.000000	39.326148
3383.000000	38.874693
3382.000000	38.417319
3381.000000	37.952838
3380.000000	37.482191
3379.000000	37.005585
3378.000000	36.521391
3377.000000	36.029448
3376.000000	35.531998
3375.000000	35.030034
3374.000000	34.521736
3373.000000	34.006104
3372.000000	33.485137
3371.000000	32.960525
3370.000000	32.432004
3369.000000	31.899917
3368.000000	31.365927
3367.000000	30.829972
3366.000000	30.289933
3365.000000	29.745864
3364.000000	29.200771
3363.000000	28.656101
3362.000000	28.110290
3361.000000	27.562652
3360.000000	27.014790
3359.000000	26.466943
3358.000000	25.917087
3357.000000	25.365259
3356.000000	24.814570
3355.000000	24.266735
3354.000000	23.720736
3353.000000	23.177098
3352.000000	22.639235
3351.000000	22.109071
3350.000000	21.584999
3349.000000	21.065390
3348.000000	20.550517
3347.000000	20.039851
3346.000000	19.531941
3345.000000	19.027934
3344.000000	18.531288
3343.000000	18.043151
3342.000000	17.561580
3341.000000	17.086320
3340.000000	16.620183
3339.000000	16.164902
3338.000000	15.719829
3337.000000	15.284865
3336.000000	14.861071
3335.000000	14.447700
3334.000000	14.042603
3333.000000	13.646360
3332.000000	13.261451
3331.000000	12.887699
3330.000000	12.522426
3329.000000	12.164906
3328.000000	11.817216
3327.000000	11.480209
3326.000000	11.153433
3325.000000	10.838521
3324.000000	10.537678
3323.000000	10.249567
3322.000000	9.970623
3321.000000	9.700418
3320.000000	9.441540
3319.000000	9.193971
3318.000000	8.955363
3317.000000	8.725635
3316.000000	8.506746
3315.000000	8.298193
3314.000000	8.096977
3313.000000	7.902377
3312.000000	7.715809
3311.000000	7.536371
3310.000000	7.361750
3309.000000	7.192828
3308.000000	7.033446
3307.000000	6.885630
3306.000000	6.749151
3305.000000	6.625118
3304.000000	6.514151
3303.000000	6.412360
3302.000000	6.313855
3301.000000	6.216850
3300.000000	6.123276
3299.000000	6.033225
3298.000000	5.945273
3297.000000	5.861253
3296.000000	5.784794
3295.000000	5.715743
3294.000000	5.650927
3293.000000	5.590324
3292.000000	5.537279
3291.000000	5.492265
3290.000000	5.452012
3289.000000	5.414416
3288.000000	5.379865
3287.000000	5.347896
3286.000000	5.316957
3285.000000	5.287857
3284.000000	5.262749
3283.000000	5.241146
3282.000000	5.220921
3281.000000	5.202401
3280.000000	5.187375
3279.000000	5.174690
3278.000000	5.161576
3277.000000	5.148568
3276.000000	5.138349
3275.000000	5.130494
3274.000000	5.122071
3273.000000	5.113307
3272.000000	5.108025
3271.000000	5.108486
3270.000000	5.113905
3269.000000	5.123354
3268.000000	5.135898
3267.000000	5.148536
3266.000000	5.158245
3265.000000	5.165859
3264.000000	5.174316
3263.000000	5.183820
3262.000000	5.192642
3261.000000	5.201243
3260.000000	5.211371
3259.000000	5.222234
3258.000000	5.231912
3257.000000	5.241671
3256.000000	5.254383
3255.000000	5.269645
3254.000000	5.284616
3253.000000	5.298790
3252.000000	5.313570
3251.000000	5.328240
3250.000000	5.340941
3249.000000	5.352965
3248.000000	5.367633
3247.000000	5.385310
3246.000000	5.403506
3245.000000	5.421201
3244.000000	5.439240
3243.000000	5.457173
3242.000000	5.473758
3241.000000	5.489871
3240.000000	5.507178
3239.000000	5.524650
3238.000000	5.539939
3237.000000	5.553221
3236.000000	5.566400
3235.000000	5.579853
3234.000000	5.593388
3233.000000	5.608746
3232.000000	5.627218
3231.000000	5.646259
3230.000000	5.662439
3229.000000	5.676255
3228.000000	5.690231
3227.000000	5.704057
3226.000000	5.715776
3225.000000	5.726249
3224.000000	5.737904
3223.000000	5.750290
3222.000000	5.761015
3221.000000	5.770046
3220.000000	5.779085
3219.000000	5.787826
3218.000000	5.794786
3217.000000	5.800621
3216.000000	5.806807
3215.000000	5.812329
3214.000000	5.815343
3213.000000	5.816781
3212.000000	5.818496
3211.000000	5.819454
3210.000000	5.817637
3209.000000	5.814040
3208.000000	5.810868
3207.000000	5.807360
3206.000000	5.801367
3205.000000	5.793650
3204.000000	5.786444
3203.000000	5.779278
3202.000000	5.770183
3201.000000	5.759556
3200.000000	5.748932
3199.000000	5.737309
3198.000000	5.722770
3197.000000	5.706309
3196.000000	5.690131
3195.000000	5.673670
3194.000000	5.655169
3193.000000	5.635645
3192.000000	5.617302
3191.000000	5.599411
3190.000000	5.579845
3189.000000	5.559244
3188.000000	5.539739
3187.000000	5.520832
3186.000000	5.500432
3185.000000	5.478724
3184.000000	5.457290
3183.000000	5.435773
3182.000000	5.413068
3181.000000	5.390371
3180.000000	5.369475
3179.000000	5.349489
3178.000000	5.328719
3177.000000	5.308175
3176.000000	5.289679
3175.000000	5.272271
3174.000000	5.254100
3173.000000	5.236067
3172.000000	5.219947
3171.000000	5.204777
3170.000000	5.188765
3169.000000	5.172965
3168.000000	5.159359
3167.000000	5.147048
3166.000000	5.134130
3165.000000	5.121500
3164.000000	5.111113
3163.000000	5.102295
3162.000000	5.093376
3161.000000	5.085215
3160.000000	5.079449
3159.000000	5.075086
3158.000000	5.070380
3157.000000	5.066038
3156.000000	5.063197
3155.000000	5.060458
3154.000000	5.056798
3153.000000	5.055251
3152.000000	5.059500
3151.000000	5.068675
3150.000000	5.079251
3149.000000	5.090193
3148.000000	5.102448
3147.000000	5.115299
3146.000000	5.127409
3145.000000	5.139819
3144.000000	5.154049
3143.000000	5.168877
3142.000000	5.182610
3141.000000	5.197032
3140.000000	5.215427
3139.000000	5.238121
3138.000000	5.263368
3137.000000	5.290773
3136.000000	5.320455
3135.000000	5.350685
3134.000000	5.379793
3133.000000	5.409002
3132.000000	5.440212
3131.000000	5.472909
3130.000000	5.506230
3129.000000	5.541682
3128.000000	5.580643
3127.000000	5.621280
3126.000000	5.661222
3125.000000	5.701023
3124.000000	5.741775
3123.000000	5.782031
3122.000000	5.820667
3121.000000	5.860304
3120.000000	5.904087
3119.000000	5.951233
3118.000000	5.999628
3117.000000	6.050434
3116.000000	6.106097
3115.000000	6.165789
3114.000000	6.226533
3113.000000	6.287143
3112.000000	6.347560
3111.000000	6.406522
3110.000000	6.463706
3109.000000	6.522233
3108.000000	6.585312
3107.000000	6.651862
3106.000000	6.718617
3105.000000	6.784679
3104.000000	6.850822
3103.000000	6.916651
3102.000000	6.982104
3101.000000	7.049706
3100.000000	7.121741
3099.000000	7.196673
3098.000000	7.271750
3097.000000	7.347211
3096.000000	7.424561
3095.000000	7.502740
3094.000000	7.579575
3093.000000	7.655476
3092.000000	7.732488
3091.000000	7.811121
3090.000000	7.890977
3089.000000	7.972586
3088.000000	8.055789
3087.000000	8.138398
3086.000000	8.219398
3085.000000	8.301497
3084.000000	8.387482
3083.000000	8.476157
3082.000000	8.564905
3081.000000	8.653936
3080.000000	8.744986
3079.000000	8.838030
3078.000000	8.932497
3077.000000	9.029434
3076.000000	9.129025
3075.000000	9.228180
3074.000000	9.324045
3073.000000	9.417966
3072.000000	9.512827
3071.000000	9.608502
3070.000000	9.703454
3069.000000	9.798818
3068.000000	9.897215
3067.000000	9.999048
3066.000000	10.103129
3065.000000	10.209403
3064.000000	10.317811
3063.000000	10.426048
3062.000000	10.531730
3061.000000	10.635474
3060.000000	10.739108
3059.000000	10.842516
3058.000000	10.944989
3057.000000	11.047904
3056.000000	11.152966
3055.000000	11.259278
3054.000000	11.365130
3053.000000	11.471240
3052.000000	11.579494
3051.000000	11.689817
3050.000000	11.800803
3049.000000	11.911949
3048.000000	12.022871
3047.000000	12.132033
3046.000000	12.238717
3045.000000	12.344678
3044.000000	12.451737
3043.000000	12.559619
3042.000000	12.668187
3041.000000	12.779242
3040.000000	12.893366
3039.000000	13.007318
3038.000000	13.117625
3037.000000	13.224987
3036.000000	13.332579
3035.000000	13.441906
3034.000000	13.552885
3033.000000	13.665824
3032.000000	13.780286
3031.000000	13.893812
3030.000000	14.004553
3029.000000	14.113518
3028.000000	14.221970
3027.000000	14.328917
3026.000000	14.433883
3025.000000	14.539709
3024.000000	14.649273
3023.000000	14.761269
3022.000000	14.872309
3021.000000	14.981545
3020.000000	15.090205
3019.000000	15.198253
3018.000000	15.304756
3017.000000	15.410340
3016.000000	15.516391
3015.000000	15.622870
3014.000000	15.729443
3013.000000	15.837494
3012.000000	15.948474
3011.000000	16.061478
3010.000000	16.174602
3009.000000	16.287344
3008.000000	16.399664
3007.000000	16.510520
3006.000000	16.619606
3005.000000	16.728779
3004.000000	16.839432
3003.000000	16.950012
3002.000000	17.058355
3001.000000	17.164748
3000.000000	17.270552
2999.000000	17.375716
2998.000000	17.479983
2997.000000	17.584615
2996.000000	17.690388
2995.000000	17.795817
2994.000000	17.900038
2993.000000	18.005595
2992.000000	18.115465
2991.000000	18.228838
2990.000000	18.342532
2989.000000	18.455106
2988.000000	18.566847
2987.000000	18.677145
2986.000000	18.784810
2985.000000	18.890070
2984.000000	18.993887
2983.000000	19.096340
2982.000000	19.197872
2981.000000	19.300727
2980.000000	19.406718
2979.000000	19.514652
2978.000000	19.622217
2977.000000	19.729217
2976.000000	19.836850
2975.000000	19.945153
2974.000000	20.053465
2973.000000	20.162093
2972.000000	20.271231
2971.000000	20.379453
2970.000000	20.485491
2969.000000	20.590350
2968.000000	20.695470
2967.000000	20.800152
2966.000000	20.903006
2965.000000	21.004673
2964.000000	21.106913
2963.000000	21.210230
2962.000000	21.314521
2961.000000	21.420502
2960.000000	21.528297
2959.000000	21.636090
2958.000000	21.742205
2957.000000	21.846928
2956.000000	21.950359
2955.000000	22.050746
2954.000000	22.147419
2953.000000	22.243079
2952.000000	22.340203
2951.000000	22.437004
2950.000000	22.530171
2949.000000	22.620061
2948.000000	22.710184
2947.000000	22.802898
2946.000000	22.898557
2945.000000	22.997716
2944.000000	23.100692
2943.000000	23.205348
2942.000000	23.308161
2941.000000	23.407548
2940.000000	23.504172
2939.000000	23.598693
2938.000000	23.691339
2937.000000	23.783015
2936.000000	23.874619
2935.000000	23.965645
2934.000000	24.055361
2933.000000	24.144720
2932.000000	24.235357
2931.000000	24.327491
2930.000000	24.420473
2929.000000	24.514424
2928.000000	24.609527
2927.000000	24.704851
2926.000000	24.799629
2925.000000	24.894404
2924.000000	24.989178
2923.000000	25.081972
2922.000000	25.171299
2921.000000	25.258512
2920.000000	25.345620
2919.000000	25.432344
2918.000000	25.517510
2917.000000	25.601968
2916.000000	25.687644
2915.000000	25.774709
2914.000000	25.861754
2913.000000	25.947856
2912.000000	26.032629
2911.000000	26.115250
2910.000000	26.195302
2909.000000	26.273793
2908.000000	26.351660
2907.000000	26.428162
2906.000000	26.502277
2905.000000	26.574684
2904.000000	26.646867
2903.000000	26.719275
2902.000000	26.791896
2901.000000	26.865526
2900.000000	26.940892
2899.000000	27.017462
2898.000000	27.094453
2897.000000	27.171774
2896.000000	27.248681
2895.000000	27.323021
2894.000000	27.393527
2893.000000	27.461651
2892.000000	27.529345
2891.000000	27.596286
2890.000000	27.660895
2889.000000	27.722792
2888.000000	27.782402
2887.000000	27.839378
2886.000000	27.893459
2885.000000	27.945968
2884.000000	27.998577
2883.000000	28.051329
2882.000000	28.103390
2881.000000	28.154803
2880.000000	28.205742
2879.000000	28.255066
2878.000000	28.301515
2877.000000	28.345627
2876.000000	28.388748
2875.000000	28.430743
2874.000000	28.470415
2873.000000	28.507744
2872.000000	28.544535
2871.000000	28.583634
2870.000000	28.628545
2869.000000	28.682640
2868.000000	28.746989
2867.000000	28.819657
2866.000000	28.898283
2865.000000	28.982201
2864.000000	29.071051
2863.000000	29.163058
2862.000000	29.256421
2861.000000	29.351028
2860.000000	29.447137
2859.000000	29.543622
2858.000000	29.639388
2857.000000	29.735213
2856.000000	29.832289
2855.000000	29.930183
2854.000000	30.028072
2853.000000	30.126772
2852.000000	30.227484
2851.000000	30.329437
2850.000000	30.430692
2849.000000	30.530389
2848.000000	30.628511
2847.000000	30.724376
2846.000000	30.817148
2845.000000	30.907059
2844.000000	30.994448
2843.000000	31.078411
2842.000000	31.158160
2841.000000	31.234953
2840.000000	31.310996
2839.000000	31.387113
2838.000000	31.463030
2837.000000	31.539245
2836.000000	31.616879
2835.000000	31.696107
2834.000000	31.776186
2833.000000	31.856510
2832.000000	31.936286
2831.000000	32.013865
2830.000000	32.087946
2829.000000	32.158982
2828.000000	32.228114
2827.000000	32.295435
2826.000000	32.360702
2825.000000	32.424977
2824.000000	32.489929
2823.000000	32.555970
2822.000000	32.622559
2821.000000	32.689803
2820.000000	32.758173
2819.000000	32.827112
2818.000000	32.895480
2817.000000	32.963097
2816.000000	33.030484
2815.000000	33.097412
2814.000000	33.163087
2813.000000	33.227455
2812.000000	33.291075
2811.000000	33.353979
2810.000000	33.415823
2809.000000	33.476833
2808.000000	33.537547
2807.000000	33.598095
2806.000000	33.658806
2805.000000	33.720912
2804.000000	33.785374
2803.000000	33.851515
2802.000000	33.917932
2801.000000	33.984138
2800.000000	34.050141
2799.000000	34.115110
2798.000000	34.177842
2797.000000	34.238112
2796.000000	34.296370
2795.000000	34.352708
2794.000000	34.407412
2793.000000	34.461886
2792.000000	34.517608
2791.000000	34.574621
2790.000000	34.632280
2789.000000	34.690733
2788.000000	34.750227
2787.000000	34.809626
2786.000000	34.867261
2785.000000	34.922901
2784.000000	34.977421
2783.000000	35.030982
2782.000000	35.083065
2781.000000	35.133918
2780.000000	35.184330
2779.000000	35.234188
2778.000000	35.282843
2777.000000	35.330727
2776.000000	35.379178
2775.000000	35.428666
2774.000000	35.478479
2773.000000	35.528048
2772.000000	35.577280
2771.000000	35.625819
2770.000000	35.673275
2769.000000	35.720098
2768.000000	35.766992
2767.000000	35.813607
2766.000000	35.858982
2765.000000	35.903096
2764.000000	35.946775
2763.000000	35.990347
2762.000000	36.033674
2761.000000	36.077313
2760.000000	36.122325
2759.000000	36.168907
2758.000000	36.216307
2757.000000	36.263877
2756.000000	36.311149
2755.000000	36.357125
2754.000000	36.400780
2753.000000	36.442214
2752.000000	36.482254
2751.000000	36.521206
2750.000000	36.559064
2749.000000	36.596571
2748.000000	36.634761
2747.000000	36.673613
2746.000000	36.712365
2745.000000	36.750982
2744.000000	36.790119
2743.000000	36.829895
2742.000000	36.869872
2741.000000	36.910011
2740.000000	36.950403
2739.000000	36.990274
2738.000000	37.028515
2737.000000	37.064968
2736.000000	37.100040
2735.000000	37.133405
2734.000000	37.164444
2733.000000	37.193774
2732.000000	37.222905
2731.000000	37.252469
2730.000000	37.282191
2729.000000	37.312446
2728.000000	37.344352
2727.000000	37.378196
2726.000000	37.413013
2725.000000	37.447815
2724.000000	37.481994
2723.000000	37.514551
2722.000000	37.544245
2721.000000	37.570801
2720.000000	37.595083
2719.000000	37.618070
2718.000000	37.640652
2717.000000	37.664120
2716.000000	37.689505
2715.000000	37.716455
2714.000000	37.743921
2713.000000	37.771814
2712.000000	37.800771
2711.000000	37.830393
2710.000000	37.859146
2709.000000	37.886019
2708.000000	37.910996
2707.000000	37.933874
2706.000000	37.954010
2705.000000	37.971573
2704.000000	37.987682
2703.000000	38.002898
2702.000000	38.016625
2701.000000	38.028206
2700.000000	38.037833
2699.000000	38.046239
2698.000000	38.054341
2697.000000	38.063206
2696.000000	38.073306
2695.000000	38.083870
2694.000000	38.093827
2693.000000	38.103186
2692.000000	38.112425
2691.000000	38.120644
2690.000000	38.125693
2689.000000	38.126190
2688.000000	38.122445
2687.000000	38.115578
2686.000000	38.106884
2685.000000	38.098076
2684.000000	38.090928
2683.000000	38.086246
2682.000000	38.083927
2681.000000	38.083770
2680.000000	38.085291
2679.000000	38.087065
2678.000000	38.087451
2677.000000	38.085990
2676.000000	38.083239
2675.000000	38.079615
2674.000000	38.075493
2673.000000	38.072092
2672.000000	38.070965
2671.000000	38.072890
2670.000000	38.078371
2669.000000	38.088729
2668.000000	38.105377
2667.000000	38.128098
2666.000000	38.155731
2665.000000	38.188415
2664.000000	38.227477
2663.000000	38.273405
2662.000000	38.325057
2661.000000	38.381053
2660.000000	38.440560
2659.000000	38.502340
2658.000000	38.564680
2657.000000	38.626499
2656.000000	38.687498
2655.000000	38.747186
2654.000000	38.804884
2653.000000	38.861039
2652.000000	38.917337
2651.000000	38.975150
2650.000000	39.034726
2649.000000	39.095916
2648.000000	39.158498
2647.000000	39.221482
2646.000000	39.283072
2645.000000	39.341659
2644.000000	39.396237
2643.000000	39.445894
2642.000000	39.490126
2641.000000	39.529847
2640.000000	39.566926
2639.000000	39.602597
2638.000000	39.637077
2637.000000	39.670762
2636.000000	39.704561
2635.000000	39.738547
2634.000000	39.771579
2633.000000	39.802657
2632.000000	39.831893
2631.000000	39.859928
2630.000000	39.887158
2629.000000	39.913832
2628.000000	39.939957
2627.000000	39.964850
2626.000000	39.987573
2625.000000	40.007815
2624.000000	40.025758
2623.000000	40.041204
2622.000000	40.053837
2621.000000	40.064409
2620.000000	40.074443
2619.000000	40.084791
2618.000000	40.095550
2617.000000	40.107322
2616.000000	40.121272
2615.000000	40.137578
2614.000000	40.154888
2613.000000	40.171514
2612.000000	40.186134
2611.000000	40.197362
2610.000000	40.203776
2609.000000	40.204927
2608.000000	40.201516
2607.000000	40.194371
2606.000000	40.184319
2605.000000	40.172702
2604.000000	40.160774
2603.000000	40.148399
2602.000000	40.134254
2601.000000	40.117631
2600.000000	40.098824
2599.000000	40.077872
2598.000000	40.054481
2597.000000	40.029498
2596.000000	40.005268
2595.000000	39.984174
2594.000000	39.967800
2593.000000	39.957519
2592.000000	39.954853
2591.000000	39.960619
2590.000000	39.974952
2589.000000	39.998362
2588.000000	40.031359
2587.000000	40.073615
2586.000000	40.124165
2585.000000	40.182896
2584.000000	40.250799
2583.000000	40.327885
2582.000000	40.412562
2581.000000	40.502726
2580.000000	40.596511
2579.000000	40.691886
2578.000000	40.786438
2577.000000	40.878720
2576.000000	40.968919
2575.000000	41.057906
2574.000000	41.146482
2573.000000	41.235635
2572.000000	41.326610
2571.000000	41.420047
2570.000000	41.515668
2569.000000	41.613012
2568.000000	41.711609
2567.000000	41.810231
2566.000000	41.906984
2565.000000	42.000643
2564.000000	42.091221
2563.000000	42.179097
2562.000000	42.264514
2561.000000	42.348225
2560.000000	42.431490
2559.000000	42.514659
2558.000000	42.596735
2557.000000	42.676716
2556.000000	42.754572
2555.000000	42.830588
2554.000000	42.904564
2553.000000	42.976411
2552.000000	43.046609
2551.000000	43.115563
2550.000000	43.183379
2549.000000	43.250424
2548.000000	43.317184
2547.000000	43.382960
2546.000000	43.445683
2545.000000	43.503811
2544.000000	43.557232
2543.000000	43.606177
2542.000000	43.650441
2541.000000	43.690305
2540.000000	43.727219
2539.000000	43.762198
2538.000000	43.794663
2537.000000	43.823443
2536.000000	43.847565
2535.000000	43.865635
2534.000000	43.875086
2533.000000	43.873632
2532.000000	43.860935
2531.000000	43.837811
2530.000000	43.805381
2529.000000	43.765264
2528.000000	43.719970
2527.000000	43.672238
2526.000000	43.624372
2525.000000	43.579079
2524.000000	43.539664
2523.000000	43.508543
2522.000000	43.486271
2521.000000	43.472966
2520.000000	43.469540
2519.000000	43.477362
2518.000000	43.497426
2517.000000	43.529852
2516.000000	43.574046
2515.000000	43.628074
2514.000000	43.689337
2513.000000	43.756395
2512.000000	43.828753
2511.000000	43.905384
2510.000000	43.984143
2509.000000	44.063509
2508.000000	44.143752
2507.000000	44.225325
2506.000000	44.307472
2505.000000	44.388919
2504.000000	44.468797
2503.000000	44.545943
2502.000000	44.618464
2501.000000	44.684973
2500.000000	44.745634
2499.000000	44.801234
2498.000000	44.852078
2497.000000	44.898964
2496.000000	44.943934
2495.000000	44.989054
2494.000000	45.035182
2493.000000	45.082398
2492.000000	45.130753
2491.000000	45.179459
2490.000000	45.226471
2489.000000	45.270004
2488.000000	45.309584
2487.000000	45.345113
2486.000000	45.375976
2485.000000	45.402233
2484.000000	45.425693
2483.000000	45.448416
2482.000000	45.471068
2481.000000	45.493478
2480.000000	45.515835
2479.000000	45.538466
2478.000000	45.561319
2477.000000	45.584705
2476.000000	45.609537
2475.000000	45.635948
2474.000000	45.662732
2473.000000	45.688940
2472.000000	45.714799
2471.000000	45.740097
2470.000000	45.762953
2469.000000	45.781513
2468.000000	45.795681
2467.000000	45.806325
2466.000000	45.814124
2465.000000	45.820431
2464.000000	45.828029
2463.000000	45.839464
2462.000000	45.855500
2461.000000	45.876159
2460.000000	45.901918
2459.000000	45.932342
2458.000000	45.964736
2457.000000	45.995595
2456.000000	46.022677
2455.000000	46.044714
2454.000000	46.060546
2453.000000	46.070263
2452.000000	46.076262
2451.000000	46.081621
2450.000000	46.088032
2449.000000	46.096457
2448.000000	46.108497
2447.000000	46.125480
2446.000000	46.146962
2445.000000	46.171583
2444.000000	46.198573
2443.000000	46.227356
2442.000000	46.256609
2441.000000	46.285023
2440.000000	46.312246
2439.000000	46.337864
2438.000000	46.360401
2437.000000	46.378591
2436.000000	46.392780
2435.000000	46.403850
2434.000000	46.412017
2433.000000	46.417997
2432.000000	46.424275
2431.000000	46.433807
2430.000000	46.448351
2429.000000	46.469134
2428.000000	46.497732
2427.000000	46.534545
2426.000000	46.576999
2425.000000	46.620774
2424.000000	46.662015
2423.000000	46.697580
2422.000000	46.724756
2421.000000	46.742758
2420.000000	46.753960
2419.000000	46.762227
2418.000000	46.770706
2417.000000	46.782060
2416.000000	46.799213
2415.000000	46.823885
2414.000000	46.855188
2413.000000	46.891067
2412.000000	46.930249
2411.000000	46.971366
2410.000000	47.011619
2409.000000	47.048252
2408.000000	47.080705
2407.000000	47.109834
2406.000000	47.135863
2405.000000	47.158597
2404.000000	47.178646
2403.000000	47.196866
2402.000000	47.213389
2401.000000	47.228871
2400.000000	47.245858
2399.000000	47.267445
2398.000000	47.295220
2397.000000	47.329733
2396.000000	47.371587
2395.000000	47.420380
2394.000000	47.473496
2393.000000	47.527339
2392.000000	47.579114
2391.000000	47.626372
2390.000000	47.666430
2389.000000	47.698048
2388.000000	47.723200
2387.000000	47.745509
2386.000000	47.768272
2385.000000	47.795187
2384.000000	47.830656
2383.000000	47.877729
2382.000000	47.935861
2381.000000	48.002619
2380.000000	48.076387
2379.000000	48.155181
2378.000000	48.235006
2377.000000	48.312103
2376.000000	48.385400
2375.000000	48.455387
2374.000000	48.521268
2373.000000	48.581859
2372.000000	48.638622
2371.000000	48.694170
2370.000000	48.748466
2369.000000	48.801127
2368.000000	48.854890
2367.000000	48.912383
2366.000000	48.971710
2365.000000	49.032260
2364.000000	49.099158
2363.000000	49.171446
2362.000000	49.244576
2361.000000	49.316287
2360.000000	49.384990
2359.000000	49.453926
2358.000000	49.516387
2357.000000	49.566013
2356.000000	49.603501
2355.000000	49.628856
2354.000000	49.648813
2353.000000	49.676132
2352.000000	49.737472
2351.000000	49.837662
2350.000000	49.947282
2349.000000	50.038929
2348.000000	50.103160
2347.000000	50.163841
2346.000000	50.239211
2345.000000	50.328258
2344.000000	50.415475
2343.000000	50.481378
2342.000000	50.532272
2341.000000	50.572136
2340.000000	50.608405
2339.000000	50.645694
2338.000000	50.691206
2337.000000	50.750034
2336.000000	50.826459
2335.000000	50.916965
2334.000000	51.014102
2333.000000	51.106116
2332.000000	51.192030
2331.000000	51.275225
2330.000000	51.353413
2329.000000	51.432045
2328.000000	51.505350
2327.000000	51.578912
2326.000000	51.645921
2325.000000	51.705578
2324.000000	51.760596
2323.000000	51.812300
2322.000000	51.866054
2321.000000	51.919295
2320.000000	51.977911
2319.000000	52.042978
2318.000000	52.115280
2317.000000	52.190492
2316.000000	52.265823
2315.000000	52.340934
2314.000000	52.412290
2313.000000	52.477507
2312.000000	52.533162
2311.000000	52.582033
2310.000000	52.624450
2309.000000	52.664991
2308.000000	52.707747
2307.000000	52.759239
2306.000000	52.820538
2305.000000	52.890880
2304.000000	52.968740
2303.000000	53.052519
2302.000000	53.137027
2301.000000	53.216807
2300.000000	53.288519
2299.000000	53.353414
2298.000000	53.411026
2297.000000	53.462544
2296.000000	53.509782
2295.000000	53.558026
2294.000000	53.608882
2293.000000	53.663254
2292.000000	53.721468
2291.000000	53.784476
2290.000000	53.849788
2289.000000	53.914067
2288.000000	53.976965
2287.000000	54.040686
2286.000000	54.105877
2285.000000	54.170772
2284.000000	54.234708
2283.000000	54.297497
2282.000000	54.357333
2281.000000	54.410931
2280.000000	54.457623
2279.000000	54.498633
2278.000000	54.534800
2277.000000	54.566924
2276.000000	54.599073
2275.000000	54.637264
2274.000000	54.684678
2273.000000	54.741494
2272.000000	54.807266
2271.000000	54.880485
2270.000000	54.955419
2269.000000	55.023996
2268.000000	55.081037
2267.000000	55.124982
2266.000000	55.154864
2265.000000	55.171239
2264.000000	55.179182
2263.000000	55.187138
2262.000000	55.201170
2261.000000	55.223895
2260.000000	55.257428
2259.000000	55.302567
2258.000000	55.356084
2257.000000	55.411380
2256.000000	55.463666
2255.000000	55.510429
2254.000000	55.548810
2253.000000	55.576201
2252.000000	55.593327
2251.000000	55.603628
2250.000000	55.608788
2249.000000	55.609465
2248.000000	55.607601
2247.000000	55.605763
2246.000000	55.603976
2245.000000	55.600617
2244.000000	55.597098
2243.000000	55.597071
2242.000000	55.602050
2241.000000	55.611190
2240.000000	55.624472
2239.000000	55.641769
2238.000000	55.659147
2237.000000	55.669905
2236.000000	55.669371
2235.000000	55.655380
2234.000000	55.625621
2233.000000	55.579293
2232.000000	55.521286
2231.000000	55.460699
2230.000000	55.405101
2229.000000	55.359323
2228.000000	55.328017
2227.000000	55.314349
2226.000000	55.315813
2225.000000	55.324978
2224.000000	55.334576
2223.000000	55.339058
2222.000000	55.332677
2221.000000	55.310915
2220.000000	55.274214
2219.000000	55.226987
2218.000000	55.173417
2217.000000	55.117347
2216.000000	55.064763
2215.000000	55.021642
2214.000000	54.989569
2213.000000	54.966809
2212.000000	54.952891
2211.000000	54.948424
2210.000000	54.951417
2209.000000	54.958140
2208.000000	54.967101
2207.000000	54.978417
2206.000000	54.989691
2205.000000	54.996643
2204.000000	54.997287
2203.000000	54.991764
2202.000000	54.978976
2201.000000	54.957739
2200.000000	54.930955
2199.000000	54.904782
2198.000000	54.884223
2197.000000	54.873046
2196.000000	54.876616
2195.000000	54.899586
2194.000000	54.940602
2193.000000	54.992770
2192.000000	55.048963
2191.000000	55.103062
2190.000000	55.147585
2189.000000	55.175477
2188.000000	55.185001
2187.000000	55.179506
2186.000000	55.162978
2185.000000	55.139815
2184.000000	55.117535
2183.000000	55.104454
2182.000000	55.104129
2181.000000	55.115585
2180.000000	55.137793
2179.000000	55.169670
2178.000000	55.206591
2177.000000	55.241898
2176.000000	55.272060
2175.000000	55.296525
2174.000000	55.313269
2173.000000	55.319271
2172.000000	55.315162
2171.000000	55.304645
2170.000000	55.289589
2169.000000	55.270019
2168.000000	55.248608
2167.000000	55.230469
2166.000000	55.218639
2165.000000	55.213828
2164.000000	55.218102
2163.000000	55.234288
2162.000000	55.261619
2161.000000	55.295874
2160.000000	55.333306
2159.000000	55.370377
2158.000000	55.400495
2157.000000	55.416426
2156.000000	55.416343
2155.000000	55.403785
2154.000000	55.382463
2153.000000	55.355702
2152.000000	55.329916
2151.000000	55.313192
2150.000000	55.309771
2149.000000	55.319439
2148.000000	55.341441
2147.000000	55.374205
2146.000000	55.411759
2145.000000	55.445850
2144.000000	55.472270
2143.000000	55.490916
2142.000000	55.500765
2141.000000	55.499942
2140.000000	55.490271
2139.000000	55.476484
2138.000000	55.460793
2137.000000	55.443037
2136.000000	55.425876
2135.000000	55.414606
2134.000000	55.411489
2133.000000	55.415092
2132.000000	55.425056
2131.000000	55.442834
2130.000000	55.467458
2129.000000	55.495036
2128.000000	55.522588
2127.000000	55.548290
2126.000000	55.568225
2125.000000	55.577588
2124.000000	55.575558
2123.000000	55.565063
2122.000000	55.548632
2121.000000	55.529184
2120.000000	55.513889
2119.000000	55.511367
2118.000000	55.524712
2117.000000	55.551318
2116.000000	55.588630
2115.000000	55.635048
2114.000000	55.685773
2113.000000	55.733563
2112.000000	55.774564
2111.000000	55.809120
2110.000000	55.837275
2109.000000	55.858781
2108.000000	55.877320
2107.000000	55.899455
2106.000000	55.929028
2105.000000	55.966787
2104.000000	56.014551
2103.000000	56.074622
2102.000000	56.145150
2101.000000	56.221499
2100.000000	56.302111
2099.000000	56.388217
2098.000000	56.478296
2097.000000	56.567685
2096.000000	56.654383
2095.000000	56.740061
2094.000000	56.824723
2093.000000	56.905223
2092.000000	56.979153
2091.000000	57.045873
2090.000000	57.104470
2089.000000	57.155915
2088.000000	57.206773
2087.000000	57.265314
2086.000000	57.333876
2085.000000	57.409332
2084.000000	57.489358
2083.000000	57.572519
2082.000000	57.652778
2081.000000	57.720777
2080.000000	57.771114
2079.000000	57.803394
2078.000000	57.817788
2077.000000	57.815067
2076.000000	57.801361
2075.000000	57.786363
2074.000000	57.775840
2073.000000	57.771467
2072.000000	57.775433
2071.000000	57.789767
2070.000000	57.812341
2069.000000	57.838312
2068.000000	57.864159
2067.000000	57.885236
2066.000000	57.893271
2065.000000	57.884149
2064.000000	57.866025
2063.000000	57.851890
2062.000000	57.846046
2061.000000	57.844675
2060.000000	57.846745
2059.000000	57.855903
2058.000000	57.872852
2057.000000	57.894713
2056.000000	57.922427
2055.000000	57.960614
2054.000000	58.010080
2053.000000	58.068079
2052.000000	58.134877
2051.000000	58.212539
2050.000000	58.297559
2049.000000	58.381738
2048.000000	58.460187
2047.000000	58.533219
2046.000000	58.601557
2045.000000	58.665701
2044.000000	58.729774
2043.000000	58.799718
2042.000000	58.878481
2041.000000	58.968816
2040.000000	59.078153
2039.000000	59.213103
2038.000000	59.369737
2037.000000	59.535534
2036.000000	59.700495
2035.000000	59.859895
2034.000000	60.008282
2033.000000	60.140328
2032.000000	60.258994
2031.000000	60.373887
2030.000000	60.491344
2029.000000	60.612984
2028.000000	60.742624
2027.000000	60.886065
2026.000000	61.042439
2025.000000	61.205028
2024.000000	61.369932
2023.000000	61.537826
2022.000000	61.708320
2021.000000	61.878903
2020.000000	62.048852
2019.000000	62.215961
2018.000000	62.371657
2017.000000	62.508954
2016.000000	62.632963
2015.000000	62.753572
2014.000000	62.871066
2013.000000	62.978471
2012.000000	63.075987
2011.000000	63.172353
2010.000000	63.273125
2009.000000	63.378415
2008.000000	63.492298
2007.000000	63.622910
2006.000000	63.769542
2005.000000	63.921940
2004.000000	64.070954
2003.000000	64.211758
2002.000000	64.336467
2001.000000	64.434264
2000.000000	64.504981
1999.000000	64.558289
1998.000000	64.601734
1997.000000	64.642459
1996.000000	64.695671
1995.000000	64.775792
1994.000000	64.878319
1993.000000	64.984708
1992.000000	65.088122
1991.000000	65.196174
1990.000000	65.306056
1989.000000	65.400777
1988.000000	65.472243
1987.000000	65.530558
1986.000000	65.586625
1985.000000	65.640947
1984.000000	65.692678
1983.000000	65.745770
1982.000000	65.800032
1981.000000	65.848262
1980.000000	65.889387
1979.000000	65.929770
1978.000000	65.971621
1977.000000	66.012587
1976.000000	66.057455
1975.000000	66.116998
1974.000000	66.192540
1973.000000	66.275357
1972.000000	66.362304
1971.000000	66.457721
1970.000000	66.556478
1969.000000	66.637450
1968.000000	66.680007
1967.000000	66.683323
1966.000000	66.664228
1965.000000	66.641673
1964.000000	66.631083
1963.000000	66.643037
1962.000000	66.677931
1961.000000	66.729763
1960.000000	66.796613
1959.000000	66.878184
1958.000000	66.964739
1957.000000	67.038641
1956.000000	67.090195
1955.000000	67.122234
1954.000000	67.139722
1953.000000	67.146246
1952.000000	67.148640
1951.000000	67.158561
1950.000000	67.182142
1949.000000	67.214072
1948.000000	67.247740
1947.000000	67.281929
1946.000000	67.316643
1945.000000	67.349566
1944.000000	67.376447
1943.000000	67.394845
1942.000000	67.410998
1941.000000	67.435540
1940.000000	67.473439
1939.000000	67.521490
1938.000000	67.568850
1937.000000	67.604451
1936.000000	67.627048
1935.000000	67.638282
1934.000000	67.632848
1933.000000	67.607677
1932.000000	67.572146
1931.000000	67.546425
1930.000000	67.540641
1929.000000	67.550313
1928.000000	67.576464
1927.000000	67.628238
1926.000000	67.708941
1925.000000	67.797025
1924.000000	67.852030
1923.000000	67.849742
1922.000000	67.800158
1921.000000	67.729924
1920.000000	67.664426
1919.000000	67.620305
1918.000000	67.602677
1917.000000	67.608521
1916.000000	67.630207
1915.000000	67.657330
1914.000000	67.680599
1913.000000	67.699068
1912.000000	67.717109
1911.000000	67.733028
1910.000000	67.730809
1909.000000	67.700931
1908.000000	67.660565
1907.000000	67.632450
1906.000000	67.622903
1905.000000	67.620833
1904.000000	67.617018
1903.000000	67.613551
1902.000000	67.606249
1901.000000	67.585514
1900.000000	67.556032
1899.000000	67.534160
1898.000000	67.529057
1897.000000	67.533207
1896.000000	67.536019
1895.000000	67.539625
1894.000000	67.550825
1893.000000	67.570255
1892.000000	67.598002
1891.000000	67.629181
1890.000000	67.646620
1889.000000	67.643895
1888.000000	67.635751
1887.000000	67.633206
1886.000000	67.629707
1885.000000	67.617102
1884.000000	67.605625
1883.000000	67.615948
1882.000000	67.648601
1881.000000	67.683166
1880.000000	67.707937
1879.000000	67.724495
1878.000000	67.731052
1877.000000	67.721961
1876.000000	67.700380
1875.000000	67.676904
1874.000000	67.651947
1873.000000	67.617953
1872.000000	67.585823
1871.000000	67.587950
1870.000000	67.631658
1869.000000	67.677120
1868.000000	67.696589
1867.000000	67.698825
1866.000000	67.687941
1865.000000	67.660481
1864.000000	67.627606
1863.000000	67.606844
1862.000000	67.598316
1861.000000	67.587695
1860.000000	67.570179
1859.000000	67.552649
1858.000000	67.533239
1857.000000	67.502983
1856.000000	67.464014
1855.000000	67.428687
1854.000000	67.398095
1853.000000	67.364208
1852.000000	67.340314
1851.000000	67.343609
1850.000000	67.360121
1849.000000	67.353920
1848.000000	67.309777
1847.000000	67.244497
1846.000000	67.179699
1845.000000	67.128106
1844.000000	67.093786
1843.000000	67.074575
1842.000000	67.054978
1841.000000	67.019234
1840.000000	66.972268
1839.000000	66.930749
1838.000000	66.899622
1837.000000	66.866227
1836.000000	66.823104
1835.000000	66.771865
1834.000000	66.703739
1833.000000	66.615152
1832.000000	66.537686
1831.000000	66.491099
1830.000000	66.448132
1829.000000	66.389573
1828.000000	66.323282
1827.000000	66.259521
1826.000000	66.197914
1825.000000	66.135025
1824.000000	66.081231
1823.000000	66.041892
1822.000000	65.999984
1821.000000	65.943898
1820.000000	65.886870
1819.000000	65.843721
1818.000000	65.808451
1817.000000	65.763276
1816.000000	65.709917
1815.000000	65.663956
1814.000000	65.619493
1813.000000	65.556357
1812.000000	65.465699
1811.000000	65.362903
1810.000000	65.267370
1809.000000	65.175091
1808.000000	65.080024
1807.000000	64.993075
1806.000000	64.924739
1805.000000	64.869013
1804.000000	64.818142
1803.000000	64.771404
1802.000000	64.719149
1801.000000	64.660854
1800.000000	64.619962
1799.000000	64.610158
1798.000000	64.597993
1797.000000	64.529925
1796.000000	64.397240
1795.000000	64.239553
1794.000000	64.101922
1793.000000	63.997023
1792.000000	63.912633
1791.000000	63.855887
1790.000000	63.826106
1789.000000	63.793985
1788.000000	63.747881
1787.000000	63.704060
1786.000000	63.674442
1785.000000	63.647821
1784.000000	63.621723
1783.000000	63.608217
1782.000000	63.584553
1781.000000	63.514152
1780.000000	63.401524
1779.000000	63.284742
1778.000000	63.179826
1777.000000	63.079965
1776.000000	62.995636
1775.000000	62.933519
1774.000000	62.874396
1773.000000	62.788938
1772.000000	62.688002
1771.000000	62.628407
1770.000000	62.619290
1769.000000	62.599972
1768.000000	62.533296
1767.000000	62.443562
1766.000000	62.353785
1765.000000	62.250592
1764.000000	62.128133
1763.000000	62.011424
1762.000000	61.917891
1761.000000	61.840962
1760.000000	61.764625
1759.000000	61.686684
1758.000000	61.601367
1757.000000	61.507212
1756.000000	61.444128
1755.000000	61.446285
1754.000000	61.482753
1753.000000	61.487243
1752.000000	61.438648
1751.000000	61.364698
1750.000000	61.280854
1749.000000	61.166109
1748.000000	61.020931
1747.000000	60.875724
1746.000000	60.730958
1745.000000	60.557449
1744.000000	60.339721
1743.000000	60.107516
1742.000000	59.911889
1741.000000	59.777184
1740.000000	59.687362
1739.000000	59.619600
1738.000000	59.569956
1737.000000	59.517277
1736.000000	59.437508
1735.000000	59.341273
1734.000000	59.199057
1733.000000	58.969929
1732.000000	58.687474
1731.000000	58.414908
1730.000000	58.162276
1729.000000	57.909481
1728.000000	57.670598
1727.000000	57.463273
1726.000000	57.272451
1725.000000	57.069932
1724.000000	56.836470
1723.000000	56.577333
1722.000000	56.322056
1721.000000	56.114110
1720.000000	55.999881
1719.000000	55.955695
1718.000000	55.829148
1717.000000	55.502904
1716.000000	55.048851
1715.000000	54.613015
1714.000000	54.257507
1713.000000	53.946801
1712.000000	53.638686
1711.000000	53.331216
1710.000000	53.021333
1709.000000	52.698886
1708.000000	52.389074
1707.000000	52.116952
1706.000000	51.844193
1705.000000	51.519617
1704.000000	51.156910
1703.000000	50.747274
1702.000000	50.277969
1701.000000	49.873433
1700.000000	49.641225
1699.000000	49.560070
1698.000000	49.504463
1697.000000	49.260100
1696.000000	48.771390
1695.000000	48.232525
1694.000000	47.790959
1693.000000	47.448642
1692.000000	47.146720
1691.000000	46.829680
1690.000000	46.492636
1689.000000	46.172235
1688.000000	45.911138
1687.000000	45.657653
1686.000000	45.317334
1685.000000	44.806551
1684.000000	44.162084
1683.000000	43.627897
1682.000000	43.266940
1681.000000	42.919380
1680.000000	42.491328
1679.000000	42.012646
1678.000000	41.541335
1677.000000	41.081853
1676.000000	40.647257
1675.000000	40.274496
1674.000000	39.956447
1673.000000	39.639904
1672.000000	39.287215
1671.000000	38.897958
1670.000000	38.477773
1669.000000	38.040899
1668.000000	37.623685
1667.000000	37.243264
1666.000000	36.877200
1665.000000	36.496201
1664.000000	36.104217
1663.000000	35.734024
1662.000000	35.401101
1661.000000	35.086799
1660.000000	34.767051
1659.000000	34.433934
1658.000000	34.098364
1657.000000	33.790051
1656.000000	33.517389
1655.000000	33.263870
1654.000000	32.958965
1653.000000	32.549584
1652.000000	32.107923
1651.000000	31.702060
1650.000000	31.382146
1649.000000	31.134104
1648.000000	30.862254
1647.000000	30.526737
1646.000000	30.192332
1645.000000	29.889987
1644.000000	29.598234
1643.000000	29.329155
1642.000000	29.071577
1641.000000	28.794835
1640.000000	28.510027
1639.000000	28.254730
1638.000000	28.025969
1637.000000	27.762714
1636.000000	27.444305
1635.000000	27.160321
1634.000000	26.958904
1633.000000	26.787689
1632.000000	26.607629
1631.000000	26.420233
1630.000000	26.238804
1629.000000	26.061358
1628.000000	25.882352
1627.000000	25.715247
1626.000000	25.564729
1625.000000	25.418683
1624.000000	25.273219
1623.000000	25.142549
1622.000000	25.036658
1621.000000	24.950172
1620.000000	24.887906
1619.000000	24.856522
1618.000000	24.837262
1617.000000	24.789542
1616.000000	24.704554
1615.000000	24.622354
1614.000000	24.571274
1613.000000	24.539185
1612.000000	24.510032
1611.000000	24.493232
1610.000000	24.495555
1609.000000	24.499713
1608.000000	24.496070
1607.000000	24.502268
1606.000000	24.528085
1605.000000	24.561745
1604.000000	24.597406
1603.000000	24.643349
1602.000000	24.701710
1601.000000	24.761208
1600.000000	24.819661
1599.000000	24.889096
1598.000000	24.972091
1597.000000	25.054511
1596.000000	25.126823
1595.000000	25.195168
1594.000000	25.263008
1593.000000	25.321960
1592.000000	25.369798
1591.000000	25.417937
1590.000000	25.472383
1589.000000	25.527246
1588.000000	25.582778
1587.000000	25.651238
1586.000000	25.736230
1585.000000	25.823343
1584.000000	25.907419
1583.000000	25.994858
1582.000000	26.080962
1581.000000	26.158081
1580.000000	26.243224
1579.000000	26.358597
1578.000000	26.486623
1577.000000	26.573336
1576.000000	26.590654
1575.000000	26.567534
1574.000000	26.539133
1573.000000	26.520219
1572.000000	26.518083
1571.000000	26.560236
1570.000000	26.663079
1569.000000	26.793315
1568.000000	26.911758
1567.000000	27.008646
1566.000000	27.095777
1565.000000	27.180944
1564.000000	27.263641
1563.000000	27.334314
1562.000000	27.346160
1561.000000	27.314822
1560.000000	27.380023
1559.000000	27.506327
1558.000000	27.668013
1557.000000	27.842684
1556.000000	27.986080
1555.000000	28.128621
1554.000000	28.277466
1553.000000	28.433429
1552.000000	28.595970
1551.000000	28.771839
1550.000000	28.955104
1549.000000	29.129330
1548.000000	29.284942
1547.000000	29.436785
1546.000000	29.610964
1545.000000	29.801937
1544.000000	29.989180
1543.000000	30.198228
1542.000000	30.502365
1541.000000	30.905083
1540.000000	31.320891
1539.000000	31.696601
1538.000000	31.970957
1537.000000	32.149335
1536.000000	32.325574
1535.000000	32.586880
1534.000000	32.968665
1533.000000	33.414220
1532.000000	33.836605
1531.000000	34.196850
1530.000000	34.517712
1529.000000	34.845013
1528.000000	35.203327
1527.000000	35.591554
1526.000000	35.995265
1525.000000	36.402837
1524.000000	36.831082
1523.000000	37.317764
1522.000000	37.855800
1521.000000	38.370373
1520.000000	38.803239
1519.000000	39.199316
1518.000000	39.638848
1517.000000	40.108718
1516.000000	40.551113
1515.000000	40.949204
1514.000000	41.311657
1513.000000	41.656538
1512.000000	41.999476
1511.000000	42.360314
1510.000000	42.758755
1509.000000	43.210438
1508.000000	43.670211
1507.000000	44.087714
1506.000000	44.605580
1505.000000	45.141727
1504.000000	45.543816
1503.000000	45.891489
1502.000000	46.242784
1501.000000	46.607787
1500.000000	47.022942
1499.000000	47.542457
1498.000000	48.154497
1497.000000	48.770256
1496.000000	49.305856
1495.000000	49.744731
1494.000000	50.113901
1493.000000	50.457805
1492.000000	50.851306
1491.000000	51.357481
1490.000000	51.916864
1489.000000	52.419229
1488.000000	52.848854
1487.000000	53.257862
1486.000000	53.655028
1485.000000	53.986992
1484.000000	54.241912
1483.000000	54.453943
1482.000000	54.620120
1481.000000	54.693020
1480.000000	54.664699
1479.000000	54.580205
1478.000000	54.460750
1477.000000	54.285839
1476.000000	54.042074
1475.000000	53.722088
1474.000000	53.218853
1473.000000	52.358980
1472.000000	51.184340
1471.000000	49.913945
1470.000000	48.582264
1469.000000	47.063766
1468.000000	45.285995
1467.000000	43.223564
1466.000000	40.776753
1465.000000	37.891711
1464.000000	34.826501
1463.000000	31.939272
1462.000000	29.305762
1461.000000	26.832781
1460.000000	24.483978
1459.000000	22.219848
1458.000000	19.876718
1457.000000	17.491578
1456.000000	15.556266
1455.000000	14.342968
1454.000000	13.607318
1453.000000	13.097441
1452.000000	12.775018
1451.000000	12.679328
1450.000000	12.791853
1449.000000	13.085473
1448.000000	13.584540
1447.000000	14.272272
1446.000000	15.049187
1445.000000	15.855832
1444.000000	16.726398
1443.000000	17.685414
1442.000000	18.681900
1441.000000	19.650071
1440.000000	20.581808
1439.000000	21.527687
1438.000000	22.592207
1437.000000	23.875699
1436.000000	25.307644
1435.000000	26.670205
1434.000000	27.873876
1433.000000	29.014141
1432.000000	30.205635
1431.000000	31.473411
1430.000000	32.759153
1429.000000	33.992129
1428.000000	35.115821
1427.000000	36.105525
1426.000000	36.989467
1425.000000	37.812980
1424.000000	38.569395
1423.000000	39.214300
1422.000000	39.751675
1421.000000	40.264482
1420.000000	40.860126
1419.000000	41.531944
1418.000000	42.186986
1417.000000	42.795643
1416.000000	43.382462
1415.000000	43.968805
1414.000000	44.576344
1413.000000	45.225039
1412.000000	45.906059
1411.000000	46.585668
1410.000000	47.249418
1409.000000	47.907445
1408.000000	48.555496
1407.000000	49.180574
1406.000000	49.785715
1405.000000	50.375934
1404.000000	50.922903
1403.000000	51.381707
1402.000000	51.763670
1401.000000	52.142820
1400.000000	52.569979
1399.000000	53.017729
1398.000000	53.442533
1397.000000	53.835011
1396.000000	54.186746
1395.000000	54.483602
1394.000000	54.730542
1393.000000	54.926120
1392.000000	55.033652
1391.000000	55.025239
1390.000000	54.913946
1389.000000	54.707613
1388.000000	54.359605
1387.000000	53.851859
1386.000000	53.321585
1385.000000	52.981593
1384.000000	52.949896
1383.000000	53.207898
1382.000000	53.641326
1381.000000	54.089117
1380.000000	54.407756
1379.000000	54.538712
1378.000000	54.527664
1377.000000	54.460440
1376.000000	54.378750
1375.000000	54.270969
1374.000000	54.133657
1373.000000	53.997681
1372.000000	53.866076
1371.000000	53.706897
1370.000000	53.502186
1369.000000	53.253538
1368.000000	52.966047
1367.000000	52.650413
1366.000000	52.327617
1365.000000	52.004302
1364.000000	51.638780
1363.000000	51.167940
1362.000000	50.595771
1361.000000	49.988922
1360.000000	49.390494
1359.000000	48.821009
1358.000000	48.326347
1357.000000	47.967985
1356.000000	47.784074
1355.000000	47.781850
1354.000000	47.948170
1353.000000	48.241849
1352.000000	48.581776
1351.000000	48.873780
1350.000000	49.039507
1349.000000	49.020530
1348.000000	48.773030
1347.000000	48.277451
1346.000000	47.543684
1345.000000	46.596828
1344.000000	45.467213
1343.000000	44.183639
1342.000000	42.757316
1341.000000	41.159596
1340.000000	39.351565
1339.000000	37.362836
1338.000000	35.284799
1337.000000	33.178159
1336.000000	31.044723
1335.000000	28.881568
1334.000000	26.712706
1333.000000	24.569757
1332.000000	22.485466
1331.000000	20.511852
1330.000000	18.708864
1329.000000	17.106477
1328.000000	15.701882
1327.000000	14.481387
1326.000000	13.419301
1325.000000	12.473737
1324.000000	11.607597
1323.000000	10.813755
1322.000000	10.099959
1321.000000	9.463793
1320.000000	8.908114
1319.000000	8.459803
1318.000000	8.154145
1317.000000	8.007553
1316.000000	8.021590
1315.000000	8.202184
1314.000000	8.546473
1313.000000	9.029640
1312.000000	9.621941
1311.000000	10.305946
1310.000000	11.071427
1309.000000	11.900658
1308.000000	12.774094
1307.000000	13.680699
1306.000000	14.609465
1305.000000	15.542710
1304.000000	16.464287
1303.000000	17.368156
1302.000000	18.252773
1301.000000	19.112450
1300.000000	19.939316
1299.000000	20.727972
1298.000000	21.471584
1297.000000	22.158874
1296.000000	22.786001
1295.000000	23.370306
1294.000000	23.947449
1293.000000	24.556124
1292.000000	25.227505
1291.000000	25.982412
1290.000000	26.829202
1289.000000	27.760730
1288.000000	28.757540
1287.000000	29.797430
1286.000000	30.859971
1285.000000	31.923662
1284.000000	32.962465
1283.000000	33.948937
1282.000000	34.860234
1281.000000	35.679202
1280.000000	36.392246
1279.000000	36.995498
1278.000000	37.503458
1277.000000	37.941970
1276.000000	38.338358
1275.000000	38.722086
1274.000000	39.127871
1273.000000	39.587406
1272.000000	40.116998
1271.000000	40.719463
1270.000000	41.393959
1269.000000	42.134871
1268.000000	42.924517
1267.000000	43.739646
1266.000000	44.564851
1265.000000	45.392188
1264.000000	46.210356
1263.000000	47.005704
1262.000000	47.772921
1261.000000	48.510814
1260.000000	49.208875
1259.000000	49.851634
1258.000000	50.436951
1257.000000	50.971818
1256.000000	51.454957
1255.000000	51.880043
1254.000000	52.251353
1253.000000	52.581468
1252.000000	52.870809
1251.000000	53.108192
1250.000000	53.289321
1249.000000	53.415730
1248.000000	53.482020
1247.000000	53.477239
1246.000000	53.400594
1245.000000	53.261813
1244.000000	53.065286
1243.000000	52.812972
1242.000000	52.515538
1241.000000	52.185754
1240.000000	51.824902
1239.000000	51.427084
1238.000000	50.996616
1237.000000	50.546063
1236.000000	50.083074
1235.000000	49.614246
1234.000000	49.156954
1233.000000	48.733730
1232.000000	48.358500
1231.000000	48.039220
1230.000000	47.786963
1229.000000	47.612977
1228.000000	47.516710
1227.000000	47.489335
1226.000000	47.527120
1225.000000	47.628534
1224.000000	47.786929
1223.000000	47.993111
1222.000000	48.244409
1221.000000	48.542758
1220.000000	48.882531
1219.000000	49.253981
1218.000000	49.653690
1217.000000	50.081473
1216.000000	50.530353
1215.000000	50.988911
1214.000000	51.453871
1213.000000	51.927917
1212.000000	52.406851
1211.000000	52.881926
1210.000000	53.352796
1209.000000	53.824652
1208.000000	54.293339
1207.000000	54.747275
1206.000000	55.183064
1205.000000	55.605895
1204.000000	56.015299
1203.000000	56.406206
1202.000000	56.783895
1201.000000	57.161940
1200.000000	57.546123
1199.000000	57.933924
1198.000000	58.328052
1197.000000	58.734805
1196.000000	59.148744
1195.000000	59.555281
1194.000000	59.947772
1193.000000	60.327186
1192.000000	60.687884
1191.000000	61.020480
1190.000000	61.328954
1189.000000	61.627054
1188.000000	61.918150
1187.000000	62.196764
1186.000000	62.467428
1185.000000	62.743634
1184.000000	63.026673
1183.000000	63.302387
1182.000000	63.560852
1181.000000	63.803278
1180.000000	64.031658
1179.000000	64.248749
1178.000000	64.465359
1177.000000	64.689230
1176.000000	64.906157
1175.000000	65.090490
1174.000000	65.232671
1173.000000	65.339351
1172.000000	65.413746
1171.000000	65.455762
1170.000000	65.479681
1169.000000	65.510259
1168.000000	65.559858
1167.000000	65.627255
1166.000000	65.714755
1165.000000	65.826274
1164.000000	65.949717
1163.000000	66.061114
1162.000000	66.147357
1161.000000	66.208063
1160.000000	66.239179
1159.000000	66.236153
1158.000000	66.210894
1157.000000	66.185712
1156.000000	66.170389
1155.000000	66.162467
1154.000000	66.166130
1153.000000	66.190033
1152.000000	66.229114
1151.000000	66.269334
1150.000000	66.310373
1149.000000	66.364515
1148.000000	66.435660
1147.000000	66.517638
1146.000000	66.610423
1145.000000	66.716907
1144.000000	66.824375
1143.000000	66.908922
1142.000000	66.958539
1141.000000	66.975156
1140.000000	66.957983
1139.000000	66.907191
1138.000000	66.841579
1137.000000	66.792252
1136.000000	66.778247
1135.000000	66.803657
1134.000000	66.872463
1133.000000	66.984626
1132.000000	67.118389
1131.000000	67.236788
1130.000000	67.313285
1129.000000	67.337224
1128.000000	67.299325
1127.000000	67.194181
1126.000000	67.036980
1125.000000	66.854189
1124.000000	66.659880
1123.000000	66.455084
1122.000000	66.244269
1121.000000	66.033066
1120.000000	65.810510
1119.000000	65.556595
1118.000000	65.265495
1117.000000	64.943927
1116.000000	64.592312
1115.000000	64.203454
1114.000000	63.777287
1113.000000	63.314889
1112.000000	62.797301
1111.000000	62.194087
1110.000000	61.485123
1109.000000	60.664305
1108.000000	59.727174
1107.000000	58.671679
1106.000000	57.515662
1105.000000	56.286976
1104.000000	55.001689
1103.000000	53.662452
1102.000000	52.264840
1101.000000	50.796987
1100.000000	49.232662
1099.000000	47.541513
1098.000000	45.709518
1097.000000	43.735823
1096.000000	41.627352
1095.000000	39.400604
1094.000000	37.083753
1093.000000	34.710153
1092.000000	32.310113
1091.000000	29.915427
1090.000000	27.560381
1089.000000	25.277446
1088.000000	23.096001
1087.000000	21.047691
1086.000000	19.157328
1085.000000	17.436400
1084.000000	15.891930
1083.000000	14.524655
1082.000000	13.327002
1081.000000	12.280116
1080.000000	11.366018
1079.000000	10.576289
1078.000000	9.894819
1077.000000	9.299752
1076.000000	8.776316
1075.000000	8.319284
1074.000000	7.922856
1073.000000	7.574066
1072.000000	7.267294
1071.000000	7.005777
1070.000000	6.786642
1069.000000	6.600371
1068.000000	6.443154
1067.000000	6.320458
1066.000000	6.233097
1065.000000	6.173151
1064.000000	6.138741
1063.000000	6.135463
1062.000000	6.163954
1061.000000	6.217889
1060.000000	6.295891
1059.000000	6.404495
1058.000000	6.544746
1057.000000	6.711247
1056.000000	6.904885
1055.000000	7.132390
1054.000000	7.394463
1053.000000	7.684225
1052.000000	8.000487
1051.000000	8.349675
1050.000000	8.731265
1049.000000	9.137616
1048.000000	9.566440
1047.000000	10.022509
1046.000000	10.506887
1045.000000	11.014978
1044.000000	11.548405
1043.000000	12.114823
1042.000000	12.716927
1041.000000	13.351892
1040.000000	14.018715
1039.000000	14.719699
1038.000000	15.452554
1037.000000	16.210399
1036.000000	16.990405
1035.000000	17.792135
1034.000000	18.610742
1033.000000	19.437787
1032.000000	20.268869
1031.000000	21.104794
1030.000000	21.944840
1029.000000	22.785449
1028.000000	23.624512
1027.000000	24.462542
1026.000000	25.300021
1025.000000	26.137288
1024.000000	26.976627
1023.000000	27.821563
1022.000000	28.673962
1021.000000	29.532451
1020.000000	30.392798
1019.000000	31.248315
1018.000000	32.090623
1017.000000	32.911070
1016.000000	33.700933
1015.000000	34.454199
1014.000000	35.171633
1013.000000	35.861412
1012.000000	36.536016
1011.000000	37.208712
1010.000000	37.892101
1009.000000	38.593927
1008.000000	39.311900
1007.000000	40.035684
1006.000000	40.753279
1005.000000	41.453136
1004.000000	42.122253
1003.000000	42.750034
1002.000000	43.337265
1001.000000	43.894853
1000.000000	44.434268
999.000000	44.964123
998.000000	45.493791
997.000000	46.032164
996.000000	46.579475
995.000000	47.127606
994.000000	47.669562
993.000000	48.201928
992.000000	48.719805
991.000000	49.218078
990.000000	49.699645
989.000000	50.174575
988.000000	50.648783
987.000000	51.121331
986.000000	51.590091
985.000000	52.050902
984.000000	52.492112
983.000000	52.899916
982.000000	53.272569
981.000000	53.621147
980.000000	53.958322
979.000000	54.296552
978.000000	54.654056
977.000000	55.048774
976.000000	55.482879
975.000000	55.941008
974.000000	56.403226
973.000000	56.848636
972.000000	57.250900
971.000000	57.586810
970.000000	57.854037
969.000000	58.071813
968.000000	58.263563
967.000000	58.451253
966.000000	58.661844
965.000000	58.920980
964.000000	59.235701
963.000000	59.592245
962.000000	59.970157
961.000000	60.348218
960.000000	60.699737
959.000000	61.000278
958.000000	61.244260
957.000000	61.444184
956.000000	61.613773
955.000000	61.762883
954.000000	61.907170
953.000000	62.063383
952.000000	62.233729
951.000000	62.407927
950.000000	62.580338
949.000000	62.752978
948.000000	62.924479
947.000000	63.092486
946.000000	63.267033
945.000000	63.465263
944.000000	63.690527
943.000000	63.928733
942.000000	64.163484
941.000000	64.380508
940.000000	64.557604
939.000000	64.671132
938.000000	64.716231
937.000000	64.708878
936.000000	64.670326
935.000000	64.623440
934.000000	64.601370
933.000000	64.638750
932.000000	64.748925
931.000000	64.920276
930.000000	65.131961
929.000000	65.358057
928.000000	65.560040
927.000000	65.696249
926.000000	65.746385
925.000000	65.714649
924.000000	65.613092
923.000000	65.457571
922.000000	65.275730
921.000000	65.100487
920.000000	64.949506
919.000000	64.824069
918.000000	64.725044
917.000000	64.653682
916.000000	64.598785
915.000000	64.539884
914.000000	64.464647
913.000000	64.370061
912.000000	64.246954
911.000000	64.080681
910.000000	63.865231
909.000000	63.601264
908.000000	63.282451
907.000000	62.897871
906.000000	62.451182
905.000000	61.960584
904.000000	61.442255
903.000000	60.909516
902.000000	60.382579
901.000000	59.882657
900.000000	59.413464
899.000000	58.959811
898.000000	58.503428
897.000000	58.025000
896.000000	57.495801
895.000000	56.884444
894.000000	56.174445
893.000000	55.367577
892.000000	54.469710
891.000000	53.490424
890.000000	52.452358
889.000000	51.384047
888.000000	50.304914
887.000000	49.222237
886.000000	48.140699
885.000000	47.062722
884.000000	45.979925
883.000000	44.875751
882.000000	43.735272
881.000000	42.547244
880.000000	41.300632
879.000000	39.987920
878.000000	38.613554
877.000000	37.191490
876.000000	35.736997
875.000000	34.265053
874.000000	32.791771
873.000000	31.332040
872.000000	29.896250
871.000000	28.492258
870.000000	27.127060
869.000000	25.805816
868.000000	24.529146
867.000000	23.293538
866.000000	22.093554
865.000000	20.923356
864.000000	19.780993
863.000000	18.668387
862.000000	17.588674
861.000000	16.546406
860.000000	15.548469
859.000000	14.606508
858.000000	13.734634
857.000000	12.949163
856.000000	12.271003
855.000000	11.717194
854.000000	11.295411
853.000000	11.002388
852.000000	10.825476
851.000000	10.742625
850.000000	10.719635
849.000000	10.722041
848.000000	10.726554
847.000000	10.721329
846.000000	10.702145
845.000000	10.672138
844.000000	10.643935
843.000000	10.633188
842.000000	10.650496
841.000000	10.703422
840.000000	10.800179
839.000000	10.947040
838.000000	11.144424
837.000000	11.389527
836.000000	11.681511
835.000000	12.017344
834.000000	12.388420
833.000000	12.785400
832.000000	13.203534
831.000000	13.642338
830.000000	14.102212
829.000000	14.585530
828.000000	15.096455
827.000000	15.636236
826.000000	16.203408
825.000000	16.798307
824.000000	17.423371
823.000000	18.077957
822.000000	18.756828
821.000000	19.454211
820.000000	20.162817
819.000000	20.870842
818.000000	21.566067
817.000000	22.242171
816.000000	22.896597
815.000000	23.525733
814.000000	24.128389
813.000000	24.710659
812.000000	25.281744
811.000000	25.847272
810.000000	26.411985
809.000000	26.984032
808.000000	27.569864
807.000000	28.168751
806.000000	28.777629
805.000000	29.396662
804.000000	30.024203
803.000000	30.651847
802.000000	31.271259
801.000000	31.880444
800.000000	32.477626
799.000000	33.056460
798.000000	33.614144
797.000000	34.157979
796.000000	34.697244
795.000000	35.235955
794.000000	35.779116
793.000000	36.337324
792.000000	36.917637
791.000000	37.516030
790.000000	38.123393
789.000000	38.730913
788.000000	39.325028
787.000000	39.887595
786.000000	40.408360
785.000000	40.889695
784.000000	41.336266
783.000000	41.750067
782.000000	42.140643
781.000000	42.528212
780.000000	42.929936
779.000000	43.351409
778.000000	43.793856
777.000000	44.257713
776.000000	44.733429
775.000000	45.200477
774.000000	45.642807
773.000000	46.056699
772.000000	46.440848
771.000000	46.791953
770.000000	47.114946
769.000000	47.425197
768.000000	47.733417
767.000000	48.039327
766.000000	48.343576
765.000000	48.652959
764.000000	48.969608
763.000000	49.288064
762.000000	49.608603
761.000000	49.940253
760.000000	50.285567
759.000000	50.635038
758.000000	50.980667
757.000000	51.320017
756.000000	51.642158
755.000000	51.925012
754.000000	52.154562
753.000000	52.333665
752.000000	52.469121
751.000000	52.567412
750.000000	52.648874
749.000000	52.748807
748.000000	52.893607
747.000000	53.086526
746.000000	53.319890
745.000000	53.584354
744.000000	53.858505
743.000000	54.106762
742.000000	54.299151
741.000000	54.424043
740.000000	54.478738
739.000000	54.465754
738.000000	54.405517
737.000000	54.335610
736.000000	54.287745
735.000000	54.275971
734.000000	54.310411
733.000000	54.403179
732.000000	54.553288
731.000000	54.741771
730.000000	54.951561
729.000000	55.177841
728.000000	55.413690
727.000000	55.643887
726.000000	55.861692
725.000000	56.075200
724.000000	56.287399
723.000000	56.486964
722.000000	56.667027
721.000000	56.836584
720.000000	57.004412
719.000000	57.170236
718.000000	57.341560
717.000000	57.541938
716.000000	57.791415
715.000000	58.092625
714.000000	58.442091
713.000000	58.836105
712.000000	59.255473
711.000000	59.662162
710.000000	60.022839
709.000000	60.320830
708.000000	60.543021
707.000000	60.678707
706.000000	60.742172
705.000000	60.776910
704.000000	60.826943
703.000000	60.917743
702.000000	61.069190
701.000000	61.301318
700.000000	61.611824
699.000000	61.968029
698.000000	62.332718
697.000000	62.681917
696.000000	62.991225
695.000000	63.232055
694.000000	63.397540
693.000000	63.511836
692.000000	63.600608
691.000000	63.671909
690.000000	63.734188
689.000000	63.808293
688.000000	63.905767
687.000000	64.016788
686.000000	64.136958
685.000000	64.281640
684.000000	64.460228
683.000000	64.662128
682.000000	64.881213
681.000000	65.124891
680.000000	65.383911
679.000000	65.623522
678.000000	65.819779
677.000000	65.970988
676.000000	66.069732
675.000000	66.101127
674.000000	66.075205
673.000000	66.038344
672.000000	66.044586
671.000000	66.127104
670.000000	66.296612
669.000000	66.546165
668.000000	66.842491
667.000000	67.114203
666.000000	67.307611
665.000000	67.456745
664.000000	67.602471
663.000000	67.732444
662.000000	67.816819
661.000000	67.849848
660.000000	67.841550
659.000000	67.804949
658.000000	67.766947
657.000000	67.761743
656.000000	67.807689
655.000000	67.905930
654.000000	68.049945
653.000000	68.226921
652.000000	68.418146
651.000000	68.605235
650.000000	68.778423
649.000000	68.934129
648.000000	69.066806
647.000000	69.171391
646.000000	69.251728
645.000000	69.316505
644.000000	69.365664
643.000000	69.393414
642.000000	69.403597
641.000000	69.408760
640.000000	69.416302
639.000000	69.431620
638.000000	69.472133
637.000000	69.559457
636.000000	69.694743
635.000000	69.855993
634.000000	70.022543
633.000000	70.185996
632.000000	70.333730
631.000000	70.442338
630.000000	70.499106
629.000000	70.512905
628.000000	70.496553
627.000000	70.454282
626.000000	70.395609
625.000000	70.346602
624.000000	70.336278
623.000000	70.381377
622.000000	70.484326
621.000000	70.632312
620.000000	70.796320
619.000000	70.945011
618.000000	71.064900
617.000000	71.155758
616.000000	71.208708
615.000000	71.212134
614.000000	71.178425
613.000000	71.141757
612.000000	71.125643
611.000000	71.133335
610.000000	71.169969
609.000000	71.245488
608.000000	71.352104
607.000000	71.462217
606.000000	71.555891
605.000000	71.631380
604.000000	71.685747
603.000000	71.710671
602.000000	71.713034
601.000000	71.710397
600.000000	71.701085
599.000000	71.665195
598.000000	71.597814
597.000000	71.515670
596.000000	71.429317
595.000000	71.338815
594.000000	71.259004
593.000000	71.219407
592.000000	71.232293
591.000000	71.287735
590.000000	71.383813
589.000000	71.532603
588.000000	71.729233
587.000000	71.940767
586.000000	72.133913
585.000000	72.294361
584.000000	72.412082
583.000000	72.473449
582.000000	72.481017
581.000000	72.458470
580.000000	72.430252
579.000000	72.417995
578.000000	72.454333
577.000000	72.569412
576.000000	72.752490
575.000000	72.952716
574.000000	73.127187
573.000000	73.259592
572.000000	73.330660
571.000000	73.313001
570.000000	73.210614
569.000000	73.068414
568.000000	72.929151
567.000000	72.812714
566.000000	72.741739
565.000000	72.745725
564.000000	72.823841
563.000000	72.935241
562.000000	73.038858
561.000000	73.118965
560.000000	73.163291
559.000000	73.153648
558.000000	73.096948
557.000000	73.032085
556.000000	72.988981
555.000000	72.970478
554.000000	72.981575
553.000000	73.036454
552.000000	73.123259
551.000000	73.197044
550.000000	73.226494
549.000000	73.219983
548.000000	73.195887
547.000000	73.164727
546.000000	73.154502
545.000000	73.211775
544.000000	73.355349
543.000000	73.556411
542.000000	73.774106
541.000000	73.978162
540.000000	74.126880
539.000000	74.166667
538.000000	74.080440
537.000000	73.910416
536.000000	73.717347
535.000000	73.551865
534.000000	73.468708
533.000000	73.520603
532.000000	73.715814
531.000000	74.005732
530.000000	74.324792
529.000000	74.619256
528.000000	74.834588
527.000000	74.917403
526.000000	74.858402
525.000000	74.712565
524.000000	74.547587
523.000000	74.399977
522.000000	74.303009
521.000000	74.294518
520.000000	74.365435
519.000000	74.442764
518.000000	74.448082
517.000000	74.349265
516.000000	74.142468
515.000000	73.834727
514.000000	73.466106
513.000000	73.100518
512.000000	72.770768
511.000000	72.460499
510.000000	72.147742
509.000000	71.822053
508.000000	71.442593
507.000000	70.941032
506.000000	70.295457
505.000000	69.554958
504.000000	68.778098
503.000000	68.006637
502.000000	67.310460
501.000000	66.788393
500.000000	66.489390
499.000000	66.382571
498.000000	66.424767
497.000000	66.594225
496.000000	66.858844
495.000000	67.164918
494.000000	67.470283
493.000000	67.765126
492.000000	68.046505
491.000000	68.317902
490.000000	68.621677
489.000000	69.026805
488.000000	69.563130
487.000000	70.189795
486.000000	70.836121
485.000000	71.439623
484.000000	71.938648
483.000000	72.274192
482.000000	72.435910
481.000000	72.478946
480.000000	72.471926
479.000000	72.457973
478.000000	72.470211
477.000000	72.539818
476.000000	72.664655
475.000000	72.801856
474.000000	72.915071
473.000000	72.989889
472.000000	73.016228
471.000000	73.012433
470.000000	73.035628
469.000000	73.152147
468.000000	73.397101
467.000000	73.756788
466.000000	74.205035
465.000000	74.721115
464.000000	75.247646
463.000000	75.665177
462.000000	75.860765
461.000000	75.818428
460.000000	75.599161
459.000000	75.287578
458.000000	74.996311
457.000000	74.862116
456.000000	74.955515
455.000000	75.216452
454.000000	75.560274
453.000000	75.939298
452.000000	76.275195
451.000000	76.466598
450.000000	76.500521
449.000000	76.470388
448.000000	76.454730
447.000000	76.456771
446.000000	76.491000
445.000000	76.625321
444.000000	76.878304
443.000000	77.145921
442.000000	77.308658
441.000000	77.360720
440.000000	77.343979
439.000000	77.257504
438.000000	77.126144
437.000000	77.059640
436.000000	77.156151
435.000000	77.409486
434.000000	77.774670
433.000000	78.236157
432.000000	78.726197
431.000000	79.075142
430.000000	79.161422
429.000000	79.035963
428.000000	78.808119
427.000000	78.526855
426.000000	78.254623
425.000000	78.127971
424.000000	78.230210
423.000000	78.476279
422.000000	78.741105
421.000000	79.022641
420.000000	79.378902
419.000000	79.643142
418.000000	79.606111
417.000000	79.459608
416.000000	79.368330
415.000000	79.263918
414.000000	79.128425
413.000000	79.099111
412.000000	79.258839
411.000000	79.482385
410.000000	79.619267
409.000000	79.680134
408.000000	79.700905
407.000000	79.606811
406.000000	79.397476
405.000000	79.268758
404.000000	79.375493
403.000000	79.619015
402.000000	79.874336
401.000000	80.150407
400.000000	80.457418
