PE UV                   SPECTRUM    ASCII       PEDS        1.60        
  -1
23MS173.SP
24/10/24
16:03:37.00
24/10/24
16:04:55.00


400.000000
1









4444

SCAN
1
1


0.0
480.0
2.00
MANUAL



UV/VIS




































#HDR
-1
-1
#GR
NM
A
0.00000011920928955078
0.0
700.000000
1.000000
301
8
0.396330
0.078909
#DATA
700.000000	0.078909 
699.000000	0.079110 
698.000000	0.079250 
697.000000	0.079360 
696.000000	0.079540 
695.000000	0.079839 
694.000000	0.080080 
693.000000	0.080180 
692.000000	0.080379 
691.000000	0.080589 
690.000000	0.080769 
689.000000	0.081030 
688.000000	0.081220 
687.000000	0.081500 
686.000000	0.081750 
685.000000	0.081890 
684.000000	0.082200 
683.000000	0.082480 
682.000000	0.082489 
681.000000	0.082780 
680.000000	0.083020 
679.000000	0.083169 
678.000000	0.083270 
677.000000	0.083510 
676.000000	0.083660 
675.000000	0.083950 
674.000000	0.084160 
673.000000	0.084330 
672.000000	0.084590 
671.000000	0.084750 
670.000000	0.084930 
669.000000	0.085220 
668.000000	0.085440 
667.000000	0.085550 
666.000000	0.085819 
665.000000	0.085970 
664.000000	0.086170 
663.000000	0.086450 
662.000000	0.086630 
661.000000	0.086800 
660.000000	0.086990 
659.000000	0.087150 
658.000000	0.087480 
657.000000	0.087660 
656.000000	0.087850 
655.000000	0.088170 
654.000000	0.088270 
653.000000	0.088600 
652.000000	0.088750 
651.000000	0.088990 
650.000000	0.089210 
649.000000	0.089450 
648.000000	0.089690 
647.000000	0.089960 
646.000000	0.090160 
645.000000	0.090310 
644.000000	0.090579 
643.000000	0.090820 
642.000000	0.091070 
641.000000	0.091270 
640.000000	0.091480 
639.000000	0.091740 
638.000000	0.091990 
637.000000	0.092189 
636.000000	0.092470 
635.000000	0.092689 
634.000000	0.092830 
633.000000	0.093130 
632.000000	0.093440 
631.000000	0.093570 
630.000000	0.093900 
629.000000	0.094020 
628.000000	0.094339 
627.000000	0.094589 
626.000000	0.094839 
625.000000	0.095110 
624.000000	0.095339 
623.000000	0.095580 
622.000000	0.095810 
621.000000	0.096060 
620.000000	0.096430 
619.000000	0.096560 
618.000000	0.096850 
617.000000	0.097100 
616.000000	0.097430 
615.000000	0.097730 
614.000000	0.098040 
613.000000	0.098230 
612.000000	0.098489 
611.000000	0.098620 
610.000000	0.099050 
609.000000	0.099210 
608.000000	0.099529 
607.000000	0.099740 
606.000000	0.100040 
605.000000	0.100280 
604.000000	0.100480 
603.000000	0.100770 
602.000000	0.101060 
601.000000	0.101390 
600.000000	0.101630 
599.000000	0.101900 
598.000000	0.102180 
597.000000	0.102480 
596.000000	0.102730 
595.000000	0.103040 
594.000000	0.103410 
593.000000	0.103600 
592.000000	0.103900 
591.000000	0.104150 
590.000000	0.104480 
589.000000	0.104760 
588.000000	0.105210 
587.000000	0.105440 
586.000000	0.105770 
585.000000	0.106010 
584.000000	0.106270 
583.000000	0.106700 
582.000000	0.107030 
581.000000	0.107260 
580.000000	0.107570 
579.000000	0.107900 
578.000000	0.108200 
577.000000	0.108520 
576.000000	0.108820 
575.000000	0.109260 
574.000000	0.109590 
573.000000	0.109960 
572.000000	0.110220 
571.000000	0.110550 
570.000000	0.110910 
569.000000	0.111290 
568.000000	0.111640 
567.000000	0.111960 
566.000000	0.112340 
565.000000	0.112790 
564.000000	0.113090 
563.000000	0.113660 
562.000000	0.114090 
561.000000	0.114440 
560.000000	0.114910 
559.000000	0.115250 
558.000000	0.115690 
557.000000	0.116160 
556.000000	0.116600 
555.000000	0.117000 
554.000000	0.117390 
553.000000	0.117900 
552.000000	0.118380 
551.000000	0.118810 
550.000000	0.119290 
549.000000	0.119800 
548.000000	0.120310 
547.000000	0.120820 
546.000000	0.121300 
545.000000	0.121870 
544.000000	0.122300 
543.000000	0.122840 
542.000000	0.123320 
541.000000	0.123990 
540.000000	0.124570 
539.000000	0.125080 
538.000000	0.125750 
537.000000	0.126360 
536.000000	0.126930 
535.000000	0.127520 
534.000000	0.128260 
533.000000	0.129040 
532.000000	0.129720 
531.000000	0.130390 
530.000000	0.131160 
529.000000	0.131920 
528.000000	0.132800 
527.000000	0.133450 
526.000000	0.134290 
525.000000	0.135120 
524.000000	0.135920 
523.000000	0.136850 
522.000000	0.137690 
521.000000	0.138630 
520.000000	0.139530 
519.000000	0.140380 
518.000000	0.141360 
517.000000	0.142250 
516.000000	0.143430 
515.000000	0.144420 
514.000000	0.145500 
513.000000	0.146580 
512.000000	0.147570 
511.000000	0.148840 
510.000000	0.149880 
509.000000	0.150960 
508.000000	0.152160 
507.000000	0.153380 
506.000000	0.154560 
505.000000	0.155760 
504.000000	0.157130 
503.000000	0.158440 
502.000000	0.159750 
501.000000	0.161190 
500.000000	0.162650 
499.000000	0.163940 
498.000000	0.165490 
497.000000	0.166870 
496.000000	0.168380 
495.000000	0.170000 
494.000000	0.171590 
493.000000	0.173120 
492.000000	0.174810 
491.000000	0.176370 
490.000000	0.178080 
489.000000	0.179750 
488.000000	0.181510 
487.000000	0.183120 
486.000000	0.184740 
485.000000	0.186670 
484.000000	0.188560 
483.000000	0.190560 
482.000000	0.192460 
481.000000	0.194330 
480.000000	0.196300 
479.000000	0.198360 
478.000000	0.200400 
477.000000	0.202610 
476.000000	0.204770 
475.000000	0.206980 
474.000000	0.209290 
473.000000	0.211680 
472.000000	0.214080 
471.000000	0.216510 
470.000000	0.218910 
469.000000	0.221400 
468.000000	0.223960 
467.000000	0.226480 
466.000000	0.229310 
465.000000	0.232080 
464.000000	0.234900 
463.000000	0.237760 
462.000000	0.240430 
461.000000	0.243100 
460.000000	0.245830 
459.000000	0.248670 
458.000000	0.251520 
457.000000	0.254410 
456.000000	0.257550 
455.000000	0.260480 
454.000000	0.263310 
453.000000	0.266400 
452.000000	0.269280 
451.000000	0.272270 
450.000000	0.275290 
449.000000	0.278180 
448.000000	0.281210 
447.000000	0.284250 
446.000000	0.287300 
445.000000	0.290560 
444.000000	0.293670 
443.000000	0.296710 
442.000000	0.299650 
441.000000	0.302610 
440.000000	0.305440 
439.000000	0.308350 
438.000000	0.311260 
437.000000	0.314270 
436.000000	0.316980 
435.000000	0.319810 
434.000000	0.322490 
433.000000	0.325180 
432.000000	0.327690 
431.000000	0.330250 
430.000000	0.332740 
429.000000	0.335200 
428.000000	0.337680 
427.000000	0.340370 
426.000000	0.342650 
425.000000	0.344990 
424.000000	0.347430 
423.000000	0.349590 
422.000000	0.351940 
421.000000	0.353680 
420.000000	0.355780 
419.000000	0.358000 
418.000000	0.360120 
417.000000	0.362240 
416.000000	0.364380 
415.000000	0.366500 
414.000000	0.368610 
413.000000	0.370410 
412.000000	0.372530 
411.000000	0.374600 
410.000000	0.376610 
409.000000	0.378760 
408.000000	0.380790 
407.000000	0.382840 
406.000000	0.384890 
405.000000	0.386840 
404.000000	0.388750 
403.000000	0.390520 
402.000000	0.392480 
401.000000	0.394400 
400.000000	0.396330 

