PE UV                   SPECTRUM    ASCII       PEDS        1.60        
  -1
23MS144.SP
24/10/24
16:28:13.00
24/10/24
16:29:36.00


400.000000
1









4444

SCAN
1
1


0.0
480.0
2.00
MANUAL



UV/VIS




































#HDR
-1
-1
#GR
NM
A
0.00000011920928955078
0.0
700.000000
1.000000
301
8
0.153730
-0.000050
#DATA
700.000000	0.000180  
699.000000	0.000210  
698.000000	0.000170  
697.000000	0.000100  
696.000000	0.000160  
695.000000	0.000130  
694.000000	0.000200  
693.000000	0.000200  
692.000000	0.000069  
691.000000	0.000120  
690.000000	0.000170  
689.000000	0.000050  
688.000000	0.000010  
687.000000	0.000090  
686.000000	0.000100  
685.000000	0.000090  
684.000000	0.000040  
683.000000	0.000140  
682.000000	-0.000050 
681.000000	0.000030  
680.000000	0.000120  
679.000000	0.000130  
678.000000	0.000130  
677.000000	0.000140  
676.000000	0.000080  
675.000000	0.000090  
674.000000	0.000069  
673.000000	0.000180  
672.000000	0.000140  
671.000000	0.000090  
670.000000	0.000050  
669.000000	0.000170  
668.000000	0.000140  
667.000000	0.000130  
666.000000	0.000150  
665.000000	0.000230  
664.000000	0.000150  
663.000000	0.000270  
662.000000	0.000170  
661.000000	0.000190  
660.000000	0.000130  
659.000000	0.000110  
658.000000	0.000180  
657.000000	0.000150  
656.000000	0.000050  
655.000000	0.000130  
654.000000	0.000069  
653.000000	0.000140  
652.000000	0.000100  
651.000000	0.000150  
650.000000	0.000120  
649.000000	0.000170  
648.000000	0.000060  
647.000000	0.000190  
646.000000	0.000130  
645.000000	0.000069  
644.000000	0.000090  
643.000000	0.000140  
642.000000	0.000110  
641.000000	0.000050  
640.000000	0.000050  
639.000000	0.000120  
638.000000	0.000110  
637.000000	0.000130  
636.000000	0.000120  
635.000000	0.000069  
634.000000	0.000090  
633.000000	0.000090  
632.000000	0.000220  
631.000000	0.000110  
630.000000	0.000180  
629.000000	0.000080  
628.000000	0.000160  
627.000000	0.000110  
626.000000	0.000170  
625.000000	0.000100  
624.000000	0.000140  
623.000000	0.000180  
622.000000	0.000140  
621.000000	0.000170  
620.000000	0.000210  
619.000000	0.000130  
618.000000	0.000080  
617.000000	0.000160  
616.000000	0.000200  
615.000000	0.000240  
614.000000	0.000230  
613.000000	0.000210  
612.000000	0.000170  
611.000000	0.000100  
610.000000	0.000230  
609.000000	0.000210  
608.000000	0.000230  
607.000000	0.000170  
606.000000	0.000220  
605.000000	0.000210  
604.000000	0.000170  
603.000000	0.000150  
602.000000	0.000250  
601.000000	0.000310  
600.000000	0.000270  
599.000000	0.000310  
598.000000	0.000280  
597.000000	0.000260  
596.000000	0.000320  
595.000000	0.000350  
594.000000	0.000450  
593.000000	0.000410  
592.000000	0.000370  
591.000000	0.000410  
590.000000	0.000410  
589.000000	0.000370  
588.000000	0.000490  
587.000000	0.000490  
586.000000	0.000480  
585.000000	0.000530  
584.000000	0.000490  
583.000000	0.000580  
582.000000	0.000590  
581.000000	0.000610  
580.000000	0.000660  
579.000000	0.000720  
578.000000	0.000690  
577.000000	0.000670  
576.000000	0.000720  
575.000000	0.000710  
574.000000	0.000840  
573.000000	0.000830  
572.000000	0.000860  
571.000000	0.000960  
570.000000	0.000920  
569.000000	0.000980  
568.000000	0.001050  
567.000000	0.001090  
566.000000	0.001150  
565.000000	0.001240  
564.000000	0.001270  
563.000000	0.001260  
562.000000	0.001310  
561.000000	0.001390  
560.000000	0.001430  
559.000000	0.001470  
558.000000	0.001650  
557.000000	0.001770  
556.000000	0.001820  
555.000000	0.001960  
554.000000	0.001950  
553.000000	0.002040  
552.000000	0.002140  
551.000000	0.002280  
550.000000	0.002400  
549.000000	0.002520  
548.000000	0.002630  
547.000000	0.002770  
546.000000	0.002830  
545.000000	0.003070  
544.000000	0.003170  
543.000000	0.003310  
542.000000	0.003420  
541.000000	0.003630  
540.000000	0.003800  
539.000000	0.003930  
538.000000	0.004120  
537.000000	0.004320  
536.000000	0.004500  
535.000000	0.004720  
534.000000	0.004950  
533.000000	0.005220  
532.000000	0.005450  
531.000000	0.005660  
530.000000	0.005950  
529.000000	0.006180  
528.000000	0.006560  
527.000000	0.006730  
526.000000	0.007070  
525.000000	0.007380  
524.000000	0.007680  
523.000000	0.008040  
522.000000	0.008440  
521.000000	0.008820  
520.000000	0.009160  
519.000000	0.009509  
518.000000	0.009920  
517.000000	0.010270  
516.000000	0.010720  
515.000000	0.011180  
514.000000	0.011680  
513.000000	0.012000  
512.000000	0.012520  
511.000000	0.013140  
510.000000	0.013700  
509.000000	0.014150  
508.000000	0.014760  
507.000000	0.015290  
506.000000	0.015840  
505.000000	0.016370  
504.000000	0.016980  
503.000000	0.017640  
502.000000	0.018290  
501.000000	0.019000  
500.000000	0.019740  
499.000000	0.020420  
498.000000	0.021180  
497.000000	0.021800  
496.000000	0.022670  
495.000000	0.023360  
494.000000	0.024200  
493.000000	0.025050  
492.000000	0.026080  
491.000000	0.026880  
490.000000	0.027790  
489.000000	0.028640  
488.000000	0.029670  
487.000000	0.030500  
486.000000	0.031420  
485.000000	0.032390  
484.000000	0.033420  
483.000000	0.034500  
482.000000	0.035630  
481.000000	0.036730  
480.000000	0.037960  
479.000000	0.039060  
478.000000	0.040250  
477.000000	0.041600  
476.000000	0.042820  
475.000000	0.044100  
474.000000	0.045480  
473.000000	0.046900  
472.000000	0.048370  
471.000000	0.049900  
470.000000	0.051460  
469.000000	0.053000  
468.000000	0.054570  
467.000000	0.056080  
466.000000	0.057790  
465.000000	0.059610  
464.000000	0.061310  
463.000000	0.063170  
462.000000	0.064850  
461.000000	0.066600  
460.000000	0.068150  
459.000000	0.070069  
458.000000	0.071910  
457.000000	0.073609  
456.000000	0.075490  
455.000000	0.077400  
454.000000	0.079180  
453.000000	0.081510  
452.000000	0.083310  
451.000000	0.085260  
450.000000	0.087170  
449.000000	0.089050  
448.000000	0.090880  
447.000000	0.092750  
446.000000	0.094540  
445.000000	0.096460  
444.000000	0.098460  
443.000000	0.100460  
442.000000	0.102250  
441.000000	0.104090  
440.000000	0.105580  
439.000000	0.107300  
438.000000	0.108960  
437.000000	0.110770  
436.000000	0.112320  
435.000000	0.113960  
434.000000	0.115400  
433.000000	0.116940  
432.000000	0.118400  
431.000000	0.119860  
430.000000	0.121130  
429.000000	0.122480  
428.000000	0.123770  
427.000000	0.125060  
426.000000	0.126250  
425.000000	0.127470  
424.000000	0.128860  
423.000000	0.129970  
422.000000	0.131220  
421.000000	0.132180  
420.000000	0.133230  
419.000000	0.134410  
418.000000	0.135370  
417.000000	0.136420  
416.000000	0.137440  
415.000000	0.138550  
414.000000	0.139660  
413.000000	0.140660  
412.000000	0.141660  
411.000000	0.142600  
410.000000	0.143600  
409.000000	0.144670  
408.000000	0.145780  
407.000000	0.146880  
406.000000	0.147980  
405.000000	0.149040  
404.000000	0.149980  
403.000000	0.150800  
402.000000	0.151700  
401.000000	0.152820  
400.000000	0.153730  

