PE UV                   SPECTRUM    ASCII       PEDS        1.60        
  -1
23MS006.SP
24/10/28
15:05:42.00
24/10/28
15:07:44.00


300.000000
1









4444

SCAN
1
1


0.0
480.0
2.00
MANUAL



UV/VIS




































#HDR
-1
-1
#GR
NM
A
0.00000011920928955078
0.0
600.000000
1.000000
301
8
0.642170
0.004170
#DATA
600.000000	0.004170 
599.000000	0.004180 
598.000000	0.004170 
597.000000	0.004220 
596.000000	0.004210 
595.000000	0.004200 
594.000000	0.004190 
593.000000	0.004270 
592.000000	0.004270 
591.000000	0.004280 
590.000000	0.004340 
589.000000	0.004280 
588.000000	0.004250 
587.000000	0.004320 
586.000000	0.004350 
585.000000	0.004390 
584.000000	0.004430 
583.000000	0.004550 
582.000000	0.004410 
581.000000	0.004520 
580.000000	0.004530 
579.000000	0.004620 
578.000000	0.004580 
577.000000	0.004680 
576.000000	0.004670 
575.000000	0.004630 
574.000000	0.004700 
573.000000	0.004770 
572.000000	0.004820 
571.000000	0.004890 
570.000000	0.004860 
569.000000	0.004920 
568.000000	0.004880 
567.000000	0.005010 
566.000000	0.005040 
565.000000	0.005160 
564.000000	0.005240 
563.000000	0.005280 
562.000000	0.005390 
561.000000	0.005480 
560.000000	0.005450 
559.000000	0.005590 
558.000000	0.005710 
557.000000	0.005890 
556.000000	0.005930 
555.000000	0.006040 
554.000000	0.006190 
553.000000	0.006240 
552.000000	0.006400 
551.000000	0.006490 
550.000000	0.006480 
549.000000	0.006640 
548.000000	0.006780 
547.000000	0.006990 
546.000000	0.007080 
545.000000	0.007230 
544.000000	0.007450 
543.000000	0.007680 
542.000000	0.007770 
541.000000	0.008080 
540.000000	0.008229 
539.000000	0.008460 
538.000000	0.008720 
537.000000	0.008930 
536.000000	0.009230 
535.000000	0.009490 
534.000000	0.009750 
533.000000	0.010110 
532.000000	0.010450 
531.000000	0.010790 
530.000000	0.011110 
529.000000	0.011530 
528.000000	0.011940 
527.000000	0.012400 
526.000000	0.012790 
525.000000	0.013270 
524.000000	0.013760 
523.000000	0.014280 
522.000000	0.014860 
521.000000	0.015330 
520.000000	0.015910 
519.000000	0.016460 
518.000000	0.017220 
517.000000	0.017760 
516.000000	0.018400 
515.000000	0.019070 
514.000000	0.019910 
513.000000	0.020660 
512.000000	0.021400 
511.000000	0.022180 
510.000000	0.023010 
509.000000	0.023940 
508.000000	0.024890 
507.000000	0.025840 
506.000000	0.026930 
505.000000	0.027930 
504.000000	0.028960 
503.000000	0.030130 
502.000000	0.031270 
501.000000	0.032530 
500.000000	0.033770 
499.000000	0.035030 
498.000000	0.036510 
497.000000	0.037950 
496.000000	0.039470 
495.000000	0.040940 
494.000000	0.042430 
493.000000	0.044230 
492.000000	0.045820 
491.000000	0.047470 
490.000000	0.049350 
489.000000	0.051070 
488.000000	0.052940 
487.000000	0.054860 
486.000000	0.056780 
485.000000	0.058660 
484.000000	0.060780 
483.000000	0.062830 
482.000000	0.065030 
481.000000	0.067380 
480.000000	0.069620 
479.000000	0.072100 
478.000000	0.074550 
477.000000	0.077140 
476.000000	0.079740 
475.000000	0.082500 
474.000000	0.085130 
473.000000	0.088060 
472.000000	0.090950 
471.000000	0.093780 
470.000000	0.096920 
469.000000	0.100110 
468.000000	0.103300 
467.000000	0.106480 
466.000000	0.109760 
465.000000	0.112940 
464.000000	0.116240 
463.000000	0.119510 
462.000000	0.122970 
461.000000	0.126130 
460.000000	0.129540 
459.000000	0.132920 
458.000000	0.136440 
457.000000	0.139710 
456.000000	0.142990 
455.000000	0.146250 
454.000000	0.149490 
453.000000	0.152820 
452.000000	0.156030 
451.000000	0.159350 
450.000000	0.162570 
449.000000	0.165850 
448.000000	0.168900 
447.000000	0.172130 
446.000000	0.175170 
445.000000	0.178070 
444.000000	0.181050 
443.000000	0.183900 
442.000000	0.186800 
441.000000	0.189510 
440.000000	0.192200 
439.000000	0.195070 
438.000000	0.197610 
437.000000	0.200320 
436.000000	0.202690 
435.000000	0.205060 
434.000000	0.207470 
433.000000	0.209800 
432.000000	0.212060 
431.000000	0.214100 
430.000000	0.216190 
429.000000	0.218370 
428.000000	0.220340 
427.000000	0.222300 
426.000000	0.224240 
425.000000	0.226120 
424.000000	0.228080 
423.000000	0.229930 
422.000000	0.231550 
421.000000	0.233500 
420.000000	0.235170 
419.000000	0.236900 
418.000000	0.238670 
417.000000	0.240380 
416.000000	0.242050 
415.000000	0.243720 
414.000000	0.245430 
413.000000	0.247190 
412.000000	0.248910 
411.000000	0.250650 
410.000000	0.252420 
409.000000	0.254170 
408.000000	0.256000 
407.000000	0.257740 
406.000000	0.259440 
405.000000	0.261220 
404.000000	0.262920 
403.000000	0.264670 
402.000000	0.266310 
401.000000	0.268290 
400.000000	0.270300 
399.000000	0.272060 
398.000000	0.274010 
397.000000	0.275910 
396.000000	0.277670 
395.000000	0.279620 
394.000000	0.281620 
393.000000	0.283540 
392.000000	0.285600 
391.000000	0.287600 
390.000000	0.289500 
389.000000	0.291520 
388.000000	0.293590 
387.000000	0.295580 
386.000000	0.297650 
385.000000	0.299660 
384.000000	0.304700 
383.000000	0.318560 
382.000000	0.320390 
381.000000	0.323680 
380.000000	0.326820 
379.000000	0.329450 
378.000000	0.332180 
377.000000	0.334700 
376.000000	0.337430 
375.000000	0.340270 
374.000000	0.343220 
373.000000	0.346240 
372.000000	0.349200 
371.000000	0.352100 
370.000000	0.354980 
369.000000	0.357800 
368.000000	0.360640 
367.000000	0.363550 
366.000000	0.366290 
365.000000	0.369500 
364.000000	0.372410 
363.000000	0.375520 
362.000000	0.378760 
361.000000	0.381610 
360.000000	0.384650 
359.000000	0.387600 
358.000000	0.390540 
357.000000	0.393730 
356.000000	0.397090 
355.000000	0.400080 
354.000000	0.403440 
353.000000	0.406780 
352.000000	0.410040 
351.000000	0.413170 
350.000000	0.416380 
349.000000	0.419820 
348.000000	0.423430 
347.000000	0.426870 
346.000000	0.430050 
345.000000	0.433520 
344.000000	0.437130 
343.000000	0.440520 
342.000000	0.443770 
341.000000	0.447700 
340.000000	0.450860 
339.000000	0.454370 
338.000000	0.457880 
337.000000	0.461260 
336.000000	0.465120 
335.000000	0.468610 
334.000000	0.472010 
333.000000	0.476130 
332.000000	0.480360 
331.000000	0.484200 
330.000000	0.487870 
329.000000	0.491920 
328.000000	0.496110 
327.000000	0.494930 
326.000000	0.497540 
325.000000	0.502020 
324.000000	0.506600 
323.000000	0.511300 
322.000000	0.515930 
321.000000	0.520660 
320.000000	0.525430 
319.000000	0.529940 
318.000000	0.534860 
317.000000	0.540350 
316.000000	0.545860 
315.000000	0.550970 
314.000000	0.556480 
313.000000	0.562030 
312.000000	0.567430 
311.000000	0.573110 
310.000000	0.578040 
309.000000	0.584450 
308.000000	0.589990 
307.000000	0.596690 
306.000000	0.602689 
305.000000	0.609380 
304.000000	0.615910 
303.000000	0.622440 
302.000000	0.628240 
301.000000	0.635850 
300.000000	0.642170 

