PE UV                   SPECTRUM    ASCII       PEDS        1.60        
  -1
23MS095.SP
24/10/29
15:04:37.00
24/10/29
15:05:45.00


300.000000
1









4444

SCAN
1
1


0.0
480.0
2.00
MANUAL



UV/VIS




































#HDR
-1
-1
#GR
NM
A
0.00000011920928955078
0.0
600.000000
1.000000
301
8
1.132670
0.016130
#DATA
600.000000	0.016130 
599.000000	0.016200 
598.000000	0.016200 
597.000000	0.016380 
596.000000	0.016390 
595.000000	0.016520 
594.000000	0.016540 
593.000000	0.016630 
592.000000	0.016700 
591.000000	0.016710 
590.000000	0.016820 
589.000000	0.016860 
588.000000	0.016950 
587.000000	0.017000 
586.000000	0.017010 
585.000000	0.017080 
584.000000	0.017150 
583.000000	0.017220 
582.000000	0.017370 
581.000000	0.017410 
580.000000	0.017580 
579.000000	0.017600 
578.000000	0.017730 
577.000000	0.017780 
576.000000	0.017870 
575.000000	0.017930 
574.000000	0.018100 
573.000000	0.018210 
572.000000	0.018330 
571.000000	0.018470 
570.000000	0.018500 
569.000000	0.018680 
568.000000	0.018920 
567.000000	0.018880 
566.000000	0.019140 
565.000000	0.019220 
564.000000	0.019370 
563.000000	0.019530 
562.000000	0.019740 
561.000000	0.019930 
560.000000	0.020220 
559.000000	0.020410 
558.000000	0.020640 
557.000000	0.020910 
556.000000	0.021150 
555.000000	0.021380 
554.000000	0.021730 
553.000000	0.022010 
552.000000	0.022350 
551.000000	0.022670 
550.000000	0.023080 
549.000000	0.023440 
548.000000	0.023930 
547.000000	0.024260 
546.000000	0.024650 
545.000000	0.025070 
544.000000	0.025520 
543.000000	0.025990 
542.000000	0.026610 
541.000000	0.027210 
540.000000	0.027830 
539.000000	0.028400 
538.000000	0.029080 
537.000000	0.029790 
536.000000	0.030430 
535.000000	0.031280 
534.000000	0.032040 
533.000000	0.032920 
532.000000	0.033820 
531.000000	0.034830 
530.000000	0.035810 
529.000000	0.036860 
528.000000	0.037890 
527.000000	0.039030 
526.000000	0.040140 
525.000000	0.041340 
524.000000	0.042600 
523.000000	0.044000 
522.000000	0.045340 
521.000000	0.046730 
520.000000	0.048170 
519.000000	0.049740 
518.000000	0.051070 
517.000000	0.052700 
516.000000	0.054290 
515.000000	0.055960 
514.000000	0.057750 
513.000000	0.059590 
512.000000	0.061510 
511.000000	0.063470 
510.000000	0.065480 
509.000000	0.067390 
508.000000	0.069500 
507.000000	0.071690 
506.000000	0.073870 
505.000000	0.076180 
504.000000	0.078610 
503.000000	0.081050 
502.000000	0.083590 
501.000000	0.086260 
500.000000	0.088810 
499.000000	0.091520 
498.000000	0.094170 
497.000000	0.097020 
496.000000	0.099770 
495.000000	0.102720 
494.000000	0.105740 
493.000000	0.108780 
492.000000	0.111850 
491.000000	0.114820 
490.000000	0.117990 
489.000000	0.120980 
488.000000	0.124120 
487.000000	0.127320 
486.000000	0.130480 
485.000000	0.133940 
484.000000	0.137400 
483.000000	0.140860 
482.000000	0.144390 
481.000000	0.147810 
480.000000	0.151350 
479.000000	0.154810 
478.000000	0.158370 
477.000000	0.162140 
476.000000	0.166000 
475.000000	0.169900 
474.000000	0.173880 
473.000000	0.177860 
472.000000	0.181900 
471.000000	0.185900 
470.000000	0.189840 
469.000000	0.194050 
468.000000	0.198320 
467.000000	0.202550 
466.000000	0.207040 
465.000000	0.211500 
464.000000	0.215840 
463.000000	0.220280 
462.000000	0.224660 
461.000000	0.228770 
460.000000	0.233050 
459.000000	0.237390 
458.000000	0.241710 
457.000000	0.246220 
456.000000	0.250850 
455.000000	0.255480 
454.000000	0.260030 
453.000000	0.264460 
452.000000	0.269020 
451.000000	0.273480 
450.000000	0.277940 
449.000000	0.282470 
448.000000	0.287020 
447.000000	0.291650 
446.000000	0.296170 
445.000000	0.300890 
444.000000	0.305590 
443.000000	0.310010 
442.000000	0.314640 
441.000000	0.318790 
440.000000	0.323150 
439.000000	0.327550 
438.000000	0.332090 
437.000000	0.336580 
436.000000	0.340900 
435.000000	0.345140 
434.000000	0.349300 
433.000000	0.353370 
432.000000	0.357420 
431.000000	0.361220 
430.000000	0.364900 
429.000000	0.368980 
428.000000	0.372880 
427.000000	0.376830 
426.000000	0.380640 
425.000000	0.384430 
424.000000	0.388130 
423.000000	0.391550 
422.000000	0.395050 
421.000000	0.397970 
420.000000	0.401330 
419.000000	0.404770 
418.000000	0.408280 
417.000000	0.411750 
416.000000	0.415400 
415.000000	0.418790 
414.000000	0.422060 
413.000000	0.425410 
412.000000	0.428620 
411.000000	0.431990 
410.000000	0.435230 
409.000000	0.438710 
408.000000	0.442170 
407.000000	0.445470 
406.000000	0.448640 
405.000000	0.451910 
404.000000	0.454990 
403.000000	0.458020 
402.000000	0.461100 
401.000000	0.464200 
400.000000	0.467350 
399.000000	0.470740 
398.000000	0.473680 
397.000000	0.477110 
396.000000	0.480210 
395.000000	0.483170 
394.000000	0.486220 
393.000000	0.489390 
392.000000	0.492530 
391.000000	0.495770 
390.000000	0.498770 
389.000000	0.502210 
388.000000	0.505329 
387.000000	0.508630 
386.000000	0.511780 
385.000000	0.514769 
384.000000	0.521730 
383.000000	0.549090 
382.000000	0.552170 
381.000000	0.557580 
380.000000	0.562350 
379.000000	0.566980 
378.000000	0.572010 
377.000000	0.576910 
376.000000	0.581430 
375.000000	0.585979 
374.000000	0.590480 
373.000000	0.595410 
372.000000	0.600150 
371.000000	0.604990 
370.000000	0.610020 
369.000000	0.614830 
368.000000	0.619910 
367.000000	0.624770 
366.000000	0.629350 
365.000000	0.634530 
364.000000	0.639310 
363.000000	0.644480 
362.000000	0.650020 
361.000000	0.655010 
360.000000	0.660510 
359.000000	0.665720 
358.000000	0.670920 
357.000000	0.676520 
356.000000	0.681860 
355.000000	0.687340 
354.000000	0.692800 
353.000000	0.698760 
352.000000	0.704510 
351.000000	0.710369 
350.000000	0.715950 
349.000000	0.722160 
348.000000	0.728630 
347.000000	0.734240 
346.000000	0.740120 
345.000000	0.746059 
344.000000	0.752310 
343.000000	0.758530 
342.000000	0.763830 
341.000000	0.771560 
340.000000	0.777220 
339.000000	0.784050 
338.000000	0.790400 
337.000000	0.796100 
336.000000	0.802190 
335.000000	0.809200 
334.000000	0.814740 
333.000000	0.821980 
332.000000	0.829600 
331.000000	0.837560 
330.000000	0.844330 
329.000000	0.851420 
328.000000	0.858550 
327.000000	0.865020 
326.000000	0.872610 
325.000000	0.881360 
324.000000	0.889050 
323.000000	0.897440 
322.000000	0.906480 
321.000000	0.915430 
320.000000	0.924450 
319.000000	0.932220 
318.000000	0.940890 
317.000000	0.951120 
316.000000	0.960500 
315.000000	0.970130 
314.000000	0.979850 
313.000000	0.989800 
312.000000	1.000360 
311.000000	1.009320 
310.000000	1.018500 
309.000000	1.030600 
308.000000	1.040360 
307.000000	1.050930 
306.000000	1.061260 
305.000000	1.073440 
304.000000	1.083970 
303.000000	1.095760 
302.000000	1.105700 
301.000000	1.120910 
300.000000	1.132670 

