PE UV                   SPECTRUM    ASCII       PEDS        1.60        
  -1
23MS091.SP
24/10/29
15:07:53.00
24/10/29
15:09:11.00


300.000000
1









4444

SCAN
1
1


0.0
480.0
2.00
MANUAL



UV/VIS




































#HDR
-1
-1
#GR
NM
A
0.00000011920928955078
0.0
600.000000
1.000000
301
8
0.898910
0.036880
#DATA
600.000000	0.036880 
599.000000	0.036890 
598.000000	0.037050 
597.000000	0.037220 
596.000000	0.037300 
595.000000	0.037480 
594.000000	0.037620 
593.000000	0.037740 
592.000000	0.037850 
591.000000	0.037970 
590.000000	0.038170 
589.000000	0.038210 
588.000000	0.038360 
587.000000	0.038510 
586.000000	0.038660 
585.000000	0.038730 
584.000000	0.038870 
583.000000	0.039070 
582.000000	0.039240 
581.000000	0.039390 
580.000000	0.039590 
579.000000	0.039760 
578.000000	0.039850 
577.000000	0.040090 
576.000000	0.040210 
575.000000	0.040360 
574.000000	0.040570 
573.000000	0.040780 
572.000000	0.040970 
571.000000	0.041190 
570.000000	0.041380 
569.000000	0.041580 
568.000000	0.041750 
567.000000	0.041870 
566.000000	0.042250 
565.000000	0.042480 
564.000000	0.042690 
563.000000	0.042960 
562.000000	0.043230 
561.000000	0.043450 
560.000000	0.043820 
559.000000	0.044180 
558.000000	0.044460 
557.000000	0.044840 
556.000000	0.045110 
555.000000	0.045430 
554.000000	0.045830 
553.000000	0.046170 
552.000000	0.046600 
551.000000	0.046970 
550.000000	0.047320 
549.000000	0.047690 
548.000000	0.048220 
547.000000	0.048520 
546.000000	0.048980 
545.000000	0.049410 
544.000000	0.049950 
543.000000	0.050400 
542.000000	0.050860 
541.000000	0.051370 
540.000000	0.051890 
539.000000	0.052420 
538.000000	0.053050 
537.000000	0.053620 
536.000000	0.054160 
535.000000	0.054850 
534.000000	0.055450 
533.000000	0.056210 
532.000000	0.056850 
531.000000	0.057550 
530.000000	0.058250 
529.000000	0.059100 
528.000000	0.059840 
527.000000	0.060700 
526.000000	0.061510 
525.000000	0.062430 
524.000000	0.063350 
523.000000	0.064240 
522.000000	0.065120 
521.000000	0.066010 
520.000000	0.067210 
519.000000	0.068220 
518.000000	0.069050 
517.000000	0.070110 
516.000000	0.071230 
515.000000	0.072340 
514.000000	0.073530 
513.000000	0.074730 
512.000000	0.075829 
511.000000	0.077160 
510.000000	0.078310 
509.000000	0.079630 
508.000000	0.081090 
507.000000	0.082540 
506.000000	0.083960 
505.000000	0.085459 
504.000000	0.087040 
503.000000	0.088670 
502.000000	0.090350 
501.000000	0.092000 
500.000000	0.093640 
499.000000	0.095610 
498.000000	0.097520 
497.000000	0.099590 
496.000000	0.101570 
495.000000	0.103580 
494.000000	0.105640 
493.000000	0.107780 
492.000000	0.109920 
491.000000	0.112080 
490.000000	0.114510 
489.000000	0.116990 
488.000000	0.119420 
487.000000	0.121970 
486.000000	0.124490 
485.000000	0.127220 
484.000000	0.129890 
483.000000	0.132770 
482.000000	0.135640 
481.000000	0.138610 
480.000000	0.141700 
479.000000	0.144910 
478.000000	0.148180 
477.000000	0.151580 
476.000000	0.155140 
475.000000	0.158590 
474.000000	0.162210 
473.000000	0.165860 
472.000000	0.169690 
471.000000	0.173590 
470.000000	0.177610 
469.000000	0.181660 
468.000000	0.185950 
467.000000	0.190160 
466.000000	0.194520 
465.000000	0.198590 
464.000000	0.202750 
463.000000	0.207000 
462.000000	0.211440 
461.000000	0.215380 
460.000000	0.219590 
459.000000	0.223800 
458.000000	0.228130 
457.000000	0.232310 
456.000000	0.236440 
455.000000	0.240510 
454.000000	0.244620 
453.000000	0.248610 
452.000000	0.252700 
451.000000	0.256780 
450.000000	0.260730 
449.000000	0.264650 
448.000000	0.268530 
447.000000	0.272410 
446.000000	0.275980 
445.000000	0.279540 
444.000000	0.283310 
443.000000	0.286810 
442.000000	0.290400 
441.000000	0.293680 
440.000000	0.297000 
439.000000	0.300480 
438.000000	0.303720 
437.000000	0.306920 
436.000000	0.309830 
435.000000	0.312890 
434.000000	0.315850 
433.000000	0.318700 
432.000000	0.321640 
431.000000	0.324290 
430.000000	0.327020 
429.000000	0.329910 
428.000000	0.332490 
427.000000	0.335070 
426.000000	0.337750 
425.000000	0.340220 
424.000000	0.342650 
423.000000	0.345210 
422.000000	0.347730 
421.000000	0.350090 
420.000000	0.352490 
419.000000	0.354930 
418.000000	0.357440 
417.000000	0.359850 
416.000000	0.362320 
415.000000	0.364780 
414.000000	0.367180 
413.000000	0.369830 
412.000000	0.372350 
411.000000	0.375000 
410.000000	0.377580 
409.000000	0.380160 
408.000000	0.382720 
407.000000	0.385200 
406.000000	0.387650 
405.000000	0.390230 
404.000000	0.392530 
403.000000	0.395030 
402.000000	0.397390 
401.000000	0.399890 
400.000000	0.402310 
399.000000	0.404840 
398.000000	0.407180 
397.000000	0.409690 
396.000000	0.412070 
395.000000	0.414570 
394.000000	0.416970 
393.000000	0.419550 
392.000000	0.422000 
391.000000	0.424530 
390.000000	0.426980 
389.000000	0.429530 
388.000000	0.431920 
387.000000	0.434410 
386.000000	0.436900 
385.000000	0.439330 
384.000000	0.444590 
383.000000	0.464290 
382.000000	0.466990 
381.000000	0.470910 
380.000000	0.474610 
379.000000	0.477910 
378.000000	0.481560 
377.000000	0.485070 
376.000000	0.488360 
375.000000	0.491840 
374.000000	0.495230 
373.000000	0.498760 
372.000000	0.502279 
371.000000	0.505990 
370.000000	0.509350 
369.000000	0.512950 
368.000000	0.516350 
367.000000	0.519970 
366.000000	0.523330 
365.000000	0.527460 
364.000000	0.531230 
363.000000	0.535040 
362.000000	0.538969 
361.000000	0.542730 
360.000000	0.546580 
359.000000	0.550420 
358.000000	0.554119 
357.000000	0.558060 
356.000000	0.562169 
355.000000	0.566420 
354.000000	0.570700 
353.000000	0.574930 
352.000000	0.579180 
351.000000	0.583640 
350.000000	0.587280 
349.000000	0.592120 
348.000000	0.596660 
347.000000	0.601360 
346.000000	0.605420 
345.000000	0.610270 
344.000000	0.615070 
343.000000	0.619580 
342.000000	0.623700 
341.000000	0.629170 
340.000000	0.633920 
339.000000	0.638550 
338.000000	0.643290 
337.000000	0.647649 
336.000000	0.652930 
335.000000	0.657290 
334.000000	0.662010 
333.000000	0.668350 
332.000000	0.673450 
331.000000	0.678230 
330.000000	0.683980 
329.000000	0.688710 
328.000000	0.693990 
327.000000	0.700440 
326.000000	0.706240 
325.000000	0.712100 
324.000000	0.718240 
323.000000	0.724350 
322.000000	0.730810 
321.000000	0.737110 
320.000000	0.743600 
319.000000	0.749990 
318.000000	0.755850 
317.000000	0.764050 
316.000000	0.771200 
315.000000	0.778210 
314.000000	0.785480 
313.000000	0.792820 
312.000000	0.800690 
311.000000	0.807680 
310.000000	0.814260 
309.000000	0.822750 
308.000000	0.830190 
307.000000	0.838410 
306.000000	0.846550 
305.000000	0.855410 
304.000000	0.864210 
303.000000	0.872570 
302.000000	0.880140 
301.000000	0.889910 
300.000000	0.898910 

