PE UV                   SPECTRUM    ASCII       PEDS        1.60        
  -1
23MS029.SP
24/10/28
15:16:03.00
24/10/28
15:17:32.00


300.000000
1









4444

SCAN
1
1


0.0
480.0
2.00
MANUAL



UV/VIS




































#HDR
-1
-1
#GR
NM
A
0.00000011920928955078
0.0
600.000000
1.000000
301
8
0.390010
0.019630
#DATA
600.000000	0.019630 
599.000000	0.019670 
598.000000	0.019670 
597.000000	0.019710 
596.000000	0.019810 
595.000000	0.019800 
594.000000	0.019800 
593.000000	0.019800 
592.000000	0.019790 
591.000000	0.019810 
590.000000	0.019920 
589.000000	0.019830 
588.000000	0.019870 
587.000000	0.019880 
586.000000	0.020000 
585.000000	0.019970 
584.000000	0.019970 
583.000000	0.020080 
582.000000	0.020030 
581.000000	0.020070 
580.000000	0.020080 
579.000000	0.020150 
578.000000	0.020160 
577.000000	0.020260 
576.000000	0.020270 
575.000000	0.020260 
574.000000	0.020330 
573.000000	0.020390 
572.000000	0.020390 
571.000000	0.020470 
570.000000	0.020560 
569.000000	0.020610 
568.000000	0.020580 
567.000000	0.020770 
566.000000	0.020790 
565.000000	0.020940 
564.000000	0.020940 
563.000000	0.021090 
562.000000	0.021240 
561.000000	0.021230 
560.000000	0.021290 
559.000000	0.021500 
558.000000	0.021490 
557.000000	0.021490 
556.000000	0.021530 
555.000000	0.021650 
554.000000	0.021860 
553.000000	0.021990 
552.000000	0.022110 
551.000000	0.022210 
550.000000	0.022340 
549.000000	0.022550 
548.000000	0.022680 
547.000000	0.022840 
546.000000	0.022980 
545.000000	0.023250 
544.000000	0.023400 
543.000000	0.023590 
542.000000	0.023740 
541.000000	0.024070 
540.000000	0.024250 
539.000000	0.024480 
538.000000	0.024760 
537.000000	0.025000 
536.000000	0.025290 
535.000000	0.025510 
534.000000	0.025810 
533.000000	0.026120 
532.000000	0.026520 
531.000000	0.026810 
530.000000	0.027150 
529.000000	0.027540 
528.000000	0.027900 
527.000000	0.028320 
526.000000	0.028610 
525.000000	0.028940 
524.000000	0.029410 
523.000000	0.029850 
522.000000	0.030340 
521.000000	0.030770 
520.000000	0.031230 
519.000000	0.031700 
518.000000	0.032350 
517.000000	0.032820 
516.000000	0.033310 
515.000000	0.033820 
514.000000	0.034450 
513.000000	0.035030 
512.000000	0.035590 
511.000000	0.036210 
510.000000	0.036870 
509.000000	0.037580 
508.000000	0.038150 
507.000000	0.038850 
506.000000	0.039520 
505.000000	0.040210 
504.000000	0.040940 
503.000000	0.041770 
502.000000	0.042610 
501.000000	0.043460 
500.000000	0.044300 
499.000000	0.045070 
498.000000	0.045920 
497.000000	0.046820 
496.000000	0.047810 
495.000000	0.048580 
494.000000	0.049650 
493.000000	0.050670 
492.000000	0.051680 
491.000000	0.052560 
490.000000	0.053760 
489.000000	0.054730 
488.000000	0.055720 
487.000000	0.056800 
486.000000	0.057840 
485.000000	0.058830 
484.000000	0.059960 
483.000000	0.061130 
482.000000	0.062360 
481.000000	0.063650 
480.000000	0.064850 
479.000000	0.066090 
478.000000	0.067220 
477.000000	0.068510 
476.000000	0.069779 
475.000000	0.071179 
474.000000	0.072620 
473.000000	0.074110 
472.000000	0.075600 
471.000000	0.077049 
470.000000	0.078479 
469.000000	0.079990 
468.000000	0.081559 
467.000000	0.083080 
466.000000	0.084660 
465.000000	0.086370 
464.000000	0.087970 
463.000000	0.089600 
462.000000	0.091439 
461.000000	0.092900 
460.000000	0.094520 
459.000000	0.096129 
458.000000	0.097850 
457.000000	0.099440 
456.000000	0.101060 
455.000000	0.103030 
454.000000	0.104770 
453.000000	0.106500 
452.000000	0.108310 
451.000000	0.110020 
450.000000	0.111670 
449.000000	0.113270 
448.000000	0.114840 
447.000000	0.116570 
446.000000	0.118370 
445.000000	0.120000 
444.000000	0.121760 
443.000000	0.123430 
442.000000	0.125010 
441.000000	0.126560 
440.000000	0.127940 
439.000000	0.129600 
438.000000	0.130960 
437.000000	0.132630 
436.000000	0.134170 
435.000000	0.135580 
434.000000	0.136980 
433.000000	0.138430 
432.000000	0.139740 
431.000000	0.141070 
430.000000	0.142240 
429.000000	0.143570 
428.000000	0.144740 
427.000000	0.146030 
426.000000	0.147260 
425.000000	0.148410 
424.000000	0.149700 
423.000000	0.150760 
422.000000	0.151870 
421.000000	0.153040 
420.000000	0.154110 
419.000000	0.155100 
418.000000	0.156200 
417.000000	0.157400 
416.000000	0.158530 
415.000000	0.159600 
414.000000	0.160750 
413.000000	0.161840 
412.000000	0.162750 
411.000000	0.163840 
410.000000	0.164870 
409.000000	0.165940 
408.000000	0.167160 
407.000000	0.168300 
406.000000	0.169380 
405.000000	0.170430 
404.000000	0.171380 
403.000000	0.172360 
402.000000	0.173320 
401.000000	0.174430 
400.000000	0.175570 
399.000000	0.176520 
398.000000	0.177700 
397.000000	0.178870 
396.000000	0.179880 
395.000000	0.181030 
394.000000	0.182110 
393.000000	0.183310 
392.000000	0.184450 
391.000000	0.185510 
390.000000	0.186600 
389.000000	0.187840 
388.000000	0.188980 
387.000000	0.190240 
386.000000	0.191370 
385.000000	0.192540 
384.000000	0.195490 
383.000000	0.202640 
382.000000	0.203780 
381.000000	0.205180 
380.000000	0.206760 
379.000000	0.207840 
378.000000	0.209730 
377.000000	0.211310 
376.000000	0.213000 
375.000000	0.214370 
374.000000	0.216040 
373.000000	0.217710 
372.000000	0.219340 
371.000000	0.220850 
370.000000	0.222500 
369.000000	0.224030 
368.000000	0.225670 
367.000000	0.227320 
366.000000	0.228960 
365.000000	0.230670 
364.000000	0.232350 
363.000000	0.234070 
362.000000	0.235710 
361.000000	0.237350 
360.000000	0.239220 
359.000000	0.240990 
358.000000	0.242760 
357.000000	0.244600 
356.000000	0.246590 
355.000000	0.248350 
354.000000	0.250010 
353.000000	0.251920 
352.000000	0.253770 
351.000000	0.255760 
350.000000	0.257680 
349.000000	0.259800 
348.000000	0.261940 
347.000000	0.263920 
346.000000	0.265950 
345.000000	0.267770 
344.000000	0.269740 
343.000000	0.271620 
342.000000	0.273820 
341.000000	0.275960 
340.000000	0.278170 
339.000000	0.280180 
338.000000	0.282160 
337.000000	0.284190 
336.000000	0.286450 
335.000000	0.288490 
334.000000	0.290660 
333.000000	0.293130 
332.000000	0.295110 
331.000000	0.297850 
330.000000	0.299840 
329.000000	0.302630 
328.000000	0.304890 
327.000000	0.303560 
326.000000	0.305270 
325.000000	0.307700 
324.000000	0.310230 
323.000000	0.312970 
322.000000	0.315590 
321.000000	0.318610 
320.000000	0.321640 
319.000000	0.324520 
318.000000	0.327440 
317.000000	0.330200 
316.000000	0.333430 
315.000000	0.336730 
314.000000	0.339700 
313.000000	0.342820 
312.000000	0.346070 
311.000000	0.349630 
310.000000	0.352330 
309.000000	0.355980 
308.000000	0.359500 
307.000000	0.363080 
306.000000	0.366700 
305.000000	0.370270 
304.000000	0.373990 
303.000000	0.377800 
302.000000	0.381360 
301.000000	0.385980 
300.000000	0.390010 

