PE UV                   SPECTRUM    ASCII       PEDS        1.60        
  -1
23MS145.SP
24/10/24
16:19:04.00
24/10/24
16:20:16.00


400.000000
1









4444

SCAN
1
1


0.0
480.0
2.00
MANUAL



UV/VIS




































#HDR
-1
-1
#GR
NM
A
0.00000011920928955078
0.0
700.000000
1.000000
301
8
0.136280
0.011500
#DATA
700.000000	0.011650 
699.000000	0.011620 
698.000000	0.011680 
697.000000	0.011540 
696.000000	0.011500 
695.000000	0.011640 
694.000000	0.011620 
693.000000	0.011660 
692.000000	0.011590 
691.000000	0.011720 
690.000000	0.011760 
689.000000	0.011700 
688.000000	0.011640 
687.000000	0.011740 
686.000000	0.011720 
685.000000	0.011690 
684.000000	0.011750 
683.000000	0.011850 
682.000000	0.011820 
681.000000	0.011730 
680.000000	0.011780 
679.000000	0.011800 
678.000000	0.011820 
677.000000	0.011840 
676.000000	0.011920 
675.000000	0.011900 
674.000000	0.011860 
673.000000	0.011790 
672.000000	0.011930 
671.000000	0.011880 
670.000000	0.011900 
669.000000	0.011890 
668.000000	0.011950 
667.000000	0.011940 
666.000000	0.011970 
665.000000	0.012000 
664.000000	0.012010 
663.000000	0.012040 
662.000000	0.012020 
661.000000	0.011990 
660.000000	0.012010 
659.000000	0.011970 
658.000000	0.012090 
657.000000	0.012030 
656.000000	0.012020 
655.000000	0.012140 
654.000000	0.012030 
653.000000	0.012110 
652.000000	0.012150 
651.000000	0.012160 
650.000000	0.012200 
649.000000	0.012260 
648.000000	0.012260 
647.000000	0.012260 
646.000000	0.012290 
645.000000	0.012360 
644.000000	0.012270 
643.000000	0.012370 
642.000000	0.012400 
641.000000	0.012390 
640.000000	0.012410 
639.000000	0.012440 
638.000000	0.012480 
637.000000	0.012490 
636.000000	0.012490 
635.000000	0.012470 
634.000000	0.012520 
633.000000	0.012550 
632.000000	0.012670 
631.000000	0.012580 
630.000000	0.012730 
629.000000	0.012680 
628.000000	0.012690 
627.000000	0.012750 
626.000000	0.012780 
625.000000	0.012740 
624.000000	0.012870 
623.000000	0.012920 
622.000000	0.012900 
621.000000	0.012950 
620.000000	0.013020 
619.000000	0.012950 
618.000000	0.012940 
617.000000	0.012980 
616.000000	0.013080 
615.000000	0.013100 
614.000000	0.013210 
613.000000	0.013170 
612.000000	0.013180 
611.000000	0.013170 
610.000000	0.013340 
609.000000	0.013270 
608.000000	0.013320 
607.000000	0.013290 
606.000000	0.013390 
605.000000	0.013400 
604.000000	0.013410 
603.000000	0.013450 
602.000000	0.013520 
601.000000	0.013580 
600.000000	0.013610 
599.000000	0.013610 
598.000000	0.013680 
597.000000	0.013670 
596.000000	0.013760 
595.000000	0.013790 
594.000000	0.013950 
593.000000	0.013870 
592.000000	0.013970 
591.000000	0.013990 
590.000000	0.013970 
589.000000	0.013990 
588.000000	0.014100 
587.000000	0.014110 
586.000000	0.014180 
585.000000	0.014250 
584.000000	0.014240 
583.000000	0.014270 
582.000000	0.014330 
581.000000	0.014330 
580.000000	0.014440 
579.000000	0.014430 
578.000000	0.014490 
577.000000	0.014510 
576.000000	0.014570 
575.000000	0.014620 
574.000000	0.014690 
573.000000	0.014720 
572.000000	0.014770 
571.000000	0.014750 
570.000000	0.014840 
569.000000	0.014880 
568.000000	0.014910 
567.000000	0.014950 
566.000000	0.015020 
565.000000	0.015030 
564.000000	0.015130 
563.000000	0.015190 
562.000000	0.015230 
561.000000	0.015210 
560.000000	0.015320 
559.000000	0.015280 
558.000000	0.015380 
557.000000	0.015490 
556.000000	0.015540 
555.000000	0.015660 
554.000000	0.015580 
553.000000	0.015700 
552.000000	0.015700 
551.000000	0.015790 
550.000000	0.015850 
549.000000	0.015930 
548.000000	0.016000 
547.000000	0.016110 
546.000000	0.016180 
545.000000	0.016240 
544.000000	0.016250 
543.000000	0.016350 
542.000000	0.016360 
541.000000	0.016450 
540.000000	0.016520 
539.000000	0.016510 
538.000000	0.016670 
537.000000	0.016790 
536.000000	0.016850 
535.000000	0.016960 
534.000000	0.017040 
533.000000	0.017190 
532.000000	0.017270 
531.000000	0.017280 
530.000000	0.017350 
529.000000	0.017540 
528.000000	0.017740 
527.000000	0.017690 
526.000000	0.017890 
525.000000	0.017990 
524.000000	0.018070 
523.000000	0.018260 
522.000000	0.018400 
521.000000	0.018570 
520.000000	0.018680 
519.000000	0.018830 
518.000000	0.018980 
517.000000	0.019150 
516.000000	0.019360 
515.000000	0.019460 
514.000000	0.019770 
513.000000	0.019920 
512.000000	0.020080 
511.000000	0.020370 
510.000000	0.020640 
509.000000	0.020880 
508.000000	0.021170 
507.000000	0.021450 
506.000000	0.021750 
505.000000	0.021960 
504.000000	0.022420 
503.000000	0.022660 
502.000000	0.022940 
501.000000	0.023430 
500.000000	0.023870 
499.000000	0.024310 
498.000000	0.024750 
497.000000	0.025150 
496.000000	0.025690 
495.000000	0.026200 
494.000000	0.026740 
493.000000	0.027290 
492.000000	0.027990 
491.000000	0.028690 
490.000000	0.029440 
489.000000	0.030070 
488.000000	0.030900 
487.000000	0.031600 
486.000000	0.032370 
485.000000	0.033240 
484.000000	0.034080 
483.000000	0.035030 
482.000000	0.036030 
481.000000	0.037030 
480.000000	0.038170 
479.000000	0.039370 
478.000000	0.040620 
477.000000	0.041880 
476.000000	0.043130 
475.000000	0.044360 
474.000000	0.045800 
473.000000	0.047160 
472.000000	0.048630 
471.000000	0.050220 
470.000000	0.051810 
469.000000	0.053420 
468.000000	0.055070 
467.000000	0.056730 
466.000000	0.058420 
465.000000	0.060130 
464.000000	0.061840 
463.000000	0.063769 
462.000000	0.065420 
461.000000	0.067020 
460.000000	0.068720 
459.000000	0.070410 
458.000000	0.072260 
457.000000	0.073980 
456.000000	0.075660 
455.000000	0.077290 
454.000000	0.078770 
453.000000	0.080750 
452.000000	0.082340 
451.000000	0.083900 
450.000000	0.085639 
449.000000	0.087150 
448.000000	0.088590 
447.000000	0.090130 
446.000000	0.091470 
445.000000	0.092939 
444.000000	0.094470 
443.000000	0.095990 
442.000000	0.097309 
441.000000	0.098630 
440.000000	0.099820 
439.000000	0.100880 
438.000000	0.102100 
437.000000	0.103360 
436.000000	0.104310 
435.000000	0.105500 
434.000000	0.106590 
433.000000	0.107510 
432.000000	0.108520 
431.000000	0.109490 
430.000000	0.110330 
429.000000	0.111190 
428.000000	0.112110 
427.000000	0.113100 
426.000000	0.113800 
425.000000	0.114620 
424.000000	0.115530 
423.000000	0.116370 
422.000000	0.117250 
421.000000	0.117920 
420.000000	0.118730 
419.000000	0.119620 
418.000000	0.120310 
417.000000	0.121230 
416.000000	0.122020 
415.000000	0.122890 
414.000000	0.123820 
413.000000	0.124610 
412.000000	0.125440 
411.000000	0.126310 
410.000000	0.127190 
409.000000	0.128100 
408.000000	0.128980 
407.000000	0.129890 
406.000000	0.130940 
405.000000	0.131910 
404.000000	0.132740 
403.000000	0.133630 
402.000000	0.134430 
401.000000	0.135450 
400.000000	0.136280 

