PE UV                   SPECTRUM    ASCII       PEDS        1.60        
  -1
23MS131.SP
24/10/24
16:12:28.00
24/10/24
16:13:43.00


400.000000
1









4444

SCAN
1
1


0.0
480.0
2.00
MANUAL



UV/VIS




































#HDR
-1
-1
#GR
NM
A
0.00000011920928955078
0.0
700.000000
1.000000
301
8
0.616550
0.221680
#DATA
700.000000	0.221680 
699.000000	0.222090 
698.000000	0.222590 
697.000000	0.222990 
696.000000	0.223340 
695.000000	0.223900 
694.000000	0.224400 
693.000000	0.224800 
692.000000	0.225240 
691.000000	0.225750 
690.000000	0.226160 
689.000000	0.226720 
688.000000	0.227290 
687.000000	0.227860 
686.000000	0.228370 
685.000000	0.228960 
684.000000	0.229510 
683.000000	0.230020 
682.000000	0.230390 
681.000000	0.230940 
680.000000	0.231510 
679.000000	0.232080 
678.000000	0.232540 
677.000000	0.233100 
676.000000	0.233620 
675.000000	0.234080 
674.000000	0.234500 
673.000000	0.235010 
672.000000	0.235470 
671.000000	0.236010 
670.000000	0.236590 
669.000000	0.237090 
668.000000	0.237640 
667.000000	0.238120 
666.000000	0.238640 
665.000000	0.239310 
664.000000	0.239630 
663.000000	0.240140 
662.000000	0.240660 
661.000000	0.241150 
660.000000	0.241680 
659.000000	0.242260 
658.000000	0.242720 
657.000000	0.243190 
656.000000	0.243790 
655.000000	0.244440 
654.000000	0.244800 
653.000000	0.245470 
652.000000	0.246020 
651.000000	0.246630 
650.000000	0.247100 
649.000000	0.247760 
648.000000	0.248310 
647.000000	0.248850 
646.000000	0.249420 
645.000000	0.249880 
644.000000	0.250400 
643.000000	0.251130 
642.000000	0.251700 
641.000000	0.252240 
640.000000	0.252810 
639.000000	0.253370 
638.000000	0.253930 
637.000000	0.254470 
636.000000	0.254960 
635.000000	0.255480 
634.000000	0.256130 
633.000000	0.256740 
632.000000	0.257390 
631.000000	0.257900 
630.000000	0.258510 
629.000000	0.259030 
628.000000	0.259650 
627.000000	0.260180 
626.000000	0.260700 
625.000000	0.261390 
624.000000	0.261950 
623.000000	0.262590 
622.000000	0.263220 
621.000000	0.263910 
620.000000	0.264540 
619.000000	0.265130 
618.000000	0.265700 
617.000000	0.266380 
616.000000	0.267020 
615.000000	0.267650 
614.000000	0.268420 
613.000000	0.269030 
612.000000	0.269640 
611.000000	0.270200 
610.000000	0.270960 
609.000000	0.271500 
608.000000	0.272130 
607.000000	0.272720 
606.000000	0.273490 
605.000000	0.274080 
604.000000	0.274790 
603.000000	0.275410 
602.000000	0.276160 
601.000000	0.276860 
600.000000	0.277500 
599.000000	0.278120 
598.000000	0.278730 
597.000000	0.279380 
596.000000	0.280150 
595.000000	0.280800 
594.000000	0.281540 
593.000000	0.282270 
592.000000	0.282980 
591.000000	0.283680 
590.000000	0.284360 
589.000000	0.284980 
588.000000	0.285780 
587.000000	0.286400 
586.000000	0.287180 
585.000000	0.287880 
584.000000	0.288660 
583.000000	0.289360 
582.000000	0.290130 
581.000000	0.290850 
580.000000	0.291570 
579.000000	0.292150 
578.000000	0.292850 
577.000000	0.293650 
576.000000	0.294340 
575.000000	0.295090 
574.000000	0.295820 
573.000000	0.296590 
572.000000	0.297320 
571.000000	0.298020 
570.000000	0.298690 
569.000000	0.299430 
568.000000	0.300140 
567.000000	0.300990 
566.000000	0.301710 
565.000000	0.302480 
564.000000	0.303270 
563.000000	0.304080 
562.000000	0.304860 
561.000000	0.305670 
560.000000	0.306490 
559.000000	0.307240 
558.000000	0.308180 
557.000000	0.309120 
556.000000	0.309960 
555.000000	0.310770 
554.000000	0.311610 
553.000000	0.312470 
552.000000	0.313390 
551.000000	0.314130 
550.000000	0.314970 
549.000000	0.315900 
548.000000	0.316810 
547.000000	0.317760 
546.000000	0.318570 
545.000000	0.319540 
544.000000	0.320430 
543.000000	0.321290 
542.000000	0.322140 
541.000000	0.323120 
540.000000	0.324060 
539.000000	0.324950 
538.000000	0.325900 
537.000000	0.326980 
536.000000	0.327920 
535.000000	0.328970 
534.000000	0.330000 
533.000000	0.331080 
532.000000	0.332060 
531.000000	0.333140 
530.000000	0.334210 
529.000000	0.335310 
528.000000	0.336500 
527.000000	0.337510 
526.000000	0.338680 
525.000000	0.339790 
524.000000	0.341020 
523.000000	0.342170 
522.000000	0.343370 
521.000000	0.344630 
520.000000	0.345850 
519.000000	0.347130 
518.000000	0.348370 
517.000000	0.349560 
516.000000	0.350890 
515.000000	0.352220 
514.000000	0.353550 
513.000000	0.354840 
512.000000	0.356150 
511.000000	0.357660 
510.000000	0.359200 
509.000000	0.360600 
508.000000	0.362240 
507.000000	0.363750 
506.000000	0.365340 
505.000000	0.366890 
504.000000	0.368570 
503.000000	0.370240 
502.000000	0.371770 
501.000000	0.373650 
500.000000	0.375590 
499.000000	0.377390 
498.000000	0.379270 
497.000000	0.381210 
496.000000	0.383310 
495.000000	0.385160 
494.000000	0.387220 
493.000000	0.389240 
492.000000	0.391490 
491.000000	0.393580 
490.000000	0.395870 
489.000000	0.398080 
488.000000	0.400370 
487.000000	0.402650 
486.000000	0.404870 
485.000000	0.407230 
484.000000	0.409610 
483.000000	0.412010 
482.000000	0.414500 
481.000000	0.417020 
480.000000	0.419690 
479.000000	0.422260 
478.000000	0.425090 
477.000000	0.427950 
476.000000	0.430590 
475.000000	0.433200 
474.000000	0.435970 
473.000000	0.438780 
472.000000	0.441690 
471.000000	0.444590 
470.000000	0.447640 
469.000000	0.450610 
468.000000	0.453410 
467.000000	0.456350 
466.000000	0.459200 
465.000000	0.462020 
464.000000	0.465110 
463.000000	0.468110 
462.000000	0.470850 
461.000000	0.473590 
460.000000	0.476210 
459.000000	0.478960 
458.000000	0.481650 
457.000000	0.484360 
456.000000	0.486950 
455.000000	0.489570 
454.000000	0.491960 
453.000000	0.494620 
452.000000	0.497090 
451.000000	0.499540 
450.000000	0.502030 
449.000000	0.504580 
448.000000	0.506910 
447.000000	0.509240 
446.000000	0.511490 
445.000000	0.514090 
444.000000	0.516630 
443.000000	0.519100 
442.000000	0.521210 
441.000000	0.523550 
440.000000	0.525869 
439.000000	0.527950 
438.000000	0.530400 
437.000000	0.532749 
436.000000	0.534850 
435.000000	0.537090 
434.000000	0.539140 
433.000000	0.541560 
432.000000	0.543820 
431.000000	0.546080 
430.000000	0.548110 
429.000000	0.550280 
428.000000	0.552410 
427.000000	0.554720 
426.000000	0.556560 
425.000000	0.558980 
424.000000	0.561160 
423.000000	0.563380 
422.000000	0.565630 
421.000000	0.567440 
420.000000	0.569620 
419.000000	0.571940 
418.000000	0.574000 
417.000000	0.576269 
416.000000	0.578500 
415.000000	0.580890 
414.000000	0.583250 
413.000000	0.585470 
412.000000	0.587979 
411.000000	0.590350 
410.000000	0.592660 
409.000000	0.595120 
408.000000	0.597490 
407.000000	0.599950 
406.000000	0.602490 
405.000000	0.604990 
404.000000	0.607349 
403.000000	0.609569 
402.000000	0.611780 
401.000000	0.614310 
400.000000	0.616550 

