PE UV                   SPECTRUM    ASCII       PEDS        1.60        
  -1
23MS039.SP
24/10/28
15:12:06.00
24/10/28
15:13:23.00


300.000000
1









4444

SCAN
1
1


0.0
480.0
2.00
MANUAL



UV/VIS




































#HDR
-1
-1
#GR
NM
A
0.00000011920928955078
0.0
600.000000
1.000000
301
8
0.595960
0.155800
#DATA
600.000000	0.155800 
599.000000	0.155880 
598.000000	0.156030 
597.000000	0.156170 
596.000000	0.156360 
595.000000	0.156470 
594.000000	0.156490 
593.000000	0.156690 
592.000000	0.156840 
591.000000	0.156990 
590.000000	0.157190 
589.000000	0.157390 
588.000000	0.157490 
587.000000	0.157610 
586.000000	0.157720 
585.000000	0.157880 
584.000000	0.157930 
583.000000	0.158250 
582.000000	0.158340 
581.000000	0.158390 
580.000000	0.158480 
579.000000	0.158680 
578.000000	0.158840 
577.000000	0.159070 
576.000000	0.159170 
575.000000	0.159170 
574.000000	0.159370 
573.000000	0.159520 
572.000000	0.159650 
571.000000	0.159740 
570.000000	0.159870 
569.000000	0.160030 
568.000000	0.160150 
567.000000	0.160380 
566.000000	0.160430 
565.000000	0.160650 
564.000000	0.160810 
563.000000	0.160900 
562.000000	0.161140 
561.000000	0.161140 
560.000000	0.161310 
559.000000	0.161510 
558.000000	0.161470 
557.000000	0.161260 
556.000000	0.161420 
555.000000	0.161500 
554.000000	0.161750 
553.000000	0.161860 
552.000000	0.161950 
551.000000	0.162100 
550.000000	0.162370 
549.000000	0.162510 
548.000000	0.162670 
547.000000	0.162850 
546.000000	0.162960 
545.000000	0.163260 
544.000000	0.163400 
543.000000	0.163790 
542.000000	0.163940 
541.000000	0.164300 
540.000000	0.164450 
539.000000	0.164660 
538.000000	0.164950 
537.000000	0.165140 
536.000000	0.165430 
535.000000	0.165610 
534.000000	0.165850 
533.000000	0.166180 
532.000000	0.166460 
531.000000	0.166740 
530.000000	0.166920 
529.000000	0.167230 
528.000000	0.167510 
527.000000	0.167880 
526.000000	0.168140 
525.000000	0.168450 
524.000000	0.168720 
523.000000	0.169100 
522.000000	0.169520 
521.000000	0.169810 
520.000000	0.170110 
519.000000	0.170470 
518.000000	0.170930 
517.000000	0.171270 
516.000000	0.171630 
515.000000	0.172050 
514.000000	0.172530 
513.000000	0.172890 
512.000000	0.173300 
511.000000	0.173800 
510.000000	0.174170 
509.000000	0.174740 
508.000000	0.175110 
507.000000	0.175610 
506.000000	0.176130 
505.000000	0.176700 
504.000000	0.177190 
503.000000	0.177810 
502.000000	0.178410 
501.000000	0.179120 
500.000000	0.179620 
499.000000	0.180260 
498.000000	0.180910 
497.000000	0.181640 
496.000000	0.182450 
495.000000	0.183090 
494.000000	0.183910 
493.000000	0.184730 
492.000000	0.185410 
491.000000	0.186150 
490.000000	0.187080 
489.000000	0.187840 
488.000000	0.188680 
487.000000	0.189620 
486.000000	0.190410 
485.000000	0.191380 
484.000000	0.192350 
483.000000	0.193480 
482.000000	0.194550 
481.000000	0.195610 
480.000000	0.196630 
479.000000	0.197770 
478.000000	0.198870 
477.000000	0.200250 
476.000000	0.201540 
475.000000	0.202920 
474.000000	0.204220 
473.000000	0.205740 
472.000000	0.207160 
471.000000	0.208680 
470.000000	0.210240 
469.000000	0.211840 
468.000000	0.213350 
467.000000	0.215050 
466.000000	0.216750 
465.000000	0.218600 
464.000000	0.220390 
463.000000	0.222190 
462.000000	0.224060 
461.000000	0.225780 
460.000000	0.227620 
459.000000	0.229450 
458.000000	0.231540 
457.000000	0.233570 
456.000000	0.235580 
455.000000	0.237720 
454.000000	0.239890 
453.000000	0.242070 
452.000000	0.244280 
451.000000	0.246430 
450.000000	0.248540 
449.000000	0.250830 
448.000000	0.253140 
447.000000	0.255510 
446.000000	0.258060 
445.000000	0.260300 
444.000000	0.262860 
443.000000	0.265290 
442.000000	0.267780 
441.000000	0.270090 
440.000000	0.272470 
439.000000	0.275050 
438.000000	0.277450 
437.000000	0.280170 
436.000000	0.282860 
435.000000	0.285530 
434.000000	0.288040 
433.000000	0.290520 
432.000000	0.292870 
431.000000	0.295300 
430.000000	0.297710 
429.000000	0.300250 
428.000000	0.302560 
427.000000	0.304990 
426.000000	0.307290 
425.000000	0.309820 
424.000000	0.312130 
423.000000	0.314220 
422.000000	0.316270 
421.000000	0.318560 
420.000000	0.320720 
419.000000	0.322760 
418.000000	0.325030 
417.000000	0.327190 
416.000000	0.329250 
415.000000	0.331270 
414.000000	0.333110 
413.000000	0.334980 
412.000000	0.336760 
411.000000	0.338510 
410.000000	0.340240 
409.000000	0.342020 
408.000000	0.344010 
407.000000	0.345700 
406.000000	0.347240 
405.000000	0.348700 
404.000000	0.350070 
403.000000	0.351370 
402.000000	0.352750 
401.000000	0.354130 
400.000000	0.355560 
399.000000	0.356760 
398.000000	0.358150 
397.000000	0.359410 
396.000000	0.360560 
395.000000	0.361760 
394.000000	0.362960 
393.000000	0.364100 
392.000000	0.365060 
391.000000	0.366300 
390.000000	0.367340 
389.000000	0.368470 
388.000000	0.369520 
387.000000	0.370670 
386.000000	0.371690 
385.000000	0.372690 
384.000000	0.375250 
383.000000	0.383080 
382.000000	0.384030 
381.000000	0.385770 
380.000000	0.387540 
379.000000	0.389000 
378.000000	0.390970 
377.000000	0.392480 
376.000000	0.394200 
375.000000	0.395430 
374.000000	0.397030 
373.000000	0.398620 
372.000000	0.400230 
371.000000	0.401690 
370.000000	0.403390 
369.000000	0.405000 
368.000000	0.406580 
367.000000	0.408300 
366.000000	0.409770 
365.000000	0.411360 
364.000000	0.413030 
363.000000	0.414770 
362.000000	0.416560 
361.000000	0.418230 
360.000000	0.420420 
359.000000	0.422110 
358.000000	0.423860 
357.000000	0.425860 
356.000000	0.427930 
355.000000	0.429770 
354.000000	0.431750 
353.000000	0.433800 
352.000000	0.436010 
351.000000	0.438060 
350.000000	0.440270 
349.000000	0.442800 
348.000000	0.445170 
347.000000	0.447320 
346.000000	0.449610 
345.000000	0.451920 
344.000000	0.454520 
343.000000	0.456730 
342.000000	0.458980 
341.000000	0.461910 
340.000000	0.464400 
339.000000	0.466720 
338.000000	0.469130 
337.000000	0.471370 
336.000000	0.473860 
335.000000	0.476400 
334.000000	0.478730 
333.000000	0.482330 
332.000000	0.484920 
331.000000	0.488120 
330.000000	0.490700 
329.000000	0.493890 
328.000000	0.497650 
327.000000	0.486220 
326.000000	0.485470 
325.000000	0.488740 
324.000000	0.492200 
323.000000	0.495700 
322.000000	0.499110 
321.000000	0.502840 
320.000000	0.506610 
319.000000	0.510230 
318.000000	0.513680 
317.000000	0.518039 
316.000000	0.522110 
315.000000	0.526000 
314.000000	0.529980 
313.000000	0.534330 
312.000000	0.538600 
311.000000	0.542930 
310.000000	0.546750 
309.000000	0.551650 
308.000000	0.556050 
307.000000	0.560540 
306.000000	0.565120 
305.000000	0.570400 
304.000000	0.575180 
303.000000	0.580020 
302.000000	0.584910 
301.000000	0.590940 
300.000000	0.595960 

