PE UV                   SPECTRUM    ASCII       PEDS        1.60        
  -1
23MS202.SP
24/10/25
15:16:48.00
24/10/25
15:17:59.00


300.000000
1









4444

SCAN
1
1


0.0
480.0
2.00
MANUAL



UV/VIS




































#HDR
-1
-1
#GR
NM
A
0.00000011920928955078
0.0
600.000000
1.000000
301
8
0.310490
0.011420
#DATA
600.000000	0.011450 
599.000000	0.011430 
598.000000	0.011420 
597.000000	0.011440 
596.000000	0.011470 
595.000000	0.011530 
594.000000	0.011510 
593.000000	0.011610 
592.000000	0.011570 
591.000000	0.011610 
590.000000	0.011600 
589.000000	0.011680 
588.000000	0.011630 
587.000000	0.011700 
586.000000	0.011800 
585.000000	0.011860 
584.000000	0.011820 
583.000000	0.011930 
582.000000	0.011810 
581.000000	0.011870 
580.000000	0.011920 
579.000000	0.011910 
578.000000	0.012000 
577.000000	0.012000 
576.000000	0.012080 
575.000000	0.012070 
574.000000	0.012110 
573.000000	0.012150 
572.000000	0.012120 
571.000000	0.012170 
570.000000	0.012240 
569.000000	0.012290 
568.000000	0.012290 
567.000000	0.012340 
566.000000	0.012370 
565.000000	0.012390 
564.000000	0.012450 
563.000000	0.012450 
562.000000	0.012630 
561.000000	0.012620 
560.000000	0.012620 
559.000000	0.012740 
558.000000	0.012710 
557.000000	0.012800 
556.000000	0.012810 
555.000000	0.012880 
554.000000	0.012970 
553.000000	0.012960 
552.000000	0.013000 
551.000000	0.013060 
550.000000	0.013160 
549.000000	0.013250 
548.000000	0.013320 
547.000000	0.013410 
546.000000	0.013460 
545.000000	0.013470 
544.000000	0.013630 
543.000000	0.013670 
542.000000	0.013800 
541.000000	0.013860 
540.000000	0.013940 
539.000000	0.014010 
538.000000	0.014100 
537.000000	0.014180 
536.000000	0.014390 
535.000000	0.014460 
534.000000	0.014550 
533.000000	0.014700 
532.000000	0.014830 
531.000000	0.014880 
530.000000	0.015040 
529.000000	0.015290 
528.000000	0.015440 
527.000000	0.015570 
526.000000	0.015780 
525.000000	0.015940 
524.000000	0.016130 
523.000000	0.016290 
522.000000	0.016590 
521.000000	0.016760 
520.000000	0.016960 
519.000000	0.017260 
518.000000	0.017490 
517.000000	0.017720 
516.000000	0.018030 
515.000000	0.018410 
514.000000	0.018620 
513.000000	0.018940 
512.000000	0.019270 
511.000000	0.019560 
510.000000	0.019920 
509.000000	0.020300 
508.000000	0.020820 
507.000000	0.021220 
506.000000	0.021640 
505.000000	0.022050 
504.000000	0.022650 
503.000000	0.023020 
502.000000	0.023590 
501.000000	0.024160 
500.000000	0.024860 
499.000000	0.025480 
498.000000	0.026090 
497.000000	0.026840 
496.000000	0.027470 
495.000000	0.028170 
494.000000	0.029000 
493.000000	0.029780 
492.000000	0.030700 
491.000000	0.031530 
490.000000	0.032470 
489.000000	0.033430 
488.000000	0.034420 
487.000000	0.035410 
486.000000	0.036420 
485.000000	0.037560 
484.000000	0.038640 
483.000000	0.039830 
482.000000	0.041130 
481.000000	0.042410 
480.000000	0.043710 
479.000000	0.045150 
478.000000	0.046590 
477.000000	0.047940 
476.000000	0.049460 
475.000000	0.050970 
474.000000	0.052570 
473.000000	0.054110 
472.000000	0.055770 
471.000000	0.057520 
470.000000	0.059200 
469.000000	0.061010 
468.000000	0.062830 
467.000000	0.064540 
466.000000	0.066220 
465.000000	0.068000 
464.000000	0.069650 
463.000000	0.071499 
462.000000	0.073280 
461.000000	0.074980 
460.000000	0.076500 
459.000000	0.078080 
458.000000	0.079750 
457.000000	0.081290 
456.000000	0.082840 
455.000000	0.084400 
454.000000	0.085920 
453.000000	0.087460 
452.000000	0.088870 
451.000000	0.090280 
450.000000	0.091579 
449.000000	0.092799 
448.000000	0.094200 
447.000000	0.095360 
446.000000	0.096490 
445.000000	0.097590 
444.000000	0.098650 
443.000000	0.099700 
442.000000	0.100800 
441.000000	0.101870 
440.000000	0.102810 
439.000000	0.103700 
438.000000	0.104620 
437.000000	0.105550 
436.000000	0.106370 
435.000000	0.107230 
434.000000	0.108050 
433.000000	0.108940 
432.000000	0.109680 
431.000000	0.110470 
430.000000	0.111200 
429.000000	0.111910 
428.000000	0.112620 
427.000000	0.113560 
426.000000	0.114180 
425.000000	0.114900 
424.000000	0.115790 
423.000000	0.116590 
422.000000	0.117300 
421.000000	0.118040 
420.000000	0.118740 
419.000000	0.119600 
418.000000	0.120360 
417.000000	0.121210 
416.000000	0.122020 
415.000000	0.122890 
414.000000	0.123760 
413.000000	0.124650 
412.000000	0.125490 
411.000000	0.126470 
410.000000	0.127290 
409.000000	0.128200 
408.000000	0.129270 
407.000000	0.130230 
406.000000	0.131110 
405.000000	0.131970 
404.000000	0.133000 
403.000000	0.133860 
402.000000	0.134800 
401.000000	0.135830 
400.000000	0.136740 
399.000000	0.137640 
398.000000	0.138620 
397.000000	0.139680 
396.000000	0.140600 
395.000000	0.141570 
394.000000	0.142630 
393.000000	0.143610 
392.000000	0.144600 
391.000000	0.145590 
390.000000	0.146600 
389.000000	0.147720 
388.000000	0.148600 
387.000000	0.149620 
386.000000	0.150660 
385.000000	0.151450 
384.000000	0.154120 
383.000000	0.160520 
382.000000	0.161360 
381.000000	0.162960 
380.000000	0.164110 
379.000000	0.165520 
378.000000	0.166780 
377.000000	0.167940 
376.000000	0.169040 
375.000000	0.170510 
374.000000	0.171540 
373.000000	0.172980 
372.000000	0.174120 
371.000000	0.175390 
370.000000	0.176680 
369.000000	0.177820 
368.000000	0.179100 
367.000000	0.180350 
366.000000	0.181520 
365.000000	0.183070 
364.000000	0.184430 
363.000000	0.185730 
362.000000	0.186890 
361.000000	0.188180 
360.000000	0.189490 
359.000000	0.190920 
358.000000	0.192110 
357.000000	0.193560 
356.000000	0.195040 
355.000000	0.196400 
354.000000	0.197910 
353.000000	0.199510 
352.000000	0.201060 
351.000000	0.202320 
350.000000	0.203810 
349.000000	0.205420 
348.000000	0.207050 
347.000000	0.208490 
346.000000	0.210010 
345.000000	0.211670 
344.000000	0.213060 
343.000000	0.214660 
342.000000	0.216200 
341.000000	0.217880 
340.000000	0.219580 
339.000000	0.221110 
338.000000	0.222660 
337.000000	0.224260 
336.000000	0.225940 
335.000000	0.227390 
334.000000	0.228990 
333.000000	0.230880 
332.000000	0.232540 
331.000000	0.234630 
330.000000	0.235860 
329.000000	0.237930 
328.000000	0.239810 
327.000000	0.242730 
326.000000	0.244860 
325.000000	0.246920 
324.000000	0.248880 
323.000000	0.251060 
322.000000	0.253110 
321.000000	0.255390 
320.000000	0.257460 
319.000000	0.259500 
318.000000	0.261630 
317.000000	0.264320 
316.000000	0.266570 
315.000000	0.269070 
314.000000	0.271300 
313.000000	0.273890 
312.000000	0.276370 
311.000000	0.278900 
310.000000	0.281450 
309.000000	0.284040 
308.000000	0.286830 
307.000000	0.289350 
306.000000	0.292570 
305.000000	0.295340 
304.000000	0.298340 
303.000000	0.301330 
302.000000	0.303830 
301.000000	0.307080 
300.000000	0.310490 

