PE UV                   SPECTRUM    ASCII       PEDS        1.60        
  -1
23MS156.SP
24/10/24
16:00:14.00
24/10/24
16:02:08.00


400.000000
1









4444

SCAN
1
1


0.0
480.0
2.00
MANUAL



UV/VIS




































#HDR
-1
-1
#GR
NM
A
0.00000011920928955078
0.0
700.000000
1.000000
301
8
0.101460
0.027780
#DATA
700.000000	0.027780 
699.000000	0.027850 
698.000000	0.027950 
697.000000	0.027950 
696.000000	0.027990 
695.000000	0.028110 
694.000000	0.028190 
693.000000	0.028190 
692.000000	0.028220 
691.000000	0.028410 
690.000000	0.028470 
689.000000	0.028560 
688.000000	0.028620 
687.000000	0.028730 
686.000000	0.028860 
685.000000	0.028820 
684.000000	0.028970 
683.000000	0.029030 
682.000000	0.029010 
681.000000	0.029160 
680.000000	0.029180 
679.000000	0.029290 
678.000000	0.029450 
677.000000	0.029520 
676.000000	0.029610 
675.000000	0.029630 
674.000000	0.029680 
673.000000	0.029810 
672.000000	0.029910 
671.000000	0.029960 
670.000000	0.030070 
669.000000	0.030230 
668.000000	0.030260 
667.000000	0.030250 
666.000000	0.030450 
665.000000	0.030550 
664.000000	0.030520 
663.000000	0.030740 
662.000000	0.030820 
661.000000	0.030850 
660.000000	0.030890 
659.000000	0.031000 
658.000000	0.031120 
657.000000	0.031120 
656.000000	0.031190 
655.000000	0.031280 
654.000000	0.031300 
653.000000	0.031450 
652.000000	0.031520 
651.000000	0.031630 
650.000000	0.031720 
649.000000	0.031740 
648.000000	0.031840 
647.000000	0.032010 
646.000000	0.031970 
645.000000	0.032020 
644.000000	0.032130 
643.000000	0.032300 
642.000000	0.032370 
641.000000	0.032400 
640.000000	0.032460 
639.000000	0.032600 
638.000000	0.032670 
637.000000	0.032770 
636.000000	0.032850 
635.000000	0.032880 
634.000000	0.032910 
633.000000	0.033100 
632.000000	0.033250 
631.000000	0.033230 
630.000000	0.033420 
629.000000	0.033410 
628.000000	0.033550 
627.000000	0.033630 
626.000000	0.033680 
625.000000	0.033810 
624.000000	0.033860 
623.000000	0.033970 
622.000000	0.034080 
621.000000	0.034140 
620.000000	0.034260 
619.000000	0.034320 
618.000000	0.034410 
617.000000	0.034510 
616.000000	0.034610 
615.000000	0.034790 
614.000000	0.034860 
613.000000	0.034950 
612.000000	0.034990 
611.000000	0.034970 
610.000000	0.035260 
609.000000	0.035230 
608.000000	0.035310 
607.000000	0.035400 
606.000000	0.035550 
605.000000	0.035570 
604.000000	0.035720 
603.000000	0.035780 
602.000000	0.035860 
601.000000	0.036030 
600.000000	0.036130 
599.000000	0.036180 
598.000000	0.036260 
597.000000	0.036350 
596.000000	0.036520 
595.000000	0.036580 
594.000000	0.036750 
593.000000	0.036840 
592.000000	0.036920 
591.000000	0.037020 
590.000000	0.037100 
589.000000	0.037150 
588.000000	0.037320 
587.000000	0.037430 
586.000000	0.037540 
585.000000	0.037670 
584.000000	0.037730 
583.000000	0.037770 
582.000000	0.037970 
581.000000	0.038050 
580.000000	0.038180 
579.000000	0.038300 
578.000000	0.038350 
577.000000	0.038480 
576.000000	0.038550 
575.000000	0.038710 
574.000000	0.038830 
573.000000	0.039000 
572.000000	0.039030 
571.000000	0.039130 
570.000000	0.039260 
569.000000	0.039370 
568.000000	0.039530 
567.000000	0.039650 
566.000000	0.039780 
565.000000	0.039910 
564.000000	0.040010 
563.000000	0.040160 
562.000000	0.040280 
561.000000	0.040380 
560.000000	0.040430 
559.000000	0.040550 
558.000000	0.040720 
557.000000	0.040980 
556.000000	0.041120 
555.000000	0.041210 
554.000000	0.041310 
553.000000	0.041430 
552.000000	0.041600 
551.000000	0.041690 
550.000000	0.041830 
549.000000	0.041940 
548.000000	0.042140 
547.000000	0.042270 
546.000000	0.042390 
545.000000	0.042590 
544.000000	0.042700 
543.000000	0.042780 
542.000000	0.042910 
541.000000	0.043090 
540.000000	0.043210 
539.000000	0.043310 
538.000000	0.043460 
537.000000	0.043660 
536.000000	0.043820 
535.000000	0.043980 
534.000000	0.044130 
533.000000	0.044300 
532.000000	0.044470 
531.000000	0.044590 
530.000000	0.044840 
529.000000	0.044990 
528.000000	0.045210 
527.000000	0.045270 
526.000000	0.045530 
525.000000	0.045620 
524.000000	0.045820 
523.000000	0.046030 
522.000000	0.046220 
521.000000	0.046430 
520.000000	0.046590 
519.000000	0.046820 
518.000000	0.047050 
517.000000	0.047170 
516.000000	0.047460 
515.000000	0.047530 
514.000000	0.047810 
513.000000	0.047970 
512.000000	0.048120 
511.000000	0.048520 
510.000000	0.048780 
509.000000	0.048910 
508.000000	0.049210 
507.000000	0.049460 
506.000000	0.049690 
505.000000	0.049860 
504.000000	0.050130 
503.000000	0.050360 
502.000000	0.050570 
501.000000	0.050890 
500.000000	0.051210 
499.000000	0.051510 
498.000000	0.051750 
497.000000	0.051990 
496.000000	0.052480 
495.000000	0.052770 
494.000000	0.053010 
493.000000	0.053330 
492.000000	0.053670 
491.000000	0.053960 
490.000000	0.054320 
489.000000	0.054590 
488.000000	0.054960 
487.000000	0.055280 
486.000000	0.055540 
485.000000	0.055860 
484.000000	0.056230 
483.000000	0.056550 
482.000000	0.056880 
481.000000	0.057290 
480.000000	0.057790 
479.000000	0.058140 
478.000000	0.058620 
477.000000	0.059080 
476.000000	0.059450 
475.000000	0.059800 
474.000000	0.060270 
473.000000	0.060710 
472.000000	0.061230 
471.000000	0.061780 
470.000000	0.062370 
469.000000	0.062870 
468.000000	0.063360 
467.000000	0.063860 
466.000000	0.064440 
465.000000	0.064940 
464.000000	0.065559 
463.000000	0.066290 
462.000000	0.066820 
461.000000	0.067280 
460.000000	0.067940 
459.000000	0.068520 
458.000000	0.069099 
457.000000	0.069709 
456.000000	0.070340 
455.000000	0.070860 
454.000000	0.071450 
453.000000	0.072179 
452.000000	0.072800 
451.000000	0.073480 
450.000000	0.074160 
449.000000	0.074870 
448.000000	0.075540 
447.000000	0.076090 
446.000000	0.076689 
445.000000	0.077619 
444.000000	0.078330 
443.000000	0.079089 
442.000000	0.079830 
441.000000	0.080500 
440.000000	0.080960 
439.000000	0.081650 
438.000000	0.082220 
437.000000	0.082989 
436.000000	0.083570 
435.000000	0.084250 
434.000000	0.084779 
433.000000	0.085459 
432.000000	0.086120 
431.000000	0.086650 
430.000000	0.087260 
429.000000	0.087850 
428.000000	0.088359 
427.000000	0.089039 
426.000000	0.089460 
425.000000	0.089980 
424.000000	0.090630 
423.000000	0.091160 
422.000000	0.091770 
421.000000	0.092210 
420.000000	0.092710 
419.000000	0.093229 
418.000000	0.093659 
417.000000	0.094020 
416.000000	0.094479 
415.000000	0.095019 
414.000000	0.095730 
413.000000	0.096160 
412.000000	0.096650 
411.000000	0.097070 
410.000000	0.097449 
409.000000	0.097970 
408.000000	0.098350 
407.000000	0.098730 
406.000000	0.099300 
405.000000	0.099770 
404.000000	0.100080 
403.000000	0.100390 
402.000000	0.100680 
401.000000	0.101130 
400.000000	0.101460 

