PE UV                   SPECTRUM    ASCII       PEDS        1.60        
  -1
23MS182.SP
24/10/24
16:16:33.00
24/10/24
16:17:46.00


400.000000
1









4444

SCAN
1
1


0.0
480.0
2.00
MANUAL



UV/VIS




































#HDR
-1
-1
#GR
NM
A
0.00000011920928955078
0.0
700.000000
1.000000
301
8
0.138610
0.055980
#DATA
700.000000	0.055980 
699.000000	0.056050 
698.000000	0.056090 
697.000000	0.056090 
696.000000	0.056040 
695.000000	0.056210 
694.000000	0.056280 
693.000000	0.056370 
692.000000	0.056200 
691.000000	0.056350 
690.000000	0.056400 
689.000000	0.056460 
688.000000	0.056550 
687.000000	0.056700 
686.000000	0.056710 
685.000000	0.056880 
684.000000	0.056900 
683.000000	0.056980 
682.000000	0.057020 
681.000000	0.057050 
680.000000	0.057230 
679.000000	0.057200 
678.000000	0.057290 
677.000000	0.057370 
676.000000	0.057420 
675.000000	0.057400 
674.000000	0.057470 
673.000000	0.057530 
672.000000	0.057720 
671.000000	0.057750 
670.000000	0.057770 
669.000000	0.057850 
668.000000	0.057910 
667.000000	0.057900 
666.000000	0.058110 
665.000000	0.058140 
664.000000	0.058150 
663.000000	0.058220 
662.000000	0.058290 
661.000000	0.058300 
660.000000	0.058320 
659.000000	0.058420 
658.000000	0.058470 
657.000000	0.058430 
656.000000	0.058560 
655.000000	0.058700 
654.000000	0.058710 
653.000000	0.058780 
652.000000	0.058820 
651.000000	0.058870 
650.000000	0.058880 
649.000000	0.058990 
648.000000	0.059040 
647.000000	0.059100 
646.000000	0.059150 
645.000000	0.059180 
644.000000	0.059240 
643.000000	0.059360 
642.000000	0.059370 
641.000000	0.059440 
640.000000	0.059500 
639.000000	0.059580 
638.000000	0.059630 
637.000000	0.059660 
636.000000	0.059790 
635.000000	0.059810 
634.000000	0.059840 
633.000000	0.059910 
632.000000	0.060040 
631.000000	0.060000 
630.000000	0.060200 
629.000000	0.060140 
628.000000	0.060290 
627.000000	0.060320 
626.000000	0.060330 
625.000000	0.060410 
624.000000	0.060480 
623.000000	0.060600 
622.000000	0.060620 
621.000000	0.060650 
620.000000	0.060780 
619.000000	0.060790 
618.000000	0.060850 
617.000000	0.060940 
616.000000	0.061100 
615.000000	0.061200 
614.000000	0.061290 
613.000000	0.061300 
612.000000	0.061340 
611.000000	0.061390 
610.000000	0.061590 
609.000000	0.061610 
608.000000	0.061710 
607.000000	0.061720 
606.000000	0.061880 
605.000000	0.061900 
604.000000	0.062080 
603.000000	0.062150 
602.000000	0.062210 
601.000000	0.062290 
600.000000	0.062380 
599.000000	0.062480 
598.000000	0.062610 
597.000000	0.062700 
596.000000	0.062830 
595.000000	0.062909 
594.000000	0.063080 
593.000000	0.063130 
592.000000	0.063220 
591.000000	0.063300 
590.000000	0.063339 
589.000000	0.063409 
588.000000	0.063620 
587.000000	0.063700 
586.000000	0.063790 
585.000000	0.063950 
584.000000	0.063990 
583.000000	0.064019 
582.000000	0.064080 
581.000000	0.064159 
580.000000	0.064290 
579.000000	0.064330 
578.000000	0.064360 
577.000000	0.064510 
576.000000	0.064570 
575.000000	0.064670 
574.000000	0.064790 
573.000000	0.064850 
572.000000	0.064920 
571.000000	0.064949 
570.000000	0.065050 
569.000000	0.065140 
568.000000	0.065230 
567.000000	0.065340 
566.000000	0.065390 
565.000000	0.065500 
564.000000	0.065580 
563.000000	0.065610 
562.000000	0.065800 
561.000000	0.065910 
560.000000	0.066050 
559.000000	0.066120 
558.000000	0.066080 
557.000000	0.066050 
556.000000	0.066180 
555.000000	0.066309 
554.000000	0.066360 
553.000000	0.066500 
552.000000	0.066690 
551.000000	0.066790 
550.000000	0.066880 
549.000000	0.067059 
548.000000	0.067230 
547.000000	0.067380 
546.000000	0.067520 
545.000000	0.067700 
544.000000	0.067820 
543.000000	0.067910 
542.000000	0.068080 
541.000000	0.068230 
540.000000	0.068380 
539.000000	0.068560 
538.000000	0.068800 
537.000000	0.068930 
536.000000	0.069050 
535.000000	0.069300 
534.000000	0.069540 
533.000000	0.069760 
532.000000	0.069980 
531.000000	0.070170 
530.000000	0.070300 
529.000000	0.070520 
528.000000	0.070800 
527.000000	0.070900 
526.000000	0.071210 
525.000000	0.071319 
524.000000	0.071679 
523.000000	0.071890 
522.000000	0.072220 
521.000000	0.072440 
520.000000	0.072660 
519.000000	0.072910 
518.000000	0.073190 
517.000000	0.073390 
516.000000	0.073789 
515.000000	0.073990 
514.000000	0.074410 
513.000000	0.074620 
512.000000	0.074880 
511.000000	0.075390 
510.000000	0.075670 
509.000000	0.075980 
508.000000	0.076350 
507.000000	0.076730 
506.000000	0.076980 
505.000000	0.077330 
504.000000	0.077750 
503.000000	0.078119 
502.000000	0.078430 
501.000000	0.078850 
500.000000	0.079390 
499.000000	0.079750 
498.000000	0.080210 
497.000000	0.080610 
496.000000	0.081090 
495.000000	0.081470 
494.000000	0.081960 
493.000000	0.082480 
492.000000	0.083120 
491.000000	0.083500 
490.000000	0.084050 
489.000000	0.084560 
488.000000	0.085060 
487.000000	0.085520 
486.000000	0.085999 
485.000000	0.086580 
484.000000	0.087069 
483.000000	0.087740 
482.000000	0.088280 
481.000000	0.088789 
480.000000	0.089480 
479.000000	0.090050 
478.000000	0.090800 
477.000000	0.091520 
476.000000	0.092110 
475.000000	0.092770 
474.000000	0.093460 
473.000000	0.094159 
472.000000	0.094839 
471.000000	0.095650 
470.000000	0.096430 
469.000000	0.097090 
468.000000	0.097770 
467.000000	0.098500 
466.000000	0.099430 
465.000000	0.100200 
464.000000	0.100940 
463.000000	0.101780 
462.000000	0.102500 
461.000000	0.103200 
460.000000	0.103870 
459.000000	0.104590 
458.000000	0.105310 
457.000000	0.106100 
456.000000	0.106960 
455.000000	0.107630 
454.000000	0.108230 
453.000000	0.109060 
452.000000	0.109710 
451.000000	0.110360 
450.000000	0.110990 
449.000000	0.111750 
448.000000	0.112390 
447.000000	0.113050 
446.000000	0.113560 
445.000000	0.114330 
444.000000	0.115060 
443.000000	0.115760 
442.000000	0.116350 
441.000000	0.116890 
440.000000	0.117380 
439.000000	0.117880 
438.000000	0.118420 
437.000000	0.119060 
436.000000	0.119540 
435.000000	0.120180 
434.000000	0.120600 
433.000000	0.121110 
432.000000	0.121630 
431.000000	0.122330 
430.000000	0.122710 
429.000000	0.123290 
428.000000	0.123730 
427.000000	0.124400 
426.000000	0.124780 
425.000000	0.125350 
424.000000	0.126020 
423.000000	0.126500 
422.000000	0.126920 
421.000000	0.127440 
420.000000	0.127990 
419.000000	0.128520 
418.000000	0.128950 
417.000000	0.129530 
416.000000	0.130050 
415.000000	0.130570 
414.000000	0.131110 
413.000000	0.131600 
412.000000	0.132130 
411.000000	0.132610 
410.000000	0.133090 
409.000000	0.133800 
408.000000	0.134430 
407.000000	0.134990 
406.000000	0.135620 
405.000000	0.136160 
404.000000	0.136670 
403.000000	0.137070 
402.000000	0.137570 
401.000000	0.138170 
400.000000	0.138610 

