PE UV                   SPECTRUM    ASCII       PEDS        1.60        
  -1
23MS137.SP
24/10/24
16:21:49.00
24/10/24
16:23:04.00


400.000000
1









4444

SCAN
1
1


0.0
480.0
2.00
MANUAL



UV/VIS




































#HDR
-1
-1
#GR
NM
A
0.00000011920928955078
0.0
700.000000
1.000000
301
8
0.258900
0.012310
#DATA
700.000000	0.012310 
699.000000	0.012400 
698.000000	0.012450 
697.000000	0.012440 
696.000000	0.012440 
695.000000	0.012510 
694.000000	0.012600 
693.000000	0.012580 
692.000000	0.012570 
691.000000	0.012750 
690.000000	0.012760 
689.000000	0.012780 
688.000000	0.012760 
687.000000	0.012930 
686.000000	0.013000 
685.000000	0.013010 
684.000000	0.013160 
683.000000	0.013160 
682.000000	0.013120 
681.000000	0.013290 
680.000000	0.013250 
679.000000	0.013340 
678.000000	0.013320 
677.000000	0.013390 
676.000000	0.013450 
675.000000	0.013460 
674.000000	0.013480 
673.000000	0.013610 
672.000000	0.013590 
671.000000	0.013640 
670.000000	0.013690 
669.000000	0.013780 
668.000000	0.013820 
667.000000	0.013770 
666.000000	0.013910 
665.000000	0.014030 
664.000000	0.013940 
663.000000	0.014090 
662.000000	0.014110 
661.000000	0.014100 
660.000000	0.014150 
659.000000	0.014150 
658.000000	0.014200 
657.000000	0.014240 
656.000000	0.014270 
655.000000	0.014330 
654.000000	0.014330 
653.000000	0.014440 
652.000000	0.014510 
651.000000	0.014590 
650.000000	0.014670 
649.000000	0.014700 
648.000000	0.014710 
647.000000	0.014800 
646.000000	0.014850 
645.000000	0.014880 
644.000000	0.014900 
643.000000	0.014980 
642.000000	0.015060 
641.000000	0.015100 
640.000000	0.015110 
639.000000	0.015190 
638.000000	0.015270 
637.000000	0.015330 
636.000000	0.015430 
635.000000	0.015370 
634.000000	0.015500 
633.000000	0.015510 
632.000000	0.015630 
631.000000	0.015690 
630.000000	0.015790 
629.000000	0.015750 
628.000000	0.015830 
627.000000	0.015970 
626.000000	0.015950 
625.000000	0.016010 
624.000000	0.016060 
623.000000	0.016180 
622.000000	0.016200 
621.000000	0.016310 
620.000000	0.016390 
619.000000	0.016340 
618.000000	0.016420 
617.000000	0.016560 
616.000000	0.016610 
615.000000	0.016700 
614.000000	0.016850 
613.000000	0.016860 
612.000000	0.016900 
611.000000	0.016870 
610.000000	0.017150 
609.000000	0.017130 
608.000000	0.017230 
607.000000	0.017200 
606.000000	0.017340 
605.000000	0.017420 
604.000000	0.017450 
603.000000	0.017520 
602.000000	0.017570 
601.000000	0.017670 
600.000000	0.017790 
599.000000	0.017820 
598.000000	0.017900 
597.000000	0.017990 
596.000000	0.018130 
595.000000	0.018240 
594.000000	0.018360 
593.000000	0.018320 
592.000000	0.018410 
591.000000	0.018560 
590.000000	0.018540 
589.000000	0.018640 
588.000000	0.018960 
587.000000	0.018970 
586.000000	0.019040 
585.000000	0.019170 
584.000000	0.019250 
583.000000	0.019370 
582.000000	0.019450 
581.000000	0.019520 
580.000000	0.019710 
579.000000	0.019740 
578.000000	0.019850 
577.000000	0.019930 
576.000000	0.020010 
575.000000	0.020170 
574.000000	0.020310 
573.000000	0.020400 
572.000000	0.020490 
571.000000	0.020640 
570.000000	0.020710 
569.000000	0.020880 
568.000000	0.020980 
567.000000	0.021110 
566.000000	0.021270 
565.000000	0.021380 
564.000000	0.021480 
563.000000	0.021600 
562.000000	0.021860 
561.000000	0.021910 
560.000000	0.022060 
559.000000	0.022220 
558.000000	0.022420 
557.000000	0.022660 
556.000000	0.022790 
555.000000	0.022990 
554.000000	0.023070 
553.000000	0.023270 
552.000000	0.023430 
551.000000	0.023590 
550.000000	0.023770 
549.000000	0.024060 
548.000000	0.024180 
547.000000	0.024380 
546.000000	0.024590 
545.000000	0.024870 
544.000000	0.025030 
543.000000	0.025170 
542.000000	0.025430 
541.000000	0.025680 
540.000000	0.025940 
539.000000	0.026100 
538.000000	0.026400 
537.000000	0.026690 
536.000000	0.026970 
535.000000	0.027260 
534.000000	0.027590 
533.000000	0.027880 
532.000000	0.028260 
531.000000	0.028550 
530.000000	0.028950 
529.000000	0.029380 
528.000000	0.029790 
527.000000	0.030090 
526.000000	0.030630 
525.000000	0.031080 
524.000000	0.031460 
523.000000	0.032050 
522.000000	0.032610 
521.000000	0.033190 
520.000000	0.033650 
519.000000	0.034310 
518.000000	0.034990 
517.000000	0.035490 
516.000000	0.036200 
515.000000	0.036890 
514.000000	0.037730 
513.000000	0.038420 
512.000000	0.039260 
511.000000	0.040290 
510.000000	0.041230 
509.000000	0.042110 
508.000000	0.043200 
507.000000	0.044280 
506.000000	0.045320 
505.000000	0.046500 
504.000000	0.047830 
503.000000	0.049180 
502.000000	0.050530 
501.000000	0.052080 
500.000000	0.053790 
499.000000	0.055380 
498.000000	0.057000 
497.000000	0.058760 
496.000000	0.060770 
495.000000	0.062630 
494.000000	0.064699 
493.000000	0.066710 
492.000000	0.069060 
491.000000	0.071230 
490.000000	0.073609 
489.000000	0.075970 
488.000000	0.078400 
487.000000	0.080890 
486.000000	0.083260 
485.000000	0.086030 
484.000000	0.088940 
483.000000	0.091860 
482.000000	0.094720 
481.000000	0.097680 
480.000000	0.100660 
479.000000	0.103610 
478.000000	0.106630 
477.000000	0.109770 
476.000000	0.112850 
475.000000	0.116030 
474.000000	0.119330 
473.000000	0.122540 
472.000000	0.125740 
471.000000	0.128920 
470.000000	0.132020 
469.000000	0.135040 
468.000000	0.138000 
467.000000	0.141020 
466.000000	0.144070 
465.000000	0.147140 
464.000000	0.149960 
463.000000	0.153050 
462.000000	0.155700 
461.000000	0.158020 
460.000000	0.160430 
459.000000	0.162890 
458.000000	0.165270 
457.000000	0.167500 
456.000000	0.169720 
455.000000	0.171920 
454.000000	0.173850 
453.000000	0.176130 
452.000000	0.177930 
451.000000	0.179770 
450.000000	0.181640 
449.000000	0.183290 
448.000000	0.185050 
447.000000	0.186730 
446.000000	0.188390 
445.000000	0.190140 
444.000000	0.191780 
443.000000	0.193460 
442.000000	0.194910 
441.000000	0.196430 
440.000000	0.197780 
439.000000	0.199230 
438.000000	0.200660 
437.000000	0.202370 
436.000000	0.203680 
435.000000	0.205230 
434.000000	0.206530 
433.000000	0.207980 
432.000000	0.209390 
431.000000	0.210770 
430.000000	0.212100 
429.000000	0.213460 
428.000000	0.214940 
427.000000	0.216570 
426.000000	0.218000 
425.000000	0.219440 
424.000000	0.221120 
423.000000	0.222480 
422.000000	0.223970 
421.000000	0.225310 
420.000000	0.226680 
419.000000	0.228400 
418.000000	0.229770 
417.000000	0.231410 
416.000000	0.232940 
415.000000	0.234560 
414.000000	0.236200 
413.000000	0.237760 
412.000000	0.239310 
411.000000	0.240940 
410.000000	0.242530 
409.000000	0.244300 
408.000000	0.246020 
407.000000	0.247680 
406.000000	0.249460 
405.000000	0.251120 
404.000000	0.252670 
403.000000	0.254140 
402.000000	0.255730 
401.000000	0.257370 
400.000000	0.258900 

