PE UV                   SPECTRUM    ASCII       PEDS        1.60        
  -1
23MS083.SP
24/10/29
15:00:18.00
24/10/29
15:02:06.00


300.000000
1









4444

SCAN
1
1


0.0
480.0
2.00
MANUAL



UV/VIS




































#HDR
-1
-1
#GR
NM
A
0.00000011920928955078
0.0
600.000000
1.000000
301
8
1.089400
0.032640
#DATA
600.000000	0.032640 
599.000000	0.032680 
598.000000	0.032710 
597.000000	0.032950 
596.000000	0.032930 
595.000000	0.033040 
594.000000	0.033190 
593.000000	0.033280 
592.000000	0.033390 
591.000000	0.033470 
590.000000	0.033540 
589.000000	0.033590 
588.000000	0.033730 
587.000000	0.033870 
586.000000	0.033870 
585.000000	0.034070 
584.000000	0.034120 
583.000000	0.034260 
582.000000	0.034400 
581.000000	0.034560 
580.000000	0.034730 
579.000000	0.034760 
578.000000	0.034960 
577.000000	0.035130 
576.000000	0.035220 
575.000000	0.035400 
574.000000	0.035580 
573.000000	0.035790 
572.000000	0.035930 
571.000000	0.036180 
570.000000	0.036330 
569.000000	0.036520 
568.000000	0.036760 
567.000000	0.036940 
566.000000	0.037180 
565.000000	0.037480 
564.000000	0.037710 
563.000000	0.037900 
562.000000	0.038230 
561.000000	0.038380 
560.000000	0.038820 
559.000000	0.039210 
558.000000	0.039520 
557.000000	0.039980 
556.000000	0.040370 
555.000000	0.040820 
554.000000	0.041140 
553.000000	0.041550 
552.000000	0.042100 
551.000000	0.042540 
550.000000	0.042980 
549.000000	0.043440 
548.000000	0.043990 
547.000000	0.044470 
546.000000	0.045070 
545.000000	0.045560 
544.000000	0.046170 
543.000000	0.046790 
542.000000	0.047430 
541.000000	0.048130 
540.000000	0.048860 
539.000000	0.049510 
538.000000	0.050230 
537.000000	0.051010 
536.000000	0.051780 
535.000000	0.052700 
534.000000	0.053600 
533.000000	0.054540 
532.000000	0.055420 
531.000000	0.056350 
530.000000	0.057410 
529.000000	0.058530 
528.000000	0.059520 
527.000000	0.060740 
526.000000	0.061900 
525.000000	0.063120 
524.000000	0.064390 
523.000000	0.065620 
522.000000	0.066890 
521.000000	0.068220 
520.000000	0.069620 
519.000000	0.071050 
518.000000	0.072410 
517.000000	0.073940 
516.000000	0.075470 
515.000000	0.076990 
514.000000	0.078640 
513.000000	0.080290 
512.000000	0.081860 
511.000000	0.083640 
510.000000	0.085380 
509.000000	0.087100 
508.000000	0.089130 
507.000000	0.091160 
506.000000	0.093049 
505.000000	0.095040 
504.000000	0.097220 
503.000000	0.099320 
502.000000	0.101470 
501.000000	0.103740 
500.000000	0.105960 
499.000000	0.108480 
498.000000	0.110860 
497.000000	0.113480 
496.000000	0.116020 
495.000000	0.118580 
494.000000	0.121180 
493.000000	0.123790 
492.000000	0.126530 
491.000000	0.129140 
490.000000	0.132160 
489.000000	0.135050 
488.000000	0.137990 
487.000000	0.140940 
486.000000	0.143960 
485.000000	0.147140 
484.000000	0.150200 
483.000000	0.153420 
482.000000	0.156700 
481.000000	0.160110 
480.000000	0.163570 
479.000000	0.167170 
478.000000	0.170780 
477.000000	0.174450 
476.000000	0.178350 
475.000000	0.182080 
474.000000	0.185940 
473.000000	0.189890 
472.000000	0.194020 
471.000000	0.198120 
470.000000	0.202570 
469.000000	0.207080 
468.000000	0.211500 
467.000000	0.215850 
466.000000	0.220470 
465.000000	0.224880 
464.000000	0.229350 
463.000000	0.233920 
462.000000	0.238460 
461.000000	0.242840 
460.000000	0.247320 
459.000000	0.251870 
458.000000	0.256590 
457.000000	0.261190 
456.000000	0.265800 
455.000000	0.270340 
454.000000	0.274900 
453.000000	0.279410 
452.000000	0.284030 
451.000000	0.288700 
450.000000	0.293250 
449.000000	0.297860 
448.000000	0.302450 
447.000000	0.306820 
446.000000	0.311250 
445.000000	0.315670 
444.000000	0.320080 
443.000000	0.324570 
442.000000	0.328940 
441.000000	0.333200 
440.000000	0.337310 
439.000000	0.341660 
438.000000	0.345710 
437.000000	0.349980 
436.000000	0.353880 
435.000000	0.357760 
434.000000	0.361690 
433.000000	0.365490 
432.000000	0.369410 
431.000000	0.372990 
430.000000	0.376460 
429.000000	0.380210 
428.000000	0.383680 
427.000000	0.387260 
426.000000	0.390610 
425.000000	0.393900 
424.000000	0.397320 
423.000000	0.400630 
422.000000	0.404090 
421.000000	0.406840 
420.000000	0.410050 
419.000000	0.413230 
418.000000	0.416520 
417.000000	0.419790 
416.000000	0.423060 
415.000000	0.426220 
414.000000	0.429310 
413.000000	0.432660 
412.000000	0.435910 
411.000000	0.439130 
410.000000	0.442350 
409.000000	0.445590 
408.000000	0.448850 
407.000000	0.451940 
406.000000	0.455010 
405.000000	0.458330 
404.000000	0.461160 
403.000000	0.464320 
402.000000	0.467350 
401.000000	0.470390 
400.000000	0.473470 
399.000000	0.476590 
398.000000	0.479430 
397.000000	0.482560 
396.000000	0.485600 
395.000000	0.488630 
394.000000	0.491690 
393.000000	0.494920 
392.000000	0.497930 
391.000000	0.501070 
390.000000	0.504040 
389.000000	0.507100 
388.000000	0.510050 
387.000000	0.513140 
386.000000	0.516110 
385.000000	0.519050 
384.000000	0.525860 
383.000000	0.551670 
382.000000	0.554729 
381.000000	0.560130 
380.000000	0.564250 
379.000000	0.568609 
378.000000	0.572850 
377.000000	0.577300 
376.000000	0.581590 
375.000000	0.586190 
374.000000	0.590010 
373.000000	0.594690 
372.000000	0.599079 
371.000000	0.603750 
370.000000	0.608320 
369.000000	0.612320 
368.000000	0.616970 
367.000000	0.621210 
366.000000	0.625440 
365.000000	0.630630 
364.000000	0.635070 
363.000000	0.639870 
362.000000	0.644740 
361.000000	0.649390 
360.000000	0.654080 
359.000000	0.659060 
358.000000	0.663450 
357.000000	0.668790 
356.000000	0.673910 
355.000000	0.678950 
354.000000	0.684240 
353.000000	0.689380 
352.000000	0.695100 
351.000000	0.700260 
350.000000	0.704910 
349.000000	0.710730 
348.000000	0.716330 
347.000000	0.722270 
346.000000	0.727460 
345.000000	0.732850 
344.000000	0.739040 
343.000000	0.744470 
342.000000	0.749990 
341.000000	0.756870 
340.000000	0.762200 
339.000000	0.768100 
338.000000	0.773690 
337.000000	0.779650 
336.000000	0.785139 
335.000000	0.791740 
334.000000	0.797250 
333.000000	0.804640 
332.000000	0.810870 
331.000000	0.817730 
330.000000	0.823790 
329.000000	0.829940 
328.000000	0.836710 
327.000000	0.843300 
326.000000	0.850190 
325.000000	0.857720 
324.000000	0.865520 
323.000000	0.872770 
322.000000	0.880710 
321.000000	0.887960 
320.000000	0.896590 
319.000000	0.904650 
318.000000	0.911890 
317.000000	0.920849 
316.000000	0.930060 
315.000000	0.938580 
314.000000	0.948380 
313.000000	0.957430 
312.000000	0.966470 
311.000000	0.975230 
310.000000	0.982739 
309.000000	0.993590 
308.000000	1.004270 
307.000000	1.014120 
306.000000	1.023870 
305.000000	1.034610 
304.000000	1.045380 
303.000000	1.055940 
302.000000	1.065260 
301.000000	1.078510 
300.000000	1.089400 

