PE UV                   SPECTRUM    ASCII       PEDS        1.60        
  -1
23MS085.SP
24/10/29
14:58:04.00
24/10/29
14:59:33.00


300.000000
1









4444

SCAN
1
1


0.0
480.0
2.00
MANUAL



UV/VIS




































#HDR
-1
-1
#GR
NM
A
0.00000011920928955078
0.0
600.000000
1.000000
301
8
0.737310
0.018220
#DATA
600.000000	0.018230 
599.000000	0.018250 
598.000000	0.018220 
597.000000	0.018360 
596.000000	0.018320 
595.000000	0.018370 
594.000000	0.018450 
593.000000	0.018450 
592.000000	0.018490 
591.000000	0.018550 
590.000000	0.018590 
589.000000	0.018660 
588.000000	0.018590 
587.000000	0.018710 
586.000000	0.018710 
585.000000	0.018750 
584.000000	0.018820 
583.000000	0.018860 
582.000000	0.018910 
581.000000	0.019020 
580.000000	0.019050 
579.000000	0.019160 
578.000000	0.019190 
577.000000	0.019250 
576.000000	0.019250 
575.000000	0.019380 
574.000000	0.019400 
573.000000	0.019520 
572.000000	0.019580 
571.000000	0.019640 
570.000000	0.019680 
569.000000	0.019770 
568.000000	0.019920 
567.000000	0.019980 
566.000000	0.020060 
565.000000	0.020190 
564.000000	0.020290 
563.000000	0.020410 
562.000000	0.020520 
561.000000	0.020650 
560.000000	0.020780 
559.000000	0.020890 
558.000000	0.021090 
557.000000	0.021200 
556.000000	0.021440 
555.000000	0.021600 
554.000000	0.021760 
553.000000	0.021960 
552.000000	0.022200 
551.000000	0.022400 
550.000000	0.022620 
549.000000	0.022800 
548.000000	0.023110 
547.000000	0.023300 
546.000000	0.023580 
545.000000	0.023810 
544.000000	0.024080 
543.000000	0.024430 
542.000000	0.024770 
541.000000	0.025080 
540.000000	0.025500 
539.000000	0.025850 
538.000000	0.026190 
537.000000	0.026610 
536.000000	0.027020 
535.000000	0.027500 
534.000000	0.028010 
533.000000	0.028510 
532.000000	0.028970 
531.000000	0.029530 
530.000000	0.030130 
529.000000	0.030710 
528.000000	0.031280 
527.000000	0.031930 
526.000000	0.032550 
525.000000	0.033260 
524.000000	0.034030 
523.000000	0.034710 
522.000000	0.035520 
521.000000	0.036300 
520.000000	0.037140 
519.000000	0.037990 
518.000000	0.038700 
517.000000	0.039660 
516.000000	0.040520 
515.000000	0.041450 
514.000000	0.042480 
513.000000	0.043530 
512.000000	0.044550 
511.000000	0.045620 
510.000000	0.046690 
509.000000	0.047710 
508.000000	0.048920 
507.000000	0.050110 
506.000000	0.051330 
505.000000	0.052570 
504.000000	0.053970 
503.000000	0.055340 
502.000000	0.056710 
501.000000	0.058210 
500.000000	0.059540 
499.000000	0.061080 
498.000000	0.062600 
497.000000	0.064360 
496.000000	0.065890 
495.000000	0.067510 
494.000000	0.069230 
493.000000	0.070940 
492.000000	0.072700 
491.000000	0.074289 
490.000000	0.076009 
489.000000	0.077770 
488.000000	0.079630 
487.000000	0.081440 
486.000000	0.083270 
485.000000	0.085319 
484.000000	0.087280 
483.000000	0.089350 
482.000000	0.091450 
481.000000	0.093490 
480.000000	0.095480 
479.000000	0.097620 
478.000000	0.099820 
477.000000	0.102180 
476.000000	0.104600 
475.000000	0.106970 
474.000000	0.109510 
473.000000	0.111980 
472.000000	0.114520 
471.000000	0.117130 
470.000000	0.119660 
469.000000	0.122310 
468.000000	0.125010 
467.000000	0.127790 
466.000000	0.130860 
465.000000	0.133790 
464.000000	0.136760 
463.000000	0.139760 
462.000000	0.142800 
461.000000	0.145920 
460.000000	0.148860 
459.000000	0.151870 
458.000000	0.154970 
457.000000	0.158180 
456.000000	0.161510 
455.000000	0.164820 
454.000000	0.168160 
453.000000	0.171390 
452.000000	0.174680 
451.000000	0.178010 
450.000000	0.181220 
449.000000	0.184660 
448.000000	0.188150 
447.000000	0.191610 
446.000000	0.195000 
445.000000	0.198600 
444.000000	0.202080 
443.000000	0.205430 
442.000000	0.208990 
441.000000	0.212090 
440.000000	0.215360 
439.000000	0.218740 
438.000000	0.222130 
437.000000	0.225580 
436.000000	0.228870 
435.000000	0.232010 
434.000000	0.235160 
433.000000	0.238350 
432.000000	0.241380 
431.000000	0.244250 
430.000000	0.247130 
429.000000	0.250120 
428.000000	0.253000 
427.000000	0.255910 
426.000000	0.258790 
425.000000	0.261530 
424.000000	0.264150 
423.000000	0.266740 
422.000000	0.269300 
421.000000	0.271350 
420.000000	0.273780 
419.000000	0.276370 
418.000000	0.278900 
417.000000	0.281340 
416.000000	0.283880 
415.000000	0.286160 
414.000000	0.288510 
413.000000	0.290890 
412.000000	0.293080 
411.000000	0.295400 
410.000000	0.297740 
409.000000	0.300100 
408.000000	0.302530 
407.000000	0.304720 
406.000000	0.306850 
405.000000	0.309250 
404.000000	0.311280 
403.000000	0.313400 
402.000000	0.315420 
401.000000	0.317460 
400.000000	0.319570 
399.000000	0.321700 
398.000000	0.323690 
397.000000	0.325840 
396.000000	0.327820 
395.000000	0.329780 
394.000000	0.331750 
393.000000	0.333710 
392.000000	0.335560 
391.000000	0.337640 
390.000000	0.339620 
389.000000	0.341690 
388.000000	0.343710 
387.000000	0.345770 
386.000000	0.347750 
385.000000	0.349590 
384.000000	0.353630 
383.000000	0.368770 
382.000000	0.370580 
381.000000	0.373800 
380.000000	0.376680 
379.000000	0.379490 
378.000000	0.382430 
377.000000	0.385510 
376.000000	0.388320 
375.000000	0.391000 
374.000000	0.393960 
373.000000	0.396630 
372.000000	0.399220 
371.000000	0.402310 
370.000000	0.405220 
369.000000	0.408090 
368.000000	0.411220 
367.000000	0.414240 
366.000000	0.417020 
365.000000	0.420360 
364.000000	0.423240 
363.000000	0.426470 
362.000000	0.429690 
361.000000	0.433180 
360.000000	0.436300 
359.000000	0.439650 
358.000000	0.442890 
357.000000	0.446300 
356.000000	0.449660 
355.000000	0.453060 
354.000000	0.456580 
353.000000	0.460440 
352.000000	0.464050 
351.000000	0.467750 
350.000000	0.471420 
349.000000	0.475510 
348.000000	0.479240 
347.000000	0.483340 
346.000000	0.487130 
345.000000	0.490940 
344.000000	0.494660 
343.000000	0.498860 
342.000000	0.502420 
341.000000	0.507230 
340.000000	0.511230 
339.000000	0.515090 
338.000000	0.519220 
337.000000	0.523230 
336.000000	0.527010 
335.000000	0.531390 
334.000000	0.535210 
333.000000	0.540270 
332.000000	0.544849 
331.000000	0.549560 
330.000000	0.554080 
329.000000	0.558640 
328.000000	0.563160 
327.000000	0.568180 
326.000000	0.573120 
325.000000	0.578360 
324.000000	0.583210 
323.000000	0.588780 
322.000000	0.593980 
321.000000	0.599540 
320.000000	0.605210 
319.000000	0.611030 
318.000000	0.615970 
317.000000	0.622100 
316.000000	0.627950 
315.000000	0.633630 
314.000000	0.640040 
313.000000	0.646480 
312.000000	0.653060 
311.000000	0.658860 
310.000000	0.664910 
309.000000	0.672150 
308.000000	0.678670 
307.000000	0.685320 
306.000000	0.691910 
305.000000	0.699250 
304.000000	0.706550 
303.000000	0.714080 
302.000000	0.720800 
301.000000	0.729640 
300.000000	0.737310 

