PE UV                   SPECTRUM    ASCII       PEDS        1.60        
  -1
23MS212.SP
24/10/25
15:19:20.00
24/10/25
15:20:50.00


300.000000
1









4444

SCAN
1
1


0.0
480.0
2.00
MANUAL



UV/VIS




































#HDR
-1
-1
#GR
NM
A
0.00000011920928955078
0.0
600.000000
1.000000
301
8
0.454750
0.069099
#DATA
600.000000	0.069099 
599.000000	0.069200 
598.000000	0.069410 
597.000000	0.069490 
596.000000	0.069720 
595.000000	0.069910 
594.000000	0.070030 
593.000000	0.070180 
592.000000	0.070380 
591.000000	0.070610 
590.000000	0.070660 
589.000000	0.070840 
588.000000	0.071040 
587.000000	0.071240 
586.000000	0.071410 
585.000000	0.071560 
584.000000	0.071720 
583.000000	0.071920 
582.000000	0.071970 
581.000000	0.072220 
580.000000	0.072350 
579.000000	0.072550 
578.000000	0.072750 
577.000000	0.072920 
576.000000	0.073070 
575.000000	0.073210 
574.000000	0.073390 
573.000000	0.073590 
572.000000	0.073730 
571.000000	0.073860 
570.000000	0.074110 
569.000000	0.074300 
568.000000	0.074440 
567.000000	0.074600 
566.000000	0.074710 
565.000000	0.074910 
564.000000	0.075170 
563.000000	0.075230 
562.000000	0.075460 
561.000000	0.075689 
560.000000	0.075890 
559.000000	0.076110 
558.000000	0.076330 
557.000000	0.076590 
556.000000	0.076850 
555.000000	0.076960 
554.000000	0.077170 
553.000000	0.077369 
552.000000	0.077540 
551.000000	0.077750 
550.000000	0.078020 
549.000000	0.078210 
548.000000	0.078420 
547.000000	0.078670 
546.000000	0.078970 
545.000000	0.079070 
544.000000	0.079390 
543.000000	0.079640 
542.000000	0.079860 
541.000000	0.080120 
540.000000	0.080350 
539.000000	0.080580 
538.000000	0.080850 
537.000000	0.081100 
536.000000	0.081410 
535.000000	0.081610 
534.000000	0.081900 
533.000000	0.082160 
532.000000	0.082440 
531.000000	0.082750 
530.000000	0.083090 
529.000000	0.083419 
528.000000	0.083779 
527.000000	0.084099 
526.000000	0.084450 
525.000000	0.084800 
524.000000	0.085080 
523.000000	0.085480 
522.000000	0.085959 
521.000000	0.086280 
520.000000	0.086630 
519.000000	0.087140 
518.000000	0.087480 
517.000000	0.087910 
516.000000	0.088429 
515.000000	0.088870 
514.000000	0.089289 
513.000000	0.089820 
512.000000	0.090300 
511.000000	0.090860 
510.000000	0.091329 
509.000000	0.091910 
508.000000	0.092510 
507.000000	0.093119 
506.000000	0.093690 
505.000000	0.094210 
504.000000	0.094990 
503.000000	0.095680 
502.000000	0.096330 
501.000000	0.097059 
500.000000	0.097860 
499.000000	0.098669 
498.000000	0.099320 
497.000000	0.100110 
496.000000	0.100860 
495.000000	0.101620 
494.000000	0.102550 
493.000000	0.103450 
492.000000	0.104360 
491.000000	0.105170 
490.000000	0.106010 
489.000000	0.106900 
488.000000	0.107840 
487.000000	0.108780 
486.000000	0.109650 
485.000000	0.110660 
484.000000	0.111680 
483.000000	0.112730 
482.000000	0.113920 
481.000000	0.114980 
480.000000	0.115970 
479.000000	0.117100 
478.000000	0.118180 
477.000000	0.119200 
476.000000	0.120390 
475.000000	0.121520 
474.000000	0.122840 
473.000000	0.123930 
472.000000	0.125190 
471.000000	0.126510 
470.000000	0.127770 
469.000000	0.129010 
468.000000	0.130260 
467.000000	0.131500 
466.000000	0.132860 
465.000000	0.134250 
464.000000	0.135580 
463.000000	0.136990 
462.000000	0.138270 
461.000000	0.139720 
460.000000	0.140920 
459.000000	0.142260 
458.000000	0.143680 
457.000000	0.145070 
456.000000	0.146480 
455.000000	0.148010 
454.000000	0.149540 
453.000000	0.151030 
452.000000	0.152600 
451.000000	0.153910 
450.000000	0.155380 
449.000000	0.156840 
448.000000	0.158410 
447.000000	0.159820 
446.000000	0.161420 
445.000000	0.162960 
444.000000	0.164500 
443.000000	0.166100 
442.000000	0.167830 
441.000000	0.169340 
440.000000	0.170940 
439.000000	0.172520 
438.000000	0.174100 
437.000000	0.175830 
436.000000	0.177470 
435.000000	0.179110 
434.000000	0.180820 
433.000000	0.182550 
432.000000	0.183970 
431.000000	0.185530 
430.000000	0.187000 
429.000000	0.188610 
428.000000	0.190270 
427.000000	0.191980 
426.000000	0.193530 
425.000000	0.195170 
424.000000	0.196850 
423.000000	0.198370 
422.000000	0.200000 
421.000000	0.201380 
420.000000	0.202900 
419.000000	0.204410 
418.000000	0.205980 
417.000000	0.207520 
416.000000	0.208980 
415.000000	0.210490 
414.000000	0.212060 
413.000000	0.213590 
412.000000	0.214910 
411.000000	0.216350 
410.000000	0.217770 
409.000000	0.219210 
408.000000	0.220700 
407.000000	0.222120 
406.000000	0.223460 
405.000000	0.224780 
404.000000	0.226000 
403.000000	0.227240 
402.000000	0.228440 
401.000000	0.229730 
400.000000	0.231030 
399.000000	0.232160 
398.000000	0.233350 
397.000000	0.234760 
396.000000	0.235900 
395.000000	0.237110 
394.000000	0.238320 
393.000000	0.239420 
392.000000	0.240440 
391.000000	0.241520 
390.000000	0.242670 
389.000000	0.243910 
388.000000	0.244910 
387.000000	0.246210 
386.000000	0.247380 
385.000000	0.248290 
384.000000	0.251720 
383.000000	0.259170 
382.000000	0.260520 
381.000000	0.262260 
380.000000	0.263760 
379.000000	0.265440 
378.000000	0.267090 
377.000000	0.268620 
376.000000	0.270260 
375.000000	0.271770 
374.000000	0.273160 
373.000000	0.274860 
372.000000	0.276620 
371.000000	0.278050 
370.000000	0.279770 
369.000000	0.281250 
368.000000	0.282920 
367.000000	0.284700 
366.000000	0.286310 
365.000000	0.288150 
364.000000	0.290000 
363.000000	0.291770 
362.000000	0.293280 
361.000000	0.295080 
360.000000	0.297000 
359.000000	0.298890 
358.000000	0.300710 
357.000000	0.302760 
356.000000	0.304670 
355.000000	0.306490 
354.000000	0.308380 
353.000000	0.310330 
352.000000	0.312490 
351.000000	0.314560 
350.000000	0.316450 
349.000000	0.318760 
348.000000	0.320980 
347.000000	0.322960 
346.000000	0.325070 
345.000000	0.327160 
344.000000	0.329200 
343.000000	0.331550 
342.000000	0.333530 
341.000000	0.335960 
340.000000	0.338190 
339.000000	0.340530 
338.000000	0.342450 
337.000000	0.344460 
336.000000	0.346750 
335.000000	0.348910 
334.000000	0.350800 
333.000000	0.353420 
332.000000	0.355570 
331.000000	0.358030 
330.000000	0.360140 
329.000000	0.362740 
328.000000	0.365360 
327.000000	0.368080 
326.000000	0.370520 
325.000000	0.372950 
324.000000	0.375730 
323.000000	0.378710 
322.000000	0.381510 
321.000000	0.384420 
320.000000	0.387100 
319.000000	0.390020 
318.000000	0.392770 
317.000000	0.396060 
316.000000	0.398840 
315.000000	0.401920 
314.000000	0.405100 
313.000000	0.408490 
312.000000	0.411700 
311.000000	0.414820 
310.000000	0.418040 
309.000000	0.421730 
308.000000	0.425160 
307.000000	0.428000 
306.000000	0.432130 
305.000000	0.435360 
304.000000	0.439140 
303.000000	0.442970 
302.000000	0.446720 
301.000000	0.450880 
300.000000	0.454750 

