PE UV                   SPECTRUM    ASCII       PEDS        1.60        
  -1
23MS052.SP
24/10/29
15:11:32.00
24/10/29
15:12:45.00


300.000000
1









4444

SCAN
1
1


0.0
480.0
2.00
MANUAL



UV/VIS




































#HDR
-1
-1
#GR
NM
A
0.00000011920928955078
0.0
600.000000
1.000000
301
8
0.605060
0.071940
#DATA
600.000000	0.071940 
599.000000	0.072070 
598.000000	0.072260 
597.000000	0.072510 
596.000000	0.072590 
595.000000	0.072810 
594.000000	0.072969 
593.000000	0.073150 
592.000000	0.073350 
591.000000	0.073450 
590.000000	0.073660 
589.000000	0.073780 
588.000000	0.074030 
587.000000	0.074170 
586.000000	0.074289 
585.000000	0.074440 
584.000000	0.074579 
583.000000	0.074740 
582.000000	0.074990 
581.000000	0.075050 
580.000000	0.075350 
579.000000	0.075430 
578.000000	0.075630 
577.000000	0.075780 
576.000000	0.075920 
575.000000	0.076060 
574.000000	0.076310 
573.000000	0.076570 
572.000000	0.076720 
571.000000	0.076890 
570.000000	0.077000 
569.000000	0.077299 
568.000000	0.077450 
567.000000	0.077600 
566.000000	0.077760 
565.000000	0.078000 
564.000000	0.078260 
563.000000	0.078370 
562.000000	0.078610 
561.000000	0.078820 
560.000000	0.079170 
559.000000	0.079440 
558.000000	0.079659 
557.000000	0.079960 
556.000000	0.080130 
555.000000	0.080440 
554.000000	0.080680 
553.000000	0.080890 
552.000000	0.081250 
551.000000	0.081540 
550.000000	0.081870 
549.000000	0.082129 
548.000000	0.082520 
547.000000	0.082739 
546.000000	0.083110 
545.000000	0.083390 
544.000000	0.083779 
543.000000	0.084040 
542.000000	0.084360 
541.000000	0.084730 
540.000000	0.085139 
539.000000	0.085550 
538.000000	0.086020 
537.000000	0.086370 
536.000000	0.086770 
535.000000	0.087249 
534.000000	0.087720 
533.000000	0.088240 
532.000000	0.088640 
531.000000	0.089180 
530.000000	0.089690 
529.000000	0.090290 
528.000000	0.090810 
527.000000	0.091520 
526.000000	0.092070 
525.000000	0.092650 
524.000000	0.093340 
523.000000	0.093979 
522.000000	0.094550 
521.000000	0.095210 
520.000000	0.095860 
519.000000	0.096590 
518.000000	0.097250 
517.000000	0.098010 
516.000000	0.098760 
515.000000	0.099510 
514.000000	0.100280 
513.000000	0.101130 
512.000000	0.101920 
511.000000	0.102780 
510.000000	0.103700 
509.000000	0.104540 
508.000000	0.105520 
507.000000	0.106520 
506.000000	0.107430 
505.000000	0.108490 
504.000000	0.109540 
503.000000	0.110520 
502.000000	0.111540 
501.000000	0.112640 
500.000000	0.113750 
499.000000	0.114990 
498.000000	0.116140 
497.000000	0.117420 
496.000000	0.118560 
495.000000	0.119730 
494.000000	0.121040 
493.000000	0.122360 
492.000000	0.123670 
491.000000	0.124980 
490.000000	0.126310 
489.000000	0.127770 
488.000000	0.129220 
487.000000	0.130610 
486.000000	0.131930 
485.000000	0.133440 
484.000000	0.134920 
483.000000	0.136480 
482.000000	0.138160 
481.000000	0.139740 
480.000000	0.141330 
479.000000	0.143010 
478.000000	0.144540 
477.000000	0.146290 
476.000000	0.148140 
475.000000	0.149900 
474.000000	0.151840 
473.000000	0.153750 
472.000000	0.155860 
471.000000	0.157960 
470.000000	0.160040 
469.000000	0.162060 
468.000000	0.164010 
467.000000	0.166150 
466.000000	0.168520 
465.000000	0.170990 
464.000000	0.173310 
463.000000	0.175640 
462.000000	0.177980 
461.000000	0.180200 
460.000000	0.182570 
459.000000	0.184830 
458.000000	0.187150 
457.000000	0.189500 
456.000000	0.191850 
455.000000	0.194290 
454.000000	0.196870 
453.000000	0.199310 
452.000000	0.202010 
451.000000	0.204410 
450.000000	0.206900 
449.000000	0.209410 
448.000000	0.211780 
447.000000	0.214330 
446.000000	0.216790 
445.000000	0.219250 
444.000000	0.221970 
443.000000	0.224460 
442.000000	0.227090 
441.000000	0.229420 
440.000000	0.231670 
439.000000	0.234020 
438.000000	0.236390 
437.000000	0.238850 
436.000000	0.241150 
435.000000	0.243460 
434.000000	0.245810 
433.000000	0.248040 
432.000000	0.250330 
431.000000	0.252530 
430.000000	0.254500 
429.000000	0.256590 
428.000000	0.258680 
427.000000	0.260700 
426.000000	0.262730 
425.000000	0.264790 
424.000000	0.266590 
423.000000	0.268600 
422.000000	0.270510 
421.000000	0.272170 
420.000000	0.273850 
419.000000	0.275550 
418.000000	0.277300 
417.000000	0.279020 
416.000000	0.280840 
415.000000	0.282610 
414.000000	0.284240 
413.000000	0.286040 
412.000000	0.287770 
411.000000	0.289360 
410.000000	0.290920 
409.000000	0.292560 
408.000000	0.294320 
407.000000	0.295900 
406.000000	0.297570 
405.000000	0.299210 
404.000000	0.300760 
403.000000	0.302290 
402.000000	0.303740 
401.000000	0.305240 
400.000000	0.306730 
399.000000	0.308280 
398.000000	0.309730 
397.000000	0.311400 
396.000000	0.312910 
395.000000	0.314440 
394.000000	0.315980 
393.000000	0.317530 
392.000000	0.318970 
391.000000	0.320630 
390.000000	0.321990 
389.000000	0.323650 
388.000000	0.325220 
387.000000	0.326800 
386.000000	0.328480 
385.000000	0.330160 
384.000000	0.333270 
383.000000	0.344030 
382.000000	0.345780 
381.000000	0.348270 
380.000000	0.350500 
379.000000	0.352470 
378.000000	0.354980 
377.000000	0.357060 
376.000000	0.359410 
375.000000	0.361550 
374.000000	0.363800 
373.000000	0.365950 
372.000000	0.367950 
371.000000	0.370230 
370.000000	0.372500 
369.000000	0.374630 
368.000000	0.377050 
367.000000	0.379500 
366.000000	0.381680 
365.000000	0.384410 
364.000000	0.386800 
363.000000	0.389070 
362.000000	0.391550 
361.000000	0.393980 
360.000000	0.396460 
359.000000	0.398930 
358.000000	0.401610 
357.000000	0.404240 
356.000000	0.406830 
355.000000	0.409360 
354.000000	0.412070 
353.000000	0.414730 
352.000000	0.417340 
351.000000	0.420190 
350.000000	0.422850 
349.000000	0.425800 
348.000000	0.428470 
347.000000	0.431620 
346.000000	0.434400 
345.000000	0.437380 
344.000000	0.440080 
343.000000	0.443140 
342.000000	0.445610 
341.000000	0.449150 
340.000000	0.451800 
339.000000	0.454900 
338.000000	0.457850 
337.000000	0.460680 
336.000000	0.463660 
335.000000	0.466950 
334.000000	0.469530 
333.000000	0.473050 
332.000000	0.476060 
331.000000	0.479630 
330.000000	0.482830 
329.000000	0.486450 
328.000000	0.489810 
327.000000	0.487230 
326.000000	0.487960 
325.000000	0.491990 
324.000000	0.495800 
323.000000	0.498960 
322.000000	0.502730 
321.000000	0.506840 
320.000000	0.510960 
319.000000	0.515010 
318.000000	0.518900 
317.000000	0.522940 
316.000000	0.527699 
315.000000	0.531730 
314.000000	0.535940 
313.000000	0.540390 
312.000000	0.544849 
311.000000	0.549470 
310.000000	0.553520 
309.000000	0.558930 
308.000000	0.563600 
307.000000	0.568300 
306.000000	0.573049 
305.000000	0.578110 
304.000000	0.583700 
303.000000	0.587979 
302.000000	0.592930 
301.000000	0.599310 
300.000000	0.605060 

