PE UV                   SPECTRUM    ASCII       PEDS        1.60        
  -1
23MS234.SP
24/10/25
15:26:33.00
24/10/25
15:27:40.00


300.000000
1









4444

SCAN
1
1


0.0
480.0
2.00
MANUAL



UV/VIS




































#HDR
-1
-1
#GR
NM
A
0.00000011920928955078
0.0
600.000000
1.000000
301
8
0.545300
0.018630
#DATA
600.000000	0.018630 
599.000000	0.018640 
598.000000	0.018720 
597.000000	0.018680 
596.000000	0.018750 
595.000000	0.018820 
594.000000	0.018830 
593.000000	0.018900 
592.000000	0.018980 
591.000000	0.018980 
590.000000	0.019040 
589.000000	0.019140 
588.000000	0.019130 
587.000000	0.019130 
586.000000	0.019230 
585.000000	0.019320 
584.000000	0.019350 
583.000000	0.019390 
582.000000	0.019390 
581.000000	0.019370 
580.000000	0.019490 
579.000000	0.019480 
578.000000	0.019620 
577.000000	0.019640 
576.000000	0.019700 
575.000000	0.019720 
574.000000	0.019730 
573.000000	0.019800 
572.000000	0.019870 
571.000000	0.019920 
570.000000	0.019980 
569.000000	0.020050 
568.000000	0.020090 
567.000000	0.020170 
566.000000	0.020230 
565.000000	0.020280 
564.000000	0.020420 
563.000000	0.020490 
562.000000	0.020600 
561.000000	0.020710 
560.000000	0.020860 
559.000000	0.020970 
558.000000	0.021140 
557.000000	0.021380 
556.000000	0.021590 
555.000000	0.021730 
554.000000	0.021880 
553.000000	0.022030 
552.000000	0.022210 
551.000000	0.022400 
550.000000	0.022610 
549.000000	0.022850 
548.000000	0.023060 
547.000000	0.023290 
546.000000	0.023550 
545.000000	0.023740 
544.000000	0.024020 
543.000000	0.024320 
542.000000	0.024670 
541.000000	0.024950 
540.000000	0.025160 
539.000000	0.025490 
538.000000	0.025800 
537.000000	0.026090 
536.000000	0.026510 
535.000000	0.026870 
534.000000	0.027200 
533.000000	0.027640 
532.000000	0.028080 
531.000000	0.028460 
530.000000	0.028990 
529.000000	0.029430 
528.000000	0.029920 
527.000000	0.030460 
526.000000	0.031000 
525.000000	0.031530 
524.000000	0.032070 
523.000000	0.032620 
522.000000	0.033330 
521.000000	0.033920 
520.000000	0.034530 
519.000000	0.035250 
518.000000	0.035800 
517.000000	0.036470 
516.000000	0.037270 
515.000000	0.037940 
514.000000	0.038770 
513.000000	0.039620 
512.000000	0.040450 
511.000000	0.041260 
510.000000	0.042120 
509.000000	0.042980 
508.000000	0.043870 
507.000000	0.044790 
506.000000	0.045750 
505.000000	0.046730 
504.000000	0.047850 
503.000000	0.048840 
502.000000	0.049960 
501.000000	0.050980 
500.000000	0.052230 
499.000000	0.053320 
498.000000	0.054490 
497.000000	0.055680 
496.000000	0.056950 
495.000000	0.058230 
494.000000	0.059530 
493.000000	0.060830 
492.000000	0.062230 
491.000000	0.063420 
490.000000	0.064710 
489.000000	0.066059 
488.000000	0.067580 
487.000000	0.068840 
486.000000	0.070280 
485.000000	0.071870 
484.000000	0.073350 
483.000000	0.074960 
482.000000	0.076600 
481.000000	0.078220 
480.000000	0.079769 
479.000000	0.081430 
478.000000	0.083130 
477.000000	0.084750 
476.000000	0.086620 
475.000000	0.088490 
474.000000	0.090410 
473.000000	0.092170 
472.000000	0.094110 
471.000000	0.096000 
470.000000	0.097960 
469.000000	0.099940 
468.000000	0.101990 
467.000000	0.104040 
466.000000	0.106260 
465.000000	0.108450 
464.000000	0.110720 
463.000000	0.112910 
462.000000	0.115000 
461.000000	0.117340 
460.000000	0.119380 
459.000000	0.121740 
458.000000	0.124010 
457.000000	0.126350 
456.000000	0.128760 
455.000000	0.131290 
454.000000	0.133750 
453.000000	0.136130 
452.000000	0.138500 
451.000000	0.140960 
450.000000	0.143260 
449.000000	0.145730 
448.000000	0.148300 
447.000000	0.150800 
446.000000	0.153470 
445.000000	0.155960 
444.000000	0.158440 
443.000000	0.160940 
442.000000	0.163300 
441.000000	0.165690 
440.000000	0.168120 
439.000000	0.170450 
438.000000	0.172940 
437.000000	0.175350 
436.000000	0.177630 
435.000000	0.179940 
434.000000	0.182170 
433.000000	0.184460 
432.000000	0.186470 
431.000000	0.188550 
430.000000	0.190660 
429.000000	0.192650 
428.000000	0.194690 
427.000000	0.196890 
426.000000	0.198720 
425.000000	0.200660 
424.000000	0.202690 
423.000000	0.204300 
422.000000	0.206250 
421.000000	0.207530 
420.000000	0.209240 
419.000000	0.211020 
418.000000	0.212660 
417.000000	0.214370 
416.000000	0.215930 
415.000000	0.217600 
414.000000	0.219240 
413.000000	0.220810 
412.000000	0.222310 
411.000000	0.223900 
410.000000	0.225380 
409.000000	0.226970 
408.000000	0.228670 
407.000000	0.230180 
406.000000	0.231540 
405.000000	0.232990 
404.000000	0.234410 
403.000000	0.235750 
402.000000	0.237230 
401.000000	0.238640 
400.000000	0.240080 
399.000000	0.241420 
398.000000	0.242970 
397.000000	0.244490 
396.000000	0.245900 
395.000000	0.247260 
394.000000	0.248750 
393.000000	0.250140 
392.000000	0.251640 
391.000000	0.253050 
390.000000	0.254490 
389.000000	0.256080 
388.000000	0.257470 
387.000000	0.259080 
386.000000	0.260520 
385.000000	0.261770 
384.000000	0.266380 
383.000000	0.277690 
382.000000	0.279020 
381.000000	0.281670 
380.000000	0.283840 
379.000000	0.286330 
378.000000	0.288430 
377.000000	0.290390 
376.000000	0.292660 
375.000000	0.294890 
374.000000	0.296660 
373.000000	0.299220 
372.000000	0.301380 
371.000000	0.303600 
370.000000	0.305840 
369.000000	0.308150 
368.000000	0.310440 
367.000000	0.312880 
366.000000	0.315100 
365.000000	0.317530 
364.000000	0.320030 
363.000000	0.322420 
362.000000	0.324700 
361.000000	0.327260 
360.000000	0.329630 
359.000000	0.332370 
358.000000	0.334780 
357.000000	0.337330 
356.000000	0.339950 
355.000000	0.342540 
354.000000	0.345140 
353.000000	0.347850 
352.000000	0.350860 
351.000000	0.353530 
350.000000	0.356230 
349.000000	0.359280 
348.000000	0.362100 
347.000000	0.364820 
346.000000	0.367620 
345.000000	0.370530 
344.000000	0.373090 
343.000000	0.376180 
342.000000	0.379020 
341.000000	0.382290 
340.000000	0.385030 
339.000000	0.387800 
338.000000	0.390670 
337.000000	0.393420 
336.000000	0.396060 
335.000000	0.398830 
334.000000	0.401680 
333.000000	0.404870 
332.000000	0.408020 
331.000000	0.411450 
330.000000	0.414280 
329.000000	0.417080 
328.000000	0.420340 
327.000000	0.423180 
326.000000	0.426830 
325.000000	0.430250 
324.000000	0.433860 
323.000000	0.437470 
322.000000	0.441170 
321.000000	0.445050 
320.000000	0.448890 
319.000000	0.452750 
318.000000	0.456560 
317.000000	0.460790 
316.000000	0.465020 
315.000000	0.469370 
314.000000	0.473910 
313.000000	0.478120 
312.000000	0.483020 
311.000000	0.487330 
310.000000	0.491750 
309.000000	0.496830 
308.000000	0.501750 
307.000000	0.506440 
306.000000	0.511870 
305.000000	0.517260 
304.000000	0.522740 
303.000000	0.528130 
302.000000	0.533450 
301.000000	0.539810 
300.000000	0.545300 

