PE UV                   SPECTRUM    ASCII       PEDS        1.60        
  -1
23MS246.SP
24/10/25
15:35:14.00
24/10/25
15:36:30.00


300.000000
1









4444

SCAN
1
1


0.0
480.0
2.00
MANUAL



UV/VIS




































#HDR
-1
-1
#GR
NM
A
0.00000011920928955078
0.0
600.000000
1.000000
301
8
0.210610
0.058800
#DATA
600.000000	0.058800 
599.000000	0.058920 
598.000000	0.059070 
597.000000	0.059190 
596.000000	0.059360 
595.000000	0.059480 
594.000000	0.059290 
593.000000	0.059420 
592.000000	0.059540 
591.000000	0.059470 
590.000000	0.059510 
589.000000	0.059530 
588.000000	0.059680 
587.000000	0.059710 
586.000000	0.059610 
585.000000	0.059450 
584.000000	0.059350 
583.000000	0.059510 
582.000000	0.059450 
581.000000	0.059440 
580.000000	0.059390 
579.000000	0.059420 
578.000000	0.059710 
577.000000	0.059930 
576.000000	0.060040 
575.000000	0.060310 
574.000000	0.060480 
573.000000	0.060620 
572.000000	0.060840 
571.000000	0.060970 
570.000000	0.061200 
569.000000	0.061400 
568.000000	0.061520 
567.000000	0.061630 
566.000000	0.061590 
565.000000	0.061510 
564.000000	0.061580 
563.000000	0.061440 
562.000000	0.061470 
561.000000	0.061290 
560.000000	0.061380 
559.000000	0.061580 
558.000000	0.061440 
557.000000	0.061300 
556.000000	0.061460 
555.000000	0.061480 
554.000000	0.061410 
553.000000	0.061260 
552.000000	0.061370 
551.000000	0.061610 
550.000000	0.061970 
549.000000	0.062060 
548.000000	0.062040 
547.000000	0.062080 
546.000000	0.062190 
545.000000	0.062170 
544.000000	0.062230 
543.000000	0.062370 
542.000000	0.062570 
541.000000	0.062740 
540.000000	0.062839 
539.000000	0.062940 
538.000000	0.062979 
537.000000	0.063020 
536.000000	0.062960 
535.000000	0.063040 
534.000000	0.063060 
533.000000	0.063000 
532.000000	0.063130 
531.000000	0.063300 
530.000000	0.063330 
529.000000	0.063460 
528.000000	0.063720 
527.000000	0.063839 
526.000000	0.063990 
525.000000	0.064120 
524.000000	0.064140 
523.000000	0.064019 
522.000000	0.064170 
521.000000	0.064260 
520.000000	0.064430 
519.000000	0.064650 
518.000000	0.064820 
517.000000	0.064940 
516.000000	0.065340 
515.000000	0.065830 
514.000000	0.066110 
513.000000	0.066480 
512.000000	0.066530 
511.000000	0.066720 
510.000000	0.066989 
509.000000	0.067450 
508.000000	0.067669 
507.000000	0.067890 
506.000000	0.068190 
505.000000	0.068529 
504.000000	0.068880 
503.000000	0.069090 
502.000000	0.069279 
501.000000	0.069470 
500.000000	0.069610 
499.000000	0.069889 
498.000000	0.070150 
497.000000	0.070490 
496.000000	0.070990 
495.000000	0.071460 
494.000000	0.071999 
493.000000	0.072550 
492.000000	0.072740 
491.000000	0.073170 
490.000000	0.073700 
489.000000	0.074079 
488.000000	0.074680 
487.000000	0.074890 
486.000000	0.075420 
485.000000	0.076119 
484.000000	0.076590 
483.000000	0.077270 
482.000000	0.078010 
481.000000	0.078520 
480.000000	0.079170 
479.000000	0.079690 
478.000000	0.080269 
477.000000	0.080790 
476.000000	0.081410 
475.000000	0.081989 
474.000000	0.082470 
473.000000	0.083070 
472.000000	0.083919 
471.000000	0.085110 
470.000000	0.086139 
469.000000	0.086860 
468.000000	0.087780 
467.000000	0.088630 
466.000000	0.089440 
465.000000	0.090350 
464.000000	0.091340 
463.000000	0.092510 
462.000000	0.093070 
461.000000	0.093960 
460.000000	0.094990 
459.000000	0.096290 
458.000000	0.097280 
457.000000	0.098300 
456.000000	0.099200 
455.000000	0.100260 
454.000000	0.101170 
453.000000	0.102250 
452.000000	0.102840 
451.000000	0.103900 
450.000000	0.104930 
449.000000	0.106100 
448.000000	0.107300 
447.000000	0.108150 
446.000000	0.108990 
445.000000	0.109870 
444.000000	0.110590 
443.000000	0.111330 
442.000000	0.112070 
441.000000	0.113220 
440.000000	0.114330 
439.000000	0.115100 
438.000000	0.115870 
437.000000	0.116430 
436.000000	0.117140 
435.000000	0.118120 
434.000000	0.119220 
433.000000	0.120270 
432.000000	0.121090 
431.000000	0.121600 
430.000000	0.121970 
429.000000	0.123030 
428.000000	0.123440 
427.000000	0.124250 
426.000000	0.124690 
425.000000	0.125520 
424.000000	0.126170 
423.000000	0.126880 
422.000000	0.127920 
421.000000	0.127970 
420.000000	0.128530 
419.000000	0.128830 
418.000000	0.129360 
417.000000	0.130050 
416.000000	0.130690 
415.000000	0.131300 
414.000000	0.131680 
413.000000	0.132210 
412.000000	0.132530 
411.000000	0.133090 
410.000000	0.133740 
409.000000	0.134250 
408.000000	0.134990 
407.000000	0.135780 
406.000000	0.136030 
405.000000	0.136610 
404.000000	0.137200 
403.000000	0.137750 
402.000000	0.138180 
401.000000	0.138440 
400.000000	0.138410 
399.000000	0.138540 
398.000000	0.139390 
397.000000	0.140340 
396.000000	0.140430 
395.000000	0.140770 
394.000000	0.141070 
393.000000	0.141940 
392.000000	0.142970 
391.000000	0.143550 
390.000000	0.143580 
389.000000	0.143540 
388.000000	0.143830 
387.000000	0.144150 
386.000000	0.145040 
385.000000	0.145650 
384.000000	0.147280 
383.000000	0.151500 
382.000000	0.151350 
381.000000	0.152260 
380.000000	0.152800 
379.000000	0.153580 
378.000000	0.154240 
377.000000	0.154530 
376.000000	0.154760 
375.000000	0.154750 
374.000000	0.155080 
373.000000	0.155830 
372.000000	0.156350 
371.000000	0.156750 
370.000000	0.156930 
369.000000	0.156980 
368.000000	0.157350 
367.000000	0.157760 
366.000000	0.158100 
365.000000	0.158590 
364.000000	0.158950 
363.000000	0.159510 
362.000000	0.159950 
361.000000	0.160520 
360.000000	0.161370 
359.000000	0.161890 
358.000000	0.162230 
357.000000	0.162680 
356.000000	0.163040 
355.000000	0.163410 
354.000000	0.164450 
353.000000	0.165840 
352.000000	0.166460 
351.000000	0.166970 
350.000000	0.167630 
349.000000	0.168210 
348.000000	0.169230 
347.000000	0.169980 
346.000000	0.170320 
345.000000	0.171100 
344.000000	0.171280 
343.000000	0.172300 
342.000000	0.172940 
341.000000	0.173700 
340.000000	0.174100 
339.000000	0.174790 
338.000000	0.175080 
337.000000	0.175520 
336.000000	0.176020 
335.000000	0.176510 
334.000000	0.176750 
333.000000	0.176980 
332.000000	0.177470 
331.000000	0.178130 
330.000000	0.178750 
329.000000	0.179120 
328.000000	0.179870 
327.000000	0.177730 
326.000000	0.177930 
325.000000	0.178440 
324.000000	0.179190 
323.000000	0.180050 
322.000000	0.180860 
321.000000	0.181530 
320.000000	0.182580 
319.000000	0.183240 
318.000000	0.184250 
317.000000	0.185190 
316.000000	0.185870 
315.000000	0.187190 
314.000000	0.188060 
313.000000	0.189200 
312.000000	0.190780 
311.000000	0.192430 
310.000000	0.193750 
309.000000	0.195220 
308.000000	0.196570 
307.000000	0.198200 
306.000000	0.200440 
305.000000	0.202070 
304.000000	0.203800 
303.000000	0.206110 
302.000000	0.207440 
301.000000	0.209240 
300.000000	0.210610 

