PE UV                   SPECTRUM    ASCII       PEDS        1.60        
  -1
23MS198.SP
24/10/25
15:22:39.00
24/10/25
15:23:50.00


300.000000
1









4444

SCAN
1
1


0.0
480.0
2.00
MANUAL



UV/VIS




































#HDR
-1
-1
#GR
NM
A
0.00000011920928955078
0.0
600.000000
1.000000
301
8
0.684700
0.015100
#DATA
600.000000	0.015150 
599.000000	0.015120 
598.000000	0.015150 
597.000000	0.015100 
596.000000	0.015140 
595.000000	0.015200 
594.000000	0.015180 
593.000000	0.015280 
592.000000	0.015280 
591.000000	0.015320 
590.000000	0.015380 
589.000000	0.015490 
588.000000	0.015480 
587.000000	0.015520 
586.000000	0.015600 
585.000000	0.015670 
584.000000	0.015700 
583.000000	0.015830 
582.000000	0.015790 
581.000000	0.015850 
580.000000	0.015880 
579.000000	0.015950 
578.000000	0.016070 
577.000000	0.016140 
576.000000	0.016200 
575.000000	0.016250 
574.000000	0.016380 
573.000000	0.016470 
572.000000	0.016480 
571.000000	0.016570 
570.000000	0.016680 
569.000000	0.016710 
568.000000	0.016790 
567.000000	0.016880 
566.000000	0.017000 
565.000000	0.017070 
564.000000	0.017210 
563.000000	0.017260 
562.000000	0.017450 
561.000000	0.017570 
560.000000	0.017790 
559.000000	0.017870 
558.000000	0.018160 
557.000000	0.018390 
556.000000	0.018560 
555.000000	0.018640 
554.000000	0.018960 
553.000000	0.019160 
552.000000	0.019340 
551.000000	0.019620 
550.000000	0.019820 
549.000000	0.020030 
548.000000	0.020270 
547.000000	0.020570 
546.000000	0.020870 
545.000000	0.021100 
544.000000	0.021460 
543.000000	0.021820 
542.000000	0.022200 
541.000000	0.022530 
540.000000	0.022780 
539.000000	0.023220 
538.000000	0.023580 
537.000000	0.024030 
536.000000	0.024460 
535.000000	0.024930 
534.000000	0.025410 
533.000000	0.025850 
532.000000	0.026440 
531.000000	0.026930 
530.000000	0.027520 
529.000000	0.028100 
528.000000	0.028790 
527.000000	0.029440 
526.000000	0.030080 
525.000000	0.030870 
524.000000	0.031470 
523.000000	0.032280 
522.000000	0.033140 
521.000000	0.033920 
520.000000	0.034700 
519.000000	0.035720 
518.000000	0.036500 
517.000000	0.037420 
516.000000	0.038410 
515.000000	0.039440 
514.000000	0.040460 
513.000000	0.041590 
512.000000	0.042690 
511.000000	0.043830 
510.000000	0.044960 
509.000000	0.046270 
508.000000	0.047630 
507.000000	0.049000 
506.000000	0.050410 
505.000000	0.051790 
504.000000	0.053500 
503.000000	0.054930 
502.000000	0.056490 
501.000000	0.058230 
500.000000	0.059950 
499.000000	0.061920 
498.000000	0.063670 
497.000000	0.065809 
496.000000	0.067830 
495.000000	0.069880 
494.000000	0.072040 
493.000000	0.074149 
492.000000	0.076439 
491.000000	0.078560 
490.000000	0.080930 
489.000000	0.083360 
488.000000	0.085850 
487.000000	0.088300 
486.000000	0.090930 
485.000000	0.093650 
484.000000	0.096300 
483.000000	0.099040 
482.000000	0.101900 
481.000000	0.104790 
480.000000	0.107810 
479.000000	0.110890 
478.000000	0.114040 
477.000000	0.117220 
476.000000	0.120520 
475.000000	0.123770 
474.000000	0.127040 
473.000000	0.130430 
472.000000	0.133770 
471.000000	0.137200 
470.000000	0.140710 
469.000000	0.144280 
468.000000	0.147880 
467.000000	0.151360 
466.000000	0.154850 
465.000000	0.158300 
464.000000	0.161720 
463.000000	0.165220 
462.000000	0.168630 
461.000000	0.171880 
460.000000	0.174980 
459.000000	0.178150 
458.000000	0.181320 
457.000000	0.184390 
456.000000	0.187470 
455.000000	0.190440 
454.000000	0.193280 
453.000000	0.196120 
452.000000	0.198880 
451.000000	0.201610 
450.000000	0.204280 
449.000000	0.206900 
448.000000	0.209480 
447.000000	0.211980 
446.000000	0.214430 
445.000000	0.216750 
444.000000	0.218930 
443.000000	0.221250 
442.000000	0.223540 
441.000000	0.225670 
440.000000	0.227700 
439.000000	0.229820 
438.000000	0.231860 
437.000000	0.233970 
436.000000	0.235860 
435.000000	0.237730 
434.000000	0.239650 
433.000000	0.241590 
432.000000	0.243430 
431.000000	0.245160 
430.000000	0.247050 
429.000000	0.248950 
428.000000	0.250670 
427.000000	0.252530 
426.000000	0.254160 
425.000000	0.256080 
424.000000	0.257910 
423.000000	0.259600 
422.000000	0.261530 
421.000000	0.262930 
420.000000	0.264730 
419.000000	0.266620 
418.000000	0.268380 
417.000000	0.270270 
416.000000	0.272050 
415.000000	0.273900 
414.000000	0.275920 
413.000000	0.277880 
412.000000	0.279770 
411.000000	0.281840 
410.000000	0.283810 
409.000000	0.285800 
408.000000	0.287910 
407.000000	0.289980 
406.000000	0.291870 
405.000000	0.293890 
404.000000	0.295970 
403.000000	0.298060 
402.000000	0.300040 
401.000000	0.302100 
400.000000	0.304100 
399.000000	0.306100 
398.000000	0.308120 
397.000000	0.310220 
396.000000	0.312200 
395.000000	0.314200 
394.000000	0.316300 
393.000000	0.318470 
392.000000	0.320520 
391.000000	0.322540 
390.000000	0.324530 
389.000000	0.326610 
388.000000	0.328560 
387.000000	0.330600 
386.000000	0.332560 
385.000000	0.334200 
384.000000	0.340650 
383.000000	0.356520 
382.000000	0.358440 
381.000000	0.361710 
380.000000	0.364520 
379.000000	0.367740 
378.000000	0.370540 
377.000000	0.373230 
376.000000	0.375910 
375.000000	0.378710 
374.000000	0.381320 
373.000000	0.384310 
372.000000	0.387080 
371.000000	0.389930 
370.000000	0.392580 
369.000000	0.395200 
368.000000	0.398070 
367.000000	0.400860 
366.000000	0.403510 
365.000000	0.406550 
364.000000	0.409570 
363.000000	0.412630 
362.000000	0.415540 
361.000000	0.418340 
360.000000	0.421330 
359.000000	0.424210 
358.000000	0.427070 
357.000000	0.430190 
356.000000	0.433350 
355.000000	0.436440 
354.000000	0.439730 
353.000000	0.442970 
352.000000	0.446250 
351.000000	0.449600 
350.000000	0.452730 
349.000000	0.456070 
348.000000	0.459570 
347.000000	0.463080 
346.000000	0.466230 
345.000000	0.469870 
344.000000	0.473200 
343.000000	0.476760 
342.000000	0.479710 
341.000000	0.483420 
340.000000	0.487100 
339.000000	0.490730 
338.000000	0.494200 
337.000000	0.497560 
336.000000	0.500880 
335.000000	0.504760 
334.000000	0.508290 
333.000000	0.512320 
332.000000	0.516140 
331.000000	0.520020 
330.000000	0.523410 
329.000000	0.527360 
328.000000	0.531690 
327.000000	0.533710 
326.000000	0.537960 
325.000000	0.542240 
324.000000	0.546800 
323.000000	0.551180 
322.000000	0.555970 
321.000000	0.560900 
320.000000	0.565370 
319.000000	0.570200 
318.000000	0.574960 
317.000000	0.580660 
316.000000	0.586180 
315.000000	0.591480 
314.000000	0.596770 
313.000000	0.602000 
312.000000	0.607910 
311.000000	0.613610 
310.000000	0.618640 
309.000000	0.624930 
308.000000	0.631090 
307.000000	0.637280 
306.000000	0.643980 
305.000000	0.650670 
304.000000	0.657360 
303.000000	0.664340 
302.000000	0.670060 
301.000000	0.677550 
300.000000	0.684700 

