PE UV                   SPECTRUM    ASCII       PEDS        1.60        
  -1
23MS143.SP
24/10/24
16:25:26.00
24/10/24
16:26:44.00


400.000000
1









4444

SCAN
1
1


0.0
480.0
2.00
MANUAL



UV/VIS




































#HDR
-1
-1
#GR
NM
A
0.00000011920928955078
0.0
700.000000
1.000000
301
8
0.094159
0.006490
#DATA
700.000000	0.006570 
699.000000	0.006500 
698.000000	0.006490 
697.000000	0.006530 
696.000000	0.006540 
695.000000	0.006630 
694.000000	0.006640 
693.000000	0.006630 
692.000000	0.006590 
691.000000	0.006740 
690.000000	0.006710 
689.000000	0.006730 
688.000000	0.006700 
687.000000	0.006820 
686.000000	0.006840 
685.000000	0.006820 
684.000000	0.007010 
683.000000	0.007090 
682.000000	0.007040 
681.000000	0.007020 
680.000000	0.007060 
679.000000	0.007180 
678.000000	0.007190 
677.000000	0.007150 
676.000000	0.007270 
675.000000	0.007170 
674.000000	0.007210 
673.000000	0.007290 
672.000000	0.007200 
671.000000	0.007250 
670.000000	0.007320 
669.000000	0.007370 
668.000000	0.007440 
667.000000	0.007340 
666.000000	0.007490 
665.000000	0.007510 
664.000000	0.007490 
663.000000	0.007520 
662.000000	0.007510 
661.000000	0.007530 
660.000000	0.007450 
659.000000	0.007460 
658.000000	0.007600 
657.000000	0.007470 
656.000000	0.007530 
655.000000	0.007580 
654.000000	0.007530 
653.000000	0.007560 
652.000000	0.007590 
651.000000	0.007600 
650.000000	0.007680 
649.000000	0.007660 
648.000000	0.007700 
647.000000	0.007710 
646.000000	0.007670 
645.000000	0.007670 
644.000000	0.007660 
643.000000	0.007760 
642.000000	0.007710 
641.000000	0.007730 
640.000000	0.007720 
639.000000	0.007780 
638.000000	0.007840 
637.000000	0.007820 
636.000000	0.007849 
635.000000	0.007860 
634.000000	0.007870 
633.000000	0.007979 
632.000000	0.008090 
631.000000	0.008080 
630.000000	0.008180 
629.000000	0.008149 
628.000000	0.008300 
627.000000	0.008330 
626.000000	0.008410 
625.000000	0.008410 
624.000000	0.008480 
623.000000	0.008590 
622.000000	0.008640 
621.000000	0.008690 
620.000000	0.008770 
619.000000	0.008720 
618.000000	0.008710 
617.000000	0.008789 
616.000000	0.008869 
615.000000	0.008850 
614.000000	0.008920 
613.000000	0.008940 
612.000000	0.008930 
611.000000	0.008829 
610.000000	0.008990 
609.000000	0.008940 
608.000000	0.008910 
607.000000	0.008880 
606.000000	0.008940 
605.000000	0.008900 
604.000000	0.008880 
603.000000	0.008940 
602.000000	0.008940 
601.000000	0.008910 
600.000000	0.008900 
599.000000	0.008930 
598.000000	0.008890 
597.000000	0.008829 
596.000000	0.008930 
595.000000	0.008910 
594.000000	0.008880 
593.000000	0.008900 
592.000000	0.008900 
591.000000	0.008910 
590.000000	0.008920 
589.000000	0.008930 
588.000000	0.009060 
587.000000	0.009039 
586.000000	0.009090 
585.000000	0.009140 
584.000000	0.009190 
583.000000	0.009150 
582.000000	0.009240 
581.000000	0.009320 
580.000000	0.009370 
579.000000	0.009400 
578.000000	0.009490 
577.000000	0.009610 
576.000000	0.009630 
575.000000	0.009710 
574.000000	0.009860 
573.000000	0.009870 
572.000000	0.009900 
571.000000	0.009950 
570.000000	0.010050 
569.000000	0.010100 
568.000000	0.010100 
567.000000	0.010160 
566.000000	0.010240 
565.000000	0.010280 
564.000000	0.010270 
563.000000	0.010330 
562.000000	0.010370 
561.000000	0.010400 
560.000000	0.010450 
559.000000	0.010340 
558.000000	0.010380 
557.000000	0.010420 
556.000000	0.010370 
555.000000	0.010360 
554.000000	0.010260 
553.000000	0.010320 
552.000000	0.010350 
551.000000	0.010290 
550.000000	0.010290 
549.000000	0.010330 
548.000000	0.010360 
547.000000	0.010410 
546.000000	0.010370 
545.000000	0.010410 
544.000000	0.010370 
543.000000	0.010390 
542.000000	0.010380 
541.000000	0.010420 
540.000000	0.010460 
539.000000	0.010430 
538.000000	0.010540 
537.000000	0.010560 
536.000000	0.010640 
535.000000	0.010680 
534.000000	0.010790 
533.000000	0.010890 
532.000000	0.010950 
531.000000	0.010950 
530.000000	0.011050 
529.000000	0.011200 
528.000000	0.011340 
527.000000	0.011310 
526.000000	0.011520 
525.000000	0.011550 
524.000000	0.011720 
523.000000	0.011820 
522.000000	0.011930 
521.000000	0.012120 
520.000000	0.012260 
519.000000	0.012330 
518.000000	0.012580 
517.000000	0.012680 
516.000000	0.012860 
515.000000	0.013010 
514.000000	0.013240 
513.000000	0.013390 
512.000000	0.013550 
511.000000	0.013770 
510.000000	0.014000 
509.000000	0.014170 
508.000000	0.014400 
507.000000	0.014650 
506.000000	0.014850 
505.000000	0.014990 
504.000000	0.015390 
503.000000	0.015630 
502.000000	0.015830 
501.000000	0.016130 
500.000000	0.016520 
499.000000	0.016820 
498.000000	0.017100 
497.000000	0.017390 
496.000000	0.017790 
495.000000	0.018000 
494.000000	0.018340 
493.000000	0.018690 
492.000000	0.019010 
491.000000	0.019370 
490.000000	0.019860 
489.000000	0.020400 
488.000000	0.020870 
487.000000	0.021200 
486.000000	0.021520 
485.000000	0.021950 
484.000000	0.022420 
483.000000	0.022820 
482.000000	0.023320 
481.000000	0.023810 
480.000000	0.024340 
479.000000	0.024850 
478.000000	0.025450 
477.000000	0.026060 
476.000000	0.026530 
475.000000	0.027010 
474.000000	0.027640 
473.000000	0.028190 
472.000000	0.028750 
471.000000	0.029460 
470.000000	0.030150 
469.000000	0.030740 
468.000000	0.031400 
467.000000	0.032070 
466.000000	0.032790 
465.000000	0.033490 
464.000000	0.034060 
463.000000	0.035020 
462.000000	0.035640 
461.000000	0.036290 
460.000000	0.036960 
459.000000	0.037750 
458.000000	0.038500 
457.000000	0.039220 
456.000000	0.039990 
455.000000	0.040710 
454.000000	0.041370 
453.000000	0.042330 
452.000000	0.042990 
451.000000	0.043870 
450.000000	0.044710 
449.000000	0.045650 
448.000000	0.046540 
447.000000	0.047370 
446.000000	0.048210 
445.000000	0.049420 
444.000000	0.050410 
443.000000	0.051450 
442.000000	0.052460 
441.000000	0.053530 
440.000000	0.054490 
439.000000	0.055470 
438.000000	0.056520 
437.000000	0.057750 
436.000000	0.058760 
435.000000	0.059940 
434.000000	0.061000 
433.000000	0.062160 
432.000000	0.063360 
431.000000	0.064540 
430.000000	0.065640 
429.000000	0.066780 
428.000000	0.067910 
427.000000	0.069279 
426.000000	0.070360 
425.000000	0.071499 
424.000000	0.072730 
423.000000	0.073860 
422.000000	0.075180 
421.000000	0.076200 
420.000000	0.077330 
419.000000	0.078479 
418.000000	0.079480 
417.000000	0.080510 
416.000000	0.081550 
415.000000	0.082559 
414.000000	0.083590 
413.000000	0.084750 
412.000000	0.085700 
411.000000	0.086590 
410.000000	0.087390 
409.000000	0.088289 
408.000000	0.089039 
407.000000	0.089680 
406.000000	0.090540 
405.000000	0.091300 
404.000000	0.091960 
403.000000	0.092450 
402.000000	0.092939 
401.000000	0.093680 
400.000000	0.094159 

