PE UV                   SPECTRUM    ASCII       PEDS        1.60        
  -1
23MS070.SP
24/10/29
14:54:16.00
24/10/29
14:56:05.00


300.000000
1









4444

SCAN
1
1


0.0
480.0
2.00
MANUAL



UV/VIS




































#HDR
-1
-1
#GR
NM
A
0.00000011920928955078
0.0
600.000000
1.000000
301
8
1.038560
0.009180
#DATA
600.000000	0.009220 
599.000000	0.009180 
598.000000	0.009259 
597.000000	0.009360 
596.000000	0.009299 
595.000000	0.009360 
594.000000	0.009400 
593.000000	0.009429 
592.000000	0.009460 
591.000000	0.009440 
590.000000	0.009520 
589.000000	0.009560 
588.000000	0.009599 
587.000000	0.009630 
586.000000	0.009620 
585.000000	0.009599 
584.000000	0.009679 
583.000000	0.009719 
582.000000	0.009760 
581.000000	0.009780 
580.000000	0.009880 
579.000000	0.009870 
578.000000	0.009889 
577.000000	0.009979 
576.000000	0.010000 
575.000000	0.010060 
574.000000	0.010080 
573.000000	0.010140 
572.000000	0.010220 
571.000000	0.010250 
570.000000	0.010280 
569.000000	0.010270 
568.000000	0.010450 
567.000000	0.010440 
566.000000	0.010530 
565.000000	0.010570 
564.000000	0.010660 
563.000000	0.010740 
562.000000	0.010850 
561.000000	0.010970 
560.000000	0.011110 
559.000000	0.011240 
558.000000	0.011380 
557.000000	0.011500 
556.000000	0.011690 
555.000000	0.011810 
554.000000	0.012040 
553.000000	0.012190 
552.000000	0.012370 
551.000000	0.012650 
550.000000	0.012830 
549.000000	0.013080 
548.000000	0.013430 
547.000000	0.013580 
546.000000	0.013890 
545.000000	0.014110 
544.000000	0.014440 
543.000000	0.014740 
542.000000	0.015090 
541.000000	0.015460 
540.000000	0.015860 
539.000000	0.016220 
538.000000	0.016760 
537.000000	0.017170 
536.000000	0.017650 
535.000000	0.018170 
534.000000	0.018720 
533.000000	0.019300 
532.000000	0.019870 
531.000000	0.020560 
530.000000	0.021270 
529.000000	0.022020 
528.000000	0.022680 
527.000000	0.023560 
526.000000	0.024380 
525.000000	0.025150 
524.000000	0.026050 
523.000000	0.027080 
522.000000	0.028030 
521.000000	0.029040 
520.000000	0.030170 
519.000000	0.031350 
518.000000	0.032340 
517.000000	0.033590 
516.000000	0.034800 
515.000000	0.036030 
514.000000	0.037310 
513.000000	0.038740 
512.000000	0.040190 
511.000000	0.041710 
510.000000	0.043280 
509.000000	0.044870 
508.000000	0.046560 
507.000000	0.048310 
506.000000	0.049910 
505.000000	0.051760 
504.000000	0.053620 
503.000000	0.055640 
502.000000	0.057640 
501.000000	0.059800 
500.000000	0.061910 
499.000000	0.064320 
498.000000	0.066669 
497.000000	0.069060 
496.000000	0.071330 
495.000000	0.073690 
494.000000	0.076189 
493.000000	0.078729 
492.000000	0.081379 
491.000000	0.084000 
490.000000	0.086700 
489.000000	0.089430 
488.000000	0.092140 
487.000000	0.094839 
486.000000	0.097550 
485.000000	0.100400 
484.000000	0.103300 
483.000000	0.106380 
482.000000	0.109450 
481.000000	0.112690 
480.000000	0.115840 
479.000000	0.119040 
478.000000	0.122160 
477.000000	0.125410 
476.000000	0.128670 
475.000000	0.132040 
474.000000	0.135640 
473.000000	0.139130 
472.000000	0.142820 
471.000000	0.146530 
470.000000	0.150140 
469.000000	0.153880 
468.000000	0.157420 
467.000000	0.161060 
466.000000	0.164930 
465.000000	0.168990 
464.000000	0.172980 
463.000000	0.177040 
462.000000	0.180990 
461.000000	0.184780 
460.000000	0.188610 
459.000000	0.192510 
458.000000	0.196280 
457.000000	0.200230 
456.000000	0.204180 
455.000000	0.208320 
454.000000	0.212510 
453.000000	0.216660 
452.000000	0.220860 
451.000000	0.225010 
450.000000	0.229190 
449.000000	0.233240 
448.000000	0.237350 
447.000000	0.241490 
446.000000	0.245600 
445.000000	0.249960 
444.000000	0.254440 
443.000000	0.258730 
442.000000	0.263230 
441.000000	0.267370 
440.000000	0.271440 
439.000000	0.275580 
438.000000	0.279940 
437.000000	0.284380 
436.000000	0.288460 
435.000000	0.292860 
434.000000	0.297020 
433.000000	0.301160 
432.000000	0.305380 
431.000000	0.309210 
430.000000	0.312900 
429.000000	0.316880 
428.000000	0.320830 
427.000000	0.324670 
426.000000	0.328730 
425.000000	0.332670 
424.000000	0.336360 
423.000000	0.340290 
422.000000	0.344040 
421.000000	0.347390 
420.000000	0.350850 
419.000000	0.354310 
418.000000	0.357960 
417.000000	0.361560 
416.000000	0.365170 
415.000000	0.368800 
414.000000	0.372290 
413.000000	0.375860 
412.000000	0.379450 
411.000000	0.382840 
410.000000	0.386190 
409.000000	0.389730 
408.000000	0.393270 
407.000000	0.396610 
406.000000	0.399880 
405.000000	0.403290 
404.000000	0.406330 
403.000000	0.409470 
402.000000	0.412520 
401.000000	0.415500 
400.000000	0.418550 
399.000000	0.421630 
398.000000	0.424530 
397.000000	0.427760 
396.000000	0.430820 
395.000000	0.433860 
394.000000	0.436780 
393.000000	0.439720 
392.000000	0.442560 
391.000000	0.445480 
390.000000	0.448300 
389.000000	0.451380 
388.000000	0.454220 
387.000000	0.457240 
386.000000	0.460200 
385.000000	0.463070 
384.000000	0.469470 
383.000000	0.493980 
382.000000	0.496930 
381.000000	0.500940 
380.000000	0.504830 
379.000000	0.509600 
378.000000	0.513660 
377.000000	0.518320 
376.000000	0.522600 
375.000000	0.527190 
374.000000	0.531090 
373.000000	0.535440 
372.000000	0.539550 
371.000000	0.543950 
370.000000	0.548340 
369.000000	0.552430 
368.000000	0.557100 
367.000000	0.561720 
366.000000	0.566320 
365.000000	0.571150 
364.000000	0.575890 
363.000000	0.580600 
362.000000	0.585240 
361.000000	0.590190 
360.000000	0.594980 
359.000000	0.600120 
358.000000	0.605150 
357.000000	0.610630 
356.000000	0.615720 
355.000000	0.621020 
354.000000	0.626240 
353.000000	0.631650 
352.000000	0.636980 
351.000000	0.642570 
350.000000	0.647649 
349.000000	0.654040 
348.000000	0.660070 
347.000000	0.665940 
346.000000	0.671629 
345.000000	0.677730 
344.000000	0.683500 
343.000000	0.689250 
342.000000	0.694870 
341.000000	0.701340 
340.000000	0.707200 
339.000000	0.713310 
338.000000	0.719460 
337.000000	0.725350 
336.000000	0.731370 
335.000000	0.737550 
334.000000	0.743960 
333.000000	0.750930 
332.000000	0.756490 
331.000000	0.764170 
330.000000	0.770390 
329.000000	0.777330 
328.000000	0.784150 
327.000000	0.790110 
326.000000	0.796700 
325.000000	0.804240 
324.000000	0.811940 
323.000000	0.818980 
322.000000	0.827220 
321.000000	0.835580 
320.000000	0.843550 
319.000000	0.852130 
318.000000	0.859660 
317.000000	0.868900 
316.000000	0.878130 
315.000000	0.886560 
314.000000	0.895190 
313.000000	0.904430 
312.000000	0.914150 
311.000000	0.922930 
310.000000	0.931530 
309.000000	0.942130 
308.000000	0.951709 
307.000000	0.961690 
306.000000	0.971840 
305.000000	0.982620 
304.000000	0.992630 
303.000000	1.003750 
302.000000	1.012680 
301.000000	1.025160 
300.000000	1.038560 

