PE UV                   SPECTRUM    ASCII       PEDS        1.60        
  -1
23MS017.SP
24/10/28
15:09:43.00
24/10/28
15:10:56.00


300.000000
1









4444

SCAN
1
1


0.0
480.0
2.00
MANUAL



UV/VIS




































#HDR
-1
-1
#GR
NM
A
0.00000011920928955078
0.0
600.000000
1.000000
301
8
0.542380
0.004520
#DATA
600.000000	0.004560 
599.000000	0.004520 
598.000000	0.004530 
597.000000	0.004550 
596.000000	0.004580 
595.000000	0.004590 
594.000000	0.004580 
593.000000	0.004560 
592.000000	0.004620 
591.000000	0.004620 
590.000000	0.004580 
589.000000	0.004600 
588.000000	0.004580 
587.000000	0.004610 
586.000000	0.004700 
585.000000	0.004720 
584.000000	0.004710 
583.000000	0.004840 
582.000000	0.004730 
581.000000	0.004850 
580.000000	0.004800 
579.000000	0.004830 
578.000000	0.004870 
577.000000	0.004940 
576.000000	0.005000 
575.000000	0.004910 
574.000000	0.004960 
573.000000	0.005000 
572.000000	0.005040 
571.000000	0.005080 
570.000000	0.005140 
569.000000	0.005130 
568.000000	0.005180 
567.000000	0.005340 
566.000000	0.005350 
565.000000	0.005500 
564.000000	0.005540 
563.000000	0.005690 
562.000000	0.005770 
561.000000	0.005830 
560.000000	0.005810 
559.000000	0.006030 
558.000000	0.006240 
557.000000	0.006420 
556.000000	0.006450 
555.000000	0.006560 
554.000000	0.006750 
553.000000	0.006870 
552.000000	0.007080 
551.000000	0.007170 
550.000000	0.007390 
549.000000	0.007580 
548.000000	0.007750 
547.000000	0.007950 
546.000000	0.008120 
545.000000	0.008430 
544.000000	0.008690 
543.000000	0.008900 
542.000000	0.009100 
541.000000	0.009480 
540.000000	0.009690 
539.000000	0.010000 
538.000000	0.010290 
537.000000	0.010650 
536.000000	0.010970 
535.000000	0.011360 
534.000000	0.011710 
533.000000	0.012130 
532.000000	0.012500 
531.000000	0.012980 
530.000000	0.013440 
529.000000	0.013910 
528.000000	0.014470 
527.000000	0.014980 
526.000000	0.015440 
525.000000	0.015990 
524.000000	0.016530 
523.000000	0.017200 
522.000000	0.017780 
521.000000	0.018390 
520.000000	0.019030 
519.000000	0.019750 
518.000000	0.020470 
517.000000	0.021140 
516.000000	0.021850 
515.000000	0.022580 
514.000000	0.023420 
513.000000	0.024130 
512.000000	0.025000 
511.000000	0.025900 
510.000000	0.026760 
509.000000	0.027740 
508.000000	0.028600 
507.000000	0.029690 
506.000000	0.030610 
505.000000	0.031570 
504.000000	0.032660 
503.000000	0.033720 
502.000000	0.034910 
501.000000	0.036050 
500.000000	0.037180 
499.000000	0.038440 
498.000000	0.039630 
497.000000	0.040980 
496.000000	0.042280 
495.000000	0.043460 
494.000000	0.044860 
493.000000	0.046380 
492.000000	0.047700 
491.000000	0.049100 
490.000000	0.050670 
489.000000	0.052050 
488.000000	0.053580 
487.000000	0.055130 
486.000000	0.056440 
485.000000	0.057900 
484.000000	0.059500 
483.000000	0.061180 
482.000000	0.062850 
481.000000	0.064650 
480.000000	0.066360 
479.000000	0.068120 
478.000000	0.069800 
477.000000	0.071640 
476.000000	0.073450 
475.000000	0.075320 
474.000000	0.077250 
473.000000	0.079260 
472.000000	0.081220 
471.000000	0.083349 
470.000000	0.085440 
469.000000	0.087630 
468.000000	0.089740 
467.000000	0.091820 
466.000000	0.093970 
465.000000	0.096220 
464.000000	0.098550 
463.000000	0.100800 
462.000000	0.103160 
461.000000	0.105360 
460.000000	0.107650 
459.000000	0.109860 
458.000000	0.112200 
457.000000	0.114560 
456.000000	0.116930 
455.000000	0.119230 
454.000000	0.121760 
453.000000	0.124190 
452.000000	0.126600 
451.000000	0.129030 
450.000000	0.131370 
449.000000	0.133650 
448.000000	0.135950 
447.000000	0.138300 
446.000000	0.140700 
445.000000	0.142940 
444.000000	0.145490 
443.000000	0.147780 
442.000000	0.150070 
441.000000	0.152340 
440.000000	0.154470 
439.000000	0.156600 
438.000000	0.158740 
437.000000	0.160990 
436.000000	0.163090 
435.000000	0.165300 
434.000000	0.167430 
433.000000	0.169410 
432.000000	0.171420 
431.000000	0.173270 
430.000000	0.175110 
429.000000	0.176920 
428.000000	0.178660 
427.000000	0.180590 
426.000000	0.182320 
425.000000	0.184160 
424.000000	0.186110 
423.000000	0.187720 
422.000000	0.189410 
421.000000	0.191000 
420.000000	0.192490 
419.000000	0.194020 
418.000000	0.195720 
417.000000	0.197400 
416.000000	0.198970 
415.000000	0.200620 
414.000000	0.202300 
413.000000	0.203870 
412.000000	0.205500 
411.000000	0.206940 
410.000000	0.208520 
409.000000	0.210140 
408.000000	0.211740 
407.000000	0.213380 
406.000000	0.215060 
405.000000	0.216620 
404.000000	0.218010 
403.000000	0.219470 
402.000000	0.220910 
401.000000	0.222460 
400.000000	0.223930 
399.000000	0.225470 
398.000000	0.226970 
397.000000	0.228790 
396.000000	0.230430 
395.000000	0.232030 
394.000000	0.233640 
393.000000	0.235170 
392.000000	0.236700 
391.000000	0.238180 
390.000000	0.239750 
389.000000	0.241310 
388.000000	0.242950 
387.000000	0.244600 
386.000000	0.246210 
385.000000	0.247920 
384.000000	0.251810 
383.000000	0.262450 
382.000000	0.263600 
381.000000	0.266100 
380.000000	0.267990 
379.000000	0.270050 
378.000000	0.272650 
377.000000	0.274820 
376.000000	0.276840 
375.000000	0.279160 
374.000000	0.281450 
373.000000	0.283880 
372.000000	0.286230 
371.000000	0.288400 
370.000000	0.290650 
369.000000	0.292860 
368.000000	0.295150 
367.000000	0.297290 
366.000000	0.299850 
365.000000	0.302380 
364.000000	0.304820 
363.000000	0.307130 
362.000000	0.309580 
361.000000	0.311970 
360.000000	0.314610 
359.000000	0.317100 
358.000000	0.319640 
357.000000	0.322380 
356.000000	0.325230 
355.000000	0.327780 
354.000000	0.330450 
353.000000	0.333130 
352.000000	0.335750 
351.000000	0.338630 
350.000000	0.341340 
349.000000	0.344400 
348.000000	0.347390 
347.000000	0.350150 
346.000000	0.353050 
345.000000	0.356180 
344.000000	0.358890 
343.000000	0.361740 
342.000000	0.364650 
341.000000	0.368240 
340.000000	0.371090 
339.000000	0.373860 
338.000000	0.377060 
337.000000	0.379950 
336.000000	0.383030 
335.000000	0.385840 
334.000000	0.388980 
333.000000	0.392660 
332.000000	0.395870 
331.000000	0.398940 
330.000000	0.402430 
329.000000	0.405800 
328.000000	0.408950 
327.000000	0.414990 
326.000000	0.419640 
325.000000	0.423300 
324.000000	0.426920 
323.000000	0.431050 
322.000000	0.434820 
321.000000	0.438820 
320.000000	0.442900 
319.000000	0.447340 
318.000000	0.451630 
317.000000	0.456140 
316.000000	0.460690 
315.000000	0.465300 
314.000000	0.469530 
313.000000	0.473970 
312.000000	0.479050 
311.000000	0.483990 
310.000000	0.488110 
309.000000	0.493430 
308.000000	0.498250 
307.000000	0.503690 
306.000000	0.508810 
305.000000	0.513860 
304.000000	0.519540 
303.000000	0.524720 
302.000000	0.529910 
301.000000	0.536330 
300.000000	0.542380 

