PE IR       SUBTECH     SPECTRUM    ASCII       PEDS        4.00        
   -1
23ms076-cis.asc
24/10/22
15:06:03.00
24/10/22
15:06:03.00
Administrator
Sample 1327 By Administrator Date Tuesday, October 22 2024
400.000000
#HDR
-1
-1
#GR
cm-1
%T
1.0
0.0
4000.000000
-1.000000
3601
8
72.234015
2.142574
#DATA
4000.000000	37.832706
3999.000000	37.812979
3998.000000	37.797341
3997.000000	37.784523
3996.000000	37.773596
3995.000000	37.764859
3994.000000	37.758930
3993.000000	37.755344
3992.000000	37.752688
3991.000000	37.750456
3990.000000	37.749949
3989.000000	37.752879
3988.000000	37.759811
3987.000000	37.770409
3986.000000	37.784638
3985.000000	37.802832
3984.000000	37.824735
3983.000000	37.849443
3982.000000	37.876365
3981.000000	37.905895
3980.000000	37.938978
3979.000000	37.976062
3978.000000	38.016825
3977.000000	38.060557
3976.000000	38.106520
3975.000000	38.153770
3974.000000	38.201254
3973.000000	38.248275
3972.000000	38.294427
3971.000000	38.339330
3970.000000	38.382891
3969.000000	38.425994
3968.000000	38.470210
3967.000000	38.516962
3966.000000	38.566685
3965.000000	38.618763
3964.000000	38.672242
3963.000000	38.726525
3962.000000	38.781949
3961.000000	38.839246
3960.000000	38.898366
3959.000000	38.958322
3958.000000	39.018334
3957.000000	39.078883
3956.000000	39.140506
3955.000000	39.203181
3954.000000	39.266456
3953.000000	39.329514
3952.000000	39.391164
3951.000000	39.450069
3950.000000	39.506070
3949.000000	39.560463
3948.000000	39.615503
3947.000000	39.673165
3946.000000	39.732349
3945.000000	39.787615
3944.000000	39.833895
3943.000000	39.872944
3942.000000	39.912776
3941.000000	39.959268
3940.000000	40.011725
3939.000000	40.066885
3938.000000	40.123248
3937.000000	40.181480
3936.000000	40.240397
3935.000000	40.295627
3934.000000	40.343155
3933.000000	40.382819
3932.000000	40.417965
3931.000000	40.450471
3930.000000	40.479875
3929.000000	40.507145
3928.000000	40.534686
3927.000000	40.561503
3926.000000	40.582340
3925.000000	40.596634
3924.000000	40.611343
3923.000000	40.630647
3922.000000	40.650437
3921.000000	40.665911
3920.000000	40.678714
3919.000000	40.692954
3918.000000	40.708272
3917.000000	40.722905
3916.000000	40.739169
3915.000000	40.759475
3914.000000	40.782550
3913.000000	40.806691
3912.000000	40.833326
3911.000000	40.865339
3910.000000	40.901748
3909.000000	40.941000
3908.000000	40.982260
3907.000000	41.023119
3906.000000	41.056509
3905.000000	41.077743
3904.000000	41.095248
3903.000000	41.121918
3902.000000	41.159436
3901.000000	41.199061
3900.000000	41.235994
3899.000000	41.275353
3898.000000	41.322280
3897.000000	41.374128
3896.000000	41.428033
3895.000000	41.485923
3894.000000	41.548319
3893.000000	41.609962
3892.000000	41.663933
3891.000000	41.712449
3890.000000	41.761688
3889.000000	41.815538
3888.000000	41.870956
3887.000000	41.919539
3886.000000	41.962721
3885.000000	42.011349
3884.000000	42.062938
3883.000000	42.102775
3882.000000	42.121258
3881.000000	42.124533
3880.000000	42.130485
3879.000000	42.147639
3878.000000	42.169947
3877.000000	42.189704
3876.000000	42.200177
3875.000000	42.200509
3874.000000	42.203267
3873.000000	42.222707
3872.000000	42.253548
3871.000000	42.276391
3870.000000	42.292869
3869.000000	42.323890
3868.000000	42.370473
3867.000000	42.413158
3866.000000	42.439120
3865.000000	42.458825
3864.000000	42.489822
3863.000000	42.528240
3862.000000	42.561246
3861.000000	42.591678
3860.000000	42.626176
3859.000000	42.666897
3858.000000	42.717014
3857.000000	42.783999
3856.000000	42.856671
3855.000000	42.896470
3854.000000	42.908425
3853.000000	42.943035
3852.000000	42.991243
3851.000000	43.010077
3850.000000	43.000722
3849.000000	42.994599
3848.000000	43.013322
3847.000000	43.053978
3846.000000	43.101658
3845.000000	43.146282
3844.000000	43.183988
3843.000000	43.215581
3842.000000	43.247223
3841.000000	43.282869
3840.000000	43.317805
3839.000000	43.353437
3838.000000	43.396817
3837.000000	43.444392
3836.000000	43.482185
3835.000000	43.505691
3834.000000	43.524894
3833.000000	43.548788
3832.000000	43.579534
3831.000000	43.617064
3830.000000	43.659866
3829.000000	43.703916
3828.000000	43.742085
3827.000000	43.770940
3826.000000	43.798745
3825.000000	43.839317
3824.000000	43.893016
3823.000000	43.941092
3822.000000	43.969793
3821.000000	43.996188
3820.000000	44.037574
3819.000000	44.088102
3818.000000	44.134538
3817.000000	44.167924
3816.000000	44.199210
3815.000000	44.240850
3814.000000	44.279328
3813.000000	44.296609
3812.000000	44.299454
3811.000000	44.312565
3810.000000	44.352070
3809.000000	44.407430
3808.000000	44.456825
3807.000000	44.497872
3806.000000	44.542625
3805.000000	44.594640
3804.000000	44.646142
3803.000000	44.684246
3802.000000	44.710498
3801.000000	44.747767
3800.000000	44.793757
3799.000000	44.823875
3798.000000	44.832417
3797.000000	44.835005
3796.000000	44.852082
3795.000000	44.887701
3794.000000	44.929728
3793.000000	44.966734
3792.000000	45.000287
3791.000000	45.037529
3790.000000	45.079366
3789.000000	45.120580
3788.000000	45.157657
3787.000000	45.190726
3786.000000	45.220325
3785.000000	45.246379
3784.000000	45.271872
3783.000000	45.301127
3782.000000	45.332871
3781.000000	45.360112
3780.000000	45.380443
3779.000000	45.402148
3778.000000	45.431956
3777.000000	45.466093
3776.000000	45.496132
3775.000000	45.522207
3774.000000	45.553730
3773.000000	45.595551
3772.000000	45.638871
3771.000000	45.675508
3770.000000	45.713522
3769.000000	45.762204
3768.000000	45.815156
3767.000000	45.861986
3766.000000	45.902304
3765.000000	45.944224
3764.000000	45.994739
3763.000000	46.052049
3762.000000	46.107340
3761.000000	46.154923
3760.000000	46.200564
3759.000000	46.252225
3758.000000	46.305109
3757.000000	46.354795
3756.000000	46.407092
3755.000000	46.467775
3754.000000	46.531491
3753.000000	46.587472
3752.000000	46.640270
3751.000000	46.703865
3750.000000	46.772676
3749.000000	46.830674
3748.000000	46.883164
3747.000000	46.947184
3746.000000	47.008700
3745.000000	47.060488
3744.000000	47.135465
3743.000000	47.223766
3742.000000	47.279312
3741.000000	47.301963
3740.000000	47.330810
3739.000000	47.396680
3738.000000	47.484893
3737.000000	47.557050
3736.000000	47.602384
3735.000000	47.640353
3734.000000	47.685192
3733.000000	47.734425
3732.000000	47.785573
3731.000000	47.836125
3730.000000	47.880856
3729.000000	47.918638
3728.000000	47.950157
3727.000000	47.977966
3726.000000	48.008496
3725.000000	48.041057
3724.000000	48.067596
3723.000000	48.085807
3722.000000	48.103734
3721.000000	48.128345
3720.000000	48.159600
3719.000000	48.195398
3718.000000	48.233258
3717.000000	48.277159
3716.000000	48.332816
3715.000000	48.397986
3714.000000	48.464439
3713.000000	48.528437
3712.000000	48.597021
3711.000000	48.674160
3710.000000	48.753229
3709.000000	48.828889
3708.000000	48.899520
3707.000000	48.965420
3706.000000	49.029701
3705.000000	49.093758
3704.000000	49.154143
3703.000000	49.205848
3702.000000	49.252007
3701.000000	49.300686
3700.000000	49.353817
3699.000000	49.407202
3698.000000	49.455717
3697.000000	49.500386
3696.000000	49.547914
3695.000000	49.598868
3694.000000	49.646024
3693.000000	49.686286
3692.000000	49.723086
3691.000000	49.760266
3690.000000	49.803153
3689.000000	49.862553
3688.000000	49.935486
3687.000000	49.997359
3686.000000	50.031933
3685.000000	50.046870
3684.000000	50.061149
3683.000000	50.090274
3682.000000	50.133898
3681.000000	50.176906
3680.000000	50.212263
3679.000000	50.251219
3678.000000	50.302390
3677.000000	50.346292
3676.000000	50.378183
3675.000000	50.424407
3674.000000	50.481333
3673.000000	50.527098
3672.000000	50.555051
3671.000000	50.569728
3670.000000	50.593315
3669.000000	50.637180
3668.000000	50.680397
3667.000000	50.707533
3666.000000	50.725194
3665.000000	50.745150
3664.000000	50.772892
3663.000000	50.807498
3662.000000	50.842410
3661.000000	50.872742
3660.000000	50.901165
3659.000000	50.931132
3658.000000	50.959483
3657.000000	50.983361
3656.000000	51.012323
3655.000000	51.052029
3654.000000	51.094383
3653.000000	51.129344
3652.000000	51.149730
3651.000000	51.156953
3650.000000	51.170764
3649.000000	51.206928
3648.000000	51.256203
3647.000000	51.303655
3646.000000	51.344239
3645.000000	51.379504
3644.000000	51.412736
3643.000000	51.447191
3642.000000	51.484056
3641.000000	51.523623
3640.000000	51.563215
3639.000000	51.599185
3638.000000	51.631921
3637.000000	51.664189
3636.000000	51.695530
3635.000000	51.719716
3634.000000	51.734964
3633.000000	51.747410
3632.000000	51.760017
3631.000000	51.757872
3630.000000	51.726007
3629.000000	51.694123
3628.000000	51.693377
3627.000000	51.696560
3626.000000	51.668740
3625.000000	51.612988
3624.000000	51.550485
3623.000000	51.492821
3622.000000	51.431457
3621.000000	51.349267
3620.000000	51.243783
3619.000000	51.131068
3618.000000	51.022629
3617.000000	50.916057
3616.000000	50.804913
3615.000000	50.683307
3614.000000	50.552418
3613.000000	50.423956
3612.000000	50.307572
3611.000000	50.198503
3610.000000	50.084384
3609.000000	49.961038
3608.000000	49.834781
3607.000000	49.709567
3606.000000	49.581119
3605.000000	49.445840
3604.000000	49.305702
3603.000000	49.164634
3602.000000	49.026703
3601.000000	48.898328
3600.000000	48.785662
3599.000000	48.685429
3598.000000	48.586137
3597.000000	48.480142
3596.000000	48.367530
3595.000000	48.249981
3594.000000	48.129752
3593.000000	48.008658
3592.000000	47.888279
3591.000000	47.771188
3590.000000	47.660859
3589.000000	47.565581
3588.000000	47.501130
3587.000000	47.476634
3586.000000	47.477607
3585.000000	47.477483
3584.000000	47.459204
3583.000000	47.420259
3582.000000	47.365798
3581.000000	47.302210
3580.000000	47.234229
3579.000000	47.163199
3578.000000	47.088962
3577.000000	47.012532
3576.000000	46.936019
3575.000000	46.860423
3574.000000	46.785229
3573.000000	46.709856
3572.000000	46.632649
3571.000000	46.550123
3570.000000	46.455962
3569.000000	46.344546
3568.000000	46.220237
3567.000000	46.098013
3566.000000	45.986843
3565.000000	45.881266
3564.000000	45.772056
3563.000000	45.654555
3562.000000	45.528133
3561.000000	45.393694
3560.000000	45.252835
3559.000000	45.107342
3558.000000	44.958407
3557.000000	44.806601
3556.000000	44.651243
3555.000000	44.489793
3554.000000	44.319648
3553.000000	44.142546
3552.000000	43.963713
3551.000000	43.784377
3550.000000	43.598609
3549.000000	43.399645
3548.000000	43.186973
3547.000000	42.965912
3546.000000	42.741253
3545.000000	42.513862
3544.000000	42.281710
3543.000000	42.041450
3542.000000	41.789749
3541.000000	41.525309
3540.000000	41.248648
3539.000000	40.959397
3538.000000	40.655600
3537.000000	40.337449
3536.000000	40.008383
3535.000000	39.670390
3534.000000	39.321335
3533.000000	38.957660
3532.000000	38.578004
3531.000000	38.181589
3530.000000	37.766402
3529.000000	37.331919
3528.000000	36.881502
3527.000000	36.418873
3526.000000	35.943349
3525.000000	35.451784
3524.000000	34.943694
3523.000000	34.421366
3522.000000	33.886237
3521.000000	33.337988
3520.000000	32.775906
3519.000000	32.199375
3518.000000	31.608129
3517.000000	31.003694
3516.000000	30.389226
3515.000000	29.767102
3514.000000	29.138187
3513.000000	28.502310
3512.000000	27.858055
3511.000000	27.203213
3510.000000	26.538305
3509.000000	25.869485
3508.000000	25.204120
3507.000000	24.542810
3506.000000	23.879424
3505.000000	23.209918
3504.000000	22.537964
3503.000000	21.870721
3502.000000	21.212382
3501.000000	20.563810
3500.000000	19.924588
3499.000000	19.292998
3498.000000	18.667508
3497.000000	18.050042
3496.000000	17.445253
3495.000000	16.855675
3494.000000	16.280697
3493.000000	15.721013
3492.000000	15.179406
3491.000000	14.656498
3490.000000	14.150199
3489.000000	13.660396
3488.000000	13.190945
3487.000000	12.745315
3486.000000	12.323211
3485.000000	11.922529
3484.000000	11.540595
3483.000000	11.173583
3482.000000	10.818886
3481.000000	10.478511
3480.000000	10.156658
3479.000000	9.852933
3478.000000	9.561907
3477.000000	9.279222
3476.000000	9.003771
3475.000000	8.734380
3474.000000	8.468739
3473.000000	8.206848
3472.000000	7.951903
3471.000000	7.707307
3470.000000	7.476995
3469.000000	7.267801
3468.000000	7.086946
3467.000000	6.936531
3466.000000	6.813598
3465.000000	6.715851
3464.000000	6.643255
3463.000000	6.595314
3462.000000	6.571859
3461.000000	6.575686
3460.000000	6.610322
3459.000000	6.674416
3458.000000	6.761916
3457.000000	6.867563
3456.000000	6.987657
3455.000000	7.116737
3454.000000	7.247952
3453.000000	7.376107
3452.000000	7.496864
3451.000000	7.603386
3450.000000	7.687548
3449.000000	7.744588
3448.000000	7.772923
3447.000000	7.770164
3446.000000	7.734167
3445.000000	7.666602
3444.000000	7.572102
3443.000000	7.454575
3442.000000	7.317082
3441.000000	7.165339
3440.000000	7.006856
3439.000000	6.847442
3438.000000	6.692560
3437.000000	6.550385
3436.000000	6.429132
3435.000000	6.331548
3434.000000	6.255484
3433.000000	6.199373
3432.000000	6.164522
3431.000000	6.152447
3430.000000	6.164690
3429.000000	6.205082
3428.000000	6.277461
3427.000000	6.382674
3426.000000	6.519623
3425.000000	6.689042
3424.000000	6.893724
3423.000000	7.134648
3422.000000	7.411911
3421.000000	7.726721
3420.000000	8.079195
3419.000000	8.465840
3418.000000	8.880835
3417.000000	9.320636
3416.000000	9.783601
3415.000000	10.266806
3414.000000	10.767117
3413.000000	11.282626
3412.000000	11.811010
3411.000000	12.347396
3410.000000	12.886581
3409.000000	13.426396
3408.000000	13.965407
3407.000000	14.499096
3406.000000	15.021568
3405.000000	15.529892
3404.000000	16.024474
3403.000000	16.507131
3402.000000	16.981299
3401.000000	17.451802
3400.000000	17.920567
3399.000000	18.383302
3398.000000	18.833683
3397.000000	19.269249
3396.000000	19.690628
3395.000000	20.098355
3394.000000	20.494237
3393.000000	20.884137
3392.000000	21.274290
3391.000000	21.664852
3390.000000	22.051204
3389.000000	22.430473
3388.000000	22.803594
3387.000000	23.171966
3386.000000	23.535894
3385.000000	23.896531
3384.000000	24.255721
3383.000000	24.613907
3382.000000	24.970745
3381.000000	25.327239
3380.000000	25.684926
3379.000000	26.043555
3378.000000	26.402124
3377.000000	26.761265
3376.000000	27.121859
3375.000000	27.482178
3374.000000	27.839284
3373.000000	28.192908
3372.000000	28.545557
3371.000000	28.899386
3370.000000	29.255192
3369.000000	29.613471
3368.000000	29.973823
3367.000000	30.333864
3366.000000	30.691017
3365.000000	31.044987
3364.000000	31.396891
3363.000000	31.747033
3362.000000	32.095463
3361.000000	32.443495
3360.000000	32.792356
3359.000000	33.141098
3358.000000	33.487971
3357.000000	33.832912
3356.000000	34.176390
3355.000000	34.517072
3354.000000	34.853327
3353.000000	35.186362
3352.000000	35.519255
3351.000000	35.852952
3350.000000	36.185359
3349.000000	36.514060
3348.000000	36.837907
3347.000000	37.156553
3346.000000	37.470524
3345.000000	37.781599
3344.000000	38.090993
3343.000000	38.397070
3342.000000	38.697128
3341.000000	38.990894
3340.000000	39.280282
3339.000000	39.565812
3338.000000	39.845102
3337.000000	40.115513
3336.000000	40.375952
3335.000000	40.625787
3334.000000	40.863756
3333.000000	41.087824
3332.000000	41.295535
3331.000000	41.483445
3330.000000	41.647841
3329.000000	41.786878
3328.000000	41.899769
3327.000000	41.984649
3326.000000	42.037142
3325.000000	42.051360
3324.000000	42.022670
3323.000000	41.947037
3322.000000	41.821260
3321.000000	41.642388
3320.000000	41.405570
3319.000000	41.104760
3318.000000	40.732232
3317.000000	40.280734
3316.000000	39.742893
3315.000000	39.108341
3314.000000	38.367276
3313.000000	37.511940
3312.000000	36.538017
3311.000000	35.445008
3310.000000	34.234917
3309.000000	32.917134
3308.000000	31.505656
3307.000000	30.015139
3306.000000	28.461054
3305.000000	26.858246
3304.000000	25.221789
3303.000000	23.564133
3302.000000	21.896816
3301.000000	20.234500
3300.000000	18.593924
3299.000000	16.992176
3298.000000	15.448938
3297.000000	13.988788
3296.000000	12.635056
3295.000000	11.404827
3294.000000	10.307517
3293.000000	9.348440
3292.000000	8.527480
3291.000000	7.831787
3290.000000	7.242073
3289.000000	6.737879
3288.000000	6.299907
3287.000000	5.910553
3286.000000	5.554235
3285.000000	5.223301
3284.000000	4.914805
3283.000000	4.626856
3282.000000	4.360774
3281.000000	4.122032
3280.000000	3.917812
3279.000000	3.752450
3278.000000	3.629454
3277.000000	3.555206
3276.000000	3.534540
3275.000000	3.566472
3274.000000	3.645814
3273.000000	3.766637
3272.000000	3.921297
3271.000000	4.096280
3270.000000	4.274478
3269.000000	4.439779
3268.000000	4.577124
3267.000000	4.671857
3266.000000	4.713687
3265.000000	4.700214
3264.000000	4.635242
3263.000000	4.526350
3262.000000	4.385147
3261.000000	4.228182
3260.000000	4.071839
3259.000000	3.927730
3258.000000	3.805300
3257.000000	3.714413
3256.000000	3.661713
3255.000000	3.646911
3254.000000	3.665781
3253.000000	3.714017
3252.000000	3.786315
3251.000000	3.873529
3250.000000	3.965859
3249.000000	4.057295
3248.000000	4.143580
3247.000000	4.219462
3246.000000	4.280554
3245.000000	4.326097
3244.000000	4.356957
3243.000000	4.373213
3242.000000	4.375908
3241.000000	4.368853
3240.000000	4.355396
3239.000000	4.335091
3238.000000	4.306814
3237.000000	4.272070
3236.000000	4.233673
3235.000000	4.193994
3234.000000	4.156290
3233.000000	4.124644
3232.000000	4.099095
3231.000000	4.073940
3230.000000	4.043874
3229.000000	4.008773
3228.000000	3.970235
3227.000000	3.927092
3226.000000	3.877701
3225.000000	3.823443
3224.000000	3.766119
3223.000000	3.704826
3222.000000	3.638589
3221.000000	3.569457
3220.000000	3.499824
3219.000000	3.429035
3218.000000	3.355792
3217.000000	3.281031
3216.000000	3.205628
3215.000000	3.128208
3214.000000	3.047974
3213.000000	2.967001
3212.000000	2.886852
3211.000000	2.805969
3210.000000	2.723287
3209.000000	2.641406
3208.000000	2.563338
3207.000000	2.489162
3206.000000	2.418753
3205.000000	2.354485
3204.000000	2.298461
3203.000000	2.249918
3202.000000	2.208315
3201.000000	2.176112
3200.000000	2.155273
3199.000000	2.144558
3198.000000	2.142574
3197.000000	2.150419
3196.000000	2.168881
3195.000000	2.195759
3194.000000	2.229513
3193.000000	2.271802
3192.000000	2.323730
3191.000000	2.383298
3190.000000	2.448550
3189.000000	2.520491
3188.000000	2.599817
3187.000000	2.684021
3186.000000	2.770975
3185.000000	2.861663
3184.000000	2.956999
3183.000000	3.055098
3182.000000	3.154426
3181.000000	3.256539
3180.000000	3.362526
3179.000000	3.470122
3178.000000	3.577031
3177.000000	3.683967
3176.000000	3.791813
3175.000000	3.898837
3174.000000	4.003518
3173.000000	4.107028
3172.000000	4.210375
3171.000000	4.312053
3170.000000	4.410967
3169.000000	4.508514
3168.000000	4.605394
3167.000000	4.699684
3166.000000	4.790323
3165.000000	4.879193
3164.000000	4.967253
3163.000000	5.051889
3162.000000	5.130753
3161.000000	5.204546
3160.000000	5.273729
3159.000000	5.335931
3158.000000	5.389174
3157.000000	5.434828
3156.000000	5.474466
3155.000000	5.507246
3154.000000	5.532992
3153.000000	5.554386
3152.000000	5.573831
3151.000000	5.591072
3150.000000	5.606672
3149.000000	5.624578
3148.000000	5.648355
3147.000000	5.677863
3146.000000	5.711921
3145.000000	5.750859
3144.000000	5.793841
3143.000000	5.837057
3142.000000	5.877303
3141.000000	5.914620
3140.000000	5.949079
3139.000000	5.978420
3138.000000	6.001381
3137.000000	6.020114
3136.000000	6.036533
3135.000000	6.049167
3134.000000	6.056268
3133.000000	6.058406
3132.000000	6.055660
3131.000000	6.045057
3130.000000	6.023217
3129.000000	5.989093
3128.000000	5.941543
3127.000000	5.878252
3126.000000	5.799524
3125.000000	5.710068
3124.000000	5.615206
3123.000000	5.517773
3122.000000	5.420952
3121.000000	5.330095
3120.000000	5.248796
3119.000000	5.176227
3118.000000	5.110680
3117.000000	5.052472
3116.000000	5.001016
3115.000000	4.952774
3114.000000	4.904701
3113.000000	4.856906
3112.000000	4.809736
3111.000000	4.761691
3110.000000	4.712533
3109.000000	4.664818
3108.000000	4.620175
3107.000000	4.577527
3106.000000	4.537036
3105.000000	4.502427
3104.000000	4.476819
3103.000000	4.460189
3102.000000	4.453354
3101.000000	4.460276
3100.000000	4.484480
3099.000000	4.525943
3098.000000	4.584353
3097.000000	4.661774
3096.000000	4.758877
3095.000000	4.873258
3094.000000	5.003129
3093.000000	5.149658
3092.000000	5.313438
3091.000000	5.491425
3090.000000	5.680663
3089.000000	5.880685
3088.000000	6.090346
3087.000000	6.306161
3086.000000	6.525585
3085.000000	6.749204
3084.000000	6.976933
3083.000000	7.205743
3082.000000	7.433474
3081.000000	7.661097
3080.000000	7.889253
3079.000000	8.115840
3078.000000	8.339304
3077.000000	8.560749
3076.000000	8.780589
3075.000000	8.996532
3074.000000	9.207010
3073.000000	9.413295
3072.000000	9.616019
3071.000000	9.813304
3070.000000	10.004484
3069.000000	10.192273
3068.000000	10.378822
3067.000000	10.562561
3066.000000	10.741527
3065.000000	10.916564
3064.000000	11.088938
3063.000000	11.257929
3062.000000	11.422932
3061.000000	11.585295
3060.000000	11.745738
3059.000000	11.902735
3058.000000	12.055652
3057.000000	12.206561
3056.000000	12.357105
3055.000000	12.506221
3054.000000	12.652917
3053.000000	12.798568
3052.000000	12.944313
3051.000000	13.088937
3050.000000	13.231204
3049.000000	13.371756
3048.000000	13.511026
3047.000000	13.647898
3046.000000	13.782247
3045.000000	13.916151
3044.000000	14.050930
3043.000000	14.185633
3042.000000	14.319757
3041.000000	14.454510
3040.000000	14.589770
3039.000000	14.722891
3038.000000	14.852509
3037.000000	14.980786
3036.000000	15.110249
3035.000000	15.241036
3034.000000	15.372764
3033.000000	15.506131
3032.000000	15.640869
3031.000000	15.774928
3030.000000	15.907433
3029.000000	16.039805
3028.000000	16.172623
3027.000000	16.304241
3026.000000	16.433811
3025.000000	16.562639
3024.000000	16.690791
3023.000000	16.815394
3022.000000	16.933866
3021.000000	17.045636
3020.000000	17.149125
3019.000000	17.239419
3018.000000	17.311313
3017.000000	17.362279
3016.000000	17.391395
3015.000000	17.399214
3014.000000	17.391039
3013.000000	17.378713
3012.000000	17.376686
3011.000000	17.397537
3010.000000	17.450713
3009.000000	17.540829
3008.000000	17.664083
3007.000000	17.808146
3006.000000	17.957249
3005.000000	18.095989
3004.000000	18.207974
3003.000000	18.274614
3002.000000	18.278255
3001.000000	18.205213
3000.000000	18.048428
2999.000000	17.813054
2998.000000	17.525470
2997.000000	17.234915
2996.000000	17.001749
2995.000000	16.879476
2994.000000	16.898653
2993.000000	17.058045
2992.000000	17.324246
2991.000000	17.646117
2990.000000	17.976166
2989.000000	18.283916
2988.000000	18.555413
2987.000000	18.786832
2986.000000	18.981317
2985.000000	19.145383
2984.000000	19.283991
2983.000000	19.398130
2982.000000	19.487898
2981.000000	19.553896
2980.000000	19.594492
2979.000000	19.604626
2978.000000	19.579463
2977.000000	19.519018
2976.000000	19.428527
2975.000000	19.319197
2974.000000	19.209239
2973.000000	19.119917
2972.000000	19.066293
2971.000000	19.050103
2970.000000	19.059657
2969.000000	19.071570
2968.000000	19.052157
2967.000000	18.965908
2966.000000	18.791549
2965.000000	18.533631
2964.000000	18.219933
2963.000000	17.889818
2962.000000	17.583422
2961.000000	17.332560
2960.000000	17.154889
2959.000000	17.054647
2958.000000	17.030449
2957.000000	17.079056
2956.000000	17.192166
2955.000000	17.354780
2954.000000	17.548392
2953.000000	17.753274
2952.000000	17.945938
2951.000000	18.102305
2950.000000	18.207886
2949.000000	18.265356
2948.000000	18.290353
2947.000000	18.299341
2946.000000	18.296879
2945.000000	18.263633
2944.000000	18.155130
2943.000000	17.923021
2942.000000	17.555861
2941.000000	17.108819
2940.000000	16.696579
2939.000000	16.449969
2938.000000	16.460712
2937.000000	16.745298
2936.000000	17.243678
2935.000000	17.854559
2934.000000	18.482085
2933.000000	19.064505
2932.000000	19.574885
2931.000000	20.010042
2930.000000	20.381116
2929.000000	20.704254
2928.000000	20.992568
2927.000000	21.252834
2926.000000	21.489846
2925.000000	21.708845
2924.000000	21.912676
2923.000000	22.100577
2922.000000	22.272261
2921.000000	22.430222
2920.000000	22.576285
2919.000000	22.709866
2918.000000	22.830665
2917.000000	22.940309
2916.000000	23.039800
2915.000000	23.128297
2914.000000	23.205821
2913.000000	23.273953
2912.000000	23.332697
2911.000000	23.379753
2910.000000	23.413626
2909.000000	23.434290
2908.000000	23.439242
2907.000000	23.421136
2906.000000	23.370729
2905.000000	23.278825
2904.000000	23.134635
2903.000000	22.927150
2902.000000	22.651737
2901.000000	22.315718
2900.000000	21.938910
2899.000000	21.552482
2898.000000	21.196725
2897.000000	20.914159
2896.000000	20.736619
2895.000000	20.676708
2894.000000	20.729434
2893.000000	20.876592
2892.000000	21.090699
2891.000000	21.340812
2890.000000	21.601466
2889.000000	21.856292
2888.000000	22.094988
2887.000000	22.310478
2886.000000	22.499772
2885.000000	22.664252
2884.000000	22.805825
2883.000000	22.925584
2882.000000	23.026546
2881.000000	23.114682
2880.000000	23.195737
2879.000000	23.273361
2878.000000	23.350982
2877.000000	23.432106
2876.000000	23.517086
2875.000000	23.602032
2874.000000	23.682791
2873.000000	23.758091
2872.000000	23.828770
2871.000000	23.897433
2870.000000	23.969928
2869.000000	24.053833
2868.000000	24.153183
2867.000000	24.266238
2866.000000	24.388787
2865.000000	24.516609
2864.000000	24.644260
2863.000000	24.765590
2862.000000	24.877552
2861.000000	24.981059
2860.000000	25.077189
2859.000000	25.165348
2858.000000	25.246221
2857.000000	25.323205
2856.000000	25.399310
2855.000000	25.475368
2854.000000	25.552280
2853.000000	25.631685
2852.000000	25.712911
2851.000000	25.792317
2850.000000	25.867180
2849.000000	25.937740
2848.000000	26.004633
2847.000000	26.067494
2846.000000	26.127530
2845.000000	26.188359
2844.000000	26.252674
2843.000000	26.320495
2842.000000	26.391809
2841.000000	26.468300
2840.000000	26.550947
2839.000000	26.638336
2838.000000	26.728755
2837.000000	26.821900
2836.000000	26.917538
2835.000000	27.014749
2834.000000	27.113421
2833.000000	27.214388
2832.000000	27.317228
2831.000000	27.419980
2830.000000	27.521667
2829.000000	27.622799
2828.000000	27.722780
2827.000000	27.819440
2826.000000	27.911921
2825.000000	28.001562
2824.000000	28.089094
2823.000000	28.173314
2822.000000	28.253487
2821.000000	28.330631
2820.000000	28.405421
2819.000000	28.477169
2818.000000	28.545759
2817.000000	28.612321
2816.000000	28.677030
2815.000000	28.738370
2814.000000	28.795557
2813.000000	28.849614
2812.000000	28.901343
2811.000000	28.950460
2810.000000	28.997438
2809.000000	29.043972
2808.000000	29.090792
2807.000000	29.137112
2806.000000	29.182841
2805.000000	29.229048
2804.000000	29.275617
2803.000000	29.320935
2802.000000	29.364634
2801.000000	29.408265
2800.000000	29.452540
2799.000000	29.496312
2798.000000	29.539017
2797.000000	29.581588
2796.000000	29.624025
2795.000000	29.664512
2794.000000	29.701966
2793.000000	29.737246
2792.000000	29.771039
2791.000000	29.802936
2790.000000	29.833382
2789.000000	29.863991
2788.000000	29.894840
2787.000000	29.923746
2786.000000	29.949320
2785.000000	29.972821
2784.000000	29.996390
2783.000000	30.021985
2782.000000	30.052744
2781.000000	30.092459
2780.000000	30.142223
2779.000000	30.199520
2778.000000	30.261404
2777.000000	30.326453
2776.000000	30.392922
2775.000000	30.457805
2774.000000	30.519240
2773.000000	30.577713
2772.000000	30.633820
2771.000000	30.686981
2770.000000	30.737235
2769.000000	30.786040
2768.000000	30.834061
2767.000000	30.880062
2766.000000	30.923017
2765.000000	30.963229
2764.000000	31.000477
2763.000000	31.033355
2762.000000	31.061558
2761.000000	31.086894
2760.000000	31.110942
2759.000000	31.133450
2758.000000	31.153934
2757.000000	31.172663
2756.000000	31.189109
2755.000000	31.201570
2754.000000	31.209631
2753.000000	31.215661
2752.000000	31.223142
2751.000000	31.235056
2750.000000	31.254085
2749.000000	31.281690
2748.000000	31.315595
2747.000000	31.350098
2746.000000	31.380226
2745.000000	31.404680
2744.000000	31.424939
2743.000000	31.443674
2742.000000	31.464154
2741.000000	31.488259
2740.000000	31.513532
2739.000000	31.534167
2738.000000	31.546493
2737.000000	31.552937
2736.000000	31.560785
2735.000000	31.579027
2734.000000	31.615901
2733.000000	31.675305
2732.000000	31.753548
2731.000000	31.841105
2730.000000	31.928660
2729.000000	32.010971
2728.000000	32.085630
2727.000000	32.151429
2726.000000	32.209175
2725.000000	32.261411
2724.000000	32.309550
2723.000000	32.352664
2722.000000	32.389398
2721.000000	32.419115
2720.000000	32.441103
2719.000000	32.454780
2718.000000	32.461851
2717.000000	32.466570
2716.000000	32.472975
2715.000000	32.483609
2714.000000	32.500907
2713.000000	32.527098
2712.000000	32.561760
2711.000000	32.601583
2710.000000	32.643385
2709.000000	32.685713
2708.000000	32.727242
2707.000000	32.765994
2706.000000	32.801065
2705.000000	32.832938
2704.000000	32.861130
2703.000000	32.883510
2702.000000	32.898548
2701.000000	32.905994
2700.000000	32.905127
2699.000000	32.894644
2698.000000	32.875349
2697.000000	32.851214
2696.000000	32.826606
2695.000000	32.804298
2694.000000	32.786293
2693.000000	32.773800
2692.000000	32.765448
2691.000000	32.757818
2690.000000	32.749094
2689.000000	32.740743
2688.000000	32.735127
2687.000000	32.733403
2686.000000	32.736393
2685.000000	32.744936
2684.000000	32.758374
2683.000000	32.774909
2682.000000	32.794274
2681.000000	32.818408
2680.000000	32.848667
2679.000000	32.884088
2678.000000	32.922949
2677.000000	32.963533
2676.000000	33.002800
2675.000000	33.036683
2674.000000	33.062739
2673.000000	33.080937
2672.000000	33.091692
2671.000000	33.095482
2670.000000	33.095167
2669.000000	33.096418
2668.000000	33.104588
2667.000000	33.122614
2666.000000	33.152042
2665.000000	33.193284
2664.000000	33.243659
2663.000000	33.297404
2662.000000	33.348690
2661.000000	33.393314
2660.000000	33.427679
2659.000000	33.448842
2658.000000	33.456679
2657.000000	33.454346
2656.000000	33.445893
2655.000000	33.435116
2654.000000	33.427040
2653.000000	33.427705
2652.000000	33.441274
2651.000000	33.468886
2650.000000	33.510319
2649.000000	33.564078
2648.000000	33.625574
2647.000000	33.687859
2646.000000	33.745491
2645.000000	33.796469
2644.000000	33.840299
2643.000000	33.877221
2642.000000	33.910122
2641.000000	33.944419
2640.000000	33.984345
2639.000000	34.030566
2638.000000	34.081618
2637.000000	34.135339
2636.000000	34.188334
2635.000000	34.236559
2634.000000	34.277924
2633.000000	34.312791
2632.000000	34.341534
2631.000000	34.363801
2630.000000	34.380441
2629.000000	34.393945
2628.000000	34.405800
2627.000000	34.415330
2626.000000	34.422102
2625.000000	34.427045
2624.000000	34.430714
2623.000000	34.432549
2622.000000	34.432712
2621.000000	34.432754
2620.000000	34.433204
2619.000000	34.432408
2618.000000	34.428296
2617.000000	34.419280
2616.000000	34.403137
2615.000000	34.377193
2614.000000	34.341068
2613.000000	34.297565
2612.000000	34.250131
2611.000000	34.201634
2610.000000	34.155966
2609.000000	34.118362
2608.000000	34.092830
2607.000000	34.080960
2606.000000	34.083418
2605.000000	34.100690
2604.000000	34.131376
2603.000000	34.171751
2602.000000	34.218498
2601.000000	34.269389
2600.000000	34.321516
2599.000000	34.371211
2598.000000	34.416481
2597.000000	34.457829
2596.000000	34.495870
2595.000000	34.530480
2594.000000	34.562846
2593.000000	34.595820
2592.000000	34.630871
2591.000000	34.666624
2590.000000	34.700930
2589.000000	34.732353
2588.000000	34.759199
2587.000000	34.779476
2586.000000	34.793255
2585.000000	34.803291
2584.000000	34.812591
2583.000000	34.823360
2582.000000	34.838927
2581.000000	34.864105
2580.000000	34.902309
2579.000000	34.953899
2578.000000	35.017510
2577.000000	35.091256
2576.000000	35.171592
2575.000000	35.253506
2574.000000	35.333445
2573.000000	35.410350
2572.000000	35.483788
2571.000000	35.552865
2570.000000	35.617559
2569.000000	35.679024
2568.000000	35.737688
2567.000000	35.792698
2566.000000	35.843994
2565.000000	35.893140
2564.000000	35.941179
2563.000000	35.987698
2562.000000	36.032504
2561.000000	36.076440
2560.000000	36.119869
2559.000000	36.161956
2558.000000	36.202347
2557.000000	36.241789
2556.000000	36.280642
2555.000000	36.318562
2554.000000	36.356248
2553.000000	36.395711
2552.000000	36.438169
2551.000000	36.483292
2550.000000	36.530844
2549.000000	36.581124
2548.000000	36.633082
2547.000000	36.683861
2546.000000	36.730907
2545.000000	36.773144
2544.000000	36.809726
2543.000000	36.839771
2542.000000	36.863822
2541.000000	36.883566
2540.000000	36.899651
2539.000000	36.910862
2538.000000	36.915984
2537.000000	36.914509
2536.000000	36.904931
2535.000000	36.885183
2534.000000	36.855079
2533.000000	36.817040
2532.000000	36.773923
2531.000000	36.727658
2530.000000	36.680783
2529.000000	36.636511
2528.000000	36.596441
2527.000000	36.559958
2526.000000	36.526468
2525.000000	36.496325
2524.000000	36.468864
2523.000000	36.441633
2522.000000	36.412458
2521.000000	36.380442
2520.000000	36.344281
2519.000000	36.301536
2518.000000	36.250459
2517.000000	36.191077
2516.000000	36.123794
2515.000000	36.049421
2514.000000	35.971160
2513.000000	35.894669
2512.000000	35.825272
2511.000000	35.766622
2510.000000	35.721921
2509.000000	35.693860
2508.000000	35.682694
2507.000000	35.685952
2506.000000	35.701688
2505.000000	35.729240
2504.000000	35.766810
2503.000000	35.811092
2502.000000	35.859287
2501.000000	35.909980
2500.000000	35.960769
2499.000000	36.007609
2498.000000	36.047626
2497.000000	36.080434
2496.000000	36.106239
2495.000000	36.124879
2494.000000	36.137495
2493.000000	36.146665
2492.000000	36.154217
2491.000000	36.160577
2490.000000	36.166977
2489.000000	36.175990
2488.000000	36.188874
2487.000000	36.204690
2486.000000	36.222848
2485.000000	36.244339
2484.000000	36.269429
2483.000000	36.296351
2482.000000	36.323231
2481.000000	36.349542
2480.000000	36.375005
2479.000000	36.399074
2478.000000	36.422707
2477.000000	36.448680
2476.000000	36.479427
2475.000000	36.516150
2474.000000	36.560130
2473.000000	36.612901
2472.000000	36.673983
2471.000000	36.740555
2470.000000	36.810117
2469.000000	36.881326
2468.000000	36.952079
2467.000000	37.018953
2466.000000	37.079662
2465.000000	37.134145
2464.000000	37.182611
2463.000000	37.224354
2462.000000	37.259464
2461.000000	37.289804
2460.000000	37.317084
2459.000000	37.341876
2458.000000	37.364629
2457.000000	37.385891
2456.000000	37.404746
2455.000000	37.418738
2454.000000	37.426722
2453.000000	37.430169
2452.000000	37.431464
2451.000000	37.432695
2450.000000	37.436627
2449.000000	37.446737
2448.000000	37.465233
2447.000000	37.492405
2446.000000	37.528130
2445.000000	37.572452
2444.000000	37.623714
2443.000000	37.678362
2442.000000	37.733295
2441.000000	37.786891
2440.000000	37.837820
2439.000000	37.884612
2438.000000	37.927114
2437.000000	37.966403
2436.000000	38.002769
2435.000000	38.035145
2434.000000	38.062897
2433.000000	38.086186
2432.000000	38.104135
2431.000000	38.115088
2430.000000	38.118695
2429.000000	38.116074
2428.000000	38.107205
2427.000000	38.089897
2426.000000	38.062577
2425.000000	38.025711
2424.000000	37.980685
2423.000000	37.929517
2422.000000	37.876600
2421.000000	37.828849
2420.000000	37.792486
2419.000000	37.770703
2418.000000	37.764025
2417.000000	37.770777
2416.000000	37.786089
2415.000000	37.802995
2414.000000	37.815618
2413.000000	37.820250
2412.000000	37.813534
2411.000000	37.792211
2410.000000	37.755470
2409.000000	37.705474
2408.000000	37.645226
2407.000000	37.577148
2406.000000	37.504757
2405.000000	37.432809
2404.000000	37.365044
2403.000000	37.303526
2402.000000	37.250588
2401.000000	37.209074
2400.000000	37.179640
2399.000000	37.159956
2398.000000	37.146795
2397.000000	37.137096
2396.000000	37.126287
2395.000000	37.108657
2394.000000	37.080547
2393.000000	37.041797
2392.000000	36.993681
2391.000000	36.938274
2390.000000	36.880727
2389.000000	36.828991
2388.000000	36.791033
2387.000000	36.773038
2386.000000	36.781440
2385.000000	36.823498
2384.000000	36.902918
2383.000000	37.017611
2382.000000	37.160335
2381.000000	37.319350
2380.000000	37.477233
2379.000000	37.612086
2378.000000	37.705468
2377.000000	37.749097
2376.000000	37.744117
2375.000000	37.698421
2374.000000	37.626699
2373.000000	37.548177
2372.000000	37.479654
2371.000000	37.429627
2370.000000	37.399692
2369.000000	37.392204
2368.000000	37.409617
2367.000000	37.450174
2366.000000	37.510857
2365.000000	37.594034
2364.000000	37.702411
2363.000000	37.827943
2362.000000	37.964697
2361.000000	38.104910
2360.000000	38.228197
2359.000000	38.316306
2358.000000	38.356855
2357.000000	38.355809
2356.000000	38.323935
2355.000000	38.274531
2354.000000	38.233542
2353.000000	38.221066
2352.000000	38.250619
2351.000000	38.299210
2350.000000	38.330489
2349.000000	38.339830
2348.000000	38.360397
2347.000000	38.437355
2346.000000	38.545711
2345.000000	38.622781
2344.000000	38.637605
2343.000000	38.611045
2342.000000	38.586166
2341.000000	38.571792
2340.000000	38.566823
2339.000000	38.562566
2338.000000	38.558336
2337.000000	38.554163
2336.000000	38.556452
2335.000000	38.573442
2334.000000	38.611507
2333.000000	38.652162
2332.000000	38.665288
2331.000000	38.620383
2330.000000	38.517307
2329.000000	38.392046
2328.000000	38.275687
2327.000000	38.203660
2326.000000	38.180230
2325.000000	38.201444
2324.000000	38.238185
2323.000000	38.257392
2322.000000	38.242935
2321.000000	38.191041
2320.000000	38.116394
2319.000000	38.032343
2318.000000	37.962555
2317.000000	37.923619
2316.000000	37.918155
2315.000000	37.927986
2314.000000	37.923897
2313.000000	37.883421
2312.000000	37.794525
2311.000000	37.663898
2310.000000	37.502831
2309.000000	37.326747
2308.000000	37.140320
2307.000000	36.948161
2306.000000	36.753706
2305.000000	36.564845
2304.000000	36.385050
2303.000000	36.213821
2302.000000	36.048436
2301.000000	35.888330
2300.000000	35.732835
2299.000000	35.583490
2298.000000	35.442502
2297.000000	35.315293
2296.000000	35.203303
2295.000000	35.109324
2294.000000	35.035480
2293.000000	34.987238
2292.000000	34.965136
2291.000000	34.967617
2290.000000	34.991340
2289.000000	35.033712
2288.000000	35.090139
2287.000000	35.155849
2286.000000	35.228839
2285.000000	35.309349
2284.000000	35.396270
2283.000000	35.486258
2282.000000	35.577156
2281.000000	35.667477
2280.000000	35.754594
2279.000000	35.834471
2278.000000	35.906247
2277.000000	35.972086
2276.000000	36.034548
2275.000000	36.095453
2274.000000	36.158366
2273.000000	36.228932
2272.000000	36.311273
2271.000000	36.406987
2270.000000	36.516886
2269.000000	36.641353
2268.000000	36.778446
2267.000000	36.924475
2266.000000	37.076678
2265.000000	37.233760
2264.000000	37.392918
2263.000000	37.550691
2262.000000	37.704996
2261.000000	37.855329
2260.000000	37.999764
2259.000000	38.134687
2258.000000	38.258472
2257.000000	38.371790
2256.000000	38.476228
2255.000000	38.573115
2254.000000	38.665853
2253.000000	38.759179
2252.000000	38.856087
2251.000000	38.956865
2250.000000	39.060743
2249.000000	39.166587
2248.000000	39.271471
2247.000000	39.371437
2246.000000	39.464187
2245.000000	39.549799
2244.000000	39.628274
2243.000000	39.699065
2242.000000	39.762611
2241.000000	39.820430
2240.000000	39.872552
2239.000000	39.917071
2238.000000	39.952607
2237.000000	39.979227
2236.000000	39.997174
2235.000000	40.006621
2234.000000	40.010004
2233.000000	40.012327
2232.000000	40.018422
2231.000000	40.030953
2230.000000	40.050952
2229.000000	40.078014
2228.000000	40.109325
2227.000000	40.140513
2226.000000	40.168443
2225.000000	40.192144
2224.000000	40.211078
2223.000000	40.224572
2222.000000	40.233204
2221.000000	40.239119
2220.000000	40.244433
2219.000000	40.250957
2218.000000	40.261324
2217.000000	40.278450
2216.000000	40.303285
2215.000000	40.334661
2214.000000	40.371561
2213.000000	40.413690
2212.000000	40.460049
2211.000000	40.508783
2210.000000	40.558802
2209.000000	40.609577
2208.000000	40.659324
2207.000000	40.705165
2206.000000	40.745096
2205.000000	40.778130
2204.000000	40.802473
2203.000000	40.815983
2202.000000	40.818826
2201.000000	40.814132
2200.000000	40.805727
2199.000000	40.796785
2198.000000	40.790500
2197.000000	40.789610
2196.000000	40.794833
2195.000000	40.805330
2194.000000	40.821216
2193.000000	40.843959
2192.000000	40.874405
2191.000000	40.912391
2190.000000	40.958155
2189.000000	41.012159
2188.000000	41.073106
2187.000000	41.138074
2186.000000	41.204404
2185.000000	41.269825
2184.000000	41.331127
2183.000000	41.385160
2182.000000	41.431687
2181.000000	41.473285
2180.000000	41.512411
2179.000000	41.549995
2178.000000	41.586490
2177.000000	41.621816
2176.000000	41.653819
2175.000000	41.679023
2174.000000	41.695504
2173.000000	41.703796
2172.000000	41.705068
2171.000000	41.700508
2170.000000	41.692602
2169.000000	41.684714
2168.000000	41.678672
2167.000000	41.674171
2166.000000	41.670696
2165.000000	41.668242
2164.000000	41.666219
2163.000000	41.663928
2162.000000	41.662481
2161.000000	41.664498
2160.000000	41.671535
2159.000000	41.683529
2158.000000	41.700741
2157.000000	41.724036
2156.000000	41.752831
2155.000000	41.784637
2154.000000	41.817100
2153.000000	41.848956
2152.000000	41.879148
2151.000000	41.906932
2150.000000	41.932956
2149.000000	41.958454
2148.000000	41.983212
2147.000000	42.006073
2146.000000	42.027150
2145.000000	42.047668
2144.000000	42.067584
2143.000000	42.085465
2142.000000	42.100793
2141.000000	42.114409
2140.000000	42.126436
2139.000000	42.135846
2138.000000	42.142357
2137.000000	42.146843
2136.000000	42.149521
2135.000000	42.149390
2134.000000	42.145698
2133.000000	42.138044
2132.000000	42.124964
2131.000000	42.104385
2130.000000	42.075991
2129.000000	42.041701
2128.000000	42.004128
2127.000000	41.966375
2126.000000	41.932974
2125.000000	41.908522
2124.000000	41.894577
2123.000000	41.889759
2122.000000	41.892947
2121.000000	41.904490
2120.000000	41.924491
2119.000000	41.952194
2118.000000	41.987180
2117.000000	42.028980
2116.000000	42.075086
2115.000000	42.121194
2114.000000	42.163753
2113.000000	42.200520
2112.000000	42.229068
2111.000000	42.247220
2110.000000	42.255390
2109.000000	42.256781
2108.000000	42.255259
2107.000000	42.254543
2106.000000	42.258972
2105.000000	42.272018
2104.000000	42.293071
2103.000000	42.317162
2102.000000	42.337949
2101.000000	42.349697
2100.000000	42.347304
2099.000000	42.327730
2098.000000	42.292586
2097.000000	42.247668
2096.000000	42.199793
2095.000000	42.155239
2094.000000	42.120076
2093.000000	42.099052
2092.000000	42.093806
2091.000000	42.103921
2090.000000	42.129763
2089.000000	42.172228
2088.000000	42.229746
2087.000000	42.297847
2086.000000	42.371401
2085.000000	42.444911
2084.000000	42.511556
2083.000000	42.564947
2082.000000	42.602156
2081.000000	42.623790
2080.000000	42.631421
2079.000000	42.626938
2078.000000	42.613864
2077.000000	42.596123
2076.000000	42.575054
2075.000000	42.549264
2074.000000	42.517072
2073.000000	42.477253
2072.000000	42.427894
2071.000000	42.367603
2070.000000	42.298332
2069.000000	42.224021
2068.000000	42.146270
2067.000000	42.064044
2066.000000	41.977553
2065.000000	41.889376
2064.000000	41.800746
2063.000000	41.709993
2062.000000	41.615624
2061.000000	41.518172
2060.000000	41.418521
2059.000000	41.317078
2058.000000	41.215442
2057.000000	41.116304
2056.000000	41.021033
2055.000000	40.929558
2054.000000	40.843280
2053.000000	40.765282
2052.000000	40.697129
2051.000000	40.638397
2050.000000	40.589333
2049.000000	40.550813
2048.000000	40.521476
2047.000000	40.498388
2046.000000	40.480909
2045.000000	40.470144
2044.000000	40.465176
2043.000000	40.464045
2042.000000	40.468245
2041.000000	40.482396
2040.000000	40.508507
2039.000000	40.544676
2038.000000	40.589644
2037.000000	40.644273
2036.000000	40.708746
2035.000000	40.781936
2034.000000	40.864110
2033.000000	40.956643
2032.000000	41.058041
2031.000000	41.163547
2030.000000	41.268971
2029.000000	41.371662
2028.000000	41.468574
2027.000000	41.556929
2026.000000	41.637417
2025.000000	41.713759
2024.000000	41.788671
2023.000000	41.863341
2022.000000	41.939895
2021.000000	42.019806
2020.000000	42.099878
2019.000000	42.174290
2018.000000	42.241514
2017.000000	42.305970
2016.000000	42.372640
2015.000000	42.443990
2014.000000	42.522148
2013.000000	42.609285
2012.000000	42.704318
2011.000000	42.802584
2010.000000	42.899790
2009.000000	42.993563
2008.000000	43.081881
2007.000000	43.163475
2006.000000	43.240581
2005.000000	43.318181
2004.000000	43.399138
2003.000000	43.482866
2002.000000	43.567708
2001.000000	43.651897
2000.000000	43.731930
1999.000000	43.803232
1998.000000	43.865070
1997.000000	43.922357
1996.000000	43.980003
1995.000000	44.037830
1994.000000	44.093908
1993.000000	44.150837
1992.000000	44.214876
1991.000000	44.288845
1990.000000	44.369682
1989.000000	44.452801
1988.000000	44.535802
1987.000000	44.618235
1986.000000	44.700475
1985.000000	44.783553
1984.000000	44.868469
1983.000000	44.955570
1982.000000	45.044175
1981.000000	45.133261
1980.000000	45.221737
1979.000000	45.307941
1978.000000	45.390992
1977.000000	45.472460
1976.000000	45.555174
1975.000000	45.640151
1974.000000	45.726465
1973.000000	45.813667
1972.000000	45.901802
1971.000000	45.988362
1970.000000	46.067350
1969.000000	46.133172
1968.000000	46.184909
1967.000000	46.226202
1966.000000	46.261283
1965.000000	46.290991
1964.000000	46.312753
1963.000000	46.323046
1962.000000	46.320174
1961.000000	46.306110
1960.000000	46.284972
1959.000000	46.260685
1958.000000	46.236409
1957.000000	46.215175
1956.000000	46.200214
1955.000000	46.193675
1954.000000	46.196247
1953.000000	46.207684
1952.000000	46.227689
1951.000000	46.256366
1950.000000	46.292399
1949.000000	46.332096
1948.000000	46.372026
1947.000000	46.410550
1946.000000	46.444387
1945.000000	46.465743
1944.000000	46.467739
1943.000000	46.454730
1942.000000	46.442095
1941.000000	46.442343
1940.000000	46.456348
1939.000000	46.478227
1938.000000	46.502390
1937.000000	46.524459
1936.000000	46.539297
1935.000000	46.542055
1934.000000	46.532434
1933.000000	46.514573
1932.000000	46.493657
1931.000000	46.475478
1930.000000	46.464593
1929.000000	46.463582
1928.000000	46.473043
1927.000000	46.491779
1926.000000	46.514633
1925.000000	46.530880
1924.000000	46.534800
1923.000000	46.537057
1922.000000	46.554814
1921.000000	46.590888
1920.000000	46.630771
1919.000000	46.660667
1918.000000	46.681893
1917.000000	46.699206
1916.000000	46.707156
1915.000000	46.699558
1914.000000	46.679536
1913.000000	46.653784
1912.000000	46.625037
1911.000000	46.595298
1910.000000	46.570412
1909.000000	46.556591
1908.000000	46.552787
1907.000000	46.553923
1906.000000	46.558914
1905.000000	46.567684
1904.000000	46.579288
1903.000000	46.596585
1902.000000	46.626675
1901.000000	46.674486
1900.000000	46.737760
1899.000000	46.811151
1898.000000	46.889875
1897.000000	46.965955
1896.000000	47.030636
1895.000000	47.085160
1894.000000	47.140233
1893.000000	47.200403
1892.000000	47.257153
1891.000000	47.302014
1890.000000	47.341010
1889.000000	47.386823
1888.000000	47.440668
1887.000000	47.494482
1886.000000	47.543771
1885.000000	47.588361
1884.000000	47.628554
1883.000000	47.666604
1882.000000	47.707101
1881.000000	47.753086
1880.000000	47.803402
1879.000000	47.856133
1878.000000	47.912928
1877.000000	47.974203
1876.000000	48.034140
1875.000000	48.088765
1874.000000	48.142508
1873.000000	48.199890
1872.000000	48.255532
1871.000000	48.298271
1870.000000	48.326329
1869.000000	48.354509
1868.000000	48.397399
1867.000000	48.456248
1866.000000	48.527528
1865.000000	48.606183
1864.000000	48.683014
1863.000000	48.750795
1862.000000	48.810550
1861.000000	48.866973
1860.000000	48.922154
1859.000000	48.978369
1858.000000	49.041013
1857.000000	49.112477
1856.000000	49.186492
1855.000000	49.255776
1854.000000	49.318083
1853.000000	49.374373
1852.000000	49.425020
1851.000000	49.468663
1850.000000	49.508006
1849.000000	49.551836
1848.000000	49.609010
1847.000000	49.680628
1846.000000	49.755137
1845.000000	49.818586
1844.000000	49.873669
1843.000000	49.926157
1842.000000	49.971925
1841.000000	50.011833
1840.000000	50.051367
1839.000000	50.094004
1838.000000	50.142270
1837.000000	50.196123
1836.000000	50.254081
1835.000000	50.316559
1834.000000	50.382571
1833.000000	50.445490
1832.000000	50.492324
1831.000000	50.516685
1830.000000	50.540395
1829.000000	50.591811
1828.000000	50.669732
1827.000000	50.752349
1826.000000	50.825821
1825.000000	50.896260
1824.000000	50.970446
1823.000000	51.041473
1822.000000	51.103654
1821.000000	51.161663
1820.000000	51.218499
1819.000000	51.271149
1818.000000	51.320876
1817.000000	51.374313
1816.000000	51.433715
1815.000000	51.490526
1814.000000	51.534053
1813.000000	51.558842
1812.000000	51.562999
1811.000000	51.552301
1810.000000	51.540162
1809.000000	51.535477
1808.000000	51.537641
1807.000000	51.546695
1806.000000	51.568715
1805.000000	51.602935
1804.000000	51.635126
1803.000000	51.649233
1802.000000	51.646349
1801.000000	51.645264
1800.000000	51.658495
1799.000000	51.683664
1798.000000	51.715843
1797.000000	51.754970
1796.000000	51.803887
1795.000000	51.861677
1794.000000	51.916593
1793.000000	51.955418
1792.000000	51.978778
1791.000000	51.995514
1790.000000	52.014403
1789.000000	52.042497
1788.000000	52.076538
1787.000000	52.104757
1786.000000	52.124023
1785.000000	52.144346
1784.000000	52.175027
1783.000000	52.208845
1782.000000	52.231644
1781.000000	52.243906
1780.000000	52.257359
1779.000000	52.278766
1778.000000	52.304170
1777.000000	52.334037
1776.000000	52.381045
1775.000000	52.454393
1774.000000	52.544468
1773.000000	52.645600
1772.000000	52.765779
1771.000000	52.885601
1770.000000	52.974391
1769.000000	53.031120
1768.000000	53.079370
1767.000000	53.139602
1766.000000	53.214330
1765.000000	53.298804
1764.000000	53.383434
1763.000000	53.450778
1762.000000	53.499763
1761.000000	53.546103
1760.000000	53.591194
1759.000000	53.623241
1758.000000	53.633168
1757.000000	53.638898
1756.000000	53.675244
1755.000000	53.747289
1754.000000	53.834625
1753.000000	53.920065
1752.000000	53.993070
1751.000000	54.050913
1750.000000	54.090847
1749.000000	54.114823
1748.000000	54.145449
1747.000000	54.199100
1746.000000	54.266447
1745.000000	54.334783
1744.000000	54.406345
1743.000000	54.486610
1742.000000	54.566870
1741.000000	54.626706
1740.000000	54.660819
1739.000000	54.685092
1738.000000	54.709134
1737.000000	54.742848
1736.000000	54.779382
1735.000000	54.794024
1734.000000	54.827005
1733.000000	54.896666
1732.000000	54.938908
1731.000000	54.931772
1730.000000	54.903861
1729.000000	54.880463
1728.000000	54.870938
1727.000000	54.870956
1726.000000	54.875325
1725.000000	54.883946
1724.000000	54.898709
1723.000000	54.926099
1722.000000	54.969045
1721.000000	55.020039
1720.000000	55.058945
1719.000000	55.066095
1718.000000	55.068191
1717.000000	55.104769
1716.000000	55.150680
1715.000000	55.178538
1714.000000	55.213220
1713.000000	55.274415
1712.000000	55.346514
1711.000000	55.414590
1710.000000	55.486963
1709.000000	55.572842
1708.000000	55.657811
1707.000000	55.722440
1706.000000	55.779551
1705.000000	55.859227
1704.000000	55.959624
1703.000000	56.077375
1702.000000	56.192097
1701.000000	56.280431
1700.000000	56.395230
1699.000000	56.523814
1698.000000	56.618303
1697.000000	56.696936
1696.000000	56.793970
1695.000000	56.922895
1694.000000	57.038408
1693.000000	57.114060
1692.000000	57.179778
1691.000000	57.255969
1690.000000	57.329734
1689.000000	57.386748
1688.000000	57.438018
1687.000000	57.511331
1686.000000	57.587070
1685.000000	57.612084
1684.000000	57.641735
1683.000000	57.716742
1682.000000	57.772823
1681.000000	57.790368
1680.000000	57.807495
1679.000000	57.848169
1678.000000	57.894342
1677.000000	57.901353
1676.000000	57.856378
1675.000000	57.812425
1674.000000	57.800961
1673.000000	57.796207
1672.000000	57.788308
1671.000000	57.791653
1670.000000	57.814465
1669.000000	57.846234
1668.000000	57.863569
1667.000000	57.858485
1666.000000	57.838727
1665.000000	57.800289
1664.000000	57.738464
1663.000000	57.683271
1662.000000	57.657730
1661.000000	57.627115
1660.000000	57.555302
1659.000000	57.444396
1658.000000	57.301041
1657.000000	57.123606
1656.000000	56.915685
1655.000000	56.627155
1654.000000	56.147645
1653.000000	55.564672
1652.000000	55.010048
1651.000000	54.409057
1650.000000	53.677860
1649.000000	52.716546
1648.000000	51.333246
1647.000000	49.413498
1646.000000	47.062572
1645.000000	44.450122
1644.000000	41.624806
1643.000000	38.538598
1642.000000	35.169933
1641.000000	31.636094
1640.000000	28.223170
1639.000000	25.216894
1638.000000	22.731447
1637.000000	20.773622
1636.000000	19.453792
1635.000000	18.943323
1634.000000	19.175334
1633.000000	19.923128
1632.000000	21.032486
1631.000000	22.428241
1630.000000	24.054210
1629.000000	25.851603
1628.000000	27.746375
1627.000000	29.621190
1626.000000	31.389316
1625.000000	33.087157
1624.000000	34.806712
1623.000000	36.534859
1622.000000	38.124146
1621.000000	39.478428
1620.000000	40.656816
1619.000000	41.778782
1618.000000	42.924659
1617.000000	44.116290
1616.000000	45.280370
1615.000000	46.265870
1614.000000	47.017135
1613.000000	47.618643
1612.000000	48.164862
1611.000000	48.661318
1610.000000	49.043589
1609.000000	49.273150
1608.000000	49.347435
1607.000000	49.224763
1606.000000	48.814928
1605.000000	48.047003
1604.000000	46.905940
1603.000000	45.404426
1602.000000	43.595319
1601.000000	41.611915
1600.000000	39.627762
1599.000000	37.762612
1598.000000	36.029443
1597.000000	34.380604
1596.000000	32.784776
1595.000000	31.251026
1594.000000	29.812669
1593.000000	28.525770
1592.000000	27.468598
1591.000000	26.688595
1590.000000	26.147610
1589.000000	25.734991
1588.000000	25.332881
1587.000000	24.846841
1586.000000	24.202948
1585.000000	23.383231
1584.000000	22.455101
1583.000000	21.518285
1582.000000	20.627567
1581.000000	19.794832
1580.000000	19.029847
1579.000000	18.314811
1578.000000	17.546025
1577.000000	16.576172
1576.000000	15.413403
1575.000000	14.279096
1574.000000	13.335048
1573.000000	12.550338
1572.000000	11.855190
1571.000000	11.242811
1570.000000	10.750125
1569.000000	10.406552
1568.000000	10.225405
1567.000000	10.214541
1566.000000	10.346579
1565.000000	10.560475
1564.000000	10.822011
1563.000000	11.143569
1562.000000	11.550519
1561.000000	12.063951
1560.000000	12.755947
1559.000000	13.706764
1558.000000	14.735293
1557.000000	15.568180
1556.000000	16.212580
1555.000000	16.799505
1554.000000	17.362289
1553.000000	17.848533
1552.000000	18.237993
1551.000000	18.593893
1550.000000	18.989699
1549.000000	19.448949
1548.000000	19.973304
1547.000000	20.587964
1546.000000	21.311893
1545.000000	22.112709
1544.000000	22.933883
1543.000000	23.756436
1542.000000	24.604543
1541.000000	25.498703
1540.000000	26.433872
1539.000000	27.349941
1538.000000	28.148020
1537.000000	28.806832
1536.000000	29.412427
1535.000000	30.065624
1534.000000	30.801270
1533.000000	31.564351
1532.000000	32.276149
1531.000000	32.931400
1530.000000	33.567417
1529.000000	34.190454
1528.000000	34.791479
1527.000000	35.379038
1526.000000	35.953116
1525.000000	36.486559
1524.000000	36.973176
1523.000000	37.447521
1522.000000	37.930199
1521.000000	38.395192
1520.000000	38.803263
1519.000000	39.160663
1518.000000	39.504154
1517.000000	39.850599
1516.000000	40.204891
1515.000000	40.569811
1514.000000	40.938902
1513.000000	41.298051
1512.000000	41.635512
1511.000000	41.952210
1510.000000	42.249553
1509.000000	42.523065
1508.000000	42.780871
1507.000000	43.093479
1506.000000	43.507485
1505.000000	43.920939
1504.000000	44.251792
1503.000000	44.540436
1502.000000	44.828089
1501.000000	45.105948
1500.000000	45.361791
1499.000000	45.612056
1498.000000	45.877990
1497.000000	46.162531
1496.000000	46.466739
1495.000000	46.789549
1494.000000	47.109193
1493.000000	47.402444
1492.000000	47.666055
1491.000000	47.912324
1490.000000	48.150562
1489.000000	48.374448
1488.000000	48.586839
1487.000000	48.810379
1486.000000	49.030014
1485.000000	49.187634
1484.000000	49.251069
1483.000000	49.213973
1482.000000	49.048525
1481.000000	48.717219
1480.000000	48.215957
1479.000000	47.521905
1478.000000	46.517299
1477.000000	45.074760
1476.000000	43.215510
1475.000000	41.062939
1474.000000	38.665036
1473.000000	36.096520
1472.000000	33.685037
1471.000000	31.795173
1470.000000	30.488178
1469.000000	29.631870
1468.000000	29.148362
1467.000000	29.057354
1466.000000	29.403194
1465.000000	30.159222
1464.000000	31.153230
1463.000000	32.111035
1462.000000	32.807540
1461.000000	33.138778
1460.000000	33.073991
1459.000000	32.579237
1458.000000	31.601115
1457.000000	30.277708
1456.000000	29.026310
1455.000000	28.127822
1454.000000	27.524663
1453.000000	27.078275
1452.000000	26.733079
1451.000000	26.498307
1450.000000	26.400778
1449.000000	26.470164
1448.000000	26.722352
1447.000000	27.116465
1446.000000	27.575402
1445.000000	28.069459
1444.000000	28.628006
1443.000000	29.285456
1442.000000	30.057854
1441.000000	30.957987
1440.000000	32.002101
1439.000000	33.212037
1438.000000	34.612961
1437.000000	36.175404
1436.000000	37.725342
1435.000000	39.041066
1434.000000	40.084712
1433.000000	40.970539
1432.000000	41.777119
1431.000000	42.501878
1430.000000	43.131704
1429.000000	43.682321
1428.000000	44.166321
1427.000000	44.585089
1426.000000	44.951536
1425.000000	45.293893
1424.000000	45.630687
1423.000000	45.959653
1422.000000	46.285519
1421.000000	46.618192
1420.000000	46.938043
1419.000000	47.218292
1418.000000	47.466366
1417.000000	47.707852
1416.000000	47.958908
1415.000000	48.221813
1414.000000	48.496978
1413.000000	48.786963
1412.000000	49.082122
1411.000000	49.362922
1410.000000	49.626536
1409.000000	49.883621
1408.000000	50.128346
1407.000000	50.341298
1406.000000	50.514456
1405.000000	50.655973
1404.000000	50.764006
1403.000000	50.816943
1402.000000	50.786530
1401.000000	50.623207
1400.000000	50.257532
1399.000000	49.689153
1398.000000	49.060250
1397.000000	48.582870
1396.000000	48.417794
1395.000000	48.605218
1394.000000	49.038947
1393.000000	49.542035
1392.000000	50.008382
1391.000000	50.449576
1390.000000	50.926398
1389.000000	51.472144
1388.000000	52.069062
1387.000000	52.672152
1386.000000	53.244552
1385.000000	53.776425
1384.000000	54.275007
1383.000000	54.744936
1382.000000	55.186394
1381.000000	55.593825
1380.000000	55.952480
1379.000000	56.240577
1378.000000	56.430662
1377.000000	56.461845
1376.000000	56.176938
1375.000000	55.286652
1374.000000	53.432044
1373.000000	50.362798
1372.000000	46.132710
1371.000000	41.199397
1370.000000	36.400264
1369.000000	32.745624
1368.000000	30.957614
1367.000000	31.036596
1366.000000	32.323397
1365.000000	33.942569
1364.000000	35.146074
1363.000000	35.472962
1362.000000	34.883004
1361.000000	33.817845
1360.000000	33.013659
1359.000000	33.140398
1358.000000	34.484469
1357.000000	36.824098
1356.000000	39.605052
1355.000000	42.282982
1354.000000	44.563753
1353.000000	46.411571
1352.000000	47.907899
1351.000000	49.140661
1350.000000	50.175514
1349.000000	51.057350
1348.000000	51.810989
1347.000000	52.454959
1346.000000	53.015939
1345.000000	53.522590
1344.000000	53.993542
1343.000000	54.436825
1342.000000	54.860391
1341.000000	55.271188
1340.000000	55.667517
1339.000000	56.044191
1338.000000	56.400626
1337.000000	56.738258
1336.000000	57.050321
1335.000000	57.320664
1334.000000	57.526606
1333.000000	57.616249
1332.000000	57.485567
1331.000000	56.993960
1330.000000	56.021421
1329.000000	54.526447
1328.000000	52.530044
1327.000000	50.056435
1326.000000	47.129326
1325.000000	43.886699
1324.000000	40.729870
1323.000000	38.263650
1322.000000	36.951542
1321.000000	36.792789
1320.000000	37.359157
1319.000000	38.137293
1318.000000	38.842088
1317.000000	39.441729
1316.000000	39.993866
1315.000000	40.546787
1314.000000	41.155106
1313.000000	41.910715
1312.000000	42.903555
1311.000000	44.146442
1310.000000	45.548212
1309.000000	46.954331
1308.000000	48.213283
1307.000000	49.223745
1306.000000	49.940902
1305.000000	50.340159
1304.000000	50.386239
1303.000000	50.032361
1302.000000	49.243656
1301.000000	48.044600
1300.000000	46.570519
1299.000000	45.087170
1298.000000	43.909740
1297.000000	43.239371
1296.000000	43.049942
1295.000000	43.111433
1294.000000	43.115668
1293.000000	42.798285
1292.000000	42.001433
1291.000000	40.681809
1290.000000	38.872283
1289.000000	36.650086
1288.000000	34.168096
1287.000000	31.713742
1286.000000	29.671542
1285.000000	28.361880
1284.000000	27.893836
1283.000000	28.169357
1282.000000	29.026498
1281.000000	30.352509
1280.000000	32.061303
1279.000000	33.981356
1278.000000	35.809998
1277.000000	37.220481
1276.000000	38.013289
1275.000000	38.184546
1274.000000	37.901157
1273.000000	37.445174
1272.000000	37.155375
1271.000000	37.340003
1270.000000	38.161801
1269.000000	39.568886
1268.000000	41.337647
1267.000000	43.200633
1266.000000	44.959980
1265.000000	46.523543
1264.000000	47.876012
1263.000000	49.036832
1262.000000	50.037428
1261.000000	50.910935
1260.000000	51.682461
1259.000000	52.367497
1258.000000	52.983137
1257.000000	53.544166
1256.000000	54.054355
1255.000000	54.512308
1254.000000	54.922636
1253.000000	55.298090
1252.000000	55.649022
1251.000000	55.983345
1250.000000	56.313730
1249.000000	56.651512
1248.000000	56.995261
1247.000000	57.333031
1246.000000	57.655437
1245.000000	57.957874
1244.000000	58.233052
1243.000000	58.475894
1242.000000	58.694224
1241.000000	58.903049
1240.000000	59.108474
1239.000000	59.304511
1238.000000	59.483746
1237.000000	59.637711
1236.000000	59.750127
1235.000000	59.805797
1234.000000	59.805271
1233.000000	59.763141
1232.000000	59.691790
1231.000000	59.595749
1230.000000	59.478471
1229.000000	59.333090
1228.000000	59.130860
1227.000000	58.825643
1226.000000	58.366237
1225.000000	57.703531
1224.000000	56.777981
1223.000000	55.529114
1222.000000	53.915861
1221.000000	51.920797
1220.000000	49.563441
1219.000000	46.908341
1218.000000	44.065014
1217.000000	41.166490
1216.000000	38.345612
1215.000000	35.730546
1214.000000	33.448162
1213.000000	31.615212
1212.000000	30.319591
1211.000000	29.601491
1210.000000	29.413940
1209.000000	29.623927
1208.000000	30.052656
1207.000000	30.517599
1206.000000	30.871109
1205.000000	31.011575
1204.000000	30.885080
1203.000000	30.484471
1202.000000	29.850871
1201.000000	29.084537
1200.000000	28.346649
1199.000000	27.831545
1198.000000	27.704764
1197.000000	28.042507
1196.000000	28.825333
1195.000000	29.964941
1194.000000	31.347591
1193.000000	32.874510
1192.000000	34.473215
1191.000000	36.098910
1190.000000	37.721896
1189.000000	39.318535
1188.000000	40.868227
1187.000000	42.349772
1186.000000	43.741497
1185.000000	45.025473
1184.000000	46.190496
1183.000000	47.230070
1182.000000	48.146239
1181.000000	48.943555
1180.000000	49.626059
1179.000000	50.204391
1178.000000	50.696634
1177.000000	51.123859
1176.000000	51.491632
1175.000000	51.785291
1174.000000	51.979560
1173.000000	52.034465
1172.000000	51.899265
1171.000000	51.516271
1170.000000	50.832233
1169.000000	49.808999
1168.000000	48.425881
1167.000000	46.711613
1166.000000	44.776823
1165.000000	42.817276
1164.000000	41.079826
1163.000000	39.803680
1162.000000	39.145392
1161.000000	39.136579
1160.000000	39.696310
1159.000000	40.667601
1158.000000	41.877895
1157.000000	43.173035
1156.000000	44.431075
1155.000000	45.566481
1154.000000	46.524466
1153.000000	47.275125
1152.000000	47.804564
1151.000000	48.110053
1150.000000	48.193393
1149.000000	48.060353
1148.000000	47.698499
1147.000000	47.072918
1146.000000	46.133850
1145.000000	44.809738
1144.000000	43.028008
1143.000000	40.736035
1142.000000	37.944362
1141.000000	34.768958
1140.000000	31.433797
1139.000000	28.227611
1138.000000	25.398424
1137.000000	23.052122
1136.000000	21.129749
1135.000000	19.485162
1134.000000	17.990997
1133.000000	16.642436
1132.000000	15.589034
1131.000000	15.053139
1130.000000	15.216325
1129.000000	16.114577
1128.000000	17.627860
1127.000000	19.525193
1126.000000	21.509760
1125.000000	23.268029
1124.000000	24.510105
1123.000000	25.007989
1122.000000	24.642478
1121.000000	23.444676
1120.000000	21.571961
1119.000000	19.262590
1118.000000	16.807866
1117.000000	14.555084
1116.000000	12.896292
1115.000000	12.179347
1114.000000	12.565881
1113.000000	13.952951
1112.000000	16.005106
1111.000000	18.227549
1110.000000	20.115659
1109.000000	21.359577
1108.000000	21.994218
1107.000000	22.354450
1106.000000	22.832023
1105.000000	23.629508
1104.000000	24.684957
1103.000000	25.748166
1102.000000	26.483279
1101.000000	26.582789
1100.000000	25.901393
1099.000000	24.589056
1098.000000	23.114052
1097.000000	22.097796
1096.000000	22.033288
1095.000000	23.068284
1094.000000	24.980195
1093.000000	27.341660
1092.000000	29.756869
1091.000000	31.985408
1090.000000	33.943979
1089.000000	35.645834
1088.000000	37.138837
1087.000000	38.478074
1086.000000	39.715533
1085.000000	40.889555
1084.000000	42.016043
1083.000000	43.098577
1082.000000	44.135213
1081.000000	45.120041
1080.000000	46.040019
1079.000000	46.874209
1078.000000	47.608258
1077.000000	48.224947
1076.000000	48.693155
1075.000000	48.964477
1074.000000	48.960164
1073.000000	48.574819
1072.000000	47.650198
1071.000000	45.989760
1070.000000	43.405156
1069.000000	39.752704
1068.000000	35.036759
1067.000000	29.510603
1066.000000	23.717716
1065.000000	18.386813
1064.000000	14.191159
1063.000000	11.475713
1062.000000	10.101844
1061.000000	9.528572
1060.000000	9.102246
1059.000000	8.405519
1058.000000	7.407444
1057.000000	6.406015
1056.000000	5.816619
1055.000000	5.922695
1054.000000	6.779683
1053.000000	8.250280
1052.000000	10.121338
1051.000000	12.190811
1050.000000	14.289796
1049.000000	16.312012
1048.000000	18.219716
1047.000000	20.018938
1046.000000	21.721886
1045.000000	23.328616
1044.000000	24.830394
1043.000000	26.216064
1042.000000	27.477006
1041.000000	28.610096
1040.000000	29.625097
1039.000000	30.536488
1038.000000	31.357618
1037.000000	32.100819
1036.000000	32.774013
1035.000000	33.381860
1034.000000	33.922681
1033.000000	34.393256
1032.000000	34.796823
1031.000000	35.143788
1030.000000	35.453032
1029.000000	35.746064
1028.000000	36.038740
1027.000000	36.335403
1026.000000	36.624855
1025.000000	36.884999
1024.000000	37.086285
1023.000000	37.197441
1022.000000	37.197532
1021.000000	37.075655
1020.000000	36.828154
1019.000000	36.444491
1018.000000	35.894651
1017.000000	35.131902
1016.000000	34.095618
1015.000000	32.743049
1014.000000	31.091339
1013.000000	29.250251
1012.000000	27.419741
1011.000000	25.824397
1010.000000	24.607858
1009.000000	23.750288
1008.000000	23.086812
1007.000000	22.433444
1006.000000	21.762021
1005.000000	21.271613
1004.000000	21.280541
1003.000000	22.002966
1002.000000	23.375723
1001.000000	25.095606
1000.000000	26.786535
999.000000	28.147741
998.000000	29.011396
997.000000	29.335999
996.000000	29.192208
995.000000	28.748995
994.000000	28.244416
993.000000	27.931135
992.000000	28.008983
991.000000	28.562968
990.000000	29.537516
989.000000	30.778606
988.000000	32.121603
987.000000	33.447112
986.000000	34.691084
985.000000	35.828223
984.000000	36.852731
983.000000	37.769725
982.000000	38.590309
981.000000	39.327064
980.000000	39.991094
979.000000	40.594442
978.000000	41.146748
977.000000	41.655133
976.000000	42.124845
975.000000	42.560569
974.000000	42.969844
973.000000	43.359167
972.000000	43.732340
971.000000	44.091210
970.000000	44.436200
969.000000	44.766419
968.000000	45.078773
967.000000	45.372044
966.000000	45.650622
965.000000	45.921568
964.000000	46.190205
963.000000	46.458929
962.000000	46.728552
961.000000	46.996419
960.000000	47.254209
959.000000	47.493493
958.000000	47.713260
957.000000	47.920429
956.000000	48.124501
955.000000	48.334695
954.000000	48.559803
953.000000	48.803346
952.000000	49.058015
951.000000	49.309302
950.000000	49.545157
949.000000	49.760228
948.000000	49.954169
947.000000	50.132996
946.000000	50.311439
945.000000	50.506003
944.000000	50.723459
943.000000	50.957919
942.000000	51.197242
941.000000	51.427788
940.000000	51.635544
939.000000	51.812753
938.000000	51.966224
937.000000	52.113909
936.000000	52.272356
935.000000	52.450426
934.000000	52.650915
933.000000	52.868680
932.000000	53.087410
931.000000	53.287695
930.000000	53.460888
929.000000	53.611692
928.000000	53.749680
927.000000	53.885763
926.000000	54.034510
925.000000	54.207593
924.000000	54.401747
923.000000	54.599964
922.000000	54.786133
921.000000	54.953091
920.000000	55.099078
919.000000	55.227743
918.000000	55.352781
917.000000	55.491868
916.000000	55.652711
915.000000	55.830385
914.000000	56.016171
913.000000	56.201163
912.000000	56.370808
911.000000	56.510509
910.000000	56.613207
909.000000	56.667989
908.000000	56.638532
907.000000	56.455791
906.000000	56.040123
905.000000	55.317097
904.000000	54.235132
903.000000	52.824686
902.000000	51.272734
901.000000	49.921748
900.000000	49.140500
899.000000	49.132687
898.000000	49.826314
897.000000	50.943501
896.000000	52.165007
895.000000	53.270324
894.000000	54.179823
893.000000	54.900879
892.000000	55.465423
891.000000	55.902941
890.000000	56.244862
889.000000	56.523460
888.000000	56.760122
887.000000	56.948313
886.000000	57.045312
885.000000	56.976178
884.000000	56.663278
883.000000	56.099946
882.000000	55.395476
881.000000	54.720945
880.000000	54.173660
879.000000	53.700111
878.000000	53.180600
877.000000	52.599579
876.000000	52.127849
875.000000	52.017427
874.000000	52.413078
873.000000	53.246572
872.000000	54.295707
871.000000	55.330947
870.000000	56.219511
869.000000	56.931922
868.000000	57.487026
867.000000	57.912775
866.000000	58.238534
865.000000	58.496164
864.000000	58.713049
863.000000	58.911664
862.000000	59.112586
861.000000	59.327294
860.000000	59.549995
859.000000	59.762634
858.000000	59.953059
857.000000	60.122449
856.000000	60.278327
855.000000	60.430903
854.000000	60.594204
853.000000	60.778580
852.000000	60.977896
851.000000	61.171746
850.000000	61.342372
849.000000	61.483295
848.000000	61.595899
847.000000	61.689720
846.000000	61.785724
845.000000	61.907030
844.000000	62.061629
843.000000	62.239445
842.000000	62.423951
841.000000	62.597786
840.000000	62.741827
839.000000	62.845233
838.000000	62.920765
837.000000	62.999085
836.000000	63.104610
835.000000	63.243992
834.000000	63.413789
833.000000	63.604657
832.000000	63.796562
831.000000	63.964963
830.000000	64.099734
829.000000	64.212262
828.000000	64.323808
827.000000	64.456014
826.000000	64.630133
825.000000	64.857255
824.000000	65.122673
823.000000	65.391477
822.000000	65.634600
821.000000	65.841635
820.000000	66.012661
819.000000	66.154876
818.000000	66.287576
817.000000	66.433666
816.000000	66.599100
815.000000	66.768984
814.000000	66.922985
813.000000	67.041716
812.000000	67.101732
811.000000	67.079009
810.000000	66.963454
809.000000	66.758440
808.000000	66.458140
807.000000	66.040009
806.000000	65.469518
805.000000	64.700988
804.000000	63.676155
803.000000	62.329766
802.000000	60.614575
801.000000	58.503631
800.000000	55.985251
799.000000	53.078736
798.000000	49.850842
797.000000	46.418492
796.000000	42.924728
795.000000	39.519855
794.000000	36.349306
793.000000	33.543309
792.000000	31.203620
791.000000	29.399740
790.000000	28.175574
789.000000	27.542528
788.000000	27.476085
787.000000	27.906140
786.000000	28.729793
785.000000	29.832489
784.000000	31.089444
783.000000	32.370817
782.000000	33.551471
781.000000	34.527754
780.000000	35.224118
779.000000	35.601704
778.000000	35.671161
777.000000	35.488193
776.000000	35.121527
775.000000	34.623309
774.000000	34.038497
773.000000	33.435034
772.000000	32.922355
771.000000	32.637359
770.000000	32.709763
769.000000	33.215945
768.000000	34.146888
767.000000	35.414062
766.000000	36.894771
765.000000	38.481528
764.000000	40.094167
763.000000	41.676150
762.000000	43.194171
761.000000	44.634780
760.000000	45.988087
759.000000	47.238752
758.000000	48.378887
757.000000	49.418022
756.000000	50.375039
755.000000	51.268697
754.000000	52.122225
753.000000	52.959963
752.000000	53.788340
751.000000	54.588781
750.000000	55.334132
749.000000	56.005799
748.000000	56.592837
747.000000	57.092533
746.000000	57.522753
745.000000	57.920077
744.000000	58.315448
743.000000	58.716802
742.000000	59.116225
741.000000	59.499804
740.000000	59.844856
739.000000	60.124940
738.000000	60.328659
737.000000	60.464705
736.000000	60.544033
735.000000	60.568157
734.000000	60.539026
733.000000	60.465636
732.000000	60.355554
731.000000	60.215002
730.000000	60.061875
729.000000	59.921786
728.000000	59.805807
727.000000	59.697133
726.000000	59.560683
725.000000	59.360235
724.000000	59.058264
723.000000	58.599979
722.000000	57.896558
721.000000	56.831932
720.000000	55.314526
719.000000	53.354131
718.000000	51.091885
717.000000	48.757521
716.000000	46.602108
715.000000	44.849997
714.000000	43.673430
713.000000	43.163380
712.000000	43.301362
711.000000	43.972451
710.000000	45.029851
709.000000	46.346525
708.000000	47.813478
707.000000	49.329149
706.000000	50.815280
705.000000	52.230605
704.000000	53.551285
703.000000	54.757380
702.000000	55.854923
701.000000	56.882121
700.000000	57.872244
699.000000	58.829191
698.000000	59.741820
697.000000	60.600236
696.000000	61.382947
695.000000	62.053214
694.000000	62.599694
693.000000	63.057675
692.000000	63.475777
691.000000	63.885202
690.000000	64.306545
689.000000	64.760023
688.000000	65.239902
687.000000	65.699277
686.000000	66.089468
685.000000	66.393335
684.000000	66.611617
683.000000	66.754478
682.000000	66.862807
681.000000	67.005396
680.000000	67.221341
679.000000	67.495749
678.000000	67.786523
677.000000	68.052439
676.000000	68.267037
675.000000	68.393923
674.000000	68.458946
673.000000	68.623352
672.000000	69.110062
671.000000	70.019683
670.000000	71.242728
669.000000	72.234015
668.000000	71.984050
667.000000	70.750536
666.000000	69.876434
665.000000	69.574547
664.000000	69.504033
663.000000	69.504945
662.000000	69.564214
661.000000	69.694237
660.000000	69.864447
659.000000	70.051369
658.000000	70.237572
657.000000	70.386496
656.000000	70.476840
655.000000	70.516835
654.000000	70.527544
653.000000	70.530588
652.000000	70.548520
651.000000	70.597206
650.000000	70.663204
649.000000	70.701252
648.000000	70.676657
647.000000	70.598936
646.000000	70.502046
645.000000	70.410020
644.000000	70.325272
643.000000	70.237936
642.000000	70.135943
641.000000	70.006054
640.000000	69.842486
639.000000	69.660148
638.000000	69.486170
637.000000	69.339250
636.000000	69.221997
635.000000	69.121010
634.000000	69.009572
633.000000	68.854803
632.000000	68.632288
631.000000	68.342687
630.000000	68.012875
629.000000	67.678526
628.000000	67.370997
627.000000	67.108764
626.000000	66.884268
625.000000	66.662902
624.000000	66.394451
623.000000	66.035435
622.000000	65.575257
621.000000	65.047534
620.000000	64.506290
619.000000	63.979696
618.000000	63.445290
617.000000	62.855554
616.000000	62.187713
615.000000	61.445952
614.000000	60.616395
613.000000	59.655622
612.000000	58.537136
611.000000	57.290695
610.000000	55.972376
609.000000	54.609410
608.000000	53.197601
607.000000	51.722494
606.000000	50.152807
605.000000	48.439826
604.000000	46.558289
603.000000	44.541291
602.000000	42.445846
601.000000	40.306785
600.000000	38.155970
599.000000	36.051505
598.000000	34.037427
597.000000	32.105832
596.000000	30.243821
595.000000	28.481942
594.000000	26.853307
593.000000	25.343607
592.000000	23.942618
591.000000	22.691391
590.000000	21.620646
589.000000	20.693953
588.000000	19.857997
587.000000	19.098004
586.000000	18.387817
585.000000	17.648528
584.000000	16.826510
583.000000	15.962623
582.000000	15.135206
581.000000	14.389785
580.000000	13.774910
579.000000	13.387058
578.000000	13.300317
577.000000	13.503895
576.000000	13.946936
575.000000	14.572954
574.000000	15.275494
573.000000	15.897155
572.000000	16.348580
571.000000	16.693154
570.000000	17.078723
569.000000	17.621527
568.000000	18.372301
567.000000	19.320608
566.000000	20.372323
565.000000	21.379047
564.000000	22.244569
563.000000	22.973372
562.000000	23.605102
561.000000	24.156076
560.000000	24.648237
559.000000	25.133072
558.000000	25.642750
557.000000	26.159840
556.000000	26.670165
555.000000	27.207047
554.000000	27.806239
553.000000	28.458405
552.000000	29.138583
551.000000	29.841708
550.000000	30.557147
549.000000	31.248224
548.000000	31.890604
547.000000	32.499971
546.000000	33.096919
545.000000	33.674998
544.000000	34.226547
543.000000	34.767101
542.000000	35.309768
541.000000	35.841023
540.000000	36.346346
539.000000	36.832810
538.000000	37.307263
537.000000	37.758407
536.000000	38.179643
535.000000	38.587329
534.000000	38.993748
533.000000	39.382419
532.000000	39.726544
531.000000	40.014188
530.000000	40.241952
529.000000	40.397813
528.000000	40.463206
527.000000	40.423389
526.000000	40.251675
525.000000	39.905698
524.000000	39.362714
523.000000	38.653904
522.000000	37.864325
521.000000	37.094400
520.000000	36.415216
519.000000	35.813283
518.000000	35.134822
517.000000	34.127515
516.000000	32.599046
515.000000	30.568567
514.000000	28.269250
513.000000	26.035864
512.000000	24.194905
511.000000	22.994241
510.000000	22.532578
509.000000	22.750389
508.000000	23.531779
507.000000	24.756620
506.000000	26.271629
505.000000	27.903754
504.000000	29.535404
503.000000	31.127455
502.000000	32.644867
501.000000	34.032770
500.000000	35.277688
499.000000	36.430310
498.000000	37.538231
497.000000	38.598015
496.000000	39.582533
495.000000	40.479373
494.000000	41.291866
493.000000	42.024171
492.000000	42.696700
491.000000	43.355500
490.000000	44.041444
489.000000	44.761692
488.000000	45.489731
487.000000	46.184420
486.000000	46.801105
485.000000	47.303049
484.000000	47.683704
483.000000	47.971094
482.000000	48.210003
481.000000	48.446838
480.000000	48.725952
479.000000	49.074868
478.000000	49.465678
477.000000	49.809457
476.000000	50.004570
475.000000	49.973316
474.000000	49.655248
473.000000	48.996639
472.000000	48.000153
471.000000	46.787539
470.000000	45.572573
469.000000	44.585777
468.000000	44.011726
467.000000	43.885850
466.000000	43.977963
465.000000	43.857312
464.000000	43.154241
463.000000	41.815840
462.000000	40.195608
461.000000	38.878274
460.000000	38.397049
459.000000	39.042048
458.000000	40.723038
457.000000	42.939264
456.000000	45.099680
455.000000	46.926885
454.000000	48.430789
453.000000	49.671218
452.000000	50.666189
451.000000	51.431272
450.000000	51.967956
449.000000	52.211891
448.000000	52.038706
447.000000	51.345042
446.000000	50.156791
445.000000	48.665695
444.000000	47.207711
443.000000	46.181243
442.000000	45.856872
441.000000	46.217760
440.000000	47.045479
439.000000	48.105507
438.000000	49.216677
437.000000	50.241750
436.000000	51.078248
435.000000	51.673969
434.000000	52.026792
433.000000	52.165055
432.000000	52.135545
431.000000	52.015286
430.000000	51.893894
429.000000	51.817100
428.000000	51.772615
427.000000	51.719606
426.000000	51.610858
425.000000	51.395764
424.000000	51.057719
423.000000	50.663730
422.000000	50.322149
421.000000	50.089960
420.000000	49.966301
419.000000	49.959348
418.000000	50.063649
417.000000	50.188426
416.000000	50.242783
415.000000	50.214130
414.000000	50.132514
413.000000	50.037848
412.000000	49.989040
411.000000	50.061859
410.000000	50.296346
409.000000	50.641961
408.000000	50.998633
407.000000	51.298525
406.000000	51.509534
405.000000	51.619605
404.000000	51.668502
403.000000	51.727590
402.000000	51.874429
401.000000	52.093862
400.000000	52.322428
