PE IR       SUBTECH     SPECTRUM    ASCII       PEDS        4.00        
   -1
23ms272_cis.asc
24/10/18
14:59:14.00
24/10/18
14:59:14.00
Administrator
Sample 1298 By Administrator Date Friday, October 18 2024
400.000000
#HDR
-1
-1
#GR
cm-1
%T
1.0
0.0
4000.000000
-1.000000
3601
8
84.649099
15.914143
#DATA
4000.000000	61.205805
3999.000000	61.195479
3998.000000	61.187096
3997.000000	61.180110
3996.000000	61.174157
3995.000000	61.169362
3994.000000	61.166246
3993.000000	61.165357
3992.000000	61.166853
3991.000000	61.170446
3990.000000	61.175683
3989.000000	61.182438
3988.000000	61.191253
3987.000000	61.203007
3986.000000	61.218326
3985.000000	61.237170
3984.000000	61.258893
3983.000000	61.282779
3982.000000	61.308535
3981.000000	61.336454
3980.000000	61.366982
3979.000000	61.400146
3978.000000	61.435341
3977.000000	61.471452
3976.000000	61.507342
3975.000000	61.542163
3974.000000	61.575375
3973.000000	61.606713
3972.000000	61.636157
3971.000000	61.664163
3970.000000	61.691452
3969.000000	61.718752
3968.000000	61.746801
3967.000000	61.776300
3966.000000	61.807886
3965.000000	61.841990
3964.000000	61.878628
3963.000000	61.917358
3962.000000	61.957806
3961.000000	61.999910
3960.000000	62.043779
3959.000000	62.089493
3958.000000	62.136457
3957.000000	62.183583
3956.000000	62.230036
3955.000000	62.275545
3954.000000	62.320246
3953.000000	62.363784
3952.000000	62.405024
3951.000000	62.442546
3950.000000	62.475509
3949.000000	62.504625
3948.000000	62.532214
3947.000000	62.560969
3946.000000	62.592274
3945.000000	62.625289
3944.000000	62.657218
3943.000000	62.685005
3942.000000	62.708893
3941.000000	62.733038
3940.000000	62.761648
3939.000000	62.796171
3938.000000	62.834465
3937.000000	62.872929
3936.000000	62.909554
3935.000000	62.944130
3934.000000	62.976996
3933.000000	63.006960
3932.000000	63.032432
3931.000000	63.053607
3930.000000	63.072100
3929.000000	63.090569
3928.000000	63.110704
3927.000000	63.132249
3926.000000	63.152504
3925.000000	63.167230
3924.000000	63.175191
3923.000000	63.179780
3922.000000	63.184945
3921.000000	63.191863
3920.000000	63.199381
3919.000000	63.206694
3918.000000	63.214571
3917.000000	63.224497
3916.000000	63.237598
3915.000000	63.253816
3914.000000	63.272554
3913.000000	63.292960
3912.000000	63.313862
3911.000000	63.335285
3910.000000	63.357839
3909.000000	63.382149
3908.000000	63.408267
3907.000000	63.433093
3906.000000	63.450937
3905.000000	63.456419
3904.000000	63.451162
3903.000000	63.446065
3902.000000	63.452081
3901.000000	63.472155
3900.000000	63.502030
3899.000000	63.536563
3898.000000	63.574726
3897.000000	63.618136
3896.000000	63.666724
3895.000000	63.719225
3894.000000	63.772511
3893.000000	63.821520
3892.000000	63.860416
3891.000000	63.888939
3890.000000	63.913752
3889.000000	63.941622
3888.000000	63.976220
3887.000000	64.016733
3886.000000	64.056874
3885.000000	64.091486
3884.000000	64.121572
3883.000000	64.150323
3882.000000	64.176339
3881.000000	64.194227
3880.000000	64.202929
3879.000000	64.209461
3878.000000	64.221292
3877.000000	64.240309
3876.000000	64.263689
3875.000000	64.285369
3874.000000	64.299524
3873.000000	64.306429
3872.000000	64.311562
3871.000000	64.318293
3870.000000	64.326265
3869.000000	64.338327
3868.000000	64.359356
3867.000000	64.390171
3866.000000	64.426333
3865.000000	64.459277
3864.000000	64.483339
3863.000000	64.501718
3862.000000	64.520756
3861.000000	64.544813
3860.000000	64.576083
3859.000000	64.616395
3858.000000	64.667390
3857.000000	64.726319
3856.000000	64.782431
3855.000000	64.816083
3854.000000	64.811908
3853.000000	64.787604
3852.000000	64.777563
3851.000000	64.789312
3850.000000	64.811533
3849.000000	64.838219
3848.000000	64.868788
3847.000000	64.904422
3846.000000	64.944023
3845.000000	64.983533
3844.000000	65.018657
3843.000000	65.047660
3842.000000	65.072606
3841.000000	65.098128
3840.000000	65.123645
3839.000000	65.143838
3838.000000	65.158737
3837.000000	65.174269
3836.000000	65.194942
3835.000000	65.219795
3834.000000	65.246510
3833.000000	65.274795
3832.000000	65.304521
3831.000000	65.335313
3830.000000	65.367686
3829.000000	65.402093
3828.000000	65.437637
3827.000000	65.472425
3826.000000	65.503607
3825.000000	65.531107
3824.000000	65.558239
3823.000000	65.588619
3822.000000	65.619491
3821.000000	65.643120
3820.000000	65.661045
3819.000000	65.681897
3818.000000	65.709659
3817.000000	65.740630
3816.000000	65.768380
3815.000000	65.792695
3814.000000	65.819286
3813.000000	65.849120
3812.000000	65.877613
3811.000000	65.902773
3810.000000	65.927934
3809.000000	65.956966
3808.000000	65.989047
3807.000000	66.019677
3806.000000	66.047450
3805.000000	66.076783
3804.000000	66.110685
3803.000000	66.148173
3802.000000	66.179694
3801.000000	66.197922
3800.000000	66.209222
3799.000000	66.222108
3798.000000	66.238633
3797.000000	66.257403
3796.000000	66.278623
3795.000000	66.305342
3794.000000	66.339482
3793.000000	66.377897
3792.000000	66.415040
3791.000000	66.448569
3790.000000	66.479462
3789.000000	66.509037
3788.000000	66.537943
3787.000000	66.566500
3786.000000	66.594421
3785.000000	66.620108
3784.000000	66.641838
3783.000000	66.660375
3782.000000	66.678435
3781.000000	66.697269
3780.000000	66.714772
3779.000000	66.729838
3778.000000	66.746101
3777.000000	66.768111
3776.000000	66.796196
3775.000000	66.827411
3774.000000	66.858862
3773.000000	66.889206
3772.000000	66.918429
3771.000000	66.946683
3770.000000	66.973413
3769.000000	66.999705
3768.000000	67.028673
3767.000000	67.062953
3766.000000	67.102969
3765.000000	67.145105
3764.000000	67.185324
3763.000000	67.223808
3762.000000	67.263096
3761.000000	67.303515
3760.000000	67.341004
3759.000000	67.373705
3758.000000	67.405247
3757.000000	67.438956
3756.000000	67.475399
3755.000000	67.513868
3754.000000	67.553804
3753.000000	67.592664
3752.000000	67.624836
3751.000000	67.649315
3750.000000	67.673554
3749.000000	67.701771
3748.000000	67.730888
3747.000000	67.760847
3746.000000	67.796623
3745.000000	67.838591
3744.000000	67.883362
3743.000000	67.930154
3742.000000	67.974325
3741.000000	68.009800
3740.000000	68.036237
3739.000000	68.059800
3738.000000	68.089551
3737.000000	68.127879
3736.000000	68.167327
3735.000000	68.197808
3734.000000	68.220611
3733.000000	68.246685
3732.000000	68.281274
3731.000000	68.319902
3730.000000	68.356201
3729.000000	68.389856
3728.000000	68.425821
3727.000000	68.465950
3726.000000	68.507062
3725.000000	68.545603
3724.000000	68.581098
3723.000000	68.614438
3722.000000	68.646471
3721.000000	68.679555
3720.000000	68.715315
3719.000000	68.755408
3718.000000	68.800131
3717.000000	68.846762
3716.000000	68.891036
3715.000000	68.930281
3714.000000	68.966299
3713.000000	69.002669
3712.000000	69.040052
3711.000000	69.077244
3710.000000	69.116838
3709.000000	69.161841
3708.000000	69.211585
3707.000000	69.262296
3706.000000	69.311880
3705.000000	69.361050
3704.000000	69.410982
3703.000000	69.460978
3702.000000	69.508541
3701.000000	69.552937
3700.000000	69.594952
3699.000000	69.636528
3698.000000	69.679824
3697.000000	69.725156
3696.000000	69.768957
3695.000000	69.808155
3694.000000	69.843483
3693.000000	69.879566
3692.000000	69.919304
3691.000000	69.959136
3690.000000	69.993784
3689.000000	70.025339
3688.000000	70.061846
3687.000000	70.102634
3686.000000	70.141827
3685.000000	70.177359
3684.000000	70.210840
3683.000000	70.245336
3682.000000	70.284185
3681.000000	70.326609
3680.000000	70.366337
3679.000000	70.396679
3678.000000	70.419726
3677.000000	70.446439
3676.000000	70.480522
3675.000000	70.517319
3674.000000	70.550547
3673.000000	70.576914
3672.000000	70.601083
3671.000000	70.632775
3670.000000	70.672664
3669.000000	70.715580
3668.000000	70.759400
3667.000000	70.801507
3666.000000	70.839310
3665.000000	70.874871
3664.000000	70.911954
3663.000000	70.952680
3662.000000	70.995016
3661.000000	71.032699
3660.000000	71.062196
3659.000000	71.085739
3658.000000	71.110103
3657.000000	71.139810
3656.000000	71.172397
3655.000000	71.201515
3654.000000	71.221180
3653.000000	71.232862
3652.000000	71.247063
3651.000000	71.272523
3650.000000	71.306535
3649.000000	71.344567
3648.000000	71.390957
3647.000000	71.446522
3646.000000	71.502110
3645.000000	71.550865
3644.000000	71.595097
3643.000000	71.641061
3642.000000	71.690286
3641.000000	71.739428
3640.000000	71.786170
3639.000000	71.829823
3638.000000	71.868575
3637.000000	71.900251
3636.000000	71.926452
3635.000000	71.950772
3634.000000	71.971713
3633.000000	71.983361
3632.000000	71.983830
3631.000000	71.982005
3630.000000	71.990771
3629.000000	72.012785
3628.000000	72.041827
3627.000000	72.069954
3626.000000	72.087439
3625.000000	72.090004
3624.000000	72.081342
3623.000000	72.067676
3622.000000	72.054075
3621.000000	72.042075
3620.000000	72.027831
3619.000000	72.005582
3618.000000	71.973621
3617.000000	71.933139
3616.000000	71.885782
3615.000000	71.833658
3614.000000	71.776954
3613.000000	71.714154
3612.000000	71.646246
3611.000000	71.577847
3610.000000	71.515554
3609.000000	71.462898
3608.000000	71.415450
3607.000000	71.364942
3606.000000	71.306294
3605.000000	71.239260
3604.000000	71.168224
3603.000000	71.099595
3602.000000	71.038276
3601.000000	70.986106
3600.000000	70.940955
3599.000000	70.898232
3598.000000	70.854045
3597.000000	70.806898
3596.000000	70.757502
3595.000000	70.706061
3594.000000	70.651047
3593.000000	70.591211
3592.000000	70.527090
3591.000000	70.463664
3590.000000	70.413188
3589.000000	70.389799
3588.000000	70.397110
3587.000000	70.424468
3586.000000	70.457101
3585.000000	70.484455
3584.000000	70.501473
3583.000000	70.508067
3582.000000	70.506627
3581.000000	70.499845
3580.000000	70.488790
3579.000000	70.473054
3578.000000	70.451597
3577.000000	70.424263
3576.000000	70.391824
3575.000000	70.356085
3574.000000	70.318399
3573.000000	70.278465
3572.000000	70.234003
3571.000000	70.182244
3570.000000	70.123359
3569.000000	70.061685
3568.000000	70.000761
3567.000000	69.939492
3566.000000	69.875218
3565.000000	69.806380
3564.000000	69.731944
3563.000000	69.652269
3562.000000	69.568416
3561.000000	69.480698
3560.000000	69.388271
3559.000000	69.289798
3558.000000	69.184295
3557.000000	69.071681
3556.000000	68.952724
3555.000000	68.828365
3554.000000	68.698826
3553.000000	68.563582
3552.000000	68.422521
3551.000000	68.275591
3550.000000	68.121608
3549.000000	67.959638
3548.000000	67.790357
3547.000000	67.615225
3546.000000	67.434284
3545.000000	67.246671
3544.000000	67.052165
3543.000000	66.851126
3542.000000	66.643250
3541.000000	66.427668
3540.000000	66.203321
3539.000000	65.967968
3538.000000	65.718333
3537.000000	65.452502
3536.000000	65.172208
3535.000000	64.880679
3534.000000	64.579156
3533.000000	64.266646
3532.000000	63.941884
3531.000000	63.603484
3530.000000	63.248699
3529.000000	62.875271
3528.000000	62.483879
3527.000000	62.076754
3526.000000	61.653931
3525.000000	61.213621
3524.000000	60.756055
3523.000000	60.284321
3522.000000	59.801156
3521.000000	59.306196
3520.000000	58.796844
3519.000000	58.270130
3518.000000	57.724293
3517.000000	57.160018
3516.000000	56.580273
3515.000000	55.988069
3514.000000	55.384784
3513.000000	54.770121
3512.000000	54.142197
3511.000000	53.497840
3510.000000	52.835801
3509.000000	52.161160
3508.000000	51.482456
3507.000000	50.802416
3506.000000	50.114259
3505.000000	49.409249
3504.000000	48.686469
3503.000000	47.953878
3502.000000	47.221589
3501.000000	46.495426
3500.000000	45.774739
3499.000000	45.053855
3498.000000	44.327248
3497.000000	43.595130
3496.000000	42.863371
3495.000000	42.137457
3494.000000	41.419260
3493.000000	40.710231
3492.000000	40.013076
3491.000000	39.328356
3490.000000	38.653561
3489.000000	37.988365
3488.000000	37.338247
3487.000000	36.710430
3486.000000	36.108306
3485.000000	35.530768
3484.000000	34.973236
3483.000000	34.428994
3482.000000	33.893844
3481.000000	33.371121
3480.000000	32.868572
3479.000000	32.388386
3478.000000	31.924068
3477.000000	31.467446
3476.000000	31.014374
3475.000000	30.563634
3474.000000	30.114966
3473.000000	29.670293
3472.000000	29.233710
3471.000000	28.809255
3470.000000	28.402725
3469.000000	28.025078
3468.000000	27.689475
3467.000000	27.403556
3466.000000	27.167537
3465.000000	26.980039
3464.000000	26.840696
3463.000000	26.748289
3462.000000	26.702471
3461.000000	26.706811
3460.000000	26.765716
3459.000000	26.876619
3458.000000	27.029190
3457.000000	27.212504
3456.000000	27.417479
3455.000000	27.633436
3454.000000	27.847868
3453.000000	28.049811
3452.000000	28.229871
3451.000000	28.376906
3450.000000	28.478011
3449.000000	28.523471
3448.000000	28.508804
3447.000000	28.432444
3446.000000	28.296367
3445.000000	28.106282
3444.000000	27.868608
3443.000000	27.588242
3442.000000	27.270631
3441.000000	26.926405
3440.000000	26.569470
3439.000000	26.212072
3438.000000	25.866144
3437.000000	25.546684
3436.000000	25.268482
3435.000000	25.039097
3434.000000	24.858270
3433.000000	24.723601
3432.000000	24.635182
3431.000000	24.595017
3430.000000	24.607450
3429.000000	24.680236
3428.000000	24.819277
3427.000000	25.025225
3426.000000	25.295532
3425.000000	25.629201
3424.000000	26.027397
3423.000000	26.488237
3422.000000	27.008121
3421.000000	27.584263
3420.000000	28.212459
3419.000000	28.884822
3418.000000	29.590820
3417.000000	30.322309
3416.000000	31.073450
3415.000000	31.837840
3414.000000	32.610068
3413.000000	33.386959
3412.000000	34.164688
3411.000000	34.936002
3410.000000	35.693410
3409.000000	36.433910
3408.000000	37.157214
3407.000000	37.860360
3406.000000	38.538044
3405.000000	39.187209
3404.000000	39.808222
3403.000000	40.403510
3402.000000	40.977549
3401.000000	41.536781
3400.000000	42.085757
3399.000000	42.622565
3398.000000	43.141311
3397.000000	43.638522
3396.000000	44.114579
3395.000000	44.571246
3394.000000	45.010717
3393.000000	45.437415
3392.000000	45.857171
3391.000000	46.273079
3390.000000	46.684559
3389.000000	47.089450
3388.000000	47.485837
3387.000000	47.872556
3386.000000	48.250029
3385.000000	48.620843
3384.000000	48.987458
3383.000000	49.350196
3382.000000	49.708728
3381.000000	50.064247
3380.000000	50.418422
3379.000000	50.771215
3378.000000	51.121851
3377.000000	51.471088
3376.000000	51.820137
3375.000000	52.168136
3374.000000	52.512680
3373.000000	52.852462
3372.000000	53.187794
3371.000000	53.519212
3370.000000	53.847684
3369.000000	54.175366
3368.000000	54.504171
3367.000000	54.833795
3366.000000	55.162439
3365.000000	55.488923
3364.000000	55.812702
3363.000000	56.132846
3362.000000	56.448791
3361.000000	56.761407
3360.000000	57.071800
3359.000000	57.379598
3358.000000	57.683903
3357.000000	57.985387
3356.000000	58.285546
3355.000000	58.584489
3354.000000	58.880868
3353.000000	59.173719
3352.000000	59.463193
3351.000000	59.749722
3350.000000	60.033689
3349.000000	60.315537
3348.000000	60.595048
3347.000000	60.870985
3346.000000	61.142486
3345.000000	61.410445
3344.000000	61.676434
3343.000000	61.940468
3342.000000	62.200971
3341.000000	62.456534
3340.000000	62.706978
3339.000000	62.953141
3338.000000	63.196258
3337.000000	63.437298
3336.000000	63.675755
3335.000000	63.909390
3334.000000	64.135779
3333.000000	64.353334
3332.000000	64.560795
3331.000000	64.756345
3330.000000	64.938247
3329.000000	65.105909
3328.000000	65.258760
3327.000000	65.395336
3326.000000	65.513712
3325.000000	65.612086
3324.000000	65.688292
3323.000000	65.738270
3322.000000	65.757474
3321.000000	65.742963
3320.000000	65.692474
3319.000000	65.603369
3318.000000	65.471123
3317.000000	65.290815
3316.000000	65.056905
3315.000000	64.761463
3314.000000	64.395954
3313.000000	63.951951
3312.000000	63.421367
3311.000000	62.796596
3310.000000	62.070017
3309.000000	61.239003
3308.000000	60.303574
3307.000000	59.262605
3306.000000	58.113655
3305.000000	56.851729
3304.000000	55.473308
3303.000000	53.973417
3302.000000	52.347406
3301.000000	50.596155
3300.000000	48.726040
3299.000000	46.751520
3298.000000	44.698162
3297.000000	42.605011
3296.000000	40.520933
3295.000000	38.494949
3294.000000	36.572020
3293.000000	34.793138
3292.000000	33.189647
3291.000000	31.771621
3290.000000	30.528922
3289.000000	29.436328
3288.000000	28.460752
3287.000000	27.567439
3286.000000	26.724737
3285.000000	25.913922
3284.000000	25.127331
3283.000000	24.365319
3282.000000	23.638330
3281.000000	22.966286
3280.000000	22.374663
3279.000000	21.886671
3278.000000	21.522685
3277.000000	21.303207
3276.000000	21.241617
3275.000000	21.338919
3274.000000	21.584001
3273.000000	21.955399
3272.000000	22.421868
3271.000000	22.939044
3270.000000	23.455728
3269.000000	23.922013
3268.000000	24.291614
3267.000000	24.524451
3266.000000	24.595285
3265.000000	24.499290
3264.000000	24.249136
3263.000000	23.871207
3262.000000	23.402414
3261.000000	22.890852
3260.000000	22.387065
3259.000000	21.934028
3258.000000	21.566282
3257.000000	21.311324
3256.000000	21.185485
3255.000000	21.190421
3254.000000	21.317228
3253.000000	21.549883
3252.000000	21.867444
3251.000000	22.242298
3250.000000	22.646024
3249.000000	23.056332
3248.000000	23.454172
3247.000000	23.821723
3246.000000	24.144425
3245.000000	24.414027
3244.000000	24.626348
3243.000000	24.779653
3242.000000	24.876885
3241.000000	24.927883
3240.000000	24.944900
3239.000000	24.936097
3238.000000	24.907814
3237.000000	24.866736
3236.000000	24.818455
3235.000000	24.766540
3234.000000	24.714728
3233.000000	24.667672
3232.000000	24.624483
3231.000000	24.575504
3230.000000	24.509387
3229.000000	24.419858
3228.000000	24.303899
3227.000000	24.156923
3226.000000	23.974592
3225.000000	23.756927
3224.000000	23.505438
3223.000000	23.220535
3222.000000	22.904577
3221.000000	22.565436
3220.000000	22.213625
3219.000000	21.856820
3218.000000	21.500755
3217.000000	21.150834
3216.000000	20.809160
3215.000000	20.472917
3214.000000	20.138800
3213.000000	19.806517
3212.000000	19.475011
3211.000000	19.139839
3210.000000	18.798508
3209.000000	18.455220
3208.000000	18.116551
3207.000000	17.786037
3206.000000	17.466875
3205.000000	17.165465
3204.000000	16.888529
3203.000000	16.639372
3202.000000	16.420782
3201.000000	16.238566
3200.000000	16.096988
3199.000000	15.995859
3198.000000	15.934325
3197.000000	15.914143
3196.000000	15.936568
3195.000000	15.997750
3194.000000	16.093612
3193.000000	16.223386
3192.000000	16.385239
3191.000000	16.574237
3190.000000	16.785769
3189.000000	17.019150
3188.000000	17.273232
3187.000000	17.542277
3186.000000	17.821036
3185.000000	18.108606
3184.000000	18.404865
3183.000000	18.706627
3182.000000	19.010768
3181.000000	19.317708
3180.000000	19.627485
3179.000000	19.936620
3178.000000	20.241961
3177.000000	20.543913
3176.000000	20.842580
3175.000000	21.134447
3174.000000	21.416277
3173.000000	21.688617
3172.000000	21.952615
3171.000000	22.206677
3170.000000	22.449888
3169.000000	22.684807
3168.000000	22.913363
3167.000000	23.133854
3166.000000	23.344313
3165.000000	23.545706
3164.000000	23.738496
3163.000000	23.919441
3162.000000	24.085701
3161.000000	24.237994
3160.000000	24.377352
3159.000000	24.502173
3158.000000	24.611228
3157.000000	24.707137
3156.000000	24.793178
3155.000000	24.870598
3154.000000	24.942017
3153.000000	25.013623
3152.000000	25.090923
3151.000000	25.174792
3150.000000	25.264650
3149.000000	25.362128
3148.000000	25.468725
3147.000000	25.583100
3146.000000	25.703922
3145.000000	25.832223
3144.000000	25.968054
3143.000000	26.108324
3142.000000	26.250301
3141.000000	26.394300
3140.000000	26.540123
3139.000000	26.684183
3138.000000	26.822830
3137.000000	26.955046
3136.000000	27.079109
3135.000000	27.189686
3134.000000	27.281421
3133.000000	27.351336
3132.000000	27.395567
3131.000000	27.406568
3130.000000	27.376088
3129.000000	27.299762
3128.000000	27.175161
3127.000000	27.001068
3126.000000	26.781216
3125.000000	26.525293
3124.000000	26.245103
3123.000000	25.950634
3122.000000	25.652791
3121.000000	25.364543
3120.000000	25.095086
3119.000000	24.846036
3118.000000	24.615748
3117.000000	24.404212
3116.000000	24.210797
3115.000000	24.031571
3114.000000	23.861985
3113.000000	23.699729
3112.000000	23.542232
3111.000000	23.385282
3110.000000	23.227733
3109.000000	23.073716
3108.000000	22.927946
3107.000000	22.792293
3106.000000	22.668960
3105.000000	22.563545
3104.000000	22.481017
3103.000000	22.423259
3102.000000	22.393582
3101.000000	22.398555
3100.000000	22.443672
3099.000000	22.529099
3098.000000	22.653569
3097.000000	22.818597
3096.000000	23.024334
3095.000000	23.267310
3094.000000	23.543429
3093.000000	23.850769
3092.000000	24.187096
3091.000000	24.546934
3090.000000	24.925325
3089.000000	25.319378
3088.000000	25.724627
3087.000000	26.134161
3086.000000	26.543156
3085.000000	26.951556
3084.000000	27.359332
3083.000000	27.763084
3082.000000	28.159536
3081.000000	28.548514
3080.000000	28.930308
3079.000000	29.303568
3078.000000	29.668084
3077.000000	30.025556
3076.000000	30.375760
3075.000000	30.715113
3074.000000	31.041326
3073.000000	31.356218
3072.000000	31.661548
3071.000000	31.956226
3070.000000	32.239405
3069.000000	32.513032
3068.000000	32.779173
3067.000000	33.037391
3066.000000	33.287380
3065.000000	33.530762
3064.000000	33.768399
3063.000000	33.999145
3062.000000	34.222686
3061.000000	34.441005
3060.000000	34.655055
3059.000000	34.863120
3058.000000	35.064447
3057.000000	35.261126
3056.000000	35.454924
3055.000000	35.645118
3054.000000	35.831234
3053.000000	36.015080
3052.000000	36.197997
3051.000000	36.379022
3050.000000	36.557263
3049.000000	36.733248
3048.000000	36.906675
3047.000000	37.075732
3046.000000	37.240409
3045.000000	37.403541
3044.000000	37.567068
3043.000000	37.730250
3042.000000	37.892645
3041.000000	38.055534
3040.000000	38.218714
3039.000000	38.379087
3038.000000	38.534557
3037.000000	38.686555
3036.000000	38.837411
3035.000000	38.988070
3034.000000	39.139559
3033.000000	39.293490
3032.000000	39.449286
3031.000000	39.604015
3030.000000	39.756468
3029.000000	39.908356
3028.000000	40.060310
3027.000000	40.210235
3026.000000	40.357190
3025.000000	40.503356
3024.000000	40.649934
3023.000000	40.794269
3022.000000	40.932841
3021.000000	41.063722
3020.000000	41.184314
3019.000000	41.289200
3018.000000	41.372965
3017.000000	41.432778
3016.000000	41.467058
3015.000000	41.475701
3014.000000	41.464169
3013.000000	41.446021
3012.000000	41.438715
3011.000000	41.458149
3010.000000	41.516419
3009.000000	41.619749
3008.000000	41.764946
3007.000000	41.939450
3006.000000	42.126793
3005.000000	42.310522
3004.000000	42.472701
3003.000000	42.592025
3002.000000	42.646343
3001.000000	42.615723
3000.000000	42.486468
2999.000000	42.259513
2998.000000	41.962017
2997.000000	41.649696
2996.000000	41.392719
2995.000000	41.254151
2994.000000	41.271013
2993.000000	41.444717
2992.000000	41.740881
2991.000000	42.104607
2990.000000	42.483111
2989.000000	42.840778
2988.000000	43.160021
2987.000000	43.435190
2986.000000	43.669125
2985.000000	43.868787
2984.000000	44.039499
2983.000000	44.181651
2982.000000	44.294148
2981.000000	44.377081
2980.000000	44.429735
2979.000000	44.448280
2978.000000	44.427766
2977.000000	44.366648
2976.000000	44.268446
2975.000000	44.143716
2974.000000	44.011496
2973.000000	43.895560
2972.000000	43.815267
2971.000000	43.777507
2970.000000	43.774972
2969.000000	43.786197
2968.000000	43.776010
2967.000000	43.703794
2966.000000	43.541061
2965.000000	43.286247
2964.000000	42.965408
2963.000000	42.621142
2962.000000	42.299717
2961.000000	42.039431
2960.000000	41.863793
2959.000000	41.781787
2958.000000	41.794934
2957.000000	41.899844
2956.000000	42.084537
2955.000000	42.327640
2954.000000	42.603562
2953.000000	42.887044
2952.000000	43.151234
2951.000000	43.369654
2950.000000	43.524663
2949.000000	43.615657
2948.000000	43.657146
2947.000000	43.667684
2946.000000	43.655060
2945.000000	43.599884
2944.000000	43.451298
2943.000000	43.149258
2942.000000	42.672562
2941.000000	42.079009
2940.000000	41.503818
2939.000000	41.109907
2938.000000	41.016156
2937.000000	41.247678
2936.000000	41.733022
2935.000000	42.349839
2934.000000	42.983784
2933.000000	43.563256
2932.000000	44.059290
2931.000000	44.470829
2930.000000	44.812485
2929.000000	45.103750
2928.000000	45.360733
2927.000000	45.592551
2926.000000	45.805409
2925.000000	46.004934
2924.000000	46.193780
2923.000000	46.371013
2922.000000	46.536370
2921.000000	46.692036
2920.000000	46.838873
2919.000000	46.975100
2918.000000	47.099854
2917.000000	47.215040
2916.000000	47.322061
2915.000000	47.419957
2914.000000	47.508421
2913.000000	47.589358
2912.000000	47.663778
2911.000000	47.729918
2910.000000	47.785523
2909.000000	47.829087
2908.000000	47.857343
2907.000000	47.863429
2906.000000	47.839023
2905.000000	47.775074
2904.000000	47.659727
2903.000000	47.479393
2902.000000	47.225938
2901.000000	46.902696
2900.000000	46.526134
2899.000000	46.126576
2898.000000	45.746779
2897.000000	45.434991
2896.000000	45.230158
2895.000000	45.150568
2894.000000	45.193537
2893.000000	45.339952
2892.000000	45.560082
2891.000000	45.821037
2890.000000	46.096190
2889.000000	46.368486
2888.000000	46.627099
2887.000000	46.864461
2886.000000	47.076942
2885.000000	47.265004
2884.000000	47.429324
2883.000000	47.569655
2882.000000	47.687787
2881.000000	47.788735
2880.000000	47.877647
2879.000000	47.957884
2878.000000	48.032889
2877.000000	48.106514
2876.000000	48.179743
2875.000000	48.249559
2874.000000	48.313082
2873.000000	48.370754
2872.000000	48.424941
2871.000000	48.478549
2870.000000	48.536304
2869.000000	48.604404
2868.000000	48.686451
2867.000000	48.781265
2866.000000	48.885462
2865.000000	48.995503
2864.000000	49.106314
2863.000000	49.211377
2862.000000	49.306386
2861.000000	49.391003
2860.000000	49.466267
2859.000000	49.532764
2858.000000	49.592463
2857.000000	49.649423
2856.000000	49.706943
2855.000000	49.766083
2854.000000	49.827739
2853.000000	49.893284
2852.000000	49.961909
2851.000000	50.030188
2850.000000	50.095663
2849.000000	50.158655
2848.000000	50.219823
2847.000000	50.278800
2846.000000	50.336373
2845.000000	50.395134
2844.000000	50.456477
2843.000000	50.519179
2842.000000	50.582095
2841.000000	50.646096
2840.000000	50.712375
2839.000000	50.781198
2838.000000	50.853237
2837.000000	50.929740
2836.000000	51.010304
2835.000000	51.092644
2834.000000	51.175377
2833.000000	51.258988
2832.000000	51.343425
2831.000000	51.427188
2830.000000	51.509653
2829.000000	51.591915
2828.000000	51.674393
2827.000000	51.755896
2826.000000	51.835753
2825.000000	51.914483
2824.000000	51.991562
2823.000000	52.064880
2822.000000	52.133488
2821.000000	52.198715
2820.000000	52.261789
2819.000000	52.322630
2818.000000	52.381681
2817.000000	52.440419
2816.000000	52.498958
2815.000000	52.555287
2814.000000	52.607862
2813.000000	52.656929
2812.000000	52.702715
2811.000000	52.744824
2810.000000	52.784284
2809.000000	52.823777
2808.000000	52.864770
2807.000000	52.906494
2806.000000	52.948398
2805.000000	52.991154
2804.000000	53.034313
2803.000000	53.075577
2802.000000	53.113664
2801.000000	53.149788
2800.000000	53.185412
2799.000000	53.220720
2798.000000	53.256229
2797.000000	53.293410
2796.000000	53.332421
2795.000000	53.371234
2794.000000	53.408067
2793.000000	53.442726
2792.000000	53.474921
2791.000000	53.503732
2790.000000	53.529778
2789.000000	53.555622
2788.000000	53.582769
2787.000000	53.610176
2786.000000	53.636571
2785.000000	53.662191
2784.000000	53.687506
2783.000000	53.712705
2782.000000	53.739541
2781.000000	53.771296
2780.000000	53.809726
2779.000000	53.853881
2778.000000	53.902584
2777.000000	53.955772
2776.000000	54.012393
2775.000000	54.069448
2774.000000	54.124454
2773.000000	54.176882
2772.000000	54.226366
2771.000000	54.271860
2770.000000	54.313704
2769.000000	54.354320
2768.000000	54.395541
2767.000000	54.436953
2766.000000	54.477710
2765.000000	54.517729
2764.000000	54.555995
2763.000000	54.590015
2762.000000	54.618410
2761.000000	54.642473
2760.000000	54.664221
2759.000000	54.684654
2758.000000	54.704751
2757.000000	54.725870
2756.000000	54.747863
2755.000000	54.768582
2754.000000	54.786381
2753.000000	54.801802
2752.000000	54.816396
2751.000000	54.831885
2750.000000	54.851110
2749.000000	54.877156
2748.000000	54.909953
2747.000000	54.945320
2746.000000	54.978438
2745.000000	55.006862
2744.000000	55.030006
2743.000000	55.048170
2742.000000	55.063001
2741.000000	55.076601
2740.000000	55.088816
2739.000000	55.097138
2738.000000	55.100584
2737.000000	55.102434
2736.000000	55.108556
2735.000000	55.124758
2734.000000	55.155790
2733.000000	55.203593
2732.000000	55.264918
2731.000000	55.332459
2730.000000	55.399683
2729.000000	55.463818
2728.000000	55.524108
2727.000000	55.579832
2726.000000	55.631143
2725.000000	55.679410
2724.000000	55.725066
2723.000000	55.766573
2722.000000	55.802193
2721.000000	55.831167
2720.000000	55.852952
2719.000000	55.867313
2718.000000	55.876292
2717.000000	55.884326
2716.000000	55.895203
2715.000000	55.910352
2714.000000	55.930288
2713.000000	55.955478
2712.000000	55.985032
2711.000000	56.016705
2710.000000	56.049230
2709.000000	56.083047
2708.000000	56.118116
2707.000000	56.152892
2706.000000	56.186156
2705.000000	56.217751
2704.000000	56.246624
2703.000000	56.270228
2702.000000	56.286824
2701.000000	56.296476
2700.000000	56.299364
2699.000000	56.295109
2698.000000	56.284694
2697.000000	56.271284
2696.000000	56.257885
2695.000000	56.245878
2694.000000	56.236236
2693.000000	56.229920
2692.000000	56.226249
2691.000000	56.222885
2690.000000	56.218527
2689.000000	56.214196
2688.000000	56.211376
2687.000000	56.210763
2686.000000	56.213382
2685.000000	56.220601
2684.000000	56.232201
2683.000000	56.246589
2682.000000	56.263551
2681.000000	56.284960
2680.000000	56.311925
2679.000000	56.343116
2678.000000	56.376603
2677.000000	56.411000
2676.000000	56.444223
2675.000000	56.473445
2674.000000	56.497213
2673.000000	56.515768
2672.000000	56.528823
2671.000000	56.535300
2670.000000	56.536238
2669.000000	56.535949
2668.000000	56.539247
2667.000000	56.549270
2666.000000	56.568280
2665.000000	56.597734
2664.000000	56.636069
2663.000000	56.678444
2662.000000	56.719776
2661.000000	56.756588
2660.000000	56.785828
2659.000000	56.804553
2658.000000	56.812125
2657.000000	56.811093
2656.000000	56.805010
2655.000000	56.797113
2654.000000	56.791611
2653.000000	56.793513
2652.000000	56.805742
2651.000000	56.828040
2650.000000	56.859248
2649.000000	56.898419
2648.000000	56.943196
2647.000000	56.989429
2646.000000	57.033684
2645.000000	57.074692
2644.000000	57.111721
2643.000000	57.144109
2642.000000	57.173365
2641.000000	57.203397
2640.000000	57.237263
2639.000000	57.275089
2638.000000	57.315704
2637.000000	57.358097
2636.000000	57.400401
2635.000000	57.439667
2634.000000	57.474062
2633.000000	57.503725
2632.000000	57.528746
2631.000000	57.548338
2630.000000	57.562655
2629.000000	57.573629
2628.000000	57.582845
2627.000000	57.590299
2626.000000	57.596178
2625.000000	57.601643
2624.000000	57.607133
2623.000000	57.611788
2622.000000	57.615450
2621.000000	57.619418
2620.000000	57.624026
2619.000000	57.627375
2618.000000	57.627350
2617.000000	57.623136
2616.000000	57.614106
2615.000000	57.598966
2614.000000	57.577283
2613.000000	57.550265
2612.000000	57.519298
2611.000000	57.485714
2610.000000	57.452609
2609.000000	57.424797
2608.000000	57.405860
2607.000000	57.396817
2606.000000	57.397925
2605.000000	57.409839
2604.000000	57.431981
2603.000000	57.461805
2602.000000	57.497146
2601.000000	57.536921
2600.000000	57.579147
2599.000000	57.620343
2598.000000	57.657895
2597.000000	57.691671
2596.000000	57.722384
2595.000000	57.750412
2594.000000	57.777011
2593.000000	57.804572
2592.000000	57.834341
2591.000000	57.865321
2590.000000	57.895916
2589.000000	57.924910
2588.000000	57.950385
2587.000000	57.969807
2586.000000	57.982546
2585.000000	57.990901
2584.000000	57.998023
2583.000000	58.006539
2582.000000	58.019569
2581.000000	58.040658
2580.000000	58.071481
2579.000000	58.111074
2578.000000	58.157778
2577.000000	58.210563
2576.000000	58.267759
2575.000000	58.326699
2574.000000	58.385664
2573.000000	58.444350
2572.000000	58.502108
2571.000000	58.557314
2570.000000	58.608989
2569.000000	58.657325
2568.000000	58.702177
2567.000000	58.742850
2566.000000	58.779976
2565.000000	58.815805
2564.000000	58.851842
2563.000000	58.887952
2562.000000	58.923911
2561.000000	58.959898
2560.000000	58.995082
2559.000000	59.027710
2558.000000	59.057444
2557.000000	59.085748
2556.000000	59.113662
2555.000000	59.141226
2554.000000	59.169500
2553.000000	59.200770
2552.000000	59.235826
2551.000000	59.272972
2550.000000	59.310489
2549.000000	59.348206
2548.000000	59.385956
2547.000000	59.422611
2546.000000	59.457544
2545.000000	59.491249
2544.000000	59.523595
2543.000000	59.553198
2542.000000	59.579124
2541.000000	59.601385
2540.000000	59.619401
2539.000000	59.631631
2538.000000	59.637700
2537.000000	59.638987
2536.000000	59.636150
2535.000000	59.628247
2534.000000	59.614503
2533.000000	59.595403
2532.000000	59.571440
2531.000000	59.542588
2530.000000	59.510236
2529.000000	59.477521
2528.000000	59.446983
2527.000000	59.419492
2526.000000	59.395811
2525.000000	59.377113
2524.000000	59.362966
2523.000000	59.350584
2522.000000	59.336897
2521.000000	59.319784
2520.000000	59.297151
2519.000000	59.267075
2518.000000	59.229751
2517.000000	59.187429
2516.000000	59.141515
2515.000000	59.091935
2514.000000	59.039723
2513.000000	58.988008
2512.000000	58.939686
2511.000000	58.896349
2510.000000	58.860243
2509.000000	58.834935
2508.000000	58.822875
2507.000000	58.823784
2506.000000	58.836791
2505.000000	58.861388
2504.000000	58.895603
2503.000000	58.935665
2502.000000	58.978052
2501.000000	59.020860
2500.000000	59.062290
2499.000000	59.100126
2498.000000	59.133667
2497.000000	59.163908
2496.000000	59.190999
2495.000000	59.213437
2494.000000	59.230426
2493.000000	59.242820
2492.000000	59.251306
2491.000000	59.255734
2490.000000	59.257278
2489.000000	59.259166
2488.000000	59.263999
2487.000000	59.272303
2486.000000	59.284184
2485.000000	59.300116
2484.000000	59.319039
2483.000000	59.337883
2482.000000	59.354256
2481.000000	59.368070
2480.000000	59.380040
2479.000000	59.390680
2478.000000	59.401808
2477.000000	59.416703
2476.000000	59.437591
2475.000000	59.464507
2474.000000	59.497116
2473.000000	59.535913
2472.000000	59.580528
2471.000000	59.629025
2470.000000	59.679845
2469.000000	59.732465
2468.000000	59.785768
2467.000000	59.837600
2466.000000	59.886826
2465.000000	59.933900
2464.000000	59.978596
2463.000000	60.019058
2462.000000	60.054020
2461.000000	60.084234
2460.000000	60.110807
2459.000000	60.134195
2458.000000	60.155235
2457.000000	60.175306
2456.000000	60.194457
2455.000000	60.210871
2454.000000	60.223319
2453.000000	60.232401
2452.000000	60.239090
2451.000000	60.244003
2450.000000	60.248834
2449.000000	60.256676
2448.000000	60.269993
2447.000000	60.289706
2446.000000	60.316466
2445.000000	60.350906
2444.000000	60.391704
2443.000000	60.435498
2442.000000	60.479411
2441.000000	60.522035
2440.000000	60.561935
2439.000000	60.597388
2438.000000	60.628459
2437.000000	60.657235
2436.000000	60.685208
2435.000000	60.711957
2434.000000	60.736823
2433.000000	60.759580
2432.000000	60.778714
2431.000000	60.791574
2430.000000	60.796987
2429.000000	60.796257
2428.000000	60.790716
2427.000000	60.779990
2426.000000	60.763687
2425.000000	60.742351
2424.000000	60.716322
2423.000000	60.685764
2422.000000	60.652896
2421.000000	60.622470
2420.000000	60.598814
2419.000000	60.583895
2418.000000	60.578538
2417.000000	60.583253
2416.000000	60.596463
2415.000000	60.613946
2414.000000	60.630993
2413.000000	60.643711
2412.000000	60.648015
2411.000000	60.639983
2410.000000	60.618481
2409.000000	60.585880
2408.000000	60.545555
2407.000000	60.500039
2406.000000	60.452309
2405.000000	60.406028
2404.000000	60.363334
2403.000000	60.324347
2402.000000	60.289769
2401.000000	60.262022
2400.000000	60.242780
2399.000000	60.231334
2398.000000	60.226113
2397.000000	60.225863
2396.000000	60.228107
2395.000000	60.228524
2394.000000	60.223204
2393.000000	60.210243
2392.000000	60.188611
2391.000000	60.157936
2390.000000	60.120383
2389.000000	60.080408
2388.000000	60.042160
2387.000000	60.007763
2386.000000	59.979106
2385.000000	59.958960
2384.000000	59.948583
2383.000000	59.947187
2382.000000	59.953772
2381.000000	59.968093
2380.000000	59.988757
2379.000000	60.011944
2378.000000	60.033363
2377.000000	60.051053
2376.000000	60.063092
2375.000000	60.066467
2374.000000	60.059375
2373.000000	60.042129
2372.000000	60.016430
2371.000000	59.984044
2370.000000	59.945975
2369.000000	59.906339
2368.000000	59.872683
2367.000000	59.850984
2366.000000	59.841754
2365.000000	59.849095
2364.000000	59.883800
2363.000000	59.940174
2362.000000	60.010006
2361.000000	60.091805
2360.000000	60.172902
2359.000000	60.248436
2358.000000	60.303760
2357.000000	60.330788
2356.000000	60.330681
2355.000000	60.294890
2354.000000	60.235101
2353.000000	60.184464
2352.000000	60.204758
2351.000000	60.307202
2350.000000	60.419878
2349.000000	60.477941
2348.000000	60.459315
2347.000000	60.428472
2346.000000	60.453049
2345.000000	60.547528
2344.000000	60.670753
2343.000000	60.757944
2342.000000	60.814965
2341.000000	60.855746
2340.000000	60.889244
2339.000000	60.908395
2338.000000	60.912716
2337.000000	60.906012
2336.000000	60.896150
2335.000000	60.878788
2334.000000	60.855322
2333.000000	60.817135
2332.000000	60.768462
2331.000000	60.709341
2330.000000	60.631905
2329.000000	60.554347
2328.000000	60.473534
2327.000000	60.404267
2326.000000	60.343994
2325.000000	60.297135
2324.000000	60.270338
2323.000000	60.250586
2322.000000	60.239483
2321.000000	60.225373
2320.000000	60.213248
2319.000000	60.196859
2318.000000	60.178361
2317.000000	60.157387
2316.000000	60.134182
2315.000000	60.107906
2314.000000	60.076042
2313.000000	60.039012
2312.000000	59.992058
2311.000000	59.934005
2310.000000	59.863300
2309.000000	59.784672
2308.000000	59.699640
2307.000000	59.609709
2306.000000	59.517434
2305.000000	59.426878
2304.000000	59.341672
2303.000000	59.260678
2302.000000	59.182707
2301.000000	59.106936
2300.000000	59.030530
2299.000000	58.951489
2298.000000	58.869378
2297.000000	58.790366
2296.000000	58.718552
2295.000000	58.659655
2294.000000	58.617606
2293.000000	58.598035
2292.000000	58.601281
2291.000000	58.623809
2290.000000	58.660749
2289.000000	58.708446
2288.000000	58.763736
2287.000000	58.823844
2286.000000	58.889306
2285.000000	58.962037
2284.000000	59.041727
2283.000000	59.124175
2282.000000	59.206014
2281.000000	59.284836
2280.000000	59.357564
2279.000000	59.419429
2278.000000	59.469062
2277.000000	59.509452
2276.000000	59.545191
2275.000000	59.580742
2274.000000	59.620768
2273.000000	59.670146
2272.000000	59.730273
2271.000000	59.799311
2270.000000	59.875568
2269.000000	59.958649
2268.000000	60.047539
2267.000000	60.140486
2266.000000	60.237746
2265.000000	60.342402
2264.000000	60.455412
2263.000000	60.574451
2262.000000	60.695521
2261.000000	60.814666
2260.000000	60.927388
2259.000000	61.028224
2258.000000	61.115104
2257.000000	61.189586
2256.000000	61.255504
2255.000000	61.316815
2254.000000	61.378551
2253.000000	61.445603
2252.000000	61.518961
2251.000000	61.595586
2250.000000	61.671608
2249.000000	61.744725
2248.000000	61.812682
2247.000000	61.873422
2246.000000	61.927247
2245.000000	61.977664
2244.000000	62.028106
2243.000000	62.079610
2242.000000	62.131523
2241.000000	62.182158
2240.000000	62.227778
2239.000000	62.263455
2238.000000	62.286589
2237.000000	62.298333
2236.000000	62.301808
2235.000000	62.300690
2234.000000	62.300047
2233.000000	62.305247
2232.000000	62.318478
2231.000000	62.337730
2230.000000	62.359760
2229.000000	62.382176
2228.000000	62.402564
2227.000000	62.418626
2226.000000	62.430599
2225.000000	62.441561
2224.000000	62.454133
2223.000000	62.468475
2222.000000	62.483708
2221.000000	62.499042
2220.000000	62.512799
2219.000000	62.522963
2218.000000	62.529966
2217.000000	62.537293
2216.000000	62.548553
2215.000000	62.565726
2214.000000	62.590449
2213.000000	62.624112
2212.000000	62.665506
2211.000000	62.710355
2210.000000	62.754331
2209.000000	62.794922
2208.000000	62.830287
2207.000000	62.858953
2206.000000	62.881635
2205.000000	62.901146
2204.000000	62.919094
2203.000000	62.934307
2202.000000	62.945047
2201.000000	62.950868
2200.000000	62.951681
2199.000000	62.947364
2198.000000	62.939452
2197.000000	62.931370
2196.000000	62.926162
2195.000000	62.925474
2194.000000	62.931134
2193.000000	62.945305
2192.000000	62.968197
2191.000000	62.997711
2190.000000	63.032044
2189.000000	63.070877
2188.000000	63.113513
2187.000000	63.158178
2186.000000	63.203753
2185.000000	63.250063
2184.000000	63.295828
2183.000000	63.338456
2182.000000	63.376759
2181.000000	63.411861
2180.000000	63.444952
2179.000000	63.476117
2178.000000	63.505790
2177.000000	63.534968
2176.000000	63.562995
2175.000000	63.587203
2174.000000	63.605523
2173.000000	63.617784
2172.000000	63.624206
2171.000000	63.625052
2170.000000	63.622510
2169.000000	63.620463
2168.000000	63.621187
2167.000000	63.623914
2166.000000	63.627129
2165.000000	63.630118
2164.000000	63.631810
2163.000000	63.630859
2162.000000	63.628080
2161.000000	63.626906
2160.000000	63.630497
2159.000000	63.640092
2158.000000	63.656343
2157.000000	63.679462
2156.000000	63.707055
2155.000000	63.734293
2154.000000	63.757686
2153.000000	63.777134
2152.000000	63.794004
2151.000000	63.809520
2150.000000	63.825702
2149.000000	63.845229
2148.000000	63.868732
2147.000000	63.893816
2146.000000	63.917354
2145.000000	63.937081
2144.000000	63.950986
2143.000000	63.957918
2142.000000	63.959936
2141.000000	63.961903
2140.000000	63.967616
2139.000000	63.977711
2138.000000	63.991251
2137.000000	64.006696
2136.000000	64.020669
2135.000000	64.028524
2134.000000	64.027694
2133.000000	64.018931
2132.000000	64.004040
2131.000000	63.984681
2130.000000	63.963854
2129.000000	63.945631
2128.000000	63.931918
2127.000000	63.921309
2126.000000	63.911882
2125.000000	63.903003
2124.000000	63.893957
2123.000000	63.884050
2122.000000	63.875620
2121.000000	63.874617
2120.000000	63.886640
2119.000000	63.913501
2118.000000	63.953536
2117.000000	64.002465
2116.000000	64.053166
2115.000000	64.097597
2114.000000	64.131111
2113.000000	64.154014
2112.000000	64.168870
2111.000000	64.178448
2110.000000	64.186385
2109.000000	64.196750
2108.000000	64.211222
2107.000000	64.228206
2106.000000	64.245529
2105.000000	64.262067
2104.000000	64.276387
2103.000000	64.286444
2102.000000	64.291655
2101.000000	64.293197
2100.000000	64.291346
2099.000000	64.284494
2098.000000	64.271529
2097.000000	64.252911
2096.000000	64.228893
2095.000000	64.199507
2094.000000	64.167457
2093.000000	64.138718
2092.000000	64.119185
2091.000000	64.112482
2090.000000	64.121305
2089.000000	64.147764
2088.000000	64.190683
2087.000000	64.244673
2086.000000	64.302766
2085.000000	64.358216
2084.000000	64.404487
2083.000000	64.436962
2082.000000	64.455740
2081.000000	64.464947
2080.000000	64.468535
2079.000000	64.468387
2078.000000	64.466257
2077.000000	64.463701
2076.000000	64.459056
2075.000000	64.447502
2074.000000	64.425319
2073.000000	64.392275
2072.000000	64.349556
2071.000000	64.298481
2070.000000	64.242513
2069.000000	64.187120
2068.000000	64.135354
2067.000000	64.085282
2066.000000	64.032744
2065.000000	63.974717
2064.000000	63.909273
2063.000000	63.835530
2062.000000	63.755275
2061.000000	63.672446
2060.000000	63.589994
2059.000000	63.509039
2058.000000	63.431295
2057.000000	63.359074
2056.000000	63.291878
2055.000000	63.226108
2054.000000	63.159469
2053.000000	63.093176
2052.000000	63.029414
2051.000000	62.969936
2050.000000	62.917856
2049.000000	62.877341
2048.000000	62.849459
2047.000000	62.830812
2046.000000	62.817760
2045.000000	62.808856
2044.000000	62.802311
2043.000000	62.795005
2042.000000	62.786157
2041.000000	62.779532
2040.000000	62.780015
2039.000000	62.790630
2038.000000	62.813612
2037.000000	62.850292
2036.000000	62.898584
2035.000000	62.953386
2034.000000	63.011087
2033.000000	63.071341
2032.000000	63.133835
2031.000000	63.196927
2030.000000	63.260280
2029.000000	63.325283
2028.000000	63.391835
2027.000000	63.457455
2026.000000	63.520412
2025.000000	63.580947
2024.000000	63.638528
2023.000000	63.691400
2022.000000	63.740220
2021.000000	63.789029
2020.000000	63.840827
2019.000000	63.894711
2018.000000	63.948622
2017.000000	64.002184
2016.000000	64.055809
2015.000000	64.109924
2014.000000	64.166196
2013.000000	64.226762
2012.000000	64.291135
2011.000000	64.356532
2010.000000	64.421961
2009.000000	64.488721
2008.000000	64.556489
2007.000000	64.622716
2006.000000	64.686668
2005.000000	64.750490
2004.000000	64.814908
2003.000000	64.877684
2002.000000	64.937296
2001.000000	64.994391
2000.000000	65.048456
1999.000000	65.096739
1998.000000	65.138497
1997.000000	65.177911
1996.000000	65.220918
1995.000000	65.269942
1994.000000	65.322792
1993.000000	65.375348
1992.000000	65.424620
1991.000000	65.471117
1990.000000	65.518775
1989.000000	65.571193
1988.000000	65.628148
1987.000000	65.686712
1986.000000	65.745534
1985.000000	65.806227
1984.000000	65.869935
1983.000000	65.935332
1982.000000	66.000469
1981.000000	66.064286
1980.000000	66.125822
1979.000000	66.184105
1978.000000	66.239879
1977.000000	66.295832
1976.000000	66.354467
1975.000000	66.416278
1974.000000	66.480461
1973.000000	66.546140
1972.000000	66.612182
1971.000000	66.676714
1970.000000	66.737302
1969.000000	66.791147
1968.000000	66.834883
1967.000000	66.866252
1966.000000	66.887536
1965.000000	66.904898
1964.000000	66.922825
1963.000000	66.939948
1962.000000	66.950698
1961.000000	66.950493
1960.000000	66.938630
1959.000000	66.918142
1958.000000	66.894709
1957.000000	66.874885
1956.000000	66.863740
1955.000000	66.863225
1954.000000	66.873009
1953.000000	66.891971
1952.000000	66.917827
1951.000000	66.946876
1950.000000	66.975812
1949.000000	67.003219
1948.000000	67.028926
1947.000000	67.053756
1946.000000	67.079864
1945.000000	67.108488
1944.000000	67.136203
1943.000000	67.155791
1942.000000	67.163462
1941.000000	67.163430
1940.000000	67.162985
1939.000000	67.165762
1938.000000	67.171144
1937.000000	67.177250
1936.000000	67.182898
1935.000000	67.187228
1934.000000	67.189329
1933.000000	67.188369
1932.000000	67.182986
1931.000000	67.172728
1930.000000	67.159856
1929.000000	67.148304
1928.000000	67.140823
1927.000000	67.139767
1926.000000	67.149020
1925.000000	67.169939
1924.000000	67.196606
1923.000000	67.219862
1922.000000	67.237832
1921.000000	67.255945
1920.000000	67.276267
1919.000000	67.293498
1918.000000	67.301889
1917.000000	67.302350
1916.000000	67.299695
1915.000000	67.296998
1914.000000	67.295826
1913.000000	67.296418
1912.000000	67.295796
1911.000000	67.289946
1910.000000	67.278639
1909.000000	67.265512
1908.000000	67.253511
1907.000000	67.244678
1906.000000	67.243430
1905.000000	67.253610
1904.000000	67.273453
1903.000000	67.298606
1902.000000	67.329234
1901.000000	67.368233
1900.000000	67.414454
1899.000000	67.464084
1898.000000	67.516406
1897.000000	67.571832
1896.000000	67.625841
1895.000000	67.672202
1894.000000	67.712722
1893.000000	67.755610
1892.000000	67.803699
1891.000000	67.850755
1890.000000	67.889140
1889.000000	67.917518
1888.000000	67.940161
1887.000000	67.962364
1886.000000	67.988624
1885.000000	68.020148
1884.000000	68.053225
1883.000000	68.084559
1882.000000	68.116644
1881.000000	68.153348
1880.000000	68.192920
1879.000000	68.230449
1878.000000	68.265645
1877.000000	68.302395
1876.000000	68.341311
1875.000000	68.379451
1874.000000	68.417269
1873.000000	68.459414
1872.000000	68.507177
1871.000000	68.555267
1870.000000	68.596791
1869.000000	68.628283
1868.000000	68.650613
1867.000000	68.669395
1866.000000	68.694346
1865.000000	68.732021
1864.000000	68.779399
1863.000000	68.827769
1862.000000	68.872176
1861.000000	68.913741
1860.000000	68.953283
1859.000000	68.989763
1858.000000	69.025423
1857.000000	69.064948
1856.000000	69.108121
1855.000000	69.150452
1854.000000	69.189258
1853.000000	69.224975
1852.000000	69.258585
1851.000000	69.291179
1850.000000	69.326505
1849.000000	69.368247
1848.000000	69.415232
1847.000000	69.462921
1846.000000	69.508208
1845.000000	69.548464
1844.000000	69.579237
1843.000000	69.600298
1842.000000	69.618559
1841.000000	69.642185
1840.000000	69.675019
1839.000000	69.714985
1838.000000	69.757030
1837.000000	69.797724
1836.000000	69.836590
1835.000000	69.874569
1834.000000	69.912609
1833.000000	69.951151
1832.000000	69.989535
1831.000000	70.023543
1830.000000	70.049355
1829.000000	70.073297
1828.000000	70.108900
1827.000000	70.161257
1826.000000	70.222604
1825.000000	70.279748
1824.000000	70.323234
1823.000000	70.353538
1822.000000	70.378634
1821.000000	70.408147
1820.000000	70.446739
1819.000000	70.491150
1818.000000	70.536517
1817.000000	70.581969
1816.000000	70.626815
1815.000000	70.665756
1814.000000	70.693697
1813.000000	70.710524
1812.000000	70.717149
1811.000000	70.712633
1810.000000	70.701842
1809.000000	70.697828
1808.000000	70.707286
1807.000000	70.724292
1806.000000	70.742864
1805.000000	70.763464
1804.000000	70.784992
1803.000000	70.798854
1802.000000	70.798084
1801.000000	70.789486
1800.000000	70.787503
1799.000000	70.800912
1798.000000	70.831646
1797.000000	70.876822
1796.000000	70.926425
1795.000000	70.967567
1794.000000	70.993127
1793.000000	71.004712
1792.000000	71.006863
1791.000000	71.003749
1790.000000	71.004823
1789.000000	71.022526
1788.000000	71.059915
1787.000000	71.106326
1786.000000	71.146564
1785.000000	71.171959
1784.000000	71.183699
1783.000000	71.186831
1782.000000	71.186044
1781.000000	71.187029
1780.000000	71.194634
1779.000000	71.212711
1778.000000	71.243936
1777.000000	71.288212
1776.000000	71.339984
1775.000000	71.390072
1774.000000	71.431222
1773.000000	71.463731
1772.000000	71.497679
1771.000000	71.541788
1770.000000	71.595247
1769.000000	71.655160
1768.000000	71.720289
1767.000000	71.783894
1766.000000	71.838285
1765.000000	71.884747
1764.000000	71.929047
1763.000000	71.968610
1762.000000	71.992740
1761.000000	72.003669
1760.000000	72.018914
1759.000000	72.048604
1758.000000	72.087003
1757.000000	72.122731
1756.000000	72.152447
1755.000000	72.180465
1754.000000	72.208517
1753.000000	72.238715
1752.000000	72.276907
1751.000000	72.324955
1750.000000	72.374930
1749.000000	72.418662
1748.000000	72.460936
1747.000000	72.510350
1746.000000	72.565032
1745.000000	72.616879
1744.000000	72.662126
1743.000000	72.700264
1742.000000	72.730230
1741.000000	72.755249
1740.000000	72.785111
1739.000000	72.825020
1738.000000	72.866759
1737.000000	72.901755
1736.000000	72.929985
1735.000000	72.951396
1734.000000	72.961218
1733.000000	72.964955
1732.000000	72.973796
1731.000000	72.988987
1730.000000	73.007052
1729.000000	73.021653
1728.000000	73.031866
1727.000000	73.042463
1726.000000	73.057040
1725.000000	73.074420
1724.000000	73.091791
1723.000000	73.110757
1722.000000	73.135773
1721.000000	73.168367
1720.000000	73.205516
1719.000000	73.238507
1718.000000	73.257539
1717.000000	73.269926
1716.000000	73.286522
1715.000000	73.303654
1714.000000	73.323633
1713.000000	73.354153
1712.000000	73.394234
1711.000000	73.438855
1710.000000	73.486532
1709.000000	73.537806
1708.000000	73.590282
1707.000000	73.639567
1706.000000	73.686533
1705.000000	73.736341
1704.000000	73.785727
1703.000000	73.828497
1702.000000	73.871509
1701.000000	73.933263
1700.000000	74.010653
1699.000000	74.073243
1698.000000	74.110822
1697.000000	74.146949
1696.000000	74.202970
1695.000000	74.270809
1694.000000	74.333316
1693.000000	74.387126
1692.000000	74.442285
1691.000000	74.507596
1690.000000	74.575796
1689.000000	74.628577
1688.000000	74.657090
1687.000000	74.670108
1686.000000	74.684343
1685.000000	74.705087
1684.000000	74.725613
1683.000000	74.749859
1682.000000	74.776897
1681.000000	74.793882
1680.000000	74.802284
1679.000000	74.808793
1678.000000	74.812993
1677.000000	74.805178
1676.000000	74.783519
1675.000000	74.763389
1674.000000	74.755991
1673.000000	74.752405
1672.000000	74.747646
1671.000000	74.752606
1670.000000	74.768392
1669.000000	74.774071
1668.000000	74.758836
1667.000000	74.739295
1666.000000	74.729951
1665.000000	74.728267
1664.000000	74.730306
1663.000000	74.742642
1662.000000	74.764800
1661.000000	74.773388
1660.000000	74.749383
1659.000000	74.705063
1658.000000	74.658164
1657.000000	74.602211
1656.000000	74.515037
1655.000000	74.381304
1654.000000	74.170654
1653.000000	73.853408
1652.000000	73.499155
1651.000000	73.166014
1650.000000	72.795138
1649.000000	72.276152
1648.000000	71.447746
1647.000000	70.194212
1646.000000	68.580241
1645.000000	66.757045
1644.000000	64.746355
1643.000000	62.449983
1642.000000	59.790199
1641.000000	56.823190
1640.000000	53.784892
1639.000000	50.947973
1638.000000	48.443679
1637.000000	46.298221
1636.000000	44.667002
1635.000000	43.844057
1634.000000	43.870615
1633.000000	44.500242
1632.000000	45.504593
1631.000000	46.756785
1630.000000	48.189934
1629.000000	49.759437
1628.000000	51.405024
1627.000000	53.021616
1626.000000	54.542489
1625.000000	56.024164
1624.000000	57.558549
1623.000000	59.105633
1622.000000	60.502760
1621.000000	61.668055
1620.000000	62.661386
1619.000000	63.576249
1618.000000	64.478549
1617.000000	65.397349
1616.000000	66.287582
1615.000000	67.053654
1614.000000	67.668501
1613.000000	68.195446
1612.000000	68.695396
1611.000000	69.156758
1610.000000	69.523352
1609.000000	69.776932
1608.000000	69.932846
1607.000000	69.975151
1606.000000	69.857593
1605.000000	69.550289
1604.000000	69.041715
1603.000000	68.304202
1602.000000	67.323203
1601.000000	66.163116
1600.000000	64.955964
1599.000000	63.830551
1598.000000	62.868071
1597.000000	62.110701
1596.000000	61.566827
1595.000000	61.191014
1594.000000	60.890361
1593.000000	60.582628
1592.000000	60.233951
1591.000000	59.831777
1590.000000	59.361201
1589.000000	58.822522
1588.000000	58.235133
1587.000000	57.598495
1586.000000	56.879025
1585.000000	56.054214
1584.000000	55.142409
1583.000000	54.167226
1582.000000	53.129373
1581.000000	52.043040
1580.000000	50.950287
1579.000000	49.838064
1578.000000	48.559954
1577.000000	46.908663
1576.000000	44.927560
1575.000000	43.020577
1574.000000	41.473756
1573.000000	40.202871
1572.000000	39.031266
1571.000000	37.877623
1570.000000	36.776804
1569.000000	35.845503
1568.000000	35.194361
1567.000000	34.851202
1566.000000	34.752732
1565.000000	34.805751
1564.000000	34.974345
1563.000000	35.274779
1562.000000	35.719873
1561.000000	36.310891
1560.000000	37.131974
1559.000000	38.259042
1558.000000	39.446355
1557.000000	40.395021
1556.000000	41.134703
1555.000000	41.807414
1554.000000	42.441815
1553.000000	42.982451
1552.000000	43.411295
1551.000000	43.794971
1550.000000	44.202029
1549.000000	44.652587
1548.000000	45.155191
1547.000000	45.749262
1546.000000	46.466793
1545.000000	47.273461
1544.000000	48.092643
1543.000000	48.890371
1542.000000	49.691646
1541.000000	50.518823
1540.000000	51.349843
1539.000000	52.135002
1538.000000	52.832163
1537.000000	53.437755
1536.000000	54.002937
1535.000000	54.602126
1534.000000	55.264889
1533.000000	55.930893
1532.000000	56.533726
1531.000000	57.087891
1530.000000	57.636381
1529.000000	58.185847
1528.000000	58.721158
1527.000000	59.236493
1526.000000	59.721493
1525.000000	60.153823
1524.000000	60.536051
1523.000000	60.906817
1522.000000	61.286211
1521.000000	61.641080
1520.000000	61.950551
1519.000000	62.246548
1518.000000	62.555144
1517.000000	62.859195
1516.000000	63.135200
1515.000000	63.392346
1514.000000	63.646810
1513.000000	63.898936
1512.000000	64.151611
1511.000000	64.415147
1510.000000	64.687712
1509.000000	64.953460
1508.000000	65.205383
1507.000000	65.446972
1506.000000	65.684367
1505.000000	65.916206
1504.000000	66.139955
1503.000000	66.371227
1502.000000	66.612679
1501.000000	66.847194
1500.000000	67.069202
1499.000000	67.294046
1498.000000	67.523498
1497.000000	67.737660
1496.000000	67.935193
1495.000000	68.134920
1494.000000	68.334201
1493.000000	68.518206
1492.000000	68.698286
1491.000000	68.901161
1490.000000	69.117765
1489.000000	69.313005
1488.000000	69.486422
1487.000000	69.660701
1486.000000	69.822778
1485.000000	69.929148
1484.000000	69.963347
1483.000000	69.933957
1482.000000	69.824051
1481.000000	69.601194
1480.000000	69.264815
1479.000000	68.804216
1478.000000	68.121579
1477.000000	67.092505
1476.000000	65.702194
1475.000000	64.017756
1474.000000	62.039147
1473.000000	59.794591
1472.000000	57.598928
1471.000000	55.857335
1470.000000	54.663086
1469.000000	53.889030
1468.000000	53.455449
1467.000000	53.379094
1466.000000	53.711695
1465.000000	54.445600
1464.000000	55.432372
1463.000000	56.432912
1462.000000	57.264478
1461.000000	57.850189
1460.000000	58.155219
1459.000000	58.122787
1458.000000	57.651197
1457.000000	56.774965
1456.000000	55.848715
1455.000000	55.191318
1454.000000	54.788464
1453.000000	54.515279
1452.000000	54.309917
1451.000000	54.166056
1450.000000	54.092277
1449.000000	54.100614
1448.000000	54.200734
1447.000000	54.372694
1446.000000	54.578464
1445.000000	54.809972
1444.000000	55.096181
1443.000000	55.471734
1442.000000	55.961346
1441.000000	56.584362
1440.000000	57.356760
1439.000000	58.294739
1438.000000	59.415561
1437.000000	60.671403
1436.000000	61.874712
1435.000000	62.840342
1434.000000	63.570553
1433.000000	64.173266
1432.000000	64.715471
1431.000000	65.205939
1430.000000	65.641660
1429.000000	66.031276
1428.000000	66.378903
1427.000000	66.684950
1426.000000	66.959214
1425.000000	67.209871
1424.000000	67.433138
1423.000000	67.630227
1422.000000	67.822275
1421.000000	68.031755
1420.000000	68.256004
1419.000000	68.467440
1418.000000	68.649162
1417.000000	68.814414
1416.000000	68.976814
1415.000000	69.138355
1414.000000	69.302726
1413.000000	69.474450
1412.000000	69.650116
1411.000000	69.823404
1410.000000	69.996099
1409.000000	70.174751
1408.000000	70.357845
1407.000000	70.538508
1406.000000	70.715713
1405.000000	70.888715
1404.000000	71.046907
1403.000000	71.177071
1402.000000	71.265447
1401.000000	71.275738
1400.000000	71.144933
1399.000000	70.852935
1398.000000	70.493077
1397.000000	70.218366
1396.000000	70.134894
1395.000000	70.253592
1394.000000	70.490310
1393.000000	70.733804
1392.000000	70.938344
1391.000000	71.134579
1390.000000	71.375049
1389.000000	71.684312
1388.000000	72.042354
1387.000000	72.405401
1386.000000	72.747030
1385.000000	73.071953
1384.000000	73.393270
1383.000000	73.713157
1382.000000	74.023650
1381.000000	74.312202
1380.000000	74.563808
1379.000000	74.764891
1378.000000	74.906831
1377.000000	74.966094
1376.000000	74.851805
1375.000000	74.360865
1374.000000	73.197965
1373.000000	71.109218
1372.000000	68.057020
1371.000000	64.327799
1370.000000	60.560505
1369.000000	57.623586
1368.000000	56.219522
1367.000000	56.431821
1366.000000	57.714978
1365.000000	59.295482
1364.000000	60.491769
1363.000000	60.848708
1362.000000	60.281783
1361.000000	59.177346
1360.000000	58.220614
1359.000000	58.040042
1358.000000	58.913555
1357.000000	60.660248
1356.000000	62.799966
1355.000000	64.861315
1354.000000	66.591656
1353.000000	67.958588
1352.000000	69.026436
1351.000000	69.866385
1350.000000	70.538793
1349.000000	71.090263
1348.000000	71.553146
1347.000000	71.958137
1346.000000	72.338201
1345.000000	72.711727
1344.000000	73.074696
1343.000000	73.415695
1342.000000	73.732096
1341.000000	74.022113
1340.000000	74.274845
1339.000000	74.487423
1338.000000	74.680875
1337.000000	74.883887
1336.000000	75.107118
1335.000000	75.339460
1334.000000	75.554208
1333.000000	75.696923
1332.000000	75.675744
1331.000000	75.382441
1330.000000	74.736325
1329.000000	73.716240
1328.000000	72.337664
1327.000000	70.606619
1326.000000	68.519289
1325.000000	66.154046
1324.000000	63.804112
1323.000000	61.950174
1322.000000	60.985861
1321.000000	60.939119
1320.000000	61.483662
1319.000000	62.211959
1318.000000	62.894590
1317.000000	63.505018
1316.000000	64.084818
1315.000000	64.657840
1314.000000	65.240880
1313.000000	65.876991
1312.000000	66.623170
1311.000000	67.504163
1310.000000	68.479942
1309.000000	69.452753
1308.000000	70.308485
1307.000000	70.966306
1306.000000	71.399267
1305.000000	71.601995
1304.000000	71.554557
1303.000000	71.218161
1302.000000	70.556131
1301.000000	69.573438
1300.000000	68.363612
1299.000000	67.134170
1298.000000	66.146104
1297.000000	65.578963
1296.000000	65.432218
1295.000000	65.537275
1294.000000	65.649542
1293.000000	65.539973
1292.000000	65.049851
1291.000000	64.109958
1290.000000	62.719023
1289.000000	60.921832
1288.000000	58.845906
1287.000000	56.766280
1286.000000	55.069961
1285.000000	54.084518
1284.000000	53.914042
1283.000000	54.430273
1282.000000	55.418942
1281.000000	56.719283
1280.000000	58.230705
1279.000000	59.815370
1278.000000	61.247397
1277.000000	62.292032
1276.000000	62.823195
1275.000000	62.867276
1274.000000	62.568193
1273.000000	62.137452
1272.000000	61.817630
1271.000000	61.833543
1270.000000	62.312807
1269.000000	63.228612
1268.000000	64.425798
1267.000000	65.713894
1266.000000	66.949496
1265.000000	68.061148
1264.000000	69.029055
1263.000000	69.856648
1262.000000	70.555622
1261.000000	71.139682
1260.000000	71.622699
1259.000000	72.024200
1258.000000	72.375620
1257.000000	72.706870
1256.000000	73.031606
1255.000000	73.349843
1254.000000	73.656880
1253.000000	73.945865
1252.000000	74.205300
1251.000000	74.427567
1250.000000	74.619605
1249.000000	74.797573
1248.000000	74.974631
1247.000000	75.158673
1246.000000	75.355664
1245.000000	75.564939
1244.000000	75.773318
1243.000000	75.963846
1242.000000	76.128726
1241.000000	76.268208
1240.000000	76.382638
1239.000000	76.473808
1238.000000	76.550441
1237.000000	76.620998
1236.000000	76.683391
1235.000000	76.730075
1234.000000	76.758066
1233.000000	76.767574
1232.000000	76.754968
1231.000000	76.716326
1230.000000	76.655161
1229.000000	76.574497
1228.000000	76.465872
1227.000000	76.311367
1226.000000	76.089979
1225.000000	75.777521
1224.000000	75.337685
1223.000000	74.729110
1222.000000	73.915777
1221.000000	72.863167
1220.000000	71.546076
1219.000000	69.962977
1218.000000	68.149863
1217.000000	66.176036
1216.000000	64.133542
1215.000000	62.138487
1214.000000	60.327956
1213.000000	58.841527
1212.000000	57.795388
1211.000000	57.255944
1210.000000	57.199235
1209.000000	57.507195
1208.000000	58.005776
1207.000000	58.513043
1206.000000	58.881856
1205.000000	59.015187
1204.000000	58.866403
1203.000000	58.434448
1202.000000	57.761576
1201.000000	56.937087
1200.000000	56.101942
1199.000000	55.431462
1198.000000	55.083224
1197.000000	55.138707
1196.000000	55.590557
1195.000000	56.365921
1194.000000	57.367281
1193.000000	58.509168
1192.000000	59.727735
1191.000000	60.981351
1190.000000	62.238510
1189.000000	63.469772
1188.000000	64.647085
1187.000000	65.745421
1186.000000	66.747195
1185.000000	67.646611
1184.000000	68.449990
1183.000000	69.170579
1182.000000	69.825485
1181.000000	70.424272
1180.000000	70.963201
1179.000000	71.433396
1178.000000	71.829059
1177.000000	72.151121
1176.000000	72.399279
1175.000000	72.571545
1174.000000	72.668752
1173.000000	72.682967
1172.000000	72.589642
1171.000000	72.344257
1170.000000	71.889349
1169.000000	71.167200
1168.000000	70.132092
1167.000000	68.787697
1166.000000	67.218603
1165.000000	65.591649
1164.000000	64.124715
1163.000000	63.034059
1162.000000	62.465897
1161.000000	62.452986
1160.000000	62.921367
1159.000000	63.724383
1158.000000	64.700156
1157.000000	65.708695
1156.000000	66.650428
1155.000000	67.470653
1154.000000	68.149050
1153.000000	68.684854
1152.000000	69.081097
1151.000000	69.336929
1150.000000	69.442608
1149.000000	69.383565
1148.000000	69.133069
1147.000000	68.657326
1146.000000	67.921911
1145.000000	66.878089
1144.000000	65.468972
1143.000000	63.638146
1142.000000	61.362534
1141.000000	58.695068
1140.000000	55.786257
1139.000000	52.871235
1138.000000	50.185855
1137.000000	47.863658
1136.000000	45.890564
1135.000000	44.154229
1134.000000	42.545043
1133.000000	41.080613
1132.000000	39.967731
1131.000000	39.523053
1130.000000	40.021982
1129.000000	41.534137
1128.000000	43.879459
1127.000000	46.688764
1126.000000	49.507423
1125.000000	51.906584
1124.000000	53.549639
1123.000000	54.218502
1122.000000	53.827484
1121.000000	52.435582
1120.000000	50.195276
1119.000000	47.321532
1118.000000	44.112936
1117.000000	41.008583
1116.000000	38.583399
1115.000000	37.385946
1114.000000	37.683225
1113.000000	39.320522
1112.000000	41.795634
1111.000000	44.428980
1110.000000	46.596353
1109.000000	47.958375
1108.000000	48.590593
1107.000000	48.905049
1106.000000	49.368560
1105.000000	50.222722
1104.000000	51.393004
1103.000000	52.581019
1102.000000	53.392514
1101.000000	53.472321
1100.000000	52.644248
1099.000000	51.055873
1098.000000	49.217566
1097.000000	47.831276
1096.000000	47.471199
1095.000000	48.318957
1094.000000	50.121147
1093.000000	52.384874
1092.000000	54.660291
1091.000000	56.689368
1090.000000	58.401477
1089.000000	59.831167
1088.000000	61.041048
1087.000000	62.090712
1086.000000	63.031004
1085.000000	63.899212
1084.000000	64.713722
1083.000000	65.484581
1082.000000	66.218178
1081.000000	66.917522
1080.000000	67.578410
1079.000000	68.189483
1078.000000	68.741672
1077.000000	69.220377
1076.000000	69.596685
1075.000000	69.829247
1074.000000	69.860882
1073.000000	69.621105
1072.000000	68.998904
1071.000000	67.839081
1070.000000	65.959664
1069.000000	63.152726
1068.000000	59.261460
1067.000000	54.301304
1066.000000	48.608097
1065.000000	42.882926
1064.000000	38.020009
1063.000000	34.725537
1062.000000	33.116006
1061.000000	32.603957
1060.000000	32.221493
1059.000000	31.223434
1058.000000	29.523302
1057.000000	27.727480
1056.000000	26.733418
1055.000000	27.146446
1054.000000	28.978553
1053.000000	31.750275
1052.000000	34.852272
1051.000000	37.841116
1050.000000	40.501882
1049.000000	42.799989
1048.000000	44.797733
1047.000000	46.583687
1046.000000	48.216952
1045.000000	49.716141
1044.000000	51.075668
1043.000000	52.291746
1042.000000	53.370377
1041.000000	54.320528
1040.000000	55.159815
1039.000000	55.909972
1038.000000	56.589945
1037.000000	57.210207
1036.000000	57.771194
1035.000000	58.271587
1034.000000	58.708084
1033.000000	59.077384
1032.000000	59.383719
1031.000000	59.642189
1030.000000	59.876189
1029.000000	60.106269
1028.000000	60.343176
1027.000000	60.587368
1026.000000	60.826532
1025.000000	61.037142
1024.000000	61.190131
1023.000000	61.261197
1022.000000	61.239599
1021.000000	61.122362
1020.000000	60.909382
1019.000000	60.594591
1018.000000	60.154302
1017.000000	59.544750
1016.000000	58.703105
1015.000000	57.578507
1014.000000	56.172529
1013.000000	54.573926
1012.000000	52.966021
1011.000000	51.572880
1010.000000	50.550341
1009.000000	49.883599
1008.000000	49.388905
1007.000000	48.847078
1006.000000	48.202922
1005.000000	47.660670
1004.000000	47.577971
1003.000000	48.220059
1002.000000	49.557954
1001.000000	51.295511
1000.000000	53.049880
999.000000	54.519455
998.000000	55.542238
997.000000	56.071947
996.000000	56.150330
995.000000	55.900051
994.000000	55.518531
993.000000	55.241369
992.000000	55.278088
991.000000	55.734237
990.000000	56.566889
989.000000	57.619061
988.000000	58.716128
987.000000	59.738977
986.000000	60.639709
985.000000	61.416522
984.000000	62.085854
983.000000	62.669030
982.000000	63.185831
981.000000	63.649198
980.000000	64.066213
979.000000	64.446144
978.000000	64.798280
977.000000	65.127860
976.000000	65.435930
975.000000	65.724364
974.000000	65.998829
973.000000	66.263107
972.000000	66.517089
971.000000	66.760163
970.000000	66.992676
969.000000	67.213839
968.000000	67.421352
967.000000	67.616537
966.000000	67.805991
965.000000	67.995578
964.000000	68.186555
963.000000	68.378081
962.000000	68.569491
961.000000	68.757148
960.000000	68.932814
959.000000	69.090223
958.000000	69.230927
957.000000	69.362420
956.000000	69.493624
955.000000	69.633958
954.000000	69.791720
953.000000	69.967684
952.000000	70.151897
951.000000	70.330134
950.000000	70.491865
949.000000	70.631688
948.000000	70.749318
947.000000	70.853583
946.000000	70.962335
945.000000	71.091855
944.000000	71.246827
943.000000	71.421130
942.000000	71.603335
941.000000	71.777960
940.000000	71.927230
939.000000	72.041003
938.000000	72.125470
937.000000	72.198734
936.000000	72.279925
935.000000	72.384563
934.000000	72.522462
933.000000	72.690615
932.000000	72.869443
931.000000	73.033312
930.000000	73.164985
929.000000	73.259705
928.000000	73.322603
927.000000	73.370077
926.000000	73.428799
925.000000	73.522478
924.000000	73.656890
923.000000	73.819705
922.000000	73.990793
921.000000	74.148129
920.000000	74.270640
919.000000	74.348511
918.000000	74.392875
917.000000	74.429427
916.000000	74.483202
915.000000	74.571963
914.000000	74.704954
913.000000	74.876190
912.000000	75.058897
911.000000	75.217133
910.000000	75.322356
909.000000	75.353689
908.000000	75.289111
907.000000	75.102529
906.000000	74.771360
905.000000	74.270116
904.000000	73.567587
903.000000	72.665860
902.000000	71.661869
901.000000	70.762890
900.000000	70.211420
899.000000	70.158087
898.000000	70.576723
897.000000	71.300032
896.000000	72.127268
895.000000	72.919574
894.000000	73.625957
893.000000	74.241001
892.000000	74.764364
891.000000	75.189739
890.000000	75.515549
889.000000	75.748126
888.000000	75.901822
887.000000	75.994718
886.000000	76.036323
885.000000	76.006879
884.000000	75.858495
883.000000	75.567268
882.000000	75.176742
881.000000	74.770426
880.000000	74.386554
879.000000	73.975106
878.000000	73.465412
877.000000	72.880644
876.000000	72.383270
875.000000	72.187525
874.000000	72.414467
873.000000	73.008097
872.000000	73.779376
871.000000	74.525572
870.000000	75.123388
869.000000	75.545018
868.000000	75.820866
867.000000	76.007892
866.000000	76.169803
865.000000	76.356161
864.000000	76.583144
863.000000	76.836308
862.000000	77.086355
861.000000	77.299642
860.000000	77.446123
859.000000	77.513981
858.000000	77.523319
857.000000	77.517481
856.000000	77.538305
855.000000	77.611465
854.000000	77.744222
853.000000	77.922451
852.000000	78.109624
851.000000	78.262030
850.000000	78.352813
849.000000	78.381570
848.000000	78.368125
847.000000	78.345897
846.000000	78.355080
845.000000	78.425766
844.000000	78.560259
843.000000	78.733360
842.000000	78.908307
841.000000	79.049804
840.000000	79.132061
839.000000	79.151292
838.000000	79.133792
837.000000	79.121972
836.000000	79.149399
835.000000	79.230315
834.000000	79.363063
833.000000	79.530068
832.000000	79.697304
831.000000	79.828985
830.000000	79.909920
829.000000	79.950926
828.000000	79.976119
827.000000	80.012955
826.000000	80.088914
825.000000	80.220012
824.000000	80.397035
823.000000	80.590651
822.000000	80.771427
821.000000	80.919889
820.000000	81.025419
819.000000	81.091202
818.000000	81.139509
817.000000	81.198891
816.000000	81.283002
815.000000	81.386837
814.000000	81.497805
813.000000	81.598951
812.000000	81.666736
811.000000	81.679554
810.000000	81.631011
809.000000	81.525497
808.000000	81.358935
807.000000	81.116206
806.000000	80.778934
805.000000	80.322983
804.000000	79.710947
803.000000	78.894333
802.000000	77.833115
801.000000	76.498210
800.000000	74.866509
799.000000	72.932713
798.000000	70.721174
797.000000	68.290713
796.000000	65.723295
795.000000	63.120044
794.000000	60.597383
793.000000	58.276213
792.000000	56.269034
791.000000	54.671232
790.000000	53.555358
789.000000	52.953861
788.000000	52.853736
787.000000	53.192763
786.000000	53.873905
785.000000	54.787587
784.000000	55.821282
783.000000	56.871220
782.000000	57.847574
781.000000	58.679320
780.000000	59.311303
779.000000	59.708594
778.000000	59.866531
777.000000	59.809390
776.000000	59.571231
775.000000	59.179442
774.000000	58.666751
773.000000	58.095160
772.000000	57.571345
771.000000	57.231680
770.000000	57.203957
769.000000	57.558574
768.000000	58.280929
767.000000	59.283251
766.000000	60.448793
765.000000	61.677412
764.000000	62.900626
763.000000	64.081801
762.000000	65.210910
761.000000	66.292605
760.000000	67.326907
759.000000	68.301488
758.000000	69.202161
757.000000	70.021279
756.000000	70.755980
755.000000	71.408556
754.000000	71.995368
753.000000	72.544373
752.000000	73.078642
751.000000	73.606959
750.000000	74.127581
749.000000	74.631073
748.000000	75.096924
747.000000	75.501019
746.000000	75.833996
745.000000	76.106922
744.000000	76.340569
743.000000	76.557950
742.000000	76.784389
741.000000	77.038441
740.000000	77.315091
739.000000	77.586464
738.000000	77.821362
737.000000	77.996485
736.000000	78.093546
735.000000	78.103850
734.000000	78.042885
733.000000	77.948402
732.000000	77.858523
731.000000	77.797081
730.000000	77.775250
729.000000	77.789461
728.000000	77.811922
727.000000	77.795611
726.000000	77.697612
725.000000	77.494702
724.000000	77.176617
723.000000	76.732941
722.000000	76.142723
721.000000	75.366771
720.000000	74.352304
719.000000	73.066472
718.000000	71.540141
717.000000	69.884486
716.000000	68.269777
715.000000	66.884286
714.000000	65.894982
713.000000	65.408015
712.000000	65.437372
711.000000	65.908159
710.000000	66.701360
709.000000	67.697275
708.000000	68.786097
707.000000	69.870588
706.000000	70.885391
705.000000	71.809878
704.000000	72.651243
703.000000	73.427235
702.000000	74.166438
701.000000	74.900845
700.000000	75.639873
699.000000	76.358830
698.000000	77.019526
697.000000	77.592292
696.000000	78.057636
695.000000	78.410859
694.000000	78.678646
693.000000	78.915506
692.000000	79.171556
691.000000	79.468583
690.000000	79.806032
689.000000	80.167345
688.000000	80.511223
687.000000	80.783542
686.000000	80.957164
685.000000	81.049421
684.000000	81.099057
683.000000	81.144635
682.000000	81.227413
681.000000	81.382401
680.000000	81.604714
679.000000	81.844965
678.000000	82.049545
677.000000	82.185740
676.000000	82.244413
675.000000	82.233973
674.000000	82.197664
673.000000	82.229401
672.000000	82.452579
671.000000	82.952239
670.000000	83.682741
669.000000	84.380339
668.000000	84.649099
667.000000	84.350298
666.000000	83.765010
665.000000	83.244755
664.000000	82.946081
663.000000	82.853635
662.000000	82.899405
661.000000	83.026235
660.000000	83.185151
659.000000	83.328638
658.000000	83.423350
657.000000	83.455238
656.000000	83.432059
655.000000	83.380901
654.000000	83.340512
653.000000	83.340824
652.000000	83.388929
651.000000	83.471284
650.000000	83.559880
649.000000	83.620160
648.000000	83.624774
647.000000	83.569977
646.000000	83.478955
645.000000	83.385691
644.000000	83.314950
643.000000	83.275800
642.000000	83.263320
641.000000	83.259462
640.000000	83.239679
639.000000	83.187752
638.000000	83.104782
637.000000	83.003032
636.000000	82.895937
635.000000	82.795648
634.000000	82.710195
633.000000	82.634877
632.000000	82.551145
631.000000	82.440686
630.000000	82.298773
629.000000	82.131803
628.000000	81.949478
627.000000	81.763585
626.000000	81.584779
625.000000	81.412022
624.000000	81.228390
623.000000	81.013941
622.000000	80.760008
621.000000	80.469457
620.000000	80.149149
619.000000	79.805350
618.000000	79.440312
617.000000	79.047838
616.000000	78.618154
615.000000	78.144669
614.000000	77.617391
613.000000	77.015756
612.000000	76.321026
611.000000	75.537332
610.000000	74.684716
609.000000	73.771951
608.000000	72.793322
607.000000	71.744159
606.000000	70.618209
605.000000	69.393463
604.000000	68.044770
603.000000	66.572467
602.000000	64.994882
601.000000	63.327679
600.000000	61.597183
599.000000	59.857268
598.000000	58.153041
597.000000	56.483554
596.000000	54.837802
595.000000	53.238576
594.000000	51.713603
593.000000	50.253859
592.000000	48.856792
591.000000	47.571166
590.000000	46.444465
589.000000	45.461253
588.000000	44.575150
587.000000	43.757376
586.000000	42.960758
585.000000	42.092253
584.000000	41.088270
583.000000	39.983898
582.000000	38.865586
581.000000	37.808383
580.000000	36.904046
579.000000	36.293319
578.000000	36.081546
577.000000	36.266192
576.000000	36.777855
575.000000	37.521092
574.000000	38.353377
573.000000	39.099749
572.000000	39.665414
571.000000	40.111515
570.000000	40.594485
569.000000	41.251452
568.000000	42.144959
567.000000	43.251697
566.000000	44.454302
565.000000	45.594966
564.000000	46.579775
563.000000	47.411692
562.000000	48.126308
561.000000	48.741505
560.000000	49.282084
559.000000	49.799215
558.000000	50.331316
557.000000	50.875687
556.000000	51.419997
555.000000	51.973806
554.000000	52.542920
553.000000	53.107736
552.000000	53.652309
551.000000	54.188584
550.000000	54.731646
549.000000	55.275389
548.000000	55.812714
547.000000	56.353587
546.000000	56.902888
545.000000	57.442424
544.000000	57.954151
543.000000	58.440856
542.000000	58.910391
541.000000	59.358986
540.000000	59.786957
539.000000	60.212060
538.000000	60.649598
537.000000	61.092620
536.000000	61.522635
535.000000	61.929898
534.000000	62.308511
533.000000	62.649156
532.000000	62.945782
531.000000	63.203316
530.000000	63.430579
529.000000	63.625988
528.000000	63.772101
527.000000	63.843774
526.000000	63.805680
525.000000	63.616759
524.000000	63.258530
523.000000	62.760111
522.000000	62.199620
521.000000	61.669343
520.000000	61.225103
519.000000	60.834299
518.000000	60.336221
517.000000	59.489316
516.000000	58.106555
515.000000	56.189957
514.000000	53.943904
513.000000	51.683743
512.000000	49.737209
511.000000	48.376989
510.000000	47.744540
509.000000	47.819558
508.000000	48.495559
507.000000	49.630847
506.000000	51.047275
505.000000	52.566895
504.000000	54.078455
503.000000	55.542830
502.000000	56.920430
501.000000	58.156507
500.000000	59.232944
499.000000	60.186415
498.000000	61.060004
497.000000	61.872600
496.000000	62.630099
495.000000	63.339791
494.000000	64.012958
493.000000	64.655791
492.000000	65.267791
491.000000	65.845307
490.000000	66.381250
489.000000	66.875089
488.000000	67.333991
487.000000	67.768011
486.000000	68.186107
485.000000	68.594639
484.000000	68.997767
483.000000	69.395151
482.000000	69.782175
481.000000	70.149777
480.000000	70.484285
479.000000	70.773484
478.000000	71.009504
477.000000	71.193812
476.000000	71.333136
475.000000	71.412822
474.000000	71.371767
473.000000	71.103601
472.000000	70.519003
471.000000	69.645572
470.000000	68.639475
469.000000	67.711735
468.000000	67.054770
467.000000	66.752784
466.000000	66.679151
465.000000	66.524622
464.000000	65.980179
463.000000	64.936640
462.000000	63.606862
461.000000	62.436899
460.000000	61.877450
459.000000	62.202304
458.000000	63.379742
457.000000	65.034806
456.000000	66.709852
455.000000	68.192835
454.000000	69.473834
453.000000	70.550481
452.000000	71.376131
451.000000	71.935135
450.000000	72.254376
449.000000	72.341034
448.000000	72.155135
447.000000	71.653911
446.000000	70.862603
445.000000	69.894627
444.000000	68.942794
443.000000	68.246524
442.000000	67.987500
441.000000	68.175382
440.000000	68.686404
439.000000	69.377908
438.000000	70.139953
437.000000	70.893172
436.000000	71.569587
435.000000	72.114042
434.000000	72.498491
433.000000	72.722527
432.000000	72.793506
431.000000	72.734263
430.000000	72.606425
429.000000	72.483960
428.000000	72.405000
427.000000	72.363826
426.000000	72.337335
425.000000	72.294486
424.000000	72.197694
423.000000	72.036985
422.000000	71.848301
421.000000	71.672696
420.000000	71.518697
419.000000	71.395291
418.000000	71.341705
417.000000	71.358011
416.000000	71.391587
415.000000	71.400916
414.000000	71.383063
413.000000	71.364439
412.000000	71.371352
411.000000	71.411020
410.000000	71.489654
409.000000	71.606609
408.000000	71.747980
407.000000	71.898753
406.000000	72.056299
405.000000	72.263281
404.000000	72.461217
403.000000	72.583533
402.000000	72.606389
401.000000	72.571906
400.000000	72.527351
