PE IR       SUBTECH     SPECTRUM    ASCII       PEDS        4.00        
   -1
23ms214-trans.asc
24/09/24
16:05:29.00
24/09/24
16:05:29.00
Administrator
Sample 1197 By Administrator Date Tuesday, September 24 2024
400.000000
#HDR
-1
-1
#GR
cm-1
%T
1.0
0.0
4000.000000
-1.000000
3601
8
93.378631
13.079735
#DATA
4000.000000	63.657142
3999.000000	63.624667
3998.000000	63.594048
3997.000000	63.565054
3996.000000	63.537276
3995.000000	63.510101
3994.000000	63.482907
3993.000000	63.455115
3992.000000	63.426064
3991.000000	63.394914
3990.000000	63.360910
3989.000000	63.324084
3988.000000	63.285227
3987.000000	63.244939
3986.000000	63.202876
3985.000000	63.158091
3984.000000	63.110038
3983.000000	63.058951
3982.000000	63.005741
3981.000000	62.952093
3980.000000	62.900676
3979.000000	62.855216
3978.000000	62.820186
3977.000000	62.799465
3976.000000	62.795211
3975.000000	62.807612
3974.000000	62.835396
3973.000000	62.877208
3972.000000	62.931844
3971.000000	62.997747
3970.000000	63.072051
3969.000000	63.150161
3968.000000	63.227170
3967.000000	63.299184
3966.000000	63.363915
3965.000000	63.420468
3964.000000	63.468522
3963.000000	63.507430
3962.000000	63.536708
3961.000000	63.557024
3960.000000	63.570763
3959.000000	63.581929
3958.000000	63.594174
3957.000000	63.609825
3956.000000	63.631140
3955.000000	63.660834
3954.000000	63.701556
3953.000000	63.754555
3952.000000	63.819748
3951.000000	63.896559
3950.000000	63.983491
3949.000000	64.077675
3948.000000	64.175550
3947.000000	64.274845
3946.000000	64.375391
3945.000000	64.477242
3944.000000	64.577694
3943.000000	64.670722
3942.000000	64.752784
3941.000000	64.827340
3940.000000	64.899718
3939.000000	64.970449
3938.000000	65.034550
3937.000000	65.088083
3936.000000	65.135115
3935.000000	65.184226
3934.000000	65.240619
3933.000000	65.300808
3932.000000	65.357030
3931.000000	65.405410
3930.000000	65.446469
3929.000000	65.483143
3928.000000	65.517098
3927.000000	65.547952
3926.000000	65.575115
3925.000000	65.597237
3924.000000	65.615214
3923.000000	65.634638
3922.000000	65.660644
3921.000000	65.693078
3920.000000	65.727827
3919.000000	65.762519
3918.000000	65.798680
3917.000000	65.837254
3916.000000	65.876772
3915.000000	65.915634
3914.000000	65.955226
3913.000000	65.997948
3912.000000	66.042576
3911.000000	66.087714
3910.000000	66.135466
3909.000000	66.190322
3908.000000	66.256644
3907.000000	66.332362
3906.000000	66.410857
3905.000000	66.485890
3904.000000	66.556768
3903.000000	66.631269
3902.000000	66.715319
3901.000000	66.802073
3900.000000	66.873877
3899.000000	66.914534
3898.000000	66.925720
3897.000000	66.925338
3896.000000	66.929072
3895.000000	66.942984
3894.000000	66.965656
3893.000000	66.993106
3892.000000	67.019914
3891.000000	67.041671
3890.000000	67.062319
3889.000000	67.089590
3888.000000	67.126860
3887.000000	67.166979
3886.000000	67.193125
3885.000000	67.200492
3884.000000	67.210017
3883.000000	67.243721
3882.000000	67.294681
3881.000000	67.331582
3880.000000	67.332275
3879.000000	67.309808
3878.000000	67.296049
3877.000000	67.306273
3876.000000	67.330453
3875.000000	67.349274
3874.000000	67.356379
3873.000000	67.366687
3872.000000	67.400966
3871.000000	67.458768
3870.000000	67.511594
3869.000000	67.540107
3868.000000	67.559227
3867.000000	67.590974
3866.000000	67.635524
3865.000000	67.669863
3864.000000	67.677474
3863.000000	67.673843
3862.000000	67.680833
3861.000000	67.699554
3860.000000	67.718853
3859.000000	67.733606
3858.000000	67.752579
3857.000000	67.786312
3856.000000	67.839953
3855.000000	67.905706
3854.000000	67.961562
3853.000000	68.000480
3852.000000	68.042046
3851.000000	68.088870
3850.000000	68.116450
3849.000000	68.108199
3848.000000	68.066365
3847.000000	68.011858
3846.000000	67.971487
3845.000000	67.958302
3844.000000	67.969402
3843.000000	67.996751
3842.000000	68.034183
3841.000000	68.081676
3840.000000	68.135199
3839.000000	68.180003
3838.000000	68.208657
3837.000000	68.229281
3836.000000	68.254707
3835.000000	68.286232
3834.000000	68.313488
3833.000000	68.326899
3832.000000	68.323363
3831.000000	68.309533
3830.000000	68.301464
3829.000000	68.309369
3828.000000	68.327589
3827.000000	68.345041
3826.000000	68.357155
3825.000000	68.372519
3824.000000	68.405601
3823.000000	68.459297
3822.000000	68.515172
3821.000000	68.549229
3820.000000	68.568295
3819.000000	68.600976
3818.000000	68.655075
3817.000000	68.705702
3816.000000	68.719791
3815.000000	68.699604
3814.000000	68.684989
3813.000000	68.699725
3812.000000	68.727119
3811.000000	68.742679
3810.000000	68.745519
3809.000000	68.753184
3808.000000	68.778441
3807.000000	68.816573
3806.000000	68.860829
3805.000000	68.919577
3804.000000	68.996753
3803.000000	69.078728
3802.000000	69.134594
3801.000000	69.146414
3800.000000	69.144515
3799.000000	69.166916
3798.000000	69.209505
3797.000000	69.239606
3796.000000	69.237567
3795.000000	69.218080
3794.000000	69.210544
3793.000000	69.225139
3792.000000	69.247079
3791.000000	69.261250
3790.000000	69.269215
3789.000000	69.281535
3788.000000	69.304699
3787.000000	69.337454
3786.000000	69.374500
3785.000000	69.410770
3784.000000	69.443293
3783.000000	69.473791
3782.000000	69.506662
3781.000000	69.541400
3780.000000	69.570199
3779.000000	69.588496
3778.000000	69.602800
3777.000000	69.621413
3776.000000	69.642624
3775.000000	69.657736
3774.000000	69.663153
3773.000000	69.664282
3772.000000	69.669882
3771.000000	69.683018
3770.000000	69.698059
3769.000000	69.712383
3768.000000	69.732306
3767.000000	69.759777
3766.000000	69.785164
3765.000000	69.794520
3764.000000	69.787185
3763.000000	69.779889
3762.000000	69.787136
3761.000000	69.807598
3760.000000	69.827621
3759.000000	69.843410
3758.000000	69.866965
3757.000000	69.902599
3756.000000	69.942406
3755.000000	69.979454
3754.000000	70.017259
3753.000000	70.064639
3752.000000	70.123308
3751.000000	70.191749
3750.000000	70.270504
3749.000000	70.355105
3748.000000	70.434715
3747.000000	70.503501
3746.000000	70.565073
3745.000000	70.607328
3744.000000	70.610174
3743.000000	70.601235
3742.000000	70.619099
3741.000000	70.656125
3740.000000	70.681097
3739.000000	70.680603
3738.000000	70.678390
3737.000000	70.709054
3736.000000	70.783062
3735.000000	70.876012
3734.000000	70.958434
3733.000000	71.019916
3732.000000	71.054637
3731.000000	71.061183
3730.000000	71.050952
3729.000000	71.041063
3728.000000	71.042068
3727.000000	71.048873
3726.000000	71.052919
3725.000000	71.058826
3724.000000	71.077552
3723.000000	71.108815
3722.000000	71.140462
3721.000000	71.169320
3720.000000	71.197920
3719.000000	71.223111
3718.000000	71.240643
3717.000000	71.250234
3716.000000	71.261496
3715.000000	71.284511
3714.000000	71.322902
3713.000000	71.373918
3712.000000	71.431216
3711.000000	71.490702
3710.000000	71.548725
3709.000000	71.596369
3708.000000	71.621738
3707.000000	71.620501
3706.000000	71.600873
3705.000000	71.579129
3704.000000	71.567828
3703.000000	71.569902
3702.000000	71.580224
3701.000000	71.595055
3700.000000	71.613498
3699.000000	71.632002
3698.000000	71.646441
3697.000000	71.653118
3696.000000	71.651511
3695.000000	71.647977
3694.000000	71.654052
3693.000000	71.676109
3692.000000	71.711087
3691.000000	71.753072
3690.000000	71.800354
3689.000000	71.851975
3688.000000	71.900816
3687.000000	71.936386
3686.000000	71.951171
3685.000000	71.944497
3684.000000	71.918626
3683.000000	71.879939
3682.000000	71.842747
3681.000000	71.820657
3680.000000	71.817696
3679.000000	71.826953
3678.000000	71.846060
3677.000000	71.884073
3676.000000	71.933825
3675.000000	71.972922
3674.000000	71.999119
3673.000000	72.023030
3672.000000	72.042396
3671.000000	72.041169
3670.000000	72.002258
3669.000000	71.937880
3668.000000	71.884031
3667.000000	71.848560
3666.000000	71.806098
3665.000000	71.738940
3664.000000	71.652925
3663.000000	71.566836
3662.000000	71.494885
3661.000000	71.437734
3660.000000	71.392049
3659.000000	71.354439
3658.000000	71.319605
3657.000000	71.279587
3656.000000	71.228811
3655.000000	71.173570
3654.000000	71.121103
3653.000000	71.068969
3652.000000	71.011421
3651.000000	70.945534
3650.000000	70.875005
3649.000000	70.812224
3648.000000	70.762933
3647.000000	70.708129
3646.000000	70.620543
3645.000000	70.494328
3644.000000	70.344016
3643.000000	70.186844
3642.000000	70.031950
3641.000000	69.883279
3640.000000	69.745905
3639.000000	69.620387
3638.000000	69.499384
3637.000000	69.374609
3636.000000	69.245127
3635.000000	69.115316
3634.000000	68.986948
3633.000000	68.860796
3632.000000	68.738266
3631.000000	68.618427
3630.000000	68.491456
3629.000000	68.343041
3628.000000	68.179011
3627.000000	68.021365
3626.000000	67.868095
3625.000000	67.696561
3624.000000	67.497680
3623.000000	67.283965
3622.000000	67.076344
3621.000000	66.888058
3620.000000	66.716232
3619.000000	66.550870
3618.000000	66.390306
3617.000000	66.236121
3616.000000	66.082372
3615.000000	65.918625
3614.000000	65.739673
3613.000000	65.551852
3612.000000	65.368722
3611.000000	65.197665
3610.000000	65.032885
3609.000000	64.863330
3608.000000	64.681464
3607.000000	64.489177
3606.000000	64.293077
3605.000000	64.095873
3604.000000	63.895964
3603.000000	63.690105
3602.000000	63.478617
3601.000000	63.268113
3600.000000	63.065557
3599.000000	62.871049
3598.000000	62.679785
3597.000000	62.484740
3596.000000	62.281339
3595.000000	62.069355
3594.000000	61.852970
3593.000000	61.641476
3592.000000	61.441500
3591.000000	61.249510
3590.000000	61.055422
3589.000000	60.852100
3588.000000	60.639156
3587.000000	60.423388
3586.000000	60.214419
3585.000000	60.016665
3584.000000	59.824892
3583.000000	59.630078
3582.000000	59.429948
3581.000000	59.230954
3580.000000	59.041054
3579.000000	58.861409
3578.000000	58.688386
3577.000000	58.520226
3576.000000	58.357750
3575.000000	58.201564
3574.000000	58.051754
3573.000000	57.910456
3572.000000	57.781491
3571.000000	57.665791
3570.000000	57.561982
3569.000000	57.470191
3568.000000	57.390431
3567.000000	57.318444
3566.000000	57.249117
3565.000000	57.180505
3564.000000	57.111139
3563.000000	57.038930
3562.000000	56.965003
3561.000000	56.895725
3560.000000	56.837372
3559.000000	56.790049
3558.000000	56.749741
3557.000000	56.714511
3556.000000	56.685081
3555.000000	56.661097
3554.000000	56.640964
3553.000000	56.624084
3552.000000	56.610890
3551.000000	56.600048
3550.000000	56.588148
3549.000000	56.572869
3548.000000	56.554213
3547.000000	56.533816
3546.000000	56.514716
3545.000000	56.500569
3544.000000	56.491828
3543.000000	56.483557
3542.000000	56.469118
3541.000000	56.445434
3540.000000	56.413227
3539.000000	56.374384
3538.000000	56.332533
3537.000000	56.292969
3536.000000	56.258764
3535.000000	56.226850
3534.000000	56.191126
3533.000000	56.148543
3532.000000	56.099215
3531.000000	56.043273
3530.000000	55.980139
3529.000000	55.910347
3528.000000	55.834533
3527.000000	55.751552
3526.000000	55.660878
3525.000000	55.565543
3524.000000	55.468899
3523.000000	55.369488
3522.000000	55.262526
3521.000000	55.145078
3520.000000	55.016689
3519.000000	54.876213
3518.000000	54.722617
3517.000000	54.558131
3516.000000	54.387117
3515.000000	54.211988
3514.000000	54.032876
3513.000000	53.850303
3512.000000	53.664351
3511.000000	53.471861
3510.000000	53.268674
3509.000000	53.054922
3508.000000	52.834035
3507.000000	52.606931
3506.000000	52.371344
3505.000000	52.127470
3504.000000	51.880751
3503.000000	51.637899
3502.000000	51.402048
3501.000000	51.172131
3500.000000	50.944698
3499.000000	50.716615
3498.000000	50.488807
3497.000000	50.267044
3496.000000	50.057446
3495.000000	49.861779
3494.000000	49.678701
3493.000000	49.507748
3492.000000	49.348826
3491.000000	49.199939
3490.000000	49.059781
3489.000000	48.931743
3488.000000	48.821905
3487.000000	48.733370
3486.000000	48.664994
3485.000000	48.613787
3484.000000	48.575109
3483.000000	48.543452
3482.000000	48.517798
3481.000000	48.505109
3480.000000	48.514053
3479.000000	48.545455
3478.000000	48.592607
3477.000000	48.649215
3476.000000	48.712626
3475.000000	48.780897
3474.000000	48.851147
3473.000000	48.920915
3472.000000	48.988831
3471.000000	49.055063
3470.000000	49.123925
3469.000000	49.203890
3468.000000	49.300713
3467.000000	49.411261
3466.000000	49.526712
3465.000000	49.639856
3464.000000	49.746809
3463.000000	49.845128
3462.000000	49.935459
3461.000000	50.023533
3460.000000	50.115614
3459.000000	50.212524
3458.000000	50.310882
3457.000000	50.408435
3456.000000	50.505105
3455.000000	50.600139
3454.000000	50.692439
3453.000000	50.782914
3452.000000	50.873287
3451.000000	50.964005
3450.000000	51.055545
3449.000000	51.150190
3448.000000	51.249532
3447.000000	51.351456
3446.000000	51.452593
3445.000000	51.552041
3444.000000	51.649833
3443.000000	51.744004
3442.000000	51.832377
3441.000000	51.915780
3440.000000	51.996533
3439.000000	52.075369
3438.000000	52.152833
3437.000000	52.232068
3436.000000	52.317052
3435.000000	52.408094
3434.000000	52.501499
3433.000000	52.593187
3432.000000	52.681112
3431.000000	52.765994
3430.000000	52.851078
3429.000000	52.939788
3428.000000	53.031671
3427.000000	53.121991
3426.000000	53.206817
3425.000000	53.286695
3424.000000	53.364359
3423.000000	53.441301
3422.000000	53.518600
3421.000000	53.598482
3420.000000	53.682133
3419.000000	53.767265
3418.000000	53.850141
3417.000000	53.928838
3416.000000	54.003315
3415.000000	54.074659
3414.000000	54.146001
3413.000000	54.221788
3412.000000	54.303952
3411.000000	54.390498
3410.000000	54.479425
3409.000000	54.571640
3408.000000	54.667628
3407.000000	54.763714
3406.000000	54.854373
3405.000000	54.936813
3404.000000	55.012159
3403.000000	55.084718
3402.000000	55.162387
3401.000000	55.254337
3400.000000	55.363788
3399.000000	55.483879
3398.000000	55.603052
3397.000000	55.713672
3396.000000	55.814021
3395.000000	55.905397
3394.000000	55.991807
3393.000000	56.080923
3392.000000	56.180333
3391.000000	56.291507
3390.000000	56.409153
3389.000000	56.526106
3388.000000	56.637629
3387.000000	56.742682
3386.000000	56.843629
3385.000000	56.944090
3384.000000	57.045520
3383.000000	57.146605
3382.000000	57.246707
3381.000000	57.347895
3380.000000	57.452024
3379.000000	57.558129
3378.000000	57.664685
3377.000000	57.772477
3376.000000	57.882644
3375.000000	57.993361
3374.000000	58.101071
3373.000000	58.204318
3372.000000	58.304904
3371.000000	58.406755
3370.000000	58.515055
3369.000000	58.634586
3368.000000	58.766366
3367.000000	58.906546
3366.000000	59.049938
3365.000000	59.193200
3364.000000	59.334419
3363.000000	59.472647
3362.000000	59.609668
3361.000000	59.749846
3360.000000	59.895648
3359.000000	60.044980
3358.000000	60.194736
3357.000000	60.344538
3356.000000	60.494754
3355.000000	60.643365
3354.000000	60.788110
3353.000000	60.930767
3352.000000	61.076587
3351.000000	61.229839
3350.000000	61.390998
3349.000000	61.556927
3348.000000	61.722233
3347.000000	61.881728
3346.000000	62.034056
3345.000000	62.182466
3344.000000	62.330604
3343.000000	62.478249
3342.000000	62.622109
3341.000000	62.759650
3340.000000	62.890910
3339.000000	63.017454
3338.000000	63.140180
3337.000000	63.257404
3336.000000	63.363735
3335.000000	63.452209
3334.000000	63.518494
3333.000000	63.561136
3332.000000	63.578522
3331.000000	63.566433
3330.000000	63.519867
3329.000000	63.436262
3328.000000	63.314656
3327.000000	63.155087
3326.000000	62.958133
3325.000000	62.722633
3324.000000	62.443894
3323.000000	62.112644
3322.000000	61.719991
3321.000000	61.259850
3320.000000	60.725026
3319.000000	60.106019
3318.000000	59.390002
3317.000000	58.563607
3316.000000	57.611782
3315.000000	56.515471
3314.000000	55.259004
3313.000000	53.833285
3312.000000	52.237577
3311.000000	50.481210
3310.000000	48.584241
3309.000000	46.582002
3308.000000	44.517732
3307.000000	42.433483
3306.000000	40.369431
3305.000000	38.362988
3304.000000	36.445627
3303.000000	34.640749
3302.000000	32.968438
3301.000000	31.450269
3300.000000	30.107885
3299.000000	28.955901
3298.000000	28.005137
3297.000000	27.264847
3296.000000	26.729538
3295.000000	26.373319
3294.000000	26.152383
3293.000000	26.017294
3292.000000	25.921833
3291.000000	25.823666
3290.000000	25.696552
3289.000000	25.536564
3288.000000	25.357402
3287.000000	25.180594
3286.000000	25.026853
3285.000000	24.911285
3284.000000	24.835433
3283.000000	24.785502
3282.000000	24.741359
3281.000000	24.685508
3280.000000	24.602883
3279.000000	24.479278
3278.000000	24.307120
3277.000000	24.090490
3276.000000	23.840993
3275.000000	23.571410
3274.000000	23.297463
3273.000000	23.041578
3272.000000	22.829534
3271.000000	22.683772
3270.000000	22.623194
3269.000000	22.663269
3268.000000	22.810950
3267.000000	23.064258
3266.000000	23.414909
3265.000000	23.850406
3264.000000	24.348259
3263.000000	24.871565
3262.000000	25.376819
3261.000000	25.821423
3260.000000	26.163539
3259.000000	26.363212
3258.000000	26.392348
3257.000000	26.238114
3256.000000	25.901287
3255.000000	25.389046
3254.000000	24.713205
3253.000000	23.894206
3252.000000	22.950117
3251.000000	21.895542
3250.000000	20.748712
3249.000000	19.538267
3248.000000	18.304779
3247.000000	17.094457
3246.000000	15.959917
3245.000000	14.959544
3244.000000	14.147612
3243.000000	13.559478
3242.000000	13.208301
3241.000000	13.079735
3240.000000	13.125499
3239.000000	13.273903
3238.000000	13.450235
3237.000000	13.600218
3236.000000	13.695357
3235.000000	13.728245
3234.000000	13.710145
3233.000000	13.660773
3232.000000	13.594420
3231.000000	13.515611
3230.000000	13.430088
3229.000000	13.354057
3228.000000	13.308508
3227.000000	13.311530
3226.000000	13.379420
3225.000000	13.527954
3224.000000	13.766718
3223.000000	14.093022
3222.000000	14.496561
3221.000000	14.963707
3220.000000	15.472375
3219.000000	15.990872
3218.000000	16.486332
3217.000000	16.933492
3216.000000	17.314620
3215.000000	17.619203
3214.000000	17.848982
3213.000000	18.019450
3212.000000	18.150996
3211.000000	18.261804
3210.000000	18.371216
3209.000000	18.500853
3208.000000	18.667802
3207.000000	18.879686
3206.000000	19.139679
3205.000000	19.450678
3204.000000	19.812015
3203.000000	20.216904
3202.000000	20.657474
3201.000000	21.128884
3200.000000	21.624134
3199.000000	22.131961
3198.000000	22.642089
3197.000000	23.148580
3196.000000	23.645678
3195.000000	24.124909
3194.000000	24.579762
3193.000000	25.008143
3192.000000	25.407540
3191.000000	25.771525
3190.000000	26.095576
3189.000000	26.380791
3188.000000	26.629778
3187.000000	26.844184
3186.000000	27.027519
3185.000000	27.187499
3184.000000	27.330474
3183.000000	27.458125
3182.000000	27.572215
3181.000000	27.676646
3180.000000	27.773850
3179.000000	27.862930
3178.000000	27.945257
3177.000000	28.028143
3176.000000	28.120151
3175.000000	28.227305
3174.000000	28.356008
3173.000000	28.514488
3172.000000	28.707223
3171.000000	28.933568
3170.000000	29.193219
3169.000000	29.489230
3168.000000	29.823347
3167.000000	30.191245
3166.000000	30.587366
3165.000000	31.008603
3164.000000	31.451633
3163.000000	31.911573
3162.000000	32.384631
3161.000000	32.868647
3160.000000	33.356690
3159.000000	33.833864
3158.000000	34.280933
3157.000000	34.677744
3156.000000	35.000194
3155.000000	35.220215
3154.000000	35.313285
3153.000000	35.263886
3152.000000	35.070878
3151.000000	34.751355
3150.000000	34.344518
3149.000000	33.905630
3148.000000	33.484324
3147.000000	33.108098
3146.000000	32.778385
3145.000000	32.474681
3144.000000	32.161241
3143.000000	31.796604
3142.000000	31.349540
3141.000000	30.807780
3140.000000	30.174475
3139.000000	29.464280
3138.000000	28.702591
3137.000000	27.923565
3136.000000	27.160965
3135.000000	26.442610
3134.000000	25.794390
3133.000000	25.242987
3132.000000	24.809036
3131.000000	24.501946
3130.000000	24.325216
3129.000000	24.277785
3128.000000	24.352452
3127.000000	24.534651
3126.000000	24.808543
3125.000000	25.162648
3124.000000	25.582801
3123.000000	26.052197
3122.000000	26.557396
3121.000000	27.090459
3120.000000	27.644224
3119.000000	28.207786
3118.000000	28.772046
3117.000000	29.332025
3116.000000	29.881521
3115.000000	30.410038
3114.000000	30.907676
3113.000000	31.368217
3112.000000	31.785434
3111.000000	32.152667
3110.000000	32.466345
3109.000000	32.727462
3108.000000	32.935013
3107.000000	33.083653
3106.000000	33.171390
3105.000000	33.203025
3104.000000	33.187590
3103.000000	33.135800
3102.000000	33.064076
3101.000000	32.996031
3100.000000	32.955641
3099.000000	32.962010
3098.000000	33.031030
3097.000000	33.176915
3096.000000	33.406099
3095.000000	33.715562
3094.000000	34.097414
3093.000000	34.542718
3092.000000	35.040434
3091.000000	35.575577
3090.000000	36.134327
3089.000000	36.705381
3088.000000	37.276823
3087.000000	37.837188
3086.000000	38.380429
3085.000000	38.906501
3084.000000	39.414384
3083.000000	39.899313
3082.000000	40.357908
3081.000000	40.791853
3080.000000	41.203985
3079.000000	41.595289
3078.000000	41.967734
3077.000000	42.324877
3076.000000	42.668757
3075.000000	42.998798
3074.000000	43.315967
3073.000000	43.624102
3072.000000	43.924613
3071.000000	44.214843
3070.000000	44.492979
3069.000000	44.761528
3068.000000	45.024208
3067.000000	45.282205
3066.000000	45.535836
3065.000000	45.786145
3064.000000	46.032946
3063.000000	46.274200
3062.000000	46.508495
3061.000000	46.736066
3060.000000	46.956380
3059.000000	47.167875
3058.000000	47.371441
3057.000000	47.570609
3056.000000	47.767358
3055.000000	47.960245
3054.000000	48.147597
3053.000000	48.329918
3052.000000	48.507674
3051.000000	48.679848
3050.000000	48.845514
3049.000000	49.004194
3048.000000	49.154575
3047.000000	49.295502
3046.000000	49.429253
3045.000000	49.560713
3044.000000	49.692459
3043.000000	49.823719
3042.000000	49.954053
3041.000000	50.084606
3040.000000	50.214826
3039.000000	50.341599
3038.000000	50.463530
3037.000000	50.583251
3036.000000	50.704582
3035.000000	50.829897
3034.000000	50.960597
3033.000000	51.096895
3032.000000	51.235919
3031.000000	51.373123
3030.000000	51.506733
3029.000000	51.638407
3028.000000	51.769466
3027.000000	51.899839
3026.000000	52.031125
3025.000000	52.166714
3024.000000	52.307353
3023.000000	52.449655
3022.000000	52.590289
3021.000000	52.728961
3020.000000	52.866357
3019.000000	53.002030
3018.000000	53.135647
3017.000000	53.267835
3016.000000	53.398511
3015.000000	53.526371
3014.000000	53.650505
3013.000000	53.770343
3012.000000	53.883513
3011.000000	53.985448
3010.000000	54.071869
3009.000000	54.138974
3008.000000	54.181243
3007.000000	54.191740
3006.000000	54.164183
3005.000000	54.094317
3004.000000	53.978445
3003.000000	53.814176
3002.000000	53.603115
3001.000000	53.348092
3000.000000	53.046848
2999.000000	52.688033
2998.000000	52.259604
2997.000000	51.768030
2996.000000	51.257782
2995.000000	50.812903
2994.000000	50.525871
2993.000000	50.448681
2992.000000	50.561605
2991.000000	50.790481
2990.000000	51.052935
2989.000000	51.292764
2988.000000	51.484864
2987.000000	51.624590
2986.000000	51.720621
2985.000000	51.788621
2984.000000	51.844757
2983.000000	51.902462
2982.000000	51.973393
2981.000000	52.065504
2980.000000	52.176679
2979.000000	52.293482
2978.000000	52.400569
2977.000000	52.493620
2976.000000	52.586854
2975.000000	52.710644
2974.000000	52.897277
2973.000000	53.159455
2972.000000	53.477282
2971.000000	53.807296
2970.000000	54.103715
2969.000000	54.332621
2968.000000	54.471165
2967.000000	54.504680
2966.000000	54.427161
2965.000000	54.239674
2964.000000	53.946906
2963.000000	53.554503
2962.000000	53.072160
2961.000000	52.511110
2960.000000	51.875318
2959.000000	51.156342
2958.000000	50.341315
2957.000000	49.437410
2956.000000	48.498221
2955.000000	47.633431
2954.000000	46.974465
2953.000000	46.605036
2952.000000	46.507303
2951.000000	46.576669
2950.000000	46.695892
2949.000000	46.799572
2948.000000	46.889055
2947.000000	47.004113
2946.000000	47.185168
2945.000000	47.443096
2944.000000	47.747907
2943.000000	48.047570
2942.000000	48.303460
2941.000000	48.515362
2940.000000	48.718715
2939.000000	48.964480
2938.000000	49.298422
2937.000000	49.744675
2936.000000	50.297337
2935.000000	50.926765
2934.000000	51.595897
2933.000000	52.271803
2932.000000	52.927158
2931.000000	53.541510
2930.000000	54.104774
2929.000000	54.615679
2928.000000	55.075378
2927.000000	55.484998
2926.000000	55.849415
2925.000000	56.176561
2924.000000	56.471632
2923.000000	56.735439
2922.000000	56.969251
2921.000000	57.176654
2920.000000	57.359484
2919.000000	57.517401
2918.000000	57.651979
2917.000000	57.767738
2916.000000	57.868164
2915.000000	57.954384
2914.000000	58.028765
2913.000000	58.095340
2912.000000	58.156269
2911.000000	58.211366
2910.000000	58.261624
2909.000000	58.309727
2908.000000	58.356412
2907.000000	58.400335
2906.000000	58.441921
2905.000000	58.483896
2904.000000	58.527218
2903.000000	58.570636
2902.000000	58.614336
2901.000000	58.660044
2900.000000	58.707220
2899.000000	58.751609
2898.000000	58.788651
2897.000000	58.814181
2896.000000	58.822181
2895.000000	58.806176
2894.000000	58.764069
2893.000000	58.698388
2892.000000	58.610882
2891.000000	58.500675
2890.000000	58.368143
2889.000000	58.216956
2888.000000	58.051492
2887.000000	57.876359
2886.000000	57.699583
2885.000000	57.532149
2884.000000	57.383297
2883.000000	57.258609
2882.000000	57.163279
2881.000000	57.103045
2880.000000	57.080120
2879.000000	57.091993
2878.000000	57.134900
2877.000000	57.205326
2876.000000	57.297718
2875.000000	57.405119
2874.000000	57.523245
2873.000000	57.650594
2872.000000	57.783753
2871.000000	57.916436
2870.000000	58.045089
2869.000000	58.172244
2868.000000	58.303762
2867.000000	58.445413
2866.000000	58.601788
2865.000000	58.774002
2864.000000	58.956787
2863.000000	59.141231
2862.000000	59.321428
2861.000000	59.496093
2860.000000	59.664449
2859.000000	59.824818
2858.000000	59.977809
2857.000000	60.126756
2856.000000	60.273802
2855.000000	60.418876
2854.000000	60.562584
2853.000000	60.706014
2852.000000	60.846884
2851.000000	60.979510
2850.000000	61.099593
2849.000000	61.206242
2848.000000	61.299595
2847.000000	61.380604
2846.000000	61.453803
2845.000000	61.526259
2844.000000	61.602574
2843.000000	61.683480
2842.000000	61.769598
2841.000000	61.863336
2840.000000	61.966211
2839.000000	62.077487
2838.000000	62.196180
2837.000000	62.321546
2836.000000	62.451197
2835.000000	62.581713
2834.000000	62.711570
2833.000000	62.840793
2832.000000	62.967720
2831.000000	63.089093
2830.000000	63.203765
2829.000000	63.313275
2828.000000	63.418311
2827.000000	63.517766
2826.000000	63.611741
2825.000000	63.702358
2824.000000	63.790848
2823.000000	63.876350
2822.000000	63.958185
2821.000000	64.036668
2820.000000	64.111053
2819.000000	64.179459
2818.000000	64.241526
2817.000000	64.298938
2816.000000	64.353054
2815.000000	64.404323
2814.000000	64.454204
2813.000000	64.505099
2812.000000	64.557940
2811.000000	64.612064
2810.000000	64.667386
2809.000000	64.724222
2808.000000	64.781245
2807.000000	64.836476
2806.000000	64.890378
2805.000000	64.945258
2804.000000	65.001576
2803.000000	65.057694
2802.000000	65.113212
2801.000000	65.169488
2800.000000	65.226680
2799.000000	65.283213
2798.000000	65.338457
2797.000000	65.393038
2796.000000	65.446285
2795.000000	65.496430
2794.000000	65.543799
2793.000000	65.590914
2792.000000	65.638879
2791.000000	65.686221
2790.000000	65.731614
2789.000000	65.775023
2788.000000	65.815954
2787.000000	65.853537
2786.000000	65.889028
2785.000000	65.925710
2784.000000	65.965776
2783.000000	66.009622
2782.000000	66.058119
2781.000000	66.112508
2780.000000	66.171598
2779.000000	66.231907
2778.000000	66.291184
2777.000000	66.349514
2776.000000	66.406775
2775.000000	66.461756
2774.000000	66.514230
2773.000000	66.565155
2772.000000	66.614180
2771.000000	66.659474
2770.000000	66.700418
2769.000000	66.738098
2768.000000	66.772961
2767.000000	66.804448
2766.000000	66.833341
2765.000000	66.861939
2764.000000	66.891345
2763.000000	66.920824
2762.000000	66.949885
2761.000000	66.978502
2760.000000	67.005116
2759.000000	67.027084
2758.000000	67.043683
2757.000000	67.056293
2756.000000	67.065467
2755.000000	67.070291
2754.000000	67.070762
2753.000000	67.068251
2752.000000	67.063035
2751.000000	67.053929
2750.000000	67.041015
2749.000000	67.026554
2748.000000	67.013139
2747.000000	67.003461
2746.000000	67.001949
2745.000000	67.013817
2744.000000	67.041635
2743.000000	67.084210
2742.000000	67.138617
2741.000000	67.200937
2740.000000	67.265266
2739.000000	67.325537
2738.000000	67.379136
2737.000000	67.427004
2736.000000	67.470773
2735.000000	67.512202
2734.000000	67.554840
2733.000000	67.602520
2732.000000	67.655246
2731.000000	67.709008
2730.000000	67.760037
2729.000000	67.806798
2728.000000	67.848085
2727.000000	67.882547
2726.000000	67.910969
2725.000000	67.936447
2724.000000	67.961194
2723.000000	67.985195
2722.000000	68.008129
2721.000000	68.030037
2720.000000	68.049923
2719.000000	68.066360
2718.000000	68.080381
2717.000000	68.095821
2716.000000	68.116272
2715.000000	68.143448
2714.000000	68.178227
2713.000000	68.220422
2712.000000	68.266947
2711.000000	68.312775
2710.000000	68.354462
2709.000000	68.391241
2708.000000	68.423105
2707.000000	68.450340
2706.000000	68.474993
2705.000000	68.500164
2704.000000	68.527219
2703.000000	68.555630
2702.000000	68.585373
2701.000000	68.616902
2700.000000	68.648865
2699.000000	68.678609
2698.000000	68.705400
2697.000000	68.730896
2696.000000	68.756149
2695.000000	68.780584
2694.000000	68.804034
2693.000000	68.827245
2692.000000	68.849886
2691.000000	68.870246
2690.000000	68.887363
2689.000000	68.901532
2688.000000	68.912816
2687.000000	68.921475
2686.000000	68.929772
2685.000000	68.940800
2684.000000	68.955119
2683.000000	68.970627
2682.000000	68.985687
2681.000000	68.999901
2680.000000	69.012077
2679.000000	69.020491
2678.000000	69.025893
2677.000000	69.031813
2676.000000	69.041465
2675.000000	69.056314
2674.000000	69.077514
2673.000000	69.106034
2672.000000	69.140700
2671.000000	69.178758
2670.000000	69.219028
2669.000000	69.262466
2668.000000	69.309755
2667.000000	69.360430
2666.000000	69.414586
2665.000000	69.472899
2664.000000	69.534235
2663.000000	69.595545
2662.000000	69.654414
2661.000000	69.709825
2660.000000	69.760641
2659.000000	69.805875
2658.000000	69.846845
2657.000000	69.886887
2656.000000	69.928262
2655.000000	69.970903
2654.000000	70.014062
2653.000000	70.056623
2652.000000	70.095823
2651.000000	70.127974
2650.000000	70.151169
2649.000000	70.166144
2648.000000	70.174613
2647.000000	70.178854
2646.000000	70.182636
2645.000000	70.189890
2644.000000	70.202002
2643.000000	70.217923
2642.000000	70.236751
2641.000000	70.258496
2640.000000	70.282859
2639.000000	70.309636
2638.000000	70.340435
2637.000000	70.377572
2636.000000	70.421025
2635.000000	70.468378
2634.000000	70.517196
2633.000000	70.565508
2632.000000	70.610662
2631.000000	70.650514
2630.000000	70.686189
2629.000000	70.721525
2628.000000	70.759868
2627.000000	70.803031
2626.000000	70.852254
2625.000000	70.907052
2624.000000	70.963109
2623.000000	71.014076
2622.000000	71.056133
2621.000000	71.089310
2620.000000	71.114957
2619.000000	71.134699
2618.000000	71.151482
2617.000000	71.168483
2616.000000	71.186382
2615.000000	71.203320
2614.000000	71.217731
2613.000000	71.229128
2612.000000	71.236396
2611.000000	71.238343
2610.000000	71.236193
2609.000000	71.233388
2608.000000	71.232571
2607.000000	71.234428
2606.000000	71.239159
2605.000000	71.246405
2604.000000	71.253780
2603.000000	71.258108
2602.000000	71.258658
2601.000000	71.257330
2600.000000	71.255878
2599.000000	71.255143
2598.000000	71.256680
2597.000000	71.262252
2596.000000	71.271218
2595.000000	71.280632
2594.000000	71.288189
2593.000000	71.293119
2592.000000	71.294438
2591.000000	71.291036
2590.000000	71.283808
2589.000000	71.275464
2588.000000	71.267948
2587.000000	71.261924
2586.000000	71.258525
2585.000000	71.259094
2584.000000	71.263083
2583.000000	71.268598
2582.000000	71.275436
2581.000000	71.285397
2580.000000	71.299718
2579.000000	71.318534
2578.000000	71.342456
2577.000000	71.372384
2576.000000	71.407349
2575.000000	71.444980
2574.000000	71.484411
2573.000000	71.526236
2572.000000	71.569919
2571.000000	71.613507
2570.000000	71.656081
2569.000000	71.698308
2568.000000	71.740288
2567.000000	71.781241
2566.000000	71.821479
2565.000000	71.862552
2564.000000	71.905333
2563.000000	71.949864
2562.000000	71.997011
2561.000000	72.048017
2560.000000	72.102298
2559.000000	72.157762
2558.000000	72.213168
2557.000000	72.268357
2556.000000	72.322640
2555.000000	72.375272
2554.000000	72.427325
2553.000000	72.480593
2552.000000	72.534639
2551.000000	72.587106
2550.000000	72.636798
2549.000000	72.684101
2548.000000	72.728687
2547.000000	72.769258
2546.000000	72.805699
2545.000000	72.839440
2544.000000	72.871477
2543.000000	72.902238
2542.000000	72.933105
2541.000000	72.965546
2540.000000	72.998748
2539.000000	73.030129
2538.000000	73.058325
2537.000000	73.083662
2536.000000	73.105946
2535.000000	73.124514
2534.000000	73.140447
2533.000000	73.156433
2532.000000	73.174107
2531.000000	73.193449
2530.000000	73.214718
2529.000000	73.238397
2528.000000	73.263070
2527.000000	73.285735
2526.000000	73.304715
2525.000000	73.320503
2524.000000	73.333645
2523.000000	73.343874
2522.000000	73.351482
2521.000000	73.357183
2520.000000	73.360388
2519.000000	73.359179
2518.000000	73.352156
2517.000000	73.338903
2516.000000	73.318534
2515.000000	73.290339
2514.000000	73.255701
2513.000000	73.217568
2512.000000	73.178286
2511.000000	73.139324
2510.000000	73.102816
2509.000000	73.070845
2508.000000	73.043228
2507.000000	73.018141
2506.000000	72.994930
2505.000000	72.974228
2504.000000	72.955822
2503.000000	72.938962
2502.000000	72.924453
2501.000000	72.914326
2500.000000	72.909272
2499.000000	72.908653
2498.000000	72.913114
2497.000000	72.924264
2496.000000	72.942383
2495.000000	72.966621
2494.000000	72.997249
2493.000000	73.035314
2492.000000	73.079441
2491.000000	73.126009
2490.000000	73.172517
2489.000000	73.218630
2488.000000	73.264302
2487.000000	73.309244
2486.000000	73.354775
2485.000000	73.403614
2484.000000	73.457171
2483.000000	73.514968
2482.000000	73.576327
2481.000000	73.640488
2480.000000	73.705130
2479.000000	73.767239
2478.000000	73.825908
2477.000000	73.882254
2476.000000	73.936726
2475.000000	73.988452
2474.000000	74.037286
2473.000000	74.083943
2472.000000	74.128070
2471.000000	74.168114
2470.000000	74.203223
2469.000000	74.233745
2468.000000	74.259652
2467.000000	74.280769
2466.000000	74.298357
2465.000000	74.314100
2464.000000	74.327616
2463.000000	74.336287
2462.000000	74.337790
2461.000000	74.331172
2460.000000	74.315922
2459.000000	74.292987
2458.000000	74.266427
2457.000000	74.242048
2456.000000	74.223739
2455.000000	74.212358
2454.000000	74.207530
2453.000000	74.208026
2452.000000	74.210865
2451.000000	74.212833
2450.000000	74.213879
2449.000000	74.217060
2448.000000	74.225576
2447.000000	74.241471
2446.000000	74.266344
2445.000000	74.300623
2444.000000	74.341344
2443.000000	74.383207
2442.000000	74.422347
2441.000000	74.457650
2440.000000	74.489400
2439.000000	74.518939
2438.000000	74.549786
2437.000000	74.586250
2436.000000	74.629967
2435.000000	74.679132
2434.000000	74.730624
2433.000000	74.781108
2432.000000	74.826749
2431.000000	74.864656
2430.000000	74.895082
2429.000000	74.920622
2428.000000	74.943257
2427.000000	74.963551
2426.000000	74.982174
2425.000000	74.999370
2424.000000	75.013313
2423.000000	75.021298
2422.000000	75.022687
2421.000000	75.019392
2420.000000	75.013752
2419.000000	75.008196
2418.000000	75.006236
2417.000000	75.011001
2416.000000	75.022478
2415.000000	75.038091
2414.000000	75.055736
2413.000000	75.074109
2412.000000	75.090832
2411.000000	75.103184
2410.000000	75.111007
2409.000000	75.116435
2408.000000	75.120672
2407.000000	75.123126
2406.000000	75.123668
2405.000000	75.123096
2404.000000	75.121192
2403.000000	75.116881
2402.000000	75.110364
2401.000000	75.102930
2400.000000	75.094105
2399.000000	75.080838
2398.000000	75.059834
2397.000000	75.027912
2396.000000	74.980908
2395.000000	74.914667
2394.000000	74.827871
2393.000000	74.723247
2392.000000	74.604628
2391.000000	74.476908
2390.000000	74.344420
2389.000000	74.214924
2388.000000	74.087286
2387.000000	73.972802
2386.000000	73.852525
2385.000000	73.680863
2384.000000	73.541143
2383.000000	73.420129
2382.000000	73.254451
2381.000000	73.200794
2380.000000	73.715517
2379.000000	73.713697
2378.000000	73.785650
2377.000000	73.828194
2376.000000	73.880038
2375.000000	73.908216
2374.000000	73.926915
2373.000000	73.936177
2372.000000	73.938944
2371.000000	73.933792
2370.000000	73.927682
2369.000000	73.926373
2368.000000	73.923539
2367.000000	73.922664
2366.000000	73.933421
2365.000000	73.948500
2364.000000	73.967802
2363.000000	73.983818
2362.000000	73.993163
2361.000000	74.011600
2360.000000	74.025357
2359.000000	74.031669
2358.000000	74.021155
2357.000000	73.982239
2356.000000	73.919654
2355.000000	73.873474
2354.000000	73.942732
2353.000000	74.128476
2352.000000	74.328825
2351.000000	74.434715
2350.000000	74.414954
2349.000000	74.363016
2348.000000	74.337208
2347.000000	74.358053
2346.000000	74.392389
2345.000000	74.419714
2344.000000	74.463497
2343.000000	74.502076
2342.000000	74.531428
2341.000000	74.539794
2340.000000	74.540023
2339.000000	74.540931
2338.000000	74.563638
2337.000000	74.607682
2336.000000	74.670260
2335.000000	74.725056
2334.000000	74.787166
2333.000000	74.849054
2332.000000	74.915635
2331.000000	74.997424
2330.000000	75.074455
2329.000000	75.154666
2328.000000	75.203707
2327.000000	75.236479
2326.000000	75.254861
2325.000000	75.260547
2324.000000	75.255151
2323.000000	75.223979
2322.000000	75.186463
2321.000000	75.140287
2320.000000	75.098001
2319.000000	75.046275
2318.000000	74.985567
2317.000000	74.909627
2316.000000	74.818240
2315.000000	74.710356
2314.000000	74.586562
2313.000000	74.453169
2312.000000	74.308313
2311.000000	74.155955
2310.000000	73.995096
2309.000000	73.833872
2308.000000	73.672704
2307.000000	73.513548
2306.000000	73.355877
2305.000000	73.200400
2304.000000	73.048514
2303.000000	72.904050
2302.000000	72.773293
2301.000000	72.665030
2300.000000	72.581919
2299.000000	72.525915
2298.000000	72.491860
2297.000000	72.477806
2296.000000	72.472727
2295.000000	72.470574
2294.000000	72.464097
2293.000000	72.453754
2292.000000	72.437096
2291.000000	72.414330
2290.000000	72.386126
2289.000000	72.354908
2288.000000	72.320431
2287.000000	72.280743
2286.000000	72.234878
2285.000000	72.181960
2284.000000	72.121689
2283.000000	72.054711
2282.000000	71.987756
2281.000000	71.929728
2280.000000	71.889574
2279.000000	71.871938
2278.000000	71.880167
2277.000000	71.914499
2276.000000	71.970662
2275.000000	72.044048
2274.000000	72.132798
2273.000000	72.237771
2272.000000	72.357148
2271.000000	72.486934
2270.000000	72.624653
2269.000000	72.768756
2268.000000	72.916098
2267.000000	73.063004
2266.000000	73.206860
2265.000000	73.346833
2264.000000	73.479507
2263.000000	73.601786
2262.000000	73.714158
2261.000000	73.819767
2260.000000	73.922244
2259.000000	74.023789
2258.000000	74.128601
2257.000000	74.239970
2256.000000	74.358956
2255.000000	74.484685
2254.000000	74.617311
2253.000000	74.757135
2252.000000	74.901627
2251.000000	75.047753
2250.000000	75.194833
2249.000000	75.344191
2248.000000	75.495543
2247.000000	75.647160
2246.000000	75.797578
2245.000000	75.945251
2244.000000	76.086476
2243.000000	76.217430
2242.000000	76.337267
2241.000000	76.447651
2240.000000	76.549868
2239.000000	76.644936
2238.000000	76.735414
2237.000000	76.823546
2236.000000	76.908324
2235.000000	76.986061
2234.000000	77.054020
2233.000000	77.111117
2232.000000	77.156468
2231.000000	77.190174
2230.000000	77.215323
2229.000000	77.236713
2228.000000	77.257465
2227.000000	77.278158
2226.000000	77.298488
2225.000000	77.317290
2224.000000	77.331657
2223.000000	77.338802
2222.000000	77.338722
2221.000000	77.333899
2220.000000	77.326997
2219.000000	77.321037
2218.000000	77.320312
2217.000000	77.328223
2216.000000	77.344147
2215.000000	77.364442
2214.000000	77.386032
2213.000000	77.407126
2212.000000	77.425890
2211.000000	77.441334
2210.000000	77.455468
2209.000000	77.472272
2208.000000	77.494560
2207.000000	77.523164
2206.000000	77.557689
2205.000000	77.595569
2204.000000	77.631250
2203.000000	77.659246
2202.000000	77.678322
2201.000000	77.691709
2200.000000	77.704632
2199.000000	77.723809
2198.000000	77.757184
2197.000000	77.810271
2196.000000	77.882015
2195.000000	77.965919
2194.000000	78.054506
2193.000000	78.141143
2192.000000	78.219879
2191.000000	78.287127
2190.000000	78.343658
2189.000000	78.392583
2188.000000	78.435741
2187.000000	78.473818
2186.000000	78.508503
2185.000000	78.541656
2184.000000	78.572600
2183.000000	78.598762
2182.000000	78.618655
2181.000000	78.632360
2180.000000	78.639973
2179.000000	78.642083
2178.000000	78.641374
2177.000000	78.641223
2176.000000	78.642827
2175.000000	78.645465
2174.000000	78.648757
2173.000000	78.652490
2172.000000	78.655020
2171.000000	78.654658
2170.000000	78.652382
2169.000000	78.651214
2168.000000	78.653291
2167.000000	78.659452
2166.000000	78.670703
2165.000000	78.687316
2164.000000	78.706821
2163.000000	78.725390
2162.000000	78.741191
2161.000000	78.754750
2160.000000	78.766925
2159.000000	78.778804
2158.000000	78.792886
2157.000000	78.811805
2156.000000	78.835974
2155.000000	78.864164
2154.000000	78.895516
2153.000000	78.928952
2152.000000	78.961713
2151.000000	78.991231
2150.000000	79.018194
2149.000000	79.045731
2148.000000	79.075939
2147.000000	79.109196
2146.000000	79.145693
2145.000000	79.185028
2144.000000	79.224863
2143.000000	79.262351
2142.000000	79.296358
2141.000000	79.326870
2140.000000	79.353223
2139.000000	79.375004
2138.000000	79.393765
2137.000000	79.411710
2136.000000	79.429382
2135.000000	79.446429
2134.000000	79.463605
2133.000000	79.481719
2132.000000	79.499579
2131.000000	79.515191
2130.000000	79.528386
2129.000000	79.540106
2128.000000	79.549808
2127.000000	79.555602
2126.000000	79.556182
2125.000000	79.550272
2124.000000	79.535209
2123.000000	79.508640
2122.000000	79.471401
2121.000000	79.427025
2120.000000	79.379336
2119.000000	79.332169
2118.000000	79.290027
2117.000000	79.255914
2116.000000	79.228600
2115.000000	79.204181
2114.000000	79.179839
2113.000000	79.154665
2112.000000	79.128352
2111.000000	79.101720
2110.000000	79.077791
2109.000000	79.059763
2108.000000	79.048240
2107.000000	79.042267
2106.000000	79.041928
2105.000000	79.047584
2104.000000	79.057743
2103.000000	79.070119
2102.000000	79.084294
2101.000000	79.100722
2100.000000	79.118375
2099.000000	79.135946
2098.000000	79.154344
2097.000000	79.175922
2096.000000	79.201362
2095.000000	79.230484
2094.000000	79.265050
2093.000000	79.307527
2092.000000	79.357813
2091.000000	79.413781
2090.000000	79.474431
2089.000000	79.540234
2088.000000	79.611052
2087.000000	79.686117
2086.000000	79.765251
2085.000000	79.847844
2084.000000	79.931336
2083.000000	80.012872
2082.000000	80.091802
2081.000000	80.168916
2080.000000	80.244173
2079.000000	80.317079
2078.000000	80.387939
2077.000000	80.456853
2076.000000	80.522007
2075.000000	80.581648
2074.000000	80.636484
2073.000000	80.688161
2072.000000	80.737547
2071.000000	80.784955
2070.000000	80.831931
2069.000000	80.880482
2068.000000	80.930605
2067.000000	80.979569
2066.000000	81.023296
2065.000000	81.058672
2064.000000	81.085764
2063.000000	81.109038
2062.000000	81.134779
2061.000000	81.166195
2060.000000	81.202022
2059.000000	81.240189
2058.000000	81.280384
2057.000000	81.321677
2056.000000	81.360680
2055.000000	81.394546
2054.000000	81.424039
2053.000000	81.451661
2052.000000	81.479359
2051.000000	81.508888
2050.000000	81.542766
2049.000000	81.582612
2048.000000	81.626853
2047.000000	81.671468
2046.000000	81.713681
2045.000000	81.753088
2044.000000	81.789441
2043.000000	81.821711
2042.000000	81.849777
2041.000000	81.875387
2040.000000	81.901146
2039.000000	81.929517
2038.000000	81.961804
2037.000000	81.996598
2036.000000	82.029996
2035.000000	82.059107
2034.000000	82.084926
2033.000000	82.110502
2032.000000	82.137969
2031.000000	82.169378
2030.000000	82.207915
2029.000000	82.255269
2028.000000	82.308786
2027.000000	82.362455
2026.000000	82.411389
2025.000000	82.452218
2024.000000	82.482744
2023.000000	82.501955
2022.000000	82.512607
2021.000000	82.521205
2020.000000	82.533357
2019.000000	82.549924
2018.000000	82.567763
2017.000000	82.583120
2016.000000	82.594295
2015.000000	82.602525
2014.000000	82.610156
2013.000000	82.617475
2012.000000	82.622478
2011.000000	82.624584
2010.000000	82.627088
2009.000000	82.633527
2008.000000	82.643275
2007.000000	82.653055
2006.000000	82.661534
2005.000000	82.668258
2004.000000	82.672062
2003.000000	82.672050
2002.000000	82.670787
2001.000000	82.673298
2000.000000	82.682400
1999.000000	82.700576
1998.000000	82.728381
1997.000000	82.763968
1996.000000	82.805297
1995.000000	82.850757
1994.000000	82.894911
1993.000000	82.927388
1992.000000	82.941041
1991.000000	82.941820
1990.000000	82.944962
1989.000000	82.959826
1988.000000	82.983190
1987.000000	83.007075
1986.000000	83.028129
1985.000000	83.046602
1984.000000	83.061345
1983.000000	83.071293
1982.000000	83.080073
1981.000000	83.094645
1980.000000	83.118959
1979.000000	83.153926
1978.000000	83.196466
1977.000000	83.241232
1976.000000	83.283110
1975.000000	83.319736
1974.000000	83.351225
1973.000000	83.379371
1972.000000	83.408314
1971.000000	83.444220
1970.000000	83.491486
1969.000000	83.548112
1968.000000	83.605214
1967.000000	83.652183
1966.000000	83.684513
1965.000000	83.706089
1964.000000	83.723040
1963.000000	83.737232
1962.000000	83.748072
1961.000000	83.758350
1960.000000	83.774904
1959.000000	83.801745
1958.000000	83.834227
1957.000000	83.861706
1956.000000	83.874606
1955.000000	83.868838
1954.000000	83.846415
1953.000000	83.814017
1952.000000	83.780608
1951.000000	83.752326
1950.000000	83.733520
1949.000000	83.724689
1948.000000	83.719964
1947.000000	83.713056
1946.000000	83.703955
1945.000000	83.696275
1944.000000	83.688867
1943.000000	83.676002
1942.000000	83.659727
1941.000000	83.655332
1940.000000	83.679210
1939.000000	83.732740
1938.000000	83.802069
1937.000000	83.872129
1936.000000	83.937133
1935.000000	83.997723
1934.000000	84.053629
1933.000000	84.104658
1932.000000	84.154305
1931.000000	84.205373
1930.000000	84.259691
1929.000000	84.313280
1928.000000	84.357992
1927.000000	84.392198
1926.000000	84.420421
1925.000000	84.448827
1924.000000	84.470120
1923.000000	84.475117
1922.000000	84.473252
1921.000000	84.485830
1920.000000	84.518907
1919.000000	84.554534
1918.000000	84.570542
1917.000000	84.566035
1916.000000	84.555946
1915.000000	84.550238
1914.000000	84.546988
1913.000000	84.543034
1912.000000	84.540447
1911.000000	84.541378
1910.000000	84.543928
1909.000000	84.540336
1908.000000	84.524923
1907.000000	84.500601
1906.000000	84.471415
1905.000000	84.440934
1904.000000	84.405074
1903.000000	84.362081
1902.000000	84.319106
1901.000000	84.279500
1900.000000	84.239274
1899.000000	84.199115
1898.000000	84.165824
1897.000000	84.144428
1896.000000	84.127216
1895.000000	84.105803
1894.000000	84.088852
1893.000000	84.093119
1892.000000	84.122111
1891.000000	84.163221
1890.000000	84.200838
1889.000000	84.228645
1888.000000	84.251600
1887.000000	84.279419
1886.000000	84.316090
1885.000000	84.354332
1884.000000	84.383734
1883.000000	84.404803
1882.000000	84.428882
1881.000000	84.458902
1880.000000	84.486452
1879.000000	84.507169
1878.000000	84.523731
1877.000000	84.539584
1876.000000	84.552891
1875.000000	84.559984
1874.000000	84.567082
1873.000000	84.587672
1872.000000	84.627185
1871.000000	84.679730
1870.000000	84.733989
1869.000000	84.778550
1868.000000	84.808297
1867.000000	84.832449
1866.000000	84.866426
1865.000000	84.912193
1864.000000	84.958482
1863.000000	84.999266
1862.000000	85.042838
1861.000000	85.097919
1860.000000	85.161609
1859.000000	85.229493
1858.000000	85.305008
1857.000000	85.388969
1856.000000	85.471752
1855.000000	85.545026
1854.000000	85.611158
1853.000000	85.672324
1852.000000	85.726047
1851.000000	85.780886
1850.000000	85.842122
1849.000000	85.905715
1848.000000	85.966634
1847.000000	86.028365
1846.000000	86.092692
1845.000000	86.143643
1844.000000	86.164087
1843.000000	86.167750
1842.000000	86.187243
1841.000000	86.228119
1840.000000	86.272672
1839.000000	86.308946
1838.000000	86.339517
1837.000000	86.374080
1836.000000	86.410698
1835.000000	86.446182
1834.000000	86.488274
1833.000000	86.546009
1832.000000	86.619716
1831.000000	86.696724
1830.000000	86.754307
1829.000000	86.794617
1828.000000	86.847512
1827.000000	86.926115
1826.000000	87.007731
1825.000000	87.064182
1824.000000	87.095604
1823.000000	87.125545
1822.000000	87.170588
1821.000000	87.229949
1820.000000	87.297850
1819.000000	87.368263
1818.000000	87.435924
1817.000000	87.498958
1816.000000	87.551259
1815.000000	87.592314
1814.000000	87.632983
1813.000000	87.680327
1812.000000	87.728929
1811.000000	87.762841
1810.000000	87.785495
1809.000000	87.817005
1808.000000	87.858060
1807.000000	87.895806
1806.000000	87.932172
1805.000000	87.981018
1804.000000	88.043365
1803.000000	88.107392
1802.000000	88.163995
1801.000000	88.207609
1800.000000	88.240527
1799.000000	88.267348
1798.000000	88.299622
1797.000000	88.341594
1796.000000	88.382131
1795.000000	88.414879
1794.000000	88.446380
1793.000000	88.478169
1792.000000	88.500493
1791.000000	88.505447
1790.000000	88.508323
1789.000000	88.525575
1788.000000	88.556072
1787.000000	88.591857
1786.000000	88.630122
1785.000000	88.668489
1784.000000	88.700188
1783.000000	88.731098
1782.000000	88.772210
1781.000000	88.813012
1780.000000	88.847533
1779.000000	88.880313
1778.000000	88.924029
1777.000000	88.979114
1776.000000	89.037007
1775.000000	89.100933
1774.000000	89.170912
1773.000000	89.233648
1772.000000	89.287744
1771.000000	89.350946
1770.000000	89.433947
1769.000000	89.527990
1768.000000	89.610815
1767.000000	89.665699
1766.000000	89.707104
1765.000000	89.764101
1764.000000	89.847263
1763.000000	89.935528
1762.000000	89.997063
1761.000000	90.032103
1760.000000	90.076146
1759.000000	90.142188
1758.000000	90.214206
1757.000000	90.260751
1756.000000	90.278638
1755.000000	90.296725
1754.000000	90.328625
1753.000000	90.367839
1752.000000	90.409346
1751.000000	90.448874
1750.000000	90.473751
1749.000000	90.480055
1748.000000	90.470969
1747.000000	90.460274
1746.000000	90.453745
1745.000000	90.444652
1744.000000	90.431897
1743.000000	90.410010
1742.000000	90.377140
1741.000000	90.343423
1740.000000	90.315727
1739.000000	90.289576
1738.000000	90.274199
1737.000000	90.282509
1736.000000	90.309420
1735.000000	90.327374
1734.000000	90.310052
1733.000000	90.275870
1732.000000	90.270307
1731.000000	90.283147
1730.000000	90.276073
1729.000000	90.232602
1728.000000	90.172040
1727.000000	90.124602
1726.000000	90.090458
1725.000000	90.055062
1724.000000	90.012731
1723.000000	89.960782
1722.000000	89.916132
1721.000000	89.899990
1720.000000	89.909993
1719.000000	89.918102
1718.000000	89.905185
1717.000000	89.893670
1716.000000	89.892104
1715.000000	89.880113
1714.000000	89.858460
1713.000000	89.848407
1712.000000	89.855108
1711.000000	89.875833
1710.000000	89.919892
1709.000000	89.993977
1708.000000	90.093765
1707.000000	90.210112
1706.000000	90.329166
1705.000000	90.437221
1704.000000	90.526009
1703.000000	90.608852
1702.000000	90.710381
1701.000000	90.826115
1700.000000	90.913176
1699.000000	90.965306
1698.000000	91.038903
1697.000000	91.132349
1696.000000	91.190382
1695.000000	91.188739
1694.000000	91.186102
1693.000000	91.218543
1692.000000	91.259488
1691.000000	91.287515
1690.000000	91.304194
1689.000000	91.308234
1688.000000	91.300247
1687.000000	91.295951
1686.000000	91.303578
1685.000000	91.311804
1684.000000	91.301198
1683.000000	91.289997
1682.000000	91.304293
1681.000000	91.301663
1680.000000	91.254865
1679.000000	91.189560
1678.000000	91.133156
1677.000000	91.079627
1676.000000	91.012755
1675.000000	90.938074
1674.000000	90.865585
1673.000000	90.796387
1672.000000	90.733535
1671.000000	90.670626
1670.000000	90.591585
1669.000000	90.474802
1668.000000	90.335250
1667.000000	90.211170
1666.000000	90.099448
1665.000000	89.971945
1664.000000	89.814001
1663.000000	89.634778
1662.000000	89.448977
1661.000000	89.243762
1660.000000	89.015773
1659.000000	88.779072
1658.000000	88.532461
1657.000000	88.267900
1656.000000	87.984426
1655.000000	87.651521
1654.000000	87.132963
1653.000000	86.350254
1652.000000	85.525120
1651.000000	84.879409
1650.000000	84.295688
1649.000000	83.545581
1648.000000	82.431308
1647.000000	80.882537
1646.000000	79.060134
1645.000000	77.220555
1644.000000	75.466131
1643.000000	73.749126
1642.000000	72.031481
1641.000000	70.368617
1640.000000	68.918654
1639.000000	67.814563
1638.000000	67.086641
1637.000000	66.733154
1636.000000	66.803765
1635.000000	67.299129
1634.000000	68.052913
1633.000000	68.917226
1632.000000	69.847400
1631.000000	70.840506
1630.000000	71.883401
1629.000000	72.943621
1628.000000	73.979544
1627.000000	74.944358
1626.000000	75.812605
1625.000000	76.613773
1624.000000	77.413400
1623.000000	78.225298
1622.000000	78.982360
1621.000000	79.631064
1620.000000	80.203881
1619.000000	80.769270
1618.000000	81.374263
1617.000000	82.024204
1616.000000	82.674246
1615.000000	83.259128
1614.000000	83.738556
1613.000000	84.115223
1612.000000	84.417168
1611.000000	84.648238
1610.000000	84.749076
1609.000000	84.636853
1608.000000	84.258158
1607.000000	83.563638
1606.000000	82.462437
1605.000000	80.840581
1604.000000	78.665962
1603.000000	76.017480
1602.000000	73.042042
1601.000000	69.883895
1600.000000	66.555406
1599.000000	62.853886
1598.000000	58.408927
1597.000000	52.969400
1596.000000	46.758196
1595.000000	40.528846
1594.000000	35.176456
1593.000000	31.227575
1592.000000	28.740513
1591.000000	27.521084
1590.000000	27.260652
1589.000000	27.551100
1588.000000	27.997020
1587.000000	28.337331
1586.000000	28.420775
1585.000000	28.205247
1584.000000	27.812676
1583.000000	27.489193
1582.000000	27.411905
1581.000000	27.582570
1580.000000	27.939594
1579.000000	28.463148
1578.000000	29.111778
1577.000000	29.735828
1576.000000	30.165313
1575.000000	30.396008
1574.000000	30.526202
1573.000000	30.599784
1572.000000	30.691688
1571.000000	31.009708
1570.000000	31.777586
1569.000000	32.991083
1568.000000	34.485589
1567.000000	36.203080
1566.000000	38.131029
1565.000000	40.117480
1564.000000	41.935902
1563.000000	43.497502
1562.000000	44.903608
1561.000000	46.353263
1560.000000	48.147532
1559.000000	50.436403
1558.000000	52.717247
1557.000000	54.518231
1556.000000	55.988743
1555.000000	57.399675
1554.000000	58.806496
1553.000000	60.103933
1552.000000	61.242009
1551.000000	62.282879
1550.000000	63.268905
1549.000000	64.162344
1548.000000	64.935398
1547.000000	65.649571
1546.000000	66.374121
1545.000000	67.096662
1544.000000	67.759720
1543.000000	68.359472
1542.000000	68.951177
1541.000000	69.569245
1540.000000	70.167616
1539.000000	70.690130
1538.000000	71.150627
1537.000000	71.579700
1536.000000	71.989333
1535.000000	72.404614
1534.000000	72.835686
1533.000000	73.243044
1532.000000	73.598425
1531.000000	73.925670
1530.000000	74.257676
1529.000000	74.594025
1528.000000	74.905982
1527.000000	75.182357
1526.000000	75.432869
1525.000000	75.663962
1524.000000	75.889228
1523.000000	76.130954
1522.000000	76.387280
1521.000000	76.609392
1520.000000	76.768998
1519.000000	76.904535
1518.000000	77.033121
1517.000000	77.121254
1516.000000	77.150922
1515.000000	77.168538
1514.000000	77.230302
1513.000000	77.343526
1512.000000	77.488401
1511.000000	77.651524
1510.000000	77.835934
1509.000000	78.034382
1508.000000	78.209499
1507.000000	78.310174
1506.000000	78.350095
1505.000000	78.407429
1504.000000	78.525017
1503.000000	78.687425
1502.000000	78.870504
1501.000000	79.054158
1500.000000	79.226972
1499.000000	79.392888
1498.000000	79.563213
1497.000000	79.750299
1496.000000	79.953212
1495.000000	80.171999
1494.000000	80.425325
1493.000000	80.721100
1492.000000	81.049632
1491.000000	81.393909
1490.000000	81.726215
1489.000000	82.014911
1488.000000	82.250516
1487.000000	82.458888
1486.000000	82.684080
1485.000000	82.931271
1484.000000	83.185855
1483.000000	83.459579
1482.000000	83.751187
1481.000000	84.029964
1480.000000	84.273616
1479.000000	84.506070
1478.000000	84.756640
1477.000000	85.017189
1476.000000	85.264638
1475.000000	85.516011
1474.000000	85.809982
1473.000000	86.127313
1472.000000	86.410009
1471.000000	86.631827
1470.000000	86.797181
1469.000000	86.896952
1468.000000	86.916078
1467.000000	86.836028
1466.000000	86.580934
1465.000000	85.996904
1464.000000	84.977097
1463.000000	83.516165
1462.000000	81.605327
1461.000000	79.223612
1460.000000	76.392917
1459.000000	73.130636
1458.000000	69.394374
1457.000000	65.466377
1456.000000	62.132645
1455.000000	59.772622
1454.000000	57.984881
1453.000000	56.332085
1452.000000	54.776107
1451.000000	53.545983
1450.000000	52.855919
1449.000000	52.788229
1448.000000	53.300729
1447.000000	54.217254
1446.000000	55.350316
1445.000000	56.677835
1444.000000	58.307239
1443.000000	60.251743
1442.000000	62.334546
1441.000000	64.318748
1440.000000	66.065031
1439.000000	67.571940
1438.000000	68.934945
1437.000000	70.264068
1436.000000	71.559286
1435.000000	72.738680
1434.000000	73.800335
1433.000000	74.817710
1432.000000	75.817126
1431.000000	76.743006
1430.000000	77.529862
1429.000000	78.172681
1428.000000	78.695677
1427.000000	79.129777
1426.000000	79.522930
1425.000000	79.913452
1424.000000	80.307403
1423.000000	80.678398
1422.000000	81.020902
1421.000000	81.364110
1420.000000	81.717150
1419.000000	82.032056
1418.000000	82.268157
1417.000000	82.465541
1416.000000	82.668807
1415.000000	82.880665
1414.000000	83.102450
1413.000000	83.344526
1412.000000	83.598010
1411.000000	83.823513
1410.000000	83.991766
1409.000000	84.108874
1408.000000	84.172507
1407.000000	84.145852
1406.000000	83.975739
1405.000000	83.600379
1404.000000	82.987807
1403.000000	82.185167
1402.000000	81.307639
1401.000000	80.467761
1400.000000	79.728841
1399.000000	79.107101
1398.000000	78.599549
1397.000000	78.240815
1396.000000	78.139225
1395.000000	78.427498
1394.000000	79.112222
1393.000000	80.021903
1392.000000	80.949928
1391.000000	81.769741
1390.000000	82.442088
1389.000000	82.991045
1388.000000	83.469871
1387.000000	83.919836
1386.000000	84.353390
1385.000000	84.768403
1384.000000	85.161903
1383.000000	85.526318
1382.000000	85.856183
1381.000000	86.156482
1380.000000	86.427456
1379.000000	86.656136
1378.000000	86.827656
1377.000000	86.928981
1376.000000	86.924073
1375.000000	86.737201
1374.000000	86.267668
1373.000000	85.427458
1372.000000	84.144678
1371.000000	82.323992
1370.000000	79.871153
1369.000000	76.839672
1368.000000	73.596795
1367.000000	70.748286
1366.000000	68.804413
1365.000000	67.933014
1364.000000	67.999629
1363.000000	68.756141
1362.000000	70.002172
1361.000000	71.636631
1360.000000	73.576861
1359.000000	75.666551
1358.000000	77.689071
1357.000000	79.456080
1356.000000	80.884070
1355.000000	81.996583
1354.000000	82.873983
1353.000000	83.602922
1352.000000	84.239429
1351.000000	84.802950
1350.000000	85.296750
1349.000000	85.722656
1348.000000	86.088667
1347.000000	86.407053
1346.000000	86.692892
1345.000000	86.962030
1344.000000	87.226537
1343.000000	87.491987
1342.000000	87.758728
1341.000000	88.018478
1340.000000	88.249273
1339.000000	88.428306
1338.000000	88.554923
1337.000000	88.654757
1336.000000	88.757669
1335.000000	88.880795
1334.000000	89.030320
1333.000000	89.203885
1332.000000	89.386833
1331.000000	89.556026
1330.000000	89.692294
1329.000000	89.786772
1328.000000	89.829540
1327.000000	89.798428
1326.000000	89.649994
1325.000000	89.302858
1324.000000	88.639791
1323.000000	87.532864
1322.000000	85.901890
1321.000000	83.783263
1320.000000	81.362909
1319.000000	78.936095
1318.000000	76.774908
1317.000000	75.009388
1316.000000	73.654833
1315.000000	72.745420
1314.000000	72.380501
1313.000000	72.620229
1312.000000	73.356660
1311.000000	74.320302
1310.000000	75.254112
1309.000000	76.078195
1308.000000	76.903268
1307.000000	77.905108
1306.000000	79.168685
1305.000000	80.626150
1304.000000	82.110519
1303.000000	83.452650
1302.000000	84.551320
1301.000000	85.386487
1300.000000	85.982349
1299.000000	86.372950
1298.000000	86.588962
1297.000000	86.646595
1296.000000	86.541107
1295.000000	86.242565
1294.000000	85.706848
1293.000000	84.887595
1292.000000	83.752810
1291.000000	82.335386
1290.000000	80.751261
1289.000000	79.128108
1288.000000	77.478503
1287.000000	75.645237
1286.000000	73.429961
1285.000000	70.823888
1284.000000	68.126572
1283.000000	65.845427
1282.000000	64.457727
1281.000000	64.194721
1280.000000	64.992644
1279.000000	66.567475
1278.000000	68.526145
1277.000000	70.484460
1276.000000	72.112951
1275.000000	73.154694
1274.000000	73.517480
1273.000000	73.414877
1272.000000	73.372450
1271.000000	73.945048
1270.000000	75.336383
1269.000000	77.287147
1268.000000	79.326412
1267.000000	81.111124
1266.000000	82.552346
1265.000000	83.714952
1264.000000	84.680065
1263.000000	85.496291
1262.000000	86.192051
1261.000000	86.789099
1260.000000	87.302794
1259.000000	87.747296
1258.000000	88.145495
1257.000000	88.518243
1256.000000	88.872677
1255.000000	89.207599
1254.000000	89.521663
1253.000000	89.813368
1252.000000	90.076423
1251.000000	90.306866
1250.000000	90.512325
1249.000000	90.706862
1248.000000	90.901280
1247.000000	91.102354
1246.000000	91.315784
1245.000000	91.541513
1244.000000	91.767677
1243.000000	91.977706
1242.000000	92.162813
1241.000000	92.323124
1240.000000	92.461628
1239.000000	92.584533
1238.000000	92.704901
1237.000000	92.835311
1236.000000	92.975982
1235.000000	93.115668
1234.000000	93.239820
1233.000000	93.333429
1232.000000	93.378631
1231.000000	93.358693
1230.000000	93.267993
1229.000000	93.103067
1228.000000	92.848116
1227.000000	92.464763
1226.000000	91.884195
1225.000000	91.009148
1224.000000	89.711239
1223.000000	87.868544
1222.000000	85.423044
1221.000000	82.415983
1220.000000	79.008016
1219.000000	75.443021
1218.000000	71.968500
1217.000000	68.753171
1216.000000	65.854691
1215.000000	63.245807
1214.000000	60.864981
1213.000000	58.666128
1212.000000	56.651211
1211.000000	54.870472
1210.000000	53.369210
1209.000000	52.167821
1208.000000	51.283296
1207.000000	50.732081
1206.000000	50.515582
1205.000000	50.595842
1204.000000	50.917908
1203.000000	51.436962
1202.000000	52.119095
1201.000000	52.964231
1200.000000	54.011994
1199.000000	55.320007
1198.000000	56.920898
1197.000000	58.793914
1196.000000	60.883383
1195.000000	63.110347
1194.000000	65.379492
1193.000000	67.598645
1192.000000	69.699099
1191.000000	71.639615
1190.000000	73.399342
1189.000000	74.973807
1188.000000	76.369079
1187.000000	77.597066
1186.000000	78.661614
1185.000000	79.560755
1184.000000	80.296205
1183.000000	80.871795
1182.000000	81.298548
1181.000000	81.590086
1180.000000	81.764239
1179.000000	81.845855
1178.000000	81.858965
1177.000000	81.824996
1176.000000	81.760681
1175.000000	81.680472
1174.000000	81.599141
1173.000000	81.531619
1172.000000	81.495659
1171.000000	81.512525
1170.000000	81.601843
1169.000000	81.773458
1168.000000	82.022915
1167.000000	82.326765
1166.000000	82.640354
1165.000000	82.905948
1164.000000	83.074289
1163.000000	83.132827
1162.000000	83.120464
1161.000000	83.116227
1160.000000	83.205568
1159.000000	83.441811
1158.000000	83.827430
1157.000000	84.324261
1156.000000	84.881892
1155.000000	85.458697
1154.000000	86.023811
1153.000000	86.551444
1152.000000	87.017606
1151.000000	87.402847
1150.000000	87.697073
1149.000000	87.904196
1148.000000	88.039312
1147.000000	88.123558
1146.000000	88.176329
1145.000000	88.202353
1144.000000	88.189443
1143.000000	88.108296
1142.000000	87.920153
1141.000000	87.589801
1140.000000	87.085965
1139.000000	86.384923
1138.000000	85.450074
1137.000000	84.218142
1136.000000	82.608863
1135.000000	80.523827
1134.000000	77.867516
1133.000000	74.556729
1132.000000	70.556674
1131.000000	65.943084
1130.000000	60.929353
1129.000000	55.864779
1128.000000	51.195639
1127.000000	47.363102
1126.000000	44.651047
1125.000000	43.117205
1124.000000	42.613449
1123.000000	42.839000
1122.000000	43.386547
1121.000000	43.799123
1120.000000	43.678406
1119.000000	42.745202
1118.000000	40.890782
1117.000000	38.306853
1116.000000	35.601789
1115.000000	33.704194
1114.000000	33.441381
1113.000000	35.103143
1112.000000	38.348289
1111.000000	42.427428
1110.000000	46.523792
1109.000000	50.005758
1108.000000	52.518710
1107.000000	53.936541
1106.000000	54.262459
1105.000000	53.609241
1104.000000	52.312029
1103.000000	51.013746
1102.000000	50.484987
1101.000000	51.234453
1100.000000	53.241966
1099.000000	56.041324
1098.000000	59.052994
1097.000000	61.873272
1096.000000	64.327825
1095.000000	66.388444
1094.000000	68.101316
1093.000000	69.552545
1092.000000	70.834128
1091.000000	72.017509
1090.000000	73.153575
1089.000000	74.284426
1088.000000	75.444679
1087.000000	76.642888
1086.000000	77.860542
1085.000000	79.061178
1084.000000	80.196434
1083.000000	81.222249
1082.000000	82.117222
1081.000000	82.890546
1080.000000	83.564209
1079.000000	84.151578
1078.000000	84.661201
1077.000000	85.093926
1076.000000	85.435073
1075.000000	85.655389
1074.000000	85.716737
1073.000000	85.587258
1072.000000	85.222414
1071.000000	84.557936
1070.000000	83.518178
1069.000000	81.997746
1068.000000	79.871467
1067.000000	76.997465
1066.000000	73.265668
1065.000000	68.680160
1064.000000	63.407188
1063.000000	57.798398
1062.000000	52.298746
1061.000000	47.281753
1060.000000	42.902187
1059.000000	39.052011
1058.000000	35.453907
1057.000000	31.905255
1056.000000	28.527234
1055.000000	25.776901
1054.000000	24.253049
1053.000000	24.374267
1052.000000	26.196762
1051.000000	29.416410
1050.000000	33.472217
1049.000000	37.784760
1048.000000	41.922136
1047.000000	45.656935
1046.000000	48.938610
1045.000000	51.816774
1044.000000	54.370232
1043.000000	56.651925
1042.000000	58.676790
1041.000000	60.442029
1040.000000	61.964410
1039.000000	63.277888
1038.000000	64.424670
1037.000000	65.450654
1036.000000	66.391344
1035.000000	67.270898
1034.000000	68.098124
1033.000000	68.874561
1032.000000	69.602532
1031.000000	70.283693
1030.000000	70.923902
1029.000000	71.534861
1028.000000	72.131124
1027.000000	72.725021
1026.000000	73.323824
1025.000000	73.930826
1024.000000	74.541661
1023.000000	75.141945
1022.000000	75.715296
1021.000000	76.247550
1020.000000	76.725986
1019.000000	77.133083
1018.000000	77.441786
1017.000000	77.614359
1016.000000	77.577881
1015.000000	77.227028
1014.000000	76.439296
1013.000000	75.095314
1012.000000	73.120281
1011.000000	70.510510
1010.000000	67.365964
1009.000000	63.882939
1008.000000	60.322753
1007.000000	57.014479
1006.000000	54.381752
1005.000000	52.881417
1004.000000	52.798229
1003.000000	54.016395
1002.000000	55.983533
1001.000000	57.973540
1000.000000	59.393178
999.000000	59.894684
998.000000	59.343125
997.000000	57.830513
996.000000	55.758110
995.000000	53.782765
994.000000	52.520763
993.000000	52.226631
992.000000	52.742900
991.000000	53.734572
990.000000	54.961103
989.000000	56.371897
988.000000	58.023707
987.000000	59.927999
986.000000	61.989169
985.000000	64.048849
984.000000	65.962623
983.000000	67.647507
982.000000	69.082084
981.000000	70.288312
980.000000	71.309050
979.000000	72.195201
978.000000	72.988952
977.000000	73.719489
976.000000	74.400329
975.000000	75.028147
974.000000	75.593616
973.000000	76.087118
972.000000	76.507796
971.000000	76.868082
970.000000	77.191019
969.000000	77.504970
968.000000	77.832380
967.000000	78.182513
966.000000	78.548606
965.000000	78.909633
964.000000	79.239718
963.000000	79.519823
962.000000	79.747761
961.000000	79.938850
960.000000	80.116884
959.000000	80.305232
958.000000	80.519194
957.000000	80.759590
956.000000	81.010535
955.000000	81.245658
954.000000	81.441644
953.000000	81.587964
952.000000	81.689797
951.000000	81.767247
950.000000	81.849430
949.000000	81.962362
948.000000	82.115430
947.000000	82.297596
946.000000	82.485270
945.000000	82.652114
944.000000	82.777058
943.000000	82.853192
942.000000	82.894455
941.000000	82.930622
940.000000	82.992000
939.000000	83.096915
938.000000	83.247014
937.000000	83.426735
936.000000	83.606787
935.000000	83.755297
934.000000	83.853464
933.000000	83.903947
932.000000	83.927132
931.000000	83.952603
930.000000	84.009728
929.000000	84.115305
928.000000	84.263208
927.000000	84.427141
926.000000	84.575424
925.000000	84.683502
924.000000	84.739701
923.000000	84.750395
922.000000	84.742239
921.000000	84.751752
920.000000	84.806247
919.000000	84.912435
918.000000	85.058312
917.000000	85.219090
916.000000	85.362666
915.000000	85.460963
914.000000	85.505319
913.000000	85.511168
912.000000	85.508155
911.000000	85.528553
910.000000	85.599002
909.000000	85.729142
908.000000	85.901924
907.000000	86.080230
906.000000	86.227580
905.000000	86.322518
904.000000	86.358952
903.000000	86.346266
902.000000	86.310778
901.000000	86.285896
900.000000	86.288012
899.000000	86.297654
898.000000	86.264438
897.000000	86.125785
896.000000	85.841114
895.000000	85.428044
894.000000	84.956996
893.000000	84.481784
892.000000	83.966976
891.000000	83.319801
890.000000	82.520704
889.000000	81.704830
888.000000	81.075933
887.000000	80.744903
886.000000	80.668452
885.000000	80.736897
884.000000	80.883839
883.000000	81.084056
882.000000	81.301507
881.000000	81.493219
880.000000	81.668908
879.000000	81.912899
878.000000	82.314818
877.000000	82.887714
876.000000	83.552366
875.000000	84.194439
874.000000	84.734796
873.000000	85.157755
872.000000	85.494433
871.000000	85.786543
870.000000	86.058519
869.000000	86.304505
868.000000	86.493348
867.000000	86.582231
866.000000	86.536183
865.000000	86.349396
864.000000	86.055168
863.000000	85.724849
862.000000	85.449570
861.000000	85.307633
860.000000	85.333154
859.000000	85.504545
858.000000	85.758659
857.000000	86.023156
856.000000	86.248844
855.000000	86.422360
854.000000	86.560599
853.000000	86.692731
852.000000	86.841892
851.000000	87.015952
850.000000	87.207969
849.000000	87.400530
848.000000	87.570864
847.000000	87.698485
846.000000	87.773487
845.000000	87.801473
844.000000	87.801661
843.000000	87.801196
842.000000	87.826486
841.000000	87.892225
840.000000	87.994822
839.000000	88.114927
838.000000	88.227158
837.000000	88.309555
836.000000	88.349333
835.000000	88.347923
834.000000	88.322885
833.000000	88.300574
832.000000	88.302573
831.000000	88.336918
830.000000	88.398668
829.000000	88.473867
828.000000	88.543877
827.000000	88.592150
826.000000	88.611187
825.000000	88.603521
824.000000	88.577976
823.000000	88.548903
822.000000	88.536601
821.000000	88.559197
820.000000	88.618641
819.000000	88.696357
818.000000	88.763887
817.000000	88.797148
816.000000	88.781612
815.000000	88.713258
814.000000	88.598324
813.000000	88.443877
812.000000	88.240673
811.000000	87.956013
810.000000	87.560092
809.000000	87.073383
808.000000	86.588376
807.000000	86.230310
806.000000	86.081772
805.000000	86.135612
804.000000	86.316421
803.000000	86.542080
802.000000	86.761977
801.000000	86.951430
800.000000	87.088089
799.000000	87.142041
798.000000	87.077628
797.000000	86.857937
796.000000	86.450222
795.000000	85.838840
794.000000	85.037427
793.000000	84.084721
792.000000	83.038943
791.000000	81.975183
790.000000	80.978791
789.000000	80.126284
788.000000	79.466124
787.000000	79.014108
786.000000	78.762702
785.000000	78.692245
784.000000	78.771431
783.000000	78.956471
782.000000	79.191708
781.000000	79.418684
780.000000	79.592966
779.000000	79.700735
778.000000	79.768613
777.000000	79.853317
776.000000	80.017358
775.000000	80.306730
774.000000	80.738966
773.000000	81.302346
772.000000	81.960537
771.000000	82.663242
770.000000	83.359062
769.000000	84.002702
768.000000	84.558647
767.000000	85.008027
766.000000	85.356777
765.000000	85.632095
764.000000	85.868855
763.000000	86.096920
762.000000	86.333981
761.000000	86.579882
760.000000	86.814518
759.000000	87.009255
758.000000	87.144660
757.000000	87.219608
756.000000	87.248477
755.000000	87.255662
754.000000	87.270190
753.000000	87.313903
752.000000	87.388680
751.000000	87.475905
750.000000	87.547397
749.000000	87.575897
748.000000	87.541454
747.000000	87.439526
746.000000	87.286744
745.000000	87.112944
744.000000	86.943414
743.000000	86.787411
742.000000	86.638976
741.000000	86.482514
740.000000	86.299399
739.000000	86.079616
738.000000	85.831377
737.000000	85.575746
736.000000	85.329379
735.000000	85.092834
734.000000	84.852518
733.000000	84.587082
732.000000	84.273489
731.000000	83.897981
730.000000	83.471323
729.000000	83.033890
728.000000	82.642718
727.000000	82.354825
726.000000	82.215101
725.000000	82.245202
724.000000	82.435132
723.000000	82.750190
722.000000	83.152113
721.000000	83.608386
720.000000	84.082120
719.000000	84.527826
718.000000	84.908128
717.000000	85.208939
716.000000	85.436114
715.000000	85.605919
714.000000	85.739631
713.000000	85.855782
712.000000	85.959989
711.000000	86.045636
710.000000	86.106602
709.000000	86.145033
708.000000	86.166116
707.000000	86.175846
706.000000	86.187167
705.000000	86.218477
704.000000	86.282288
703.000000	86.379182
702.000000	86.502274
701.000000	86.639670
700.000000	86.769684
699.000000	86.865999
698.000000	86.914385
697.000000	86.917843
696.000000	86.887808
695.000000	86.838848
694.000000	86.791590
693.000000	86.768531
692.000000	86.778350
691.000000	86.812274
690.000000	86.856956
689.000000	86.899613
688.000000	86.920931
687.000000	86.900433
686.000000	86.839083
685.000000	86.763292
684.000000	86.702248
683.000000	86.670384
682.000000	86.676155
681.000000	86.723421
680.000000	86.799079
679.000000	86.875028
678.000000	86.928406
677.000000	86.972836
676.000000	87.018912
675.000000	87.063613
674.000000	87.145821
673.000000	87.321565
672.000000	87.587559
671.000000	87.884129
670.000000	88.176923
669.000000	88.332853
668.000000	88.237314
667.000000	88.083785
666.000000	87.990544
665.000000	87.885391
664.000000	87.799344
663.000000	87.805957
662.000000	87.906706
661.000000	88.037171
660.000000	88.151054
659.000000	88.232365
658.000000	88.255566
657.000000	88.215164
656.000000	88.140547
655.000000	88.071040
654.000000	88.039888
653.000000	88.058009
652.000000	88.120135
651.000000	88.203970
650.000000	88.272308
649.000000	88.292554
648.000000	88.257285
647.000000	88.182836
646.000000	88.094880
645.000000	88.021335
644.000000	87.989675
643.000000	88.016370
642.000000	88.092850
641.000000	88.186577
640.000000	88.258815
639.000000	88.280787
638.000000	88.242949
637.000000	88.159329
636.000000	88.063206
635.000000	87.993504
634.000000	87.978781
633.000000	88.027584
632.000000	88.126003
631.000000	88.239614
630.000000	88.325101
629.000000	88.350850
628.000000	88.310153
627.000000	88.221134
626.000000	88.119027
625.000000	88.045239
624.000000	88.033243
623.000000	88.093429
622.000000	88.203469
621.000000	88.314403
620.000000	88.373291
619.000000	88.348821
618.000000	88.247753
617.000000	88.109750
616.000000	87.982841
615.000000	87.903435
614.000000	87.891878
613.000000	87.949709
612.000000	88.050362
611.000000	88.139769
610.000000	88.163638
609.000000	88.099693
608.000000	87.963666
607.000000	87.794002
606.000000	87.636227
605.000000	87.529941
604.000000	87.491273
603.000000	87.499960
602.000000	87.505397
601.000000	87.446906
600.000000	87.270850
599.000000	86.947404
598.000000	86.487831
597.000000	85.939759
596.000000	85.359629
595.000000	84.782537
594.000000	84.192466
593.000000	83.489964
592.000000	82.485243
591.000000	81.003394
590.000000	79.094077
589.000000	77.152646
588.000000	75.753804
587.000000	75.280727
586.000000	75.665815
585.000000	76.506452
584.000000	77.448450
583.000000	78.390066
582.000000	79.357595
581.000000	80.324792
580.000000	81.198149
579.000000	81.909737
578.000000	82.455872
577.000000	82.869732
576.000000	83.198325
575.000000	83.490369
574.000000	83.767034
573.000000	84.009441
572.000000	84.182357
571.000000	84.259646
570.000000	84.229884
569.000000	84.091413
568.000000	83.861962
567.000000	83.570623
566.000000	83.212964
565.000000	82.720988
564.000000	81.995320
563.000000	80.989780
562.000000	79.763542
561.000000	78.458582
560.000000	77.229947
559.000000	76.171788
558.000000	75.280669
557.000000	74.511769
556.000000	73.909068
555.000000	73.642846
554.000000	73.880132
553.000000	74.627903
552.000000	75.720675
551.000000	76.916480
550.000000	77.989929
549.000000	78.815542
548.000000	79.402810
547.000000	79.841884
546.000000	80.206634
545.000000	80.512422
544.000000	80.745303
543.000000	80.891941
542.000000	80.938384
541.000000	80.870497
540.000000	80.703946
539.000000	80.493965
538.000000	80.300592
537.000000	80.153371
536.000000	80.050983
535.000000	79.974364
534.000000	79.885064
533.000000	79.738192
532.000000	79.515905
531.000000	79.246880
530.000000	78.984014
529.000000	78.768975
528.000000	78.617923
527.000000	78.515959
526.000000	78.395657
525.000000	78.150326
524.000000	77.701259
523.000000	77.038127
522.000000	76.203426
521.000000	75.267179
520.000000	74.322625
519.000000	73.462934
518.000000	72.722298
517.000000	72.056061
516.000000	71.405248
515.000000	70.758103
514.000000	70.138304
513.000000	69.585058
512.000000	69.166995
511.000000	68.984885
510.000000	69.111459
509.000000	69.545276
508.000000	70.243646
507.000000	71.148491
506.000000	72.170324
505.000000	73.205979
504.000000	74.194595
503.000000	75.120921
502.000000	75.962756
501.000000	76.689944
500.000000	77.317468
499.000000	77.908223
498.000000	78.503686
497.000000	79.088255
496.000000	79.618630
495.000000	80.054439
494.000000	80.361670
493.000000	80.518939
492.000000	80.553466
491.000000	80.547188
490.000000	80.580487
489.000000	80.686873
488.000000	80.852087
487.000000	81.025449
486.000000	81.110589
485.000000	80.974242
484.000000	80.509514
483.000000	79.683866
482.000000	78.537248
481.000000	77.173036
480.000000	75.768462
479.000000	74.536696
478.000000	73.603708
477.000000	72.933685
476.000000	72.410198
475.000000	71.970608
474.000000	71.622450
473.000000	71.407516
472.000000	71.412262
471.000000	71.752635
470.000000	72.483216
469.000000	73.539178
468.000000	74.789444
467.000000	76.088314
466.000000	77.295459
465.000000	78.318166
464.000000	79.134003
463.000000	79.774020
462.000000	80.290313
461.000000	80.738457
460.000000	81.174045
459.000000	81.638165
458.000000	82.114178
457.000000	82.520987
456.000000	82.797518
455.000000	82.958855
454.000000	83.053762
453.000000	83.115917
452.000000	83.171589
451.000000	83.260634
450.000000	83.411391
449.000000	83.614867
448.000000	83.836874
447.000000	84.041027
446.000000	84.195347
445.000000	84.274738
444.000000	84.272923
443.000000	84.222117
442.000000	84.184964
441.000000	84.213159
440.000000	84.323235
439.000000	84.497146
438.000000	84.683754
437.000000	84.805713
436.000000	84.799691
435.000000	84.660699
434.000000	84.431531
433.000000	84.152742
432.000000	83.847335
431.000000	83.541049
430.000000	83.257740
429.000000	82.992760
428.000000	82.740420
427.000000	82.541145
426.000000	82.446200
425.000000	82.447296
424.000000	82.494534
423.000000	82.574120
422.000000	82.717156
421.000000	82.943131
420.000000	83.237864
419.000000	83.558191
418.000000	83.830606
417.000000	84.007338
416.000000	84.122008
415.000000	84.242535
414.000000	84.407712
413.000000	84.603663
412.000000	84.785039
411.000000	84.912263
410.000000	84.966650
409.000000	84.941196
408.000000	84.853334
407.000000	84.748206
406.000000	84.663433
405.000000	84.605777
404.000000	84.611690
403.000000	84.761833
402.000000	85.098065
401.000000	85.520267
400.000000	85.891383
