PE IR       SUBTECH     SPECTRUM    ASCII       PEDS        4.00        
   -1
23ms035 cis.asc
24/10/21
15:40:19.00
24/10/21
15:40:19.00
Administrator
Sample 1317 By Administrator Date Monday, October 21 2024
400.000000
#HDR
-1
-1
#GR
cm-1
%T
1.0
0.0
4000.000000
-1.000000
3601
8
85.651685
17.385736
#DATA
4000.000000	63.264902
3999.000000	63.255131
3998.000000	63.246804
3997.000000	63.239783
3996.000000	63.234677
3995.000000	63.232068
3994.000000	63.231674
3993.000000	63.232589
3992.000000	63.234184
3991.000000	63.236545
3990.000000	63.240020
3989.000000	63.244945
3988.000000	63.252097
3987.000000	63.262706
3986.000000	63.277608
3985.000000	63.296648
3984.000000	63.319005
3983.000000	63.343866
3982.000000	63.370592
3981.000000	63.398681
3980.000000	63.427740
3979.000000	63.457609
3978.000000	63.488553
3977.000000	63.520837
3976.000000	63.554198
3975.000000	63.587840
3974.000000	63.620992
3973.000000	63.653004
3972.000000	63.683123
3971.000000	63.710882
3970.000000	63.736500
3969.000000	63.760891
3968.000000	63.785496
3967.000000	63.811966
3966.000000	63.841513
3965.000000	63.874568
3964.000000	63.910851
3963.000000	63.949730
3962.000000	63.990711
3961.000000	64.033017
3960.000000	64.075657
3959.000000	64.118545
3958.000000	64.162213
3957.000000	64.206515
3956.000000	64.250385
3955.000000	64.293267
3954.000000	64.335400
3953.000000	64.376679
3952.000000	64.416085
3951.000000	64.452272
3950.000000	64.484348
3949.000000	64.512858
3948.000000	64.540310
3947.000000	64.568927
3946.000000	64.598484
3945.000000	64.627709
3944.000000	64.656829
3943.000000	64.686456
3942.000000	64.715850
3941.000000	64.744191
3940.000000	64.773328
3939.000000	64.807248
3938.000000	64.846968
3937.000000	64.888253
3936.000000	64.925397
3935.000000	64.956925
3934.000000	64.985722
3933.000000	65.013239
3932.000000	65.037383
3931.000000	65.056527
3930.000000	65.073281
3929.000000	65.092210
3928.000000	65.113543
3927.000000	65.133089
3926.000000	65.149044
3925.000000	65.163595
3924.000000	65.177087
3923.000000	65.187350
3922.000000	65.195828
3921.000000	65.207443
3920.000000	65.222283
3919.000000	65.233691
3918.000000	65.238111
3917.000000	65.240789
3916.000000	65.248047
3915.000000	65.259616
3914.000000	65.274261
3913.000000	65.294272
3912.000000	65.320412
3911.000000	65.349180
3910.000000	65.376747
3909.000000	65.403861
3908.000000	65.431991
3907.000000	65.457890
3906.000000	65.475092
3905.000000	65.481576
3904.000000	65.481229
3903.000000	65.478877
3902.000000	65.478140
3901.000000	65.484393
3900.000000	65.503787
3899.000000	65.534902
3898.000000	65.570431
3897.000000	65.608356
3896.000000	65.654122
3895.000000	65.709913
3894.000000	65.767169
3893.000000	65.813624
3892.000000	65.847547
3891.000000	65.879709
3890.000000	65.914868
3889.000000	65.947154
3888.000000	65.973522
3887.000000	66.000428
3886.000000	66.034292
3885.000000	66.069127
3884.000000	66.092578
3883.000000	66.105480
3882.000000	66.120866
3881.000000	66.144587
3880.000000	66.169450
3879.000000	66.186073
3878.000000	66.193639
3877.000000	66.199638
3876.000000	66.211596
3875.000000	66.232942
3874.000000	66.258629
3873.000000	66.273854
3872.000000	66.270322
3871.000000	66.263039
3870.000000	66.275021
3869.000000	66.304197
3868.000000	66.327033
3867.000000	66.338130
3866.000000	66.357947
3865.000000	66.394691
3864.000000	66.428392
3863.000000	66.442927
3862.000000	66.449835
3861.000000	66.468095
3860.000000	66.501914
3859.000000	66.549083
3858.000000	66.609347
3857.000000	66.677337
3856.000000	66.732004
3855.000000	66.747902
3854.000000	66.725674
3853.000000	66.693060
3852.000000	66.668139
3851.000000	66.657705
3850.000000	66.672482
3849.000000	66.713940
3848.000000	66.766493
3847.000000	66.813238
3846.000000	66.850989
3845.000000	66.883295
3844.000000	66.912397
3843.000000	66.939867
3842.000000	66.964613
3841.000000	66.984700
3840.000000	67.001055
3839.000000	67.016959
3838.000000	67.034195
3837.000000	67.053640
3836.000000	67.075600
3835.000000	67.099506
3834.000000	67.123161
3833.000000	67.146189
3832.000000	67.171107
3831.000000	67.198449
3830.000000	67.225802
3829.000000	67.250840
3828.000000	67.275573
3827.000000	67.307788
3826.000000	67.350236
3825.000000	67.391780
3824.000000	67.418954
3823.000000	67.433604
3822.000000	67.451983
3821.000000	67.485254
3820.000000	67.519252
3819.000000	67.535246
3818.000000	67.538935
3817.000000	67.551447
3816.000000	67.582368
3815.000000	67.615353
3814.000000	67.631955
3813.000000	67.641477
3812.000000	67.666363
3811.000000	67.709412
3810.000000	67.752184
3809.000000	67.778463
3808.000000	67.795886
3807.000000	67.824405
3806.000000	67.863568
3805.000000	67.893500
3804.000000	67.906115
3803.000000	67.915274
3802.000000	67.937781
3801.000000	67.969785
3800.000000	67.989375
3799.000000	67.992571
3798.000000	67.999535
3797.000000	68.023677
3796.000000	68.057044
3795.000000	68.084067
3794.000000	68.102547
3793.000000	68.123661
3792.000000	68.154359
3791.000000	68.189155
3790.000000	68.219968
3789.000000	68.245306
3788.000000	68.268042
3787.000000	68.289271
3786.000000	68.309351
3785.000000	68.330501
3784.000000	68.353517
3783.000000	68.374058
3782.000000	68.388805
3781.000000	68.401150
3780.000000	68.417198
3779.000000	68.437771
3778.000000	68.456878
3777.000000	68.470918
3776.000000	68.485927
3775.000000	68.511342
3774.000000	68.546181
3773.000000	68.578273
3772.000000	68.601265
3771.000000	68.624615
3770.000000	68.656729
3769.000000	68.689573
3768.000000	68.712459
3767.000000	68.730959
3766.000000	68.760113
3765.000000	68.803425
3764.000000	68.847605
3763.000000	68.879927
3762.000000	68.904886
3761.000000	68.935849
3760.000000	68.973200
3759.000000	69.006268
3758.000000	69.033968
3757.000000	69.065253
3756.000000	69.100815
3755.000000	69.133549
3754.000000	69.162964
3753.000000	69.195442
3752.000000	69.228972
3751.000000	69.255449
3750.000000	69.281654
3749.000000	69.319728
3748.000000	69.359360
3747.000000	69.382552
3746.000000	69.395236
3745.000000	69.426868
3744.000000	69.484658
3743.000000	69.531135
3742.000000	69.546515
3741.000000	69.557444
3740.000000	69.585419
3739.000000	69.618940
3738.000000	69.641161
3737.000000	69.661401
3736.000000	69.696803
3735.000000	69.736865
3734.000000	69.761464
3733.000000	69.778691
3732.000000	69.808717
3731.000000	69.849097
3730.000000	69.882044
3729.000000	69.901838
3728.000000	69.920720
3727.000000	69.950893
3726.000000	69.987560
3725.000000	70.016634
3724.000000	70.037695
3723.000000	70.061553
3722.000000	70.091827
3721.000000	70.123495
3720.000000	70.152351
3719.000000	70.180999
3718.000000	70.215887
3717.000000	70.257790
3716.000000	70.296442
3715.000000	70.323375
3714.000000	70.344637
3713.000000	70.373593
3712.000000	70.414353
3711.000000	70.459327
3710.000000	70.502411
3709.000000	70.542900
3708.000000	70.582135
3707.000000	70.621216
3706.000000	70.659629
3705.000000	70.695683
3704.000000	70.729514
3703.000000	70.764846
3702.000000	70.805181
3701.000000	70.849031
3700.000000	70.889248
3699.000000	70.921109
3698.000000	70.950378
3697.000000	70.986875
3696.000000	71.028372
3695.000000	71.063716
3694.000000	71.090358
3693.000000	71.116132
3692.000000	71.143652
3691.000000	71.167147
3690.000000	71.188276
3689.000000	71.219639
3688.000000	71.264892
3687.000000	71.307816
3686.000000	71.334970
3685.000000	71.352809
3684.000000	71.373824
3683.000000	71.399212
3682.000000	71.421741
3681.000000	71.441728
3680.000000	71.466912
3679.000000	71.491884
3678.000000	71.501721
3677.000000	71.503983
3676.000000	71.531830
3675.000000	71.589509
3674.000000	71.633055
3673.000000	71.634500
3672.000000	71.618108
3671.000000	71.626010
3670.000000	71.668656
3669.000000	71.716875
3668.000000	71.746683
3667.000000	71.763540
3666.000000	71.780194
3665.000000	71.800676
3664.000000	71.822005
3663.000000	71.841920
3662.000000	71.861579
3661.000000	71.882125
3660.000000	71.900485
3659.000000	71.911763
3658.000000	71.918198
3657.000000	71.931939
3656.000000	71.960043
3655.000000	71.988340
3654.000000	71.996460
3653.000000	71.984308
3652.000000	71.973034
3651.000000	71.980668
3650.000000	72.003282
3649.000000	72.027283
3648.000000	72.054351
3647.000000	72.089859
3646.000000	72.124873
3645.000000	72.149591
3644.000000	72.167578
3643.000000	72.189146
3642.000000	72.216755
3641.000000	72.243229
3640.000000	72.262873
3639.000000	72.278736
3638.000000	72.294286
3637.000000	72.305808
3636.000000	72.310342
3635.000000	72.314182
3634.000000	72.323017
3633.000000	72.326945
3632.000000	72.309963
3631.000000	72.274842
3630.000000	72.248787
3629.000000	72.252651
3628.000000	72.267492
3627.000000	72.261768
3626.000000	72.233616
3625.000000	72.200005
3624.000000	72.168139
3623.000000	72.130644
3622.000000	72.080016
3621.000000	72.021487
3620.000000	71.965555
3619.000000	71.913569
3618.000000	71.858514
3617.000000	71.794395
3616.000000	71.720572
3615.000000	71.642261
3614.000000	71.565110
3613.000000	71.487442
3612.000000	71.401294
3611.000000	71.303213
3610.000000	71.201589
3609.000000	71.107974
3608.000000	71.023013
3607.000000	70.937401
3606.000000	70.845220
3605.000000	70.748650
3604.000000	70.651718
3603.000000	70.556133
3602.000000	70.463502
3601.000000	70.378809
3600.000000	70.303601
3599.000000	70.232566
3598.000000	70.161110
3597.000000	70.088531
3596.000000	70.014662
3595.000000	69.939309
3594.000000	69.862852
3593.000000	69.785360
3592.000000	69.706158
3591.000000	69.624278
3590.000000	69.543228
3589.000000	69.472627
3588.000000	69.421035
3587.000000	69.386626
3586.000000	69.359709
3585.000000	69.332506
3584.000000	69.301675
3583.000000	69.265104
3582.000000	69.220620
3581.000000	69.167974
3580.000000	69.108550
3579.000000	69.043888
3578.000000	68.975760
3577.000000	68.906123
3576.000000	68.835559
3575.000000	68.763303
3574.000000	68.688832
3573.000000	68.612276
3572.000000	68.533054
3571.000000	68.447399
3570.000000	68.349578
3569.000000	68.238299
3568.000000	68.118953
3567.000000	67.998633
3566.000000	67.881603
3565.000000	67.769917
3564.000000	67.663604
3563.000000	67.559541
3562.000000	67.451934
3561.000000	67.335703
3560.000000	67.209530
3559.000000	67.075149
3558.000000	66.935279
3557.000000	66.792143
3556.000000	66.645658
3555.000000	66.492805
3554.000000	66.330540
3553.000000	66.159499
3552.000000	65.983586
3551.000000	65.805458
3550.000000	65.623851
3549.000000	65.436047
3548.000000	65.240122
3547.000000	65.034991
3546.000000	64.821237
3545.000000	64.602211
3544.000000	64.381721
3543.000000	64.160433
3542.000000	63.935627
3541.000000	63.703763
3540.000000	63.461517
3539.000000	63.205450
3538.000000	62.933533
3537.000000	62.647283
3536.000000	62.350416
3535.000000	62.045223
3534.000000	61.731382
3533.000000	61.407696
3532.000000	61.072378
3531.000000	60.721424
3530.000000	60.349960
3529.000000	59.956970
3528.000000	59.546615
3527.000000	59.123238
3526.000000	58.687053
3525.000000	58.236052
3524.000000	57.769727
3523.000000	57.289517
3522.000000	56.797429
3521.000000	56.294680
3520.000000	55.780367
3519.000000	55.251151
3518.000000	54.703720
3517.000000	54.138143
3516.000000	53.557682
3515.000000	52.965709
3514.000000	52.363562
3513.000000	51.750010
3512.000000	51.120951
3511.000000	50.470794
3510.000000	49.798830
3509.000000	49.115503
3508.000000	48.436243
3507.000000	47.765803
3506.000000	47.091933
3505.000000	46.396512
3504.000000	45.672293
3503.000000	44.929009
3502.000000	44.186026
3501.000000	43.459374
3500.000000	42.752118
3499.000000	42.053919
3498.000000	41.350682
3497.000000	40.636428
3496.000000	39.916377
3495.000000	39.200510
3494.000000	38.497117
3493.000000	37.811294
3492.000000	37.144020
3491.000000	36.490705
3490.000000	35.844745
3489.000000	35.205244
3488.000000	34.580166
3487.000000	33.980895
3486.000000	33.414501
3485.000000	32.879411
3484.000000	32.364240
3483.000000	31.853669
3482.000000	31.341901
3481.000000	30.840722
3480.000000	30.369489
3479.000000	29.935607
3478.000000	29.528859
3477.000000	29.133065
3476.000000	28.737835
3475.000000	28.341029
3474.000000	27.946269
3473.000000	27.560618
3472.000000	27.191091
3471.000000	26.842007
3470.000000	26.518241
3469.000000	26.228613
3468.000000	25.982490
3467.000000	25.784101
3466.000000	25.633085
3465.000000	25.528913
3464.000000	25.469775
3463.000000	25.450864
3462.000000	25.470658
3461.000000	25.535996
3460.000000	25.655132
3459.000000	25.825721
3458.000000	26.034858
3457.000000	26.269755
3456.000000	26.521555
3455.000000	26.780701
3454.000000	27.035858
3453.000000	27.278109
3452.000000	27.501351
3451.000000	27.697101
3450.000000	27.851341
3449.000000	27.948592
3448.000000	27.978669
3447.000000	27.942142
3446.000000	27.852312
3445.000000	27.726122
3444.000000	27.570636
3443.000000	27.381604
3442.000000	27.156778
3441.000000	26.907537
3440.000000	26.652459
3439.000000	26.404582
3438.000000	26.171683
3437.000000	25.964224
3436.000000	25.794341
3435.000000	25.667401
3434.000000	25.580641
3433.000000	25.530304
3432.000000	25.517128
3431.000000	25.544980
3430.000000	25.619965
3429.000000	25.750162
3428.000000	25.940038
3427.000000	26.188493
3426.000000	26.493366
3425.000000	26.855777
3424.000000	27.276945
3423.000000	27.751511
3422.000000	28.272405
3421.000000	28.838125
3420.000000	29.450675
3419.000000	30.108946
3418.000000	30.805904
3417.000000	31.532554
3416.000000	32.279266
3415.000000	33.035708
3414.000000	33.794955
3413.000000	34.554903
3412.000000	35.313387
3411.000000	36.064307
3410.000000	36.801627
3409.000000	37.524105
3408.000000	38.231763
3407.000000	38.919915
3406.000000	39.581504
3405.000000	40.213195
3404.000000	40.815680
3403.000000	41.391706
3402.000000	41.947033
3401.000000	42.490046
3400.000000	43.025287
3399.000000	43.548057
3398.000000	44.050045
3397.000000	44.528492
3396.000000	44.986113
3395.000000	45.425533
3394.000000	45.848097
3393.000000	46.257491
3392.000000	46.659452
3391.000000	47.056836
3390.000000	47.448822
3389.000000	47.833816
3388.000000	48.210969
3387.000000	48.579662
3386.000000	48.940051
3385.000000	49.294017
3384.000000	49.643114
3383.000000	49.987084
3382.000000	50.326018
3381.000000	50.662123
3380.000000	50.997432
3379.000000	51.331508
3378.000000	51.663623
3377.000000	51.995162
3376.000000	52.327056
3375.000000	52.656688
3374.000000	52.980054
3373.000000	53.296036
3372.000000	53.606524
3371.000000	53.913661
3370.000000	54.219376
3369.000000	54.525812
3368.000000	54.833613
3367.000000	55.140586
3366.000000	55.443882
3365.000000	55.742636
3364.000000	56.036890
3363.000000	56.325757
3362.000000	56.608890
3361.000000	56.888135
3360.000000	57.165563
3359.000000	57.440930
3358.000000	57.712936
3357.000000	57.981787
3356.000000	58.247981
3355.000000	58.510159
3354.000000	58.766476
3353.000000	59.017290
3352.000000	59.264524
3351.000000	59.508776
3350.000000	59.748872
3349.000000	59.983624
3348.000000	60.212492
3347.000000	60.435472
3346.000000	60.653637
3345.000000	60.868999
3344.000000	61.082105
3343.000000	61.290441
3342.000000	61.491003
3341.000000	61.683447
3340.000000	61.869567
3339.000000	62.050500
3338.000000	62.225629
3337.000000	62.393936
3336.000000	62.554623
3335.000000	62.706890
3334.000000	62.850259
3333.000000	62.984171
3332.000000	63.106959
3331.000000	63.215456
3330.000000	63.306720
3329.000000	63.379927
3328.000000	63.435066
3327.000000	63.471539
3326.000000	63.487949
3325.000000	63.482104
3324.000000	63.450785
3323.000000	63.389528
3322.000000	63.294881
3321.000000	63.165253
3320.000000	62.998201
3319.000000	62.789993
3318.000000	62.536215
3317.000000	62.233878
3316.000000	61.879667
3315.000000	61.467177
3314.000000	60.989190
3313.000000	60.438626
3312.000000	59.808002
3311.000000	59.089361
3310.000000	58.274605
3309.000000	57.360470
3308.000000	56.345913
3307.000000	55.229332
3306.000000	54.009765
3305.000000	52.684875
3304.000000	51.252394
3303.000000	49.707939
3302.000000	48.049917
3301.000000	46.285467
3300.000000	44.427946
3299.000000	42.497006
3298.000000	40.522520
3297.000000	38.547318
3296.000000	36.620283
3295.000000	34.785101
3294.000000	33.077006
3293.000000	31.525406
3292.000000	30.150090
3291.000000	28.950809
3290.000000	27.911256
3289.000000	27.005347
3288.000000	26.203110
3287.000000	25.474885
3286.000000	24.794714
3285.000000	24.148712
3284.000000	23.531625
3283.000000	22.943550
3282.000000	22.393043
3281.000000	21.896758
3280.000000	21.474320
3279.000000	21.140822
3278.000000	20.908484
3277.000000	20.790988
3276.000000	20.796439
3275.000000	20.921950
3274.000000	21.155539
3273.000000	21.479217
3272.000000	21.867798
3271.000000	22.284430
3270.000000	22.686694
3269.000000	23.035476
3268.000000	23.297202
3267.000000	23.444777
3266.000000	23.464683
3265.000000	23.361117
3264.000000	23.151204
3263.000000	22.859671
3262.000000	22.516661
3261.000000	22.158746
3260.000000	21.821575
3259.000000	21.532529
3258.000000	21.312525
3257.000000	21.179064
3256.000000	21.141658
3255.000000	21.198229
3254.000000	21.340240
3253.000000	21.556618
3252.000000	21.832876
3251.000000	22.147173
3250.000000	22.475967
3249.000000	22.801615
3248.000000	23.109616
3247.000000	23.384718
3246.000000	23.613683
3245.000000	23.790973
3244.000000	23.917731
3243.000000	23.998018
3242.000000	24.037481
3241.000000	24.044211
3240.000000	24.026073
3239.000000	23.987420
3238.000000	23.932735
3237.000000	23.868566
3236.000000	23.801130
3235.000000	23.734556
3234.000000	23.672625
3233.000000	23.618860
3232.000000	23.570528
3231.000000	23.516827
3230.000000	23.446725
3229.000000	23.355136
3228.000000	23.240162
3227.000000	23.098566
3226.000000	22.928227
3225.000000	22.731642
3224.000000	22.512087
3223.000000	22.270492
3222.000000	22.008662
3221.000000	21.732940
3220.000000	21.451930
3219.000000	21.172811
3218.000000	20.902264
3217.000000	20.645714
3216.000000	20.402605
3215.000000	20.166718
3214.000000	19.934457
3213.000000	19.708238
3212.000000	19.489004
3211.000000	19.271270
3210.000000	19.049966
3209.000000	18.827959
3208.000000	18.611809
3207.000000	18.404669
3206.000000	18.208014
3205.000000	18.025689
3204.000000	17.862040
3203.000000	17.718906
3202.000000	17.598346
3201.000000	17.504841
3200.000000	17.440065
3199.000000	17.400929
3198.000000	17.385736
3197.000000	17.398344
3196.000000	17.443018
3195.000000	17.517728
3194.000000	17.618363
3193.000000	17.743652
3192.000000	17.892197
3191.000000	18.060238
3190.000000	18.244740
3189.000000	18.446378
3188.000000	18.664737
3187.000000	18.894249
3186.000000	19.129631
3185.000000	19.370749
3184.000000	19.619626
3183.000000	19.875956
3182.000000	20.138416
3181.000000	20.406501
3180.000000	20.677126
3179.000000	20.944074
3178.000000	21.204376
3177.000000	21.461374
3176.000000	21.718323
3175.000000	21.972843
3174.000000	22.220912
3173.000000	22.461948
3172.000000	22.696599
3171.000000	22.923247
3170.000000	23.140750
3169.000000	23.351041
3168.000000	23.555416
3167.000000	23.751885
3166.000000	23.938565
3165.000000	24.116605
3164.000000	24.286696
3163.000000	24.446034
3162.000000	24.592252
3161.000000	24.726181
3160.000000	24.848531
3159.000000	24.957447
3158.000000	25.051980
3157.000000	25.135253
3156.000000	25.210702
3155.000000	25.279213
3154.000000	25.342716
3153.000000	25.406492
3152.000000	25.475058
3151.000000	25.548641
3150.000000	25.626657
3149.000000	25.711063
3148.000000	25.803482
3147.000000	25.902478
3146.000000	26.006650
3145.000000	26.116979
3144.000000	26.233424
3143.000000	26.352977
3142.000000	26.473339
3141.000000	26.595094
3140.000000	26.717542
3139.000000	26.836269
3138.000000	26.947479
3137.000000	27.050898
3136.000000	27.145503
3135.000000	27.225754
3134.000000	27.285595
3133.000000	27.322153
3132.000000	27.333373
3131.000000	27.314475
3130.000000	27.258977
3129.000000	27.162180
3128.000000	27.020706
3127.000000	26.834107
3126.000000	26.608757
3125.000000	26.356628
3124.000000	26.089484
3123.000000	25.815803
3122.000000	25.545076
3121.000000	25.288758
3120.000000	25.053323
3119.000000	24.836816
3118.000000	24.635084
3117.000000	24.447464
3116.000000	24.273682
3115.000000	24.110344
3114.000000	23.953743
3113.000000	23.802867
3112.000000	23.656512
3111.000000	23.511546
3110.000000	23.367628
3109.000000	23.229354
3108.000000	23.101415
3107.000000	22.985501
3106.000000	22.884089
3105.000000	22.803350
3104.000000	22.748030
3103.000000	22.718487
3102.000000	22.716385
3101.000000	22.748147
3100.000000	22.820716
3099.000000	22.935567
3098.000000	23.090780
3097.000000	23.285356
3096.000000	23.517329
3095.000000	23.783771
3094.000000	24.083475
3093.000000	24.417047
3092.000000	24.782397
3091.000000	25.172461
3090.000000	25.580840
3089.000000	26.004110
3088.000000	26.437916
3087.000000	26.876271
3086.000000	27.316203
3085.000000	27.759287
3084.000000	28.205136
3083.000000	28.648116
3082.000000	29.083080
3081.000000	29.509957
3080.000000	29.930430
3079.000000	30.344104
3078.000000	30.750571
3077.000000	31.150768
3076.000000	31.543904
3075.000000	31.926257
3074.000000	32.295539
3073.000000	32.653344
3072.000000	33.001008
3071.000000	33.337382
3070.000000	33.662298
3069.000000	33.978444
3068.000000	34.287517
3067.000000	34.587549
3066.000000	34.877028
3065.000000	35.158015
3064.000000	35.432964
3063.000000	35.701911
3062.000000	35.964535
3061.000000	36.222192
3060.000000	36.475354
3059.000000	36.722018
3058.000000	36.961033
3057.000000	37.194133
3056.000000	37.423315
3055.000000	37.648725
3054.000000	37.870618
3053.000000	38.090700
3052.000000	38.309521
3051.000000	38.525349
3050.000000	38.736986
3049.000000	38.945068
3048.000000	39.149786
3047.000000	39.350138
3046.000000	39.546695
3045.000000	39.741987
3044.000000	39.936951
3043.000000	40.130167
3042.000000	40.321369
3041.000000	40.512328
3040.000000	40.703032
3039.000000	40.890393
3038.000000	41.072579
3037.000000	41.251571
3036.000000	41.430111
3035.000000	41.608959
3034.000000	41.788110
3033.000000	41.967702
3032.000000	42.146566
3031.000000	42.323031
3030.000000	42.498046
3029.000000	42.674224
3028.000000	42.851081
3027.000000	43.024769
3026.000000	43.193362
3025.000000	43.358692
3024.000000	43.521493
3023.000000	43.678757
3022.000000	43.827531
3021.000000	43.967183
3020.000000	44.095993
3019.000000	44.208180
3018.000000	44.297231
3017.000000	44.359596
3016.000000	44.394048
3015.000000	44.401750
3014.000000	44.389633
3013.000000	44.372389
3012.000000	44.368360
3011.000000	44.394398
3010.000000	44.463292
3009.000000	44.580770
3008.000000	44.741504
3007.000000	44.929768
3006.000000	45.125719
3005.000000	45.309896
3004.000000	45.461987
3003.000000	45.559327
3002.000000	45.579680
3001.000000	45.504486
3000.000000	45.323643
2999.000000	45.044827
2998.000000	44.704967
2997.000000	44.370104
2996.000000	44.117658
2995.000000	44.011879
2994.000000	44.083775
2993.000000	44.322980
2992.000000	44.681566
2991.000000	45.094588
2990.000000	45.505912
2989.000000	45.882441
2988.000000	46.211493
2987.000000	46.491573
2986.000000	46.727494
2985.000000	46.926093
2984.000000	47.091640
2983.000000	47.224008
2982.000000	47.322760
2981.000000	47.388833
2980.000000	47.421417
2979.000000	47.415912
2978.000000	47.367379
2977.000000	47.276006
2976.000000	47.148268
2975.000000	46.997916
2974.000000	46.846686
2973.000000	46.720033
2972.000000	46.637317
2971.000000	46.603120
2970.000000	46.605187
2969.000000	46.615051
2968.000000	46.590630
2967.000000	46.487911
2966.000000	46.281050
2965.000000	45.976453
2964.000000	45.609808
2963.000000	45.231170
2962.000000	44.890308
2961.000000	44.625365
2960.000000	44.457325
2959.000000	44.391582
2958.000000	44.426017
2957.000000	44.553753
2956.000000	44.759439
2955.000000	45.018615
2954.000000	45.303232
2953.000000	45.586262
2952.000000	45.839944
2951.000000	46.038846
2950.000000	46.169511
2949.000000	46.238002
2948.000000	46.264463
2947.000000	46.267842
2946.000000	46.249458
2945.000000	46.179746
2944.000000	46.001032
2943.000000	45.657995
2942.000000	45.149716
2941.000000	44.563947
2940.000000	44.060425
2939.000000	43.805364
2938.000000	43.895366
2937.000000	44.318733
2936.000000	44.971141
2935.000000	45.714010
2934.000000	46.433768
2933.000000	47.069449
2932.000000	47.604657
2931.000000	48.048338
2930.000000	48.420553
2929.000000	48.742079
2928.000000	49.028290
2927.000000	49.287608
2926.000000	49.525974
2925.000000	49.748599
2924.000000	49.957664
2923.000000	50.151868
2922.000000	50.330276
2921.000000	50.493754
2920.000000	50.641730
2919.000000	50.771585
2918.000000	50.882158
2917.000000	50.975509
2916.000000	51.054310
2915.000000	51.120097
2914.000000	51.174953
2913.000000	51.221664
2912.000000	51.261054
2911.000000	51.291560
2910.000000	51.311678
2909.000000	51.320054
2908.000000	51.312369
2907.000000	51.280305
2906.000000	51.214429
2905.000000	51.104719
2904.000000	50.938294
2903.000000	50.701206
2902.000000	50.386817
2901.000000	50.002546
2900.000000	49.571283
2899.000000	49.130903
2898.000000	48.730615
2897.000000	48.421564
2896.000000	48.240646
2895.000000	48.200025
2894.000000	48.289291
2893.000000	48.482567
2892.000000	48.745799
2891.000000	49.044184
2890.000000	49.350797
2889.000000	49.648957
2888.000000	49.928616
2887.000000	50.183323
2886.000000	50.410586
2885.000000	50.611740
2884.000000	50.788031
2883.000000	50.939578
2882.000000	51.068277
2881.000000	51.179060
2880.000000	51.277099
2879.000000	51.365975
2878.000000	51.449203
2877.000000	51.530567
2876.000000	51.611620
2875.000000	51.690849
2874.000000	51.766589
2873.000000	51.838649
2872.000000	51.907222
2871.000000	51.973646
2870.000000	52.043049
2869.000000	52.123118
2868.000000	52.218347
2867.000000	52.327222
2866.000000	52.445377
2865.000000	52.568380
2864.000000	52.690812
2863.000000	52.806579
2862.000000	52.912327
2861.000000	53.008500
2860.000000	53.096262
2859.000000	53.176047
2858.000000	53.250202
2857.000000	53.323966
2856.000000	53.402088
2855.000000	53.486517
2854.000000	53.577878
2853.000000	53.675787
2852.000000	53.776100
2851.000000	53.870733
2850.000000	53.952428
2849.000000	54.018510
2848.000000	54.070070
2847.000000	54.110621
2846.000000	54.146549
2845.000000	54.185565
2844.000000	54.232342
2843.000000	54.286870
2842.000000	54.347688
2841.000000	54.414591
2840.000000	54.487192
2839.000000	54.563530
2838.000000	54.641778
2837.000000	54.721711
2836.000000	54.803642
2835.000000	54.887710
2834.000000	54.974813
2833.000000	55.066165
2832.000000	55.161022
2831.000000	55.256501
2830.000000	55.350307
2829.000000	55.441873
2828.000000	55.530559
2827.000000	55.615109
2826.000000	55.695625
2825.000000	55.773996
2824.000000	55.851591
2823.000000	55.928262
2822.000000	56.003984
2821.000000	56.079126
2820.000000	56.152389
2819.000000	56.220866
2818.000000	56.283158
2817.000000	56.340637
2816.000000	56.395082
2815.000000	56.447111
2814.000000	56.497590
2813.000000	56.548219
2812.000000	56.599586
2811.000000	56.650416
2810.000000	56.699479
2809.000000	56.746491
2808.000000	56.790690
2807.000000	56.830771
2806.000000	56.867229
2805.000000	56.902841
2804.000000	56.939916
2803.000000	56.978728
2802.000000	57.019046
2801.000000	57.061017
2800.000000	57.103734
2799.000000	57.144914
2798.000000	57.183022
2797.000000	57.218202
2796.000000	57.250807
2795.000000	57.281018
2794.000000	57.310399
2793.000000	57.341591
2792.000000	57.375527
2791.000000	57.410638
2790.000000	57.445202
2789.000000	57.478396
2788.000000	57.508700
2787.000000	57.533830
2786.000000	57.553519
2785.000000	57.570617
2784.000000	57.588736
2783.000000	57.610654
2782.000000	57.639253
2781.000000	57.677161
2780.000000	57.724067
2779.000000	57.776252
2778.000000	57.829888
2777.000000	57.883335
2776.000000	57.935798
2775.000000	57.986135
2774.000000	58.034266
2773.000000	58.081804
2772.000000	58.130014
2771.000000	58.178537
2770.000000	58.226668
2769.000000	58.274180
2768.000000	58.320120
2767.000000	58.362562
2766.000000	58.400529
2765.000000	58.434700
2764.000000	58.465694
2763.000000	58.493451
2762.000000	58.518757
2761.000000	58.543466
2760.000000	58.568331
2759.000000	58.592125
2758.000000	58.613591
2757.000000	58.632430
2756.000000	58.647936
2755.000000	58.658863
2754.000000	58.665704
2753.000000	58.671668
2752.000000	58.680613
2751.000000	58.695267
2750.000000	58.717510
2749.000000	58.747855
2748.000000	58.783397
2747.000000	58.818113
2746.000000	58.846711
2745.000000	58.867586
2744.000000	58.882199
2743.000000	58.893435
2742.000000	58.904787
2741.000000	58.918772
2740.000000	58.934728
2739.000000	58.949440
2738.000000	58.960904
2737.000000	58.970839
2736.000000	58.983610
2735.000000	59.004471
2734.000000	59.038669
2733.000000	59.089101
2732.000000	59.153493
2731.000000	59.225273
2730.000000	59.298013
2729.000000	59.368301
2728.000000	59.434517
2727.000000	59.495233
2726.000000	59.549753
2725.000000	59.598335
2724.000000	59.640815
2723.000000	59.676376
2722.000000	59.705008
2721.000000	59.727692
2720.000000	59.745160
2719.000000	59.757948
2718.000000	59.768031
2717.000000	59.778654
2716.000000	59.791789
2715.000000	59.807383
2714.000000	59.825293
2713.000000	59.846193
2712.000000	59.870401
2711.000000	59.897713
2710.000000	59.928662
2709.000000	59.964015
2708.000000	60.002525
2707.000000	60.040885
2706.000000	60.076319
2705.000000	60.107498
2704.000000	60.132730
2703.000000	60.149618
2702.000000	60.157308
2701.000000	60.157118
2700.000000	60.150653
2699.000000	60.138950
2698.000000	60.123818
2697.000000	60.108107
2696.000000	60.093574
2695.000000	60.080254
2694.000000	60.068279
2693.000000	60.058328
2692.000000	60.049996
2691.000000	60.041889
2690.000000	60.034164
2689.000000	60.029264
2688.000000	60.029428
2687.000000	60.034912
2686.000000	60.044996
2685.000000	60.058608
2684.000000	60.073597
2683.000000	60.087834
2682.000000	60.101906
2681.000000	60.119186
2680.000000	60.142416
2679.000000	60.171654
2678.000000	60.205730
2677.000000	60.243164
2676.000000	60.280934
2675.000000	60.314558
2674.000000	60.340632
2673.000000	60.358193
2672.000000	60.367535
2671.000000	60.369795
2670.000000	60.368441
2669.000000	60.369178
2668.000000	60.377067
2667.000000	60.394655
2666.000000	60.422763
2665.000000	60.460732
2664.000000	60.505009
2663.000000	60.549630
2662.000000	60.589272
2661.000000	60.620920
2660.000000	60.642836
2659.000000	60.654078
2658.000000	60.655764
2657.000000	60.651122
2656.000000	60.643417
2655.000000	60.635096
2654.000000	60.629315
2653.000000	60.630185
2652.000000	60.640694
2651.000000	60.661779
2650.000000	60.693558
2649.000000	60.735355
2648.000000	60.784274
2647.000000	60.835590
2646.000000	60.885328
2645.000000	60.931452
2644.000000	60.972582
2643.000000	61.008056
2642.000000	61.039747
2641.000000	61.071625
2640.000000	61.106546
2639.000000	61.144706
2638.000000	61.185276
2637.000000	61.227454
2636.000000	61.269428
2635.000000	61.308331
2634.000000	61.342279
2633.000000	61.371011
2632.000000	61.394256
2631.000000	61.411397
2630.000000	61.423044
2629.000000	61.431285
2628.000000	61.437582
2627.000000	61.441992
2626.000000	61.445011
2625.000000	61.448117
2624.000000	61.452099
2623.000000	61.456481
2622.000000	61.460980
2621.000000	61.465848
2620.000000	61.470097
2619.000000	61.471323
2618.000000	61.467852
2617.000000	61.459427
2616.000000	61.445636
2615.000000	61.425454
2614.000000	61.399137
2613.000000	61.368755
2612.000000	61.336157
2611.000000	61.302369
2610.000000	61.269459
2609.000000	61.241116
2608.000000	61.220568
2607.000000	61.209460
2606.000000	61.208911
2605.000000	61.220045
2604.000000	61.242590
2603.000000	61.274466
2602.000000	61.313570
2601.000000	61.357810
2600.000000	61.403596
2599.000000	61.446429
2598.000000	61.483724
2597.000000	61.515938
2596.000000	61.544591
2595.000000	61.571143
2594.000000	61.597989
2593.000000	61.628069
2592.000000	61.662259
2591.000000	61.698512
2590.000000	61.733924
2589.000000	61.766150
2588.000000	61.792885
2587.000000	61.812245
2586.000000	61.824832
2585.000000	61.833987
2584.000000	61.843446
2583.000000	61.856074
2582.000000	61.874835
2581.000000	61.902612
2580.000000	61.940225
2579.000000	61.986137
2578.000000	62.038366
2577.000000	62.095550
2576.000000	62.155847
2575.000000	62.216943
2574.000000	62.277792
2573.000000	62.338463
2572.000000	62.398163
2571.000000	62.455027
2570.000000	62.508074
2569.000000	62.557617
2568.000000	62.603558
2567.000000	62.645137
2566.000000	62.682858
2565.000000	62.718874
2564.000000	62.754768
2563.000000	62.790740
2562.000000	62.827038
2561.000000	62.864244
2560.000000	62.901609
2559.000000	62.936866
2558.000000	62.968578
2557.000000	62.997221
2556.000000	63.023758
2555.000000	63.048966
2554.000000	63.074538
2553.000000	63.102990
2552.000000	63.135638
2551.000000	63.171959
2550.000000	63.211127
2549.000000	63.252480
2548.000000	63.294124
2547.000000	63.333033
2546.000000	63.367324
2545.000000	63.397219
2544.000000	63.423436
2543.000000	63.446292
2542.000000	63.466556
2541.000000	63.485213
2540.000000	63.501886
2539.000000	63.514567
2538.000000	63.521512
2537.000000	63.521921
2536.000000	63.514466
2535.000000	63.497610
2534.000000	63.471689
2533.000000	63.439501
2532.000000	63.404288
2531.000000	63.368174
2530.000000	63.333027
2529.000000	63.300557
2528.000000	63.270981
2527.000000	63.243089
2526.000000	63.216082
2525.000000	63.190156
2524.000000	63.165101
2523.000000	63.140056
2522.000000	63.114869
2521.000000	63.089846
2520.000000	63.063779
2519.000000	63.033858
2518.000000	62.997977
2517.000000	62.955666
2516.000000	62.906602
2515.000000	62.850715
2514.000000	62.790352
2513.000000	62.730563
2512.000000	62.676501
2511.000000	62.631932
2510.000000	62.599975
2509.000000	62.582847
2508.000000	62.580053
2507.000000	62.588249
2506.000000	62.604382
2505.000000	62.627056
2504.000000	62.655082
2503.000000	62.687101
2502.000000	62.722595
2501.000000	62.761851
2500.000000	62.803696
2499.000000	62.844927
2498.000000	62.882501
2497.000000	62.914558
2496.000000	62.939245
2495.000000	62.954746
2494.000000	62.961468
2493.000000	62.962575
2492.000000	62.961980
2491.000000	62.962659
2490.000000	62.966884
2489.000000	62.975984
2488.000000	62.989100
2487.000000	63.003816
2486.000000	63.018521
2485.000000	63.033052
2484.000000	63.047262
2483.000000	63.060950
2482.000000	63.075237
2481.000000	63.092124
2480.000000	63.112247
2479.000000	63.134521
2478.000000	63.158233
2477.000000	63.183576
2476.000000	63.210305
2475.000000	63.238032
2474.000000	63.268075
2473.000000	63.303343
2472.000000	63.345626
2471.000000	63.394542
2470.000000	63.449040
2469.000000	63.507711
2468.000000	63.567545
2467.000000	63.624337
2466.000000	63.675107
2465.000000	63.718939
2464.000000	63.755736
2463.000000	63.786037
2462.000000	63.812256
2461.000000	63.837994
2460.000000	63.865201
2459.000000	63.893364
2458.000000	63.921004
2457.000000	63.946355
2456.000000	63.966785
2455.000000	63.979716
2454.000000	63.985169
2453.000000	63.985968
2452.000000	63.985556
2451.000000	63.986989
2450.000000	63.993573
2449.000000	64.008006
2448.000000	64.030324
2447.000000	64.058321
2446.000000	64.090176
2445.000000	64.125347
2444.000000	64.162888
2443.000000	64.201267
2442.000000	64.240012
2441.000000	64.279563
2440.000000	64.319328
2439.000000	64.357457
2438.000000	64.392712
2437.000000	64.424815
2436.000000	64.453028
2435.000000	64.476019
2434.000000	64.493510
2433.000000	64.506326
2432.000000	64.514704
2431.000000	64.518493
2430.000000	64.518367
2429.000000	64.515118
2428.000000	64.507449
2427.000000	64.492299
2426.000000	64.468045
2425.000000	64.435387
2424.000000	64.395733
2423.000000	64.350948
2422.000000	64.305064
2421.000000	64.264184
2420.000000	64.233561
2419.000000	64.215757
2418.000000	64.211093
2417.000000	64.217788
2416.000000	64.231144
2415.000000	64.244863
2414.000000	64.253990
2413.000000	64.255687
2412.000000	64.247698
2411.000000	64.228228
2410.000000	64.197503
2409.000000	64.157729
2408.000000	64.111440
2407.000000	64.060876
2406.000000	64.008927
2405.000000	63.958423
2404.000000	63.910495
2403.000000	63.865398
2402.000000	63.824752
2401.000000	63.791238
2400.000000	63.766244
2399.000000	63.749535
2398.000000	63.740473
2397.000000	63.737440
2396.000000	63.736122
2395.000000	63.730723
2394.000000	63.717198
2393.000000	63.693978
2392.000000	63.660565
2391.000000	63.618191
2390.000000	63.571585
2389.000000	63.527759
2388.000000	63.492636
2387.000000	63.470360
2386.000000	63.464757
2385.000000	63.478514
2384.000000	63.511501
2383.000000	63.560780
2382.000000	63.623409
2381.000000	63.696095
2380.000000	63.772626
2379.000000	63.845591
2378.000000	63.908111
2377.000000	63.955154
2376.000000	63.981489
2375.000000	63.982932
2374.000000	63.958930
2373.000000	63.911361
2372.000000	63.844455
2371.000000	63.766101
2370.000000	63.686917
2369.000000	63.617227
2368.000000	63.566897
2367.000000	63.543211
2366.000000	63.545802
2365.000000	63.572986
2364.000000	63.625386
2363.000000	63.697783
2362.000000	63.788936
2361.000000	63.896210
2360.000000	64.004698
2359.000000	64.104211
2358.000000	64.183101
2357.000000	64.238228
2356.000000	64.272414
2355.000000	64.284069
2354.000000	64.281975
2353.000000	64.287485
2352.000000	64.335737
2351.000000	64.418743
2350.000000	64.474054
2349.000000	64.456908
2348.000000	64.369372
2347.000000	64.281131
2346.000000	64.261212
2345.000000	64.323171
2344.000000	64.419912
2343.000000	64.488255
2342.000000	64.526167
2341.000000	64.548044
2340.000000	64.566497
2339.000000	64.580572
2338.000000	64.589354
2337.000000	64.594729
2336.000000	64.603768
2335.000000	64.616690
2334.000000	64.633409
2333.000000	64.643928
2332.000000	64.646540
2331.000000	64.633072
2330.000000	64.592719
2329.000000	64.540119
2328.000000	64.486141
2327.000000	64.453271
2326.000000	64.443934
2325.000000	64.457807
2324.000000	64.489851
2323.000000	64.520899
2322.000000	64.543640
2321.000000	64.548431
2320.000000	64.540968
2319.000000	64.520600
2318.000000	64.493309
2317.000000	64.464475
2316.000000	64.438528
2315.000000	64.412944
2314.000000	64.379704
2313.000000	64.332566
2312.000000	64.265831
2311.000000	64.179328
2310.000000	64.074961
2309.000000	63.959869
2308.000000	63.837675
2307.000000	63.709210
2306.000000	63.574853
2305.000000	63.438280
2304.000000	63.304893
2303.000000	63.177016
2302.000000	63.055782
2301.000000	62.941633
2300.000000	62.832632
2299.000000	62.726171
2298.000000	62.621405
2297.000000	62.523173
2296.000000	62.435412
2295.000000	62.362617
2294.000000	62.308109
2293.000000	62.277206
2292.000000	62.271267
2291.000000	62.287776
2290.000000	62.322521
2289.000000	62.371964
2288.000000	62.432122
2287.000000	62.498395
2286.000000	62.568970
2285.000000	62.644686
2284.000000	62.725257
2283.000000	62.807154
2282.000000	62.887415
2281.000000	62.964572
2280.000000	63.036751
2279.000000	63.100274
2278.000000	63.154125
2277.000000	63.201382
2276.000000	63.246453
2275.000000	63.292814
2274.000000	63.343843
2273.000000	63.403587
2272.000000	63.473587
2271.000000	63.552283
2270.000000	63.638218
2269.000000	63.731883
2268.000000	63.833692
2267.000000	63.942433
2266.000000	64.057201
2265.000000	64.178822
2264.000000	64.306520
2263.000000	64.436685
2262.000000	64.564415
2261.000000	64.685822
2260.000000	64.797910
2259.000000	64.898120
2258.000000	64.987061
2257.000000	65.068072
2256.000000	65.144829
2255.000000	65.219045
2254.000000	65.292129
2253.000000	65.365792
2252.000000	65.439943
2251.000000	65.512472
2250.000000	65.581850
2249.000000	65.648724
2248.000000	65.713769
2247.000000	65.776560
2246.000000	65.836862
2245.000000	65.895468
2244.000000	65.951916
2243.000000	66.003716
2242.000000	66.048772
2241.000000	66.087048
2240.000000	66.118763
2239.000000	66.143288
2238.000000	66.161025
2237.000000	66.174151
2236.000000	66.184395
2235.000000	66.191720
2234.000000	66.196635
2233.000000	66.201553
2232.000000	66.208680
2231.000000	66.218447
2230.000000	66.231120
2229.000000	66.247738
2228.000000	66.268016
2227.000000	66.289425
2226.000000	66.309804
2225.000000	66.329099
2224.000000	66.347207
2223.000000	66.362305
2222.000000	66.372888
2221.000000	66.379862
2220.000000	66.385246
2219.000000	66.390597
2218.000000	66.397898
2217.000000	66.410017
2216.000000	66.428586
2215.000000	66.452796
2214.000000	66.481407
2213.000000	66.514151
2212.000000	66.550197
2211.000000	66.587200
2210.000000	66.623368
2209.000000	66.658712
2208.000000	66.693073
2207.000000	66.724586
2206.000000	66.751296
2205.000000	66.772736
2204.000000	66.788671
2203.000000	66.798166
2202.000000	66.801154
2201.000000	66.799486
2200.000000	66.795194
2199.000000	66.789175
2198.000000	66.782472
2197.000000	66.776964
2196.000000	66.773875
2195.000000	66.773415
2194.000000	66.777104
2193.000000	66.788317
2192.000000	66.809154
2191.000000	66.838502
2190.000000	66.874136
2189.000000	66.914756
2188.000000	66.958741
2187.000000	67.003159
2186.000000	67.045743
2185.000000	67.086410
2184.000000	67.125659
2183.000000	67.163062
2182.000000	67.198521
2181.000000	67.233079
2180.000000	67.267090
2179.000000	67.298983
2178.000000	67.327009
2177.000000	67.350776
2176.000000	67.370055
2175.000000	67.383998
2174.000000	67.392763
2173.000000	67.398351
2172.000000	67.402475
2171.000000	67.405015
2170.000000	67.405549
2169.000000	67.404585
2168.000000	67.402125
2167.000000	67.396872
2166.000000	67.388454
2165.000000	67.378964
2164.000000	67.371135
2163.000000	67.366545
2162.000000	67.366492
2161.000000	67.372515
2160.000000	67.384417
2159.000000	67.399407
2158.000000	67.414712
2157.000000	67.429767
2156.000000	67.445051
2155.000000	67.460670
2154.000000	67.477332
2153.000000	67.496764
2152.000000	67.519577
2151.000000	67.543995
2150.000000	67.567796
2149.000000	67.589987
2148.000000	67.609548
2147.000000	67.624595
2146.000000	67.634391
2145.000000	67.640864
2144.000000	67.646832
2143.000000	67.653962
2142.000000	67.663182
2141.000000	67.675133
2140.000000	67.688692
2139.000000	67.700544
2138.000000	67.707716
2137.000000	67.709611
2136.000000	67.706974
2135.000000	67.700554
2134.000000	67.691780
2133.000000	67.682746
2132.000000	67.673925
2131.000000	67.663252
2130.000000	67.648739
2129.000000	67.630696
2128.000000	67.610576
2127.000000	67.589414
2126.000000	67.568665
2125.000000	67.551053
2124.000000	67.539118
2123.000000	67.534237
2122.000000	67.537780
2121.000000	67.551343
2120.000000	67.574728
2119.000000	67.605215
2118.000000	67.639718
2117.000000	67.676183
2116.000000	67.712291
2115.000000	67.744906
2114.000000	67.772201
2113.000000	67.794665
2112.000000	67.813020
2111.000000	67.826898
2110.000000	67.836454
2109.000000	67.843381
2108.000000	67.849118
2107.000000	67.853677
2106.000000	67.857508
2105.000000	67.862720
2104.000000	67.870938
2103.000000	67.881304
2102.000000	67.891508
2101.000000	67.899199
2100.000000	67.901352
2099.000000	67.894256
2098.000000	67.876027
2097.000000	67.848207
2096.000000	67.814175
2095.000000	67.777708
2094.000000	67.743720
2093.000000	67.718070
2092.000000	67.705066
2091.000000	67.706212
2090.000000	67.721912
2089.000000	67.752162
2088.000000	67.794318
2087.000000	67.842513
2086.000000	67.890750
2085.000000	67.935121
2084.000000	67.972838
2083.000000	68.001405
2082.000000	68.019831
2081.000000	68.029122
2080.000000	68.030462
2079.000000	68.024303
2078.000000	68.011995
2077.000000	67.995757
2076.000000	67.975815
2075.000000	67.949711
2074.000000	67.915454
2073.000000	67.873720
2072.000000	67.825961
2071.000000	67.772518
2070.000000	67.714293
2069.000000	67.653827
2068.000000	67.592701
2067.000000	67.529543
2066.000000	67.462230
2065.000000	67.390756
2064.000000	67.316358
2063.000000	67.239679
2062.000000	67.161263
2061.000000	67.082152
2060.000000	67.002864
2059.000000	66.923260
2058.000000	66.844359
2057.000000	66.768370
2056.000000	66.696179
2055.000000	66.626919
2054.000000	66.560899
2053.000000	66.500510
2052.000000	66.447389
2051.000000	66.401177
2050.000000	66.361938
2049.000000	66.331278
2048.000000	66.309539
2047.000000	66.294425
2046.000000	66.284141
2045.000000	66.278978
2044.000000	66.278584
2043.000000	66.280755
2042.000000	66.284656
2041.000000	66.292996
2040.000000	66.308963
2039.000000	66.333575
2038.000000	66.367295
2037.000000	66.411042
2036.000000	66.464323
2035.000000	66.524647
2034.000000	66.590272
2033.000000	66.661238
2032.000000	66.736462
2031.000000	66.812700
2030.000000	66.887495
2029.000000	66.960606
2028.000000	67.031717
2027.000000	67.099305
2026.000000	67.163040
2025.000000	67.224833
2024.000000	67.286073
2023.000000	67.346158
2022.000000	67.405133
2021.000000	67.464897
2020.000000	67.525774
2019.000000	67.584665
2018.000000	67.639057
2017.000000	67.691140
2016.000000	67.745763
2015.000000	67.805851
2014.000000	67.871580
2013.000000	67.941978
2012.000000	68.015101
2011.000000	68.088193
2010.000000	68.159586
2009.000000	68.229309
2008.000000	68.297204
2007.000000	68.362388
2006.000000	68.425403
2005.000000	68.488836
2004.000000	68.554371
2003.000000	68.620758
2002.000000	68.685623
2001.000000	68.747342
2000.000000	68.804414
1999.000000	68.855259
1998.000000	68.899998
1997.000000	68.941905
1996.000000	68.985582
1995.000000	69.033073
1994.000000	69.082708
1993.000000	69.131824
1992.000000	69.180231
1991.000000	69.230725
1990.000000	69.285866
1989.000000	69.344935
1988.000000	69.404887
1987.000000	69.463802
1986.000000	69.522882
1985.000000	69.584624
1984.000000	69.649405
1983.000000	69.715230
1982.000000	69.780130
1981.000000	69.843213
1980.000000	69.903896
1979.000000	69.961839
1978.000000	70.017795
1977.000000	70.073663
1976.000000	70.131351
1975.000000	70.191535
1974.000000	70.253651
1973.000000	70.316475
1972.000000	70.378434
1971.000000	70.437579
1970.000000	70.491383
1969.000000	70.537006
1968.000000	70.572231
1967.000000	70.597421
1966.000000	70.616558
1965.000000	70.634048
1964.000000	70.650549
1963.000000	70.662663
1962.000000	70.666284
1961.000000	70.659922
1960.000000	70.644861
1959.000000	70.624005
1958.000000	70.601407
1957.000000	70.581538
1956.000000	70.567923
1955.000000	70.562416
1954.000000	70.565867
1953.000000	70.578400
1952.000000	70.598398
1951.000000	70.622724
1950.000000	70.648942
1949.000000	70.675705
1948.000000	70.701174
1947.000000	70.723609
1946.000000	70.743065
1945.000000	70.759805
1944.000000	70.771122
1943.000000	70.773672
1942.000000	70.770591
1941.000000	70.770872
1940.000000	70.779263
1939.000000	70.791766
1938.000000	70.801500
1937.000000	70.805392
1936.000000	70.804641
1935.000000	70.800858
1934.000000	70.794710
1933.000000	70.787210
1932.000000	70.779113
1931.000000	70.770532
1930.000000	70.762242
1929.000000	70.755563
1928.000000	70.751162
1927.000000	70.750070
1926.000000	70.754546
1925.000000	70.764966
1924.000000	70.777140
1923.000000	70.787821
1922.000000	70.801660
1921.000000	70.824163
1920.000000	70.850298
1919.000000	70.867138
1918.000000	70.868421
1917.000000	70.861920
1916.000000	70.857103
1915.000000	70.854400
1914.000000	70.851193
1913.000000	70.847991
1912.000000	70.845314
1911.000000	70.840392
1910.000000	70.830831
1909.000000	70.818430
1908.000000	70.806784
1907.000000	70.798422
1906.000000	70.796329
1905.000000	70.804136
1904.000000	70.822768
1903.000000	70.850731
1902.000000	70.887880
1901.000000	70.934146
1900.000000	70.985890
1899.000000	71.037906
1898.000000	71.088157
1897.000000	71.136860
1896.000000	71.181988
1895.000000	71.221833
1894.000000	71.261400
1893.000000	71.307910
1892.000000	71.359819
1891.000000	71.406283
1890.000000	71.438793
1889.000000	71.460872
1888.000000	71.482068
1887.000000	71.506555
1886.000000	71.533661
1885.000000	71.562836
1884.000000	71.593916
1883.000000	71.626778
1882.000000	71.662135
1881.000000	71.700210
1880.000000	71.738769
1879.000000	71.774797
1878.000000	71.808499
1877.000000	71.843231
1876.000000	71.880494
1875.000000	71.918622
1874.000000	71.957478
1873.000000	71.999766
1872.000000	72.045450
1871.000000	72.088450
1870.000000	72.121008
1869.000000	72.142098
1868.000000	72.159996
1867.000000	72.184167
1866.000000	72.218622
1865.000000	72.261954
1864.000000	72.308784
1863.000000	72.353010
1862.000000	72.392493
1861.000000	72.429596
1860.000000	72.466331
1859.000000	72.502616
1858.000000	72.539596
1857.000000	72.579675
1856.000000	72.622042
1855.000000	72.662632
1854.000000	72.698537
1853.000000	72.730210
1852.000000	72.760002
1851.000000	72.790038
1850.000000	72.822040
1849.000000	72.857835
1848.000000	72.898499
1847.000000	72.942541
1846.000000	72.984618
1845.000000	73.016315
1844.000000	73.035345
1843.000000	73.052200
1842.000000	73.077042
1841.000000	73.110657
1840.000000	73.149829
1839.000000	73.190625
1838.000000	73.230038
1837.000000	73.266741
1836.000000	73.299920
1835.000000	73.329408
1834.000000	73.357138
1833.000000	73.386352
1832.000000	73.418432
1831.000000	73.448845
1830.000000	73.473508
1829.000000	73.500635
1828.000000	73.540818
1827.000000	73.590038
1826.000000	73.634900
1825.000000	73.668298
1824.000000	73.695826
1823.000000	73.725311
1822.000000	73.758071
1821.000000	73.794123
1820.000000	73.834607
1819.000000	73.877260
1818.000000	73.917173
1817.000000	73.952554
1816.000000	73.984013
1815.000000	74.009371
1814.000000	74.025139
1813.000000	74.031813
1812.000000	74.032803
1811.000000	74.029564
1810.000000	74.024810
1809.000000	74.024816
1808.000000	74.031035
1807.000000	74.037389
1806.000000	74.039238
1805.000000	74.038464
1804.000000	74.038088
1803.000000	74.036864
1802.000000	74.033586
1801.000000	74.033983
1800.000000	74.044938
1799.000000	74.064860
1798.000000	74.088190
1797.000000	74.113076
1796.000000	74.139300
1795.000000	74.164295
1794.000000	74.182953
1793.000000	74.191826
1792.000000	74.194224
1791.000000	74.198468
1790.000000	74.210505
1789.000000	74.230820
1788.000000	74.254930
1787.000000	74.274892
1786.000000	74.286183
1785.000000	74.293542
1784.000000	74.305605
1783.000000	74.322635
1782.000000	74.335830
1781.000000	74.339557
1780.000000	74.339116
1779.000000	74.344916
1778.000000	74.361480
1777.000000	74.387916
1776.000000	74.424643
1775.000000	74.473559
1774.000000	74.530390
1773.000000	74.582921
1772.000000	74.625136
1771.000000	74.660974
1770.000000	74.691560
1769.000000	74.718196
1768.000000	74.749964
1767.000000	74.794243
1766.000000	74.848177
1765.000000	74.903788
1764.000000	74.955402
1763.000000	74.995144
1762.000000	75.013944
1761.000000	75.017427
1760.000000	75.020500
1759.000000	75.027878
1758.000000	75.035588
1757.000000	75.044129
1756.000000	75.066010
1755.000000	75.107599
1754.000000	75.155151
1753.000000	75.193640
1752.000000	75.222039
1751.000000	75.248526
1750.000000	75.276048
1749.000000	75.300275
1748.000000	75.325405
1747.000000	75.363164
1746.000000	75.414395
1745.000000	75.469337
1744.000000	75.522166
1743.000000	75.571328
1742.000000	75.610851
1741.000000	75.632374
1740.000000	75.636589
1739.000000	75.636995
1738.000000	75.644226
1737.000000	75.658315
1736.000000	75.677244
1735.000000	75.695341
1734.000000	75.709282
1733.000000	75.728734
1732.000000	75.748034
1731.000000	75.749992
1730.000000	75.734390
1729.000000	75.710835
1728.000000	75.694291
1727.000000	75.693234
1726.000000	75.705200
1725.000000	75.722548
1724.000000	75.740698
1723.000000	75.759387
1722.000000	75.778319
1721.000000	75.794941
1720.000000	75.807089
1719.000000	75.809322
1718.000000	75.797490
1717.000000	75.790370
1716.000000	75.803959
1715.000000	75.827906
1714.000000	75.857175
1713.000000	75.894450
1712.000000	75.934134
1711.000000	75.967399
1710.000000	75.992960
1709.000000	76.017449
1708.000000	76.046965
1707.000000	76.080919
1706.000000	76.116313
1705.000000	76.156787
1704.000000	76.203149
1703.000000	76.249587
1702.000000	76.294270
1701.000000	76.337289
1700.000000	76.380810
1699.000000	76.425124
1698.000000	76.459428
1697.000000	76.484270
1696.000000	76.515403
1695.000000	76.564031
1694.000000	76.623194
1693.000000	76.672964
1692.000000	76.711151
1691.000000	76.743827
1690.000000	76.769054
1689.000000	76.782009
1688.000000	76.788220
1687.000000	76.800678
1686.000000	76.824860
1685.000000	76.840352
1684.000000	76.833943
1683.000000	76.839068
1682.000000	76.858897
1681.000000	76.860671
1680.000000	76.842904
1679.000000	76.821032
1678.000000	76.802393
1677.000000	76.772587
1676.000000	76.722241
1675.000000	76.671920
1674.000000	76.645466
1673.000000	76.630310
1672.000000	76.607030
1671.000000	76.575708
1670.000000	76.536577
1669.000000	76.484718
1668.000000	76.427441
1667.000000	76.381052
1666.000000	76.346535
1665.000000	76.306647
1664.000000	76.244987
1663.000000	76.166560
1662.000000	76.088679
1661.000000	76.008267
1660.000000	75.911626
1659.000000	75.805733
1658.000000	75.702170
1657.000000	75.596020
1656.000000	75.469715
1655.000000	75.299887
1654.000000	75.004344
1653.000000	74.539689
1652.000000	74.070396
1651.000000	73.691647
1650.000000	73.302426
1649.000000	72.760813
1648.000000	71.874123
1647.000000	70.518034
1646.000000	68.782479
1645.000000	66.848709
1644.000000	64.743944
1643.000000	62.370162
1642.000000	59.654905
1641.000000	56.668893
1640.000000	53.672556
1639.000000	50.954028
1638.000000	48.634478
1637.000000	46.705886
1636.000000	45.289670
1635.000000	44.686664
1634.000000	44.973332
1633.000000	45.913107
1632.000000	47.253394
1631.000000	48.833402
1630.000000	50.559573
1629.000000	52.374082
1628.000000	54.211996
1627.000000	55.969308
1626.000000	57.581423
1625.000000	59.097001
1624.000000	60.591449
1623.000000	62.030415
1622.000000	63.303147
1621.000000	64.380894
1620.000000	65.329394
1619.000000	66.211939
1618.000000	67.050209
1617.000000	67.841941
1616.000000	68.560517
1615.000000	69.155708
1614.000000	69.615684
1613.000000	69.991318
1612.000000	70.331701
1611.000000	70.628026
1610.000000	70.836425
1609.000000	70.943530
1608.000000	70.957260
1607.000000	70.852165
1606.000000	70.577829
1605.000000	70.102272
1604.000000	69.414324
1603.000000	68.493142
1602.000000	67.335115
1601.000000	66.011811
1600.000000	64.657021
1599.000000	63.400142
1598.000000	62.320711
1597.000000	61.453451
1596.000000	60.797515
1595.000000	60.305440
1594.000000	59.890752
1593.000000	59.479456
1592.000000	59.043495
1591.000000	58.573520
1590.000000	58.054754
1589.000000	57.483395
1588.000000	56.873412
1587.000000	56.220826
1586.000000	55.490871
1585.000000	54.662448
1584.000000	53.757909
1583.000000	52.805230
1582.000000	51.806547
1581.000000	50.777489
1580.000000	49.765105
1579.000000	48.752603
1578.000000	47.561514
1577.000000	45.929386
1576.000000	43.887909
1575.000000	41.918181
1574.000000	40.382939
1573.000000	39.194586
1572.000000	38.126679
1571.000000	37.049137
1570.000000	35.986815
1569.000000	35.105558
1568.000000	34.573700
1567.000000	34.420530
1566.000000	34.535455
1565.000000	34.783418
1564.000000	35.133411
1563.000000	35.647393
1562.000000	36.359269
1561.000000	37.227579
1560.000000	38.213736
1559.000000	39.312333
1558.000000	40.452825
1557.000000	41.508632
1556.000000	42.445183
1555.000000	43.306365
1554.000000	44.086091
1553.000000	44.750460
1552.000000	45.311322
1551.000000	45.841644
1550.000000	46.408142
1549.000000	47.038182
1548.000000	47.749340
1547.000000	48.574046
1546.000000	49.522280
1545.000000	50.539199
1544.000000	51.548472
1543.000000	52.529977
1542.000000	53.506793
1541.000000	54.470333
1540.000000	55.374553
1539.000000	56.203256
1538.000000	56.959039
1537.000000	57.641874
1536.000000	58.291283
1535.000000	58.965746
1534.000000	59.675894
1533.000000	60.363288
1532.000000	60.986207
1531.000000	61.566796
1530.000000	62.132601
1529.000000	62.678595
1528.000000	63.195984
1527.000000	63.696548
1526.000000	64.182274
1525.000000	64.630685
1524.000000	65.034818
1523.000000	65.417145
1522.000000	65.778866
1521.000000	66.092615
1520.000000	66.367479
1519.000000	66.641580
1518.000000	66.921499
1517.000000	67.182521
1516.000000	67.421925
1515.000000	67.669540
1514.000000	67.931074
1513.000000	68.183933
1512.000000	68.419866
1511.000000	68.652403
1510.000000	68.885519
1509.000000	69.105782
1508.000000	69.306794
1507.000000	69.500427
1506.000000	69.719371
1505.000000	69.959542
1504.000000	70.186321
1503.000000	70.406766
1502.000000	70.624844
1501.000000	70.822227
1500.000000	70.993578
1499.000000	71.156732
1498.000000	71.313653
1497.000000	71.448279
1496.000000	71.576042
1495.000000	71.729308
1494.000000	71.897582
1493.000000	72.047820
1492.000000	72.177845
1491.000000	72.305441
1490.000000	72.420185
1489.000000	72.497924
1488.000000	72.550357
1487.000000	72.603138
1486.000000	72.645173
1485.000000	72.640236
1484.000000	72.576016
1483.000000	72.450659
1482.000000	72.227201
1481.000000	71.862497
1480.000000	71.356909
1479.000000	70.696355
1478.000000	69.778359
1477.000000	68.500569
1476.000000	66.899582
1475.000000	65.083159
1474.000000	63.057685
1473.000000	60.842334
1472.000000	58.736313
1471.000000	57.114734
1470.000000	56.042412
1469.000000	55.383704
1468.000000	55.064010
1467.000000	55.105982
1466.000000	55.559854
1465.000000	56.404936
1464.000000	57.477369
1463.000000	58.527754
1462.000000	59.365140
1461.000000	59.906759
1460.000000	60.114413
1459.000000	59.927420
1458.000000	59.246883
1457.000000	58.166126
1456.000000	57.138538
1455.000000	56.504516
1454.000000	56.196485
1453.000000	56.042912
1452.000000	55.958295
1451.000000	55.931286
1450.000000	55.975566
1449.000000	56.107547
1448.000000	56.336185
1447.000000	56.645182
1446.000000	57.007468
1445.000000	57.419153
1444.000000	57.902770
1443.000000	58.486048
1442.000000	59.191569
1441.000000	60.030246
1440.000000	60.995631
1439.000000	62.080072
1438.000000	63.289086
1437.000000	64.578352
1436.000000	65.785031
1435.000000	66.756731
1434.000000	67.507136
1433.000000	68.136332
1432.000000	68.699210
1431.000000	69.196575
1430.000000	69.624636
1429.000000	69.992701
1428.000000	70.303065
1427.000000	70.558679
1426.000000	70.780315
1425.000000	70.989439
1424.000000	71.191736
1423.000000	71.389078
1422.000000	71.592973
1421.000000	71.810685
1420.000000	72.025160
1419.000000	72.207825
1418.000000	72.358992
1417.000000	72.501603
1416.000000	72.642719
1415.000000	72.782604
1414.000000	72.931553
1413.000000	73.097974
1412.000000	73.274275
1411.000000	73.447732
1410.000000	73.615994
1409.000000	73.779463
1408.000000	73.926791
1407.000000	74.046528
1406.000000	74.144739
1405.000000	74.233505
1404.000000	74.312258
1403.000000	74.369760
1402.000000	74.385985
1401.000000	74.316099
1400.000000	74.097758
1399.000000	73.728746
1398.000000	73.321642
1397.000000	73.025733
1396.000000	72.924259
1395.000000	73.010658
1394.000000	73.205481
1393.000000	73.415438
1392.000000	73.605643
1391.000000	73.807527
1390.000000	74.070487
1389.000000	74.413912
1388.000000	74.811312
1387.000000	75.210063
1386.000000	75.567533
1385.000000	75.864099
1384.000000	76.094448
1383.000000	76.265848
1382.000000	76.400160
1381.000000	76.518272
1380.000000	76.620587
1379.000000	76.689666
1378.000000	76.699676
1377.000000	76.597927
1376.000000	76.258180
1375.000000	75.456775
1374.000000	73.920213
1373.000000	71.459699
1372.000000	68.116626
1371.000000	64.252940
1370.000000	60.569558
1369.000000	57.944388
1368.000000	56.995750
1367.000000	57.653611
1366.000000	59.235862
1365.000000	60.909816
1364.000000	62.020094
1363.000000	62.216443
1362.000000	61.566435
1361.000000	60.578371
1360.000000	59.964541
1359.000000	60.282635
1358.000000	61.679063
1357.000000	63.840745
1356.000000	66.215208
1355.000000	68.338262
1354.000000	70.015803
1353.000000	71.280662
1352.000000	72.244739
1351.000000	73.007826
1350.000000	73.641679
1349.000000	74.186066
1348.000000	74.650895
1347.000000	75.038674
1346.000000	75.360363
1345.000000	75.626667
1344.000000	75.843601
1343.000000	76.023129
1342.000000	76.189685
1341.000000	76.364561
1340.000000	76.551284
1339.000000	76.744725
1338.000000	76.940180
1337.000000	77.125855
1336.000000	77.277923
1335.000000	77.371788
1334.000000	77.389519
1333.000000	77.299959
1332.000000	77.041597
1331.000000	76.537144
1330.000000	75.727159
1329.000000	74.592852
1328.000000	73.135049
1327.000000	71.340870
1326.000000	69.200789
1325.000000	66.812827
1324.000000	64.504480
1323.000000	62.771992
1322.000000	61.981768
1321.000000	62.107075
1320.000000	62.780970
1319.000000	63.592777
1318.000000	64.333476
1317.000000	64.992655
1316.000000	65.613936
1315.000000	66.219493
1314.000000	66.831569
1313.000000	67.504056
1312.000000	68.301057
1311.000000	69.244439
1310.000000	70.281576
1309.000000	71.298616
1308.000000	72.168607
1307.000000	72.803958
1306.000000	73.176450
1305.000000	73.285155
1304.000000	73.123961
1303.000000	72.678940
1302.000000	71.943486
1301.000000	70.947268
1300.000000	69.793957
1299.000000	68.679781
1298.000000	67.831223
1297.000000	67.379743
1296.000000	67.283052
1295.000000	67.354664
1294.000000	67.359725
1293.000000	67.097941
1292.000000	66.446264
1291.000000	65.367159
1290.000000	63.879403
1289.000000	62.037086
1288.000000	59.974510
1287.000000	57.973486
1286.000000	56.416924
1285.000000	55.608750
1284.000000	55.618684
1283.000000	56.293678
1282.000000	57.415823
1281.000000	58.830357
1280.000000	60.432016
1279.000000	62.064801
1278.000000	63.489315
1277.000000	64.479718
1276.000000	64.941199
1275.000000	64.938799
1274.000000	64.647737
1273.000000	64.297221
1272.000000	64.132260
1271.000000	64.361365
1270.000000	65.077261
1269.000000	66.211046
1268.000000	67.575176
1267.000000	68.966704
1266.000000	70.247533
1265.000000	71.359234
1264.000000	72.294386
1263.000000	73.067083
1262.000000	73.698719
1261.000000	74.211673
1260.000000	74.626341
1259.000000	74.965233
1258.000000	75.259217
1257.000000	75.535160
1256.000000	75.803925
1255.000000	76.064763
1254.000000	76.313034
1253.000000	76.541248
1252.000000	76.737556
1251.000000	76.895760
1250.000000	77.024496
1249.000000	77.139561
1248.000000	77.252667
1247.000000	77.372168
1246.000000	77.506772
1245.000000	77.658362
1244.000000	77.814255
1243.000000	77.955736
1242.000000	78.071096
1241.000000	78.155378
1240.000000	78.205076
1239.000000	78.221989
1238.000000	78.218599
1237.000000	78.209228
1236.000000	78.198535
1235.000000	78.184526
1234.000000	78.164741
1233.000000	78.133242
1232.000000	78.076672
1231.000000	77.982156
1230.000000	77.847117
1229.000000	77.672302
1228.000000	77.452831
1227.000000	77.180647
1226.000000	76.846637
1225.000000	76.434693
1224.000000	75.910099
1223.000000	75.227356
1222.000000	74.342840
1221.000000	73.215450
1220.000000	71.819707
1219.000000	70.162514
1218.000000	68.293450
1217.000000	66.295725
1216.000000	64.273499
1215.000000	62.349262
1214.000000	60.657009
1213.000000	59.323339
1212.000000	58.444842
1211.000000	58.065811
1210.000000	58.141312
1209.000000	58.538669
1208.000000	59.079987
1207.000000	59.589802
1206.000000	59.932140
1205.000000	60.021272
1204.000000	59.820719
1203.000000	59.338907
1202.000000	58.627641
1201.000000	57.787683
1200.000000	56.974251
1199.000000	56.375266
1198.000000	56.150678
1197.000000	56.369823
1196.000000	57.004575
1195.000000	57.961238
1194.000000	59.126527
1193.000000	60.405266
1192.000000	61.728706
1191.000000	63.052750
1190.000000	64.344694
1189.000000	65.575627
1188.000000	66.721133
1187.000000	67.765054
1186.000000	68.702025
1185.000000	69.537665
1184.000000	70.283776
1183.000000	70.949058
1182.000000	71.538387
1181.000000	72.050768
1180.000000	72.484069
1179.000000	72.843091
1178.000000	73.136156
1177.000000	73.369296
1176.000000	73.540281
1175.000000	73.644501
1174.000000	73.681085
1173.000000	73.640740
1172.000000	73.499117
1171.000000	73.215067
1170.000000	72.735572
1169.000000	72.005124
1168.000000	70.978431
1167.000000	69.658680
1166.000000	68.129436
1165.000000	66.557148
1164.000000	65.160950
1163.000000	64.157407
1162.000000	63.685831
1161.000000	63.763419
1160.000000	64.298428
1159.000000	65.132058
1158.000000	66.097731
1157.000000	67.056861
1156.000000	67.916509
1155.000000	68.632630
1154.000000	69.196776
1153.000000	69.617442
1152.000000	69.904819
1151.000000	70.064609
1150.000000	70.090995
1149.000000	69.968108
1148.000000	69.664309
1147.000000	69.140993
1146.000000	68.360673
1145.000000	67.273662
1144.000000	65.824314
1143.000000	63.959041
1142.000000	61.657025
1141.000000	58.972171
1140.000000	56.055511
1139.000000	53.139132
1138.000000	50.445892
1137.000000	48.086782
1136.000000	46.029297
1135.000000	44.166845
1134.000000	42.429452
1133.000000	40.900159
1132.000000	39.850593
1131.000000	39.626031
1130.000000	40.471781
1129.000000	42.376728
1128.000000	45.064112
1127.000000	48.088690
1126.000000	50.960580
1125.000000	53.256716
1124.000000	54.678571
1123.000000	55.066300
1122.000000	54.397107
1121.000000	52.782833
1120.000000	50.412866
1119.000000	47.527931
1118.000000	44.448398
1117.000000	41.630225
1116.000000	39.642593
1115.000000	38.986459
1114.000000	39.835804
1113.000000	41.922099
1112.000000	44.649907
1111.000000	47.307802
1110.000000	49.321573
1109.000000	50.465793
1108.000000	50.935923
1107.000000	51.202327
1106.000000	51.705645
1105.000000	52.610482
1104.000000	53.773256
1103.000000	54.868072
1102.000000	55.513742
1101.000000	55.398810
1100.000000	54.419877
1099.000000	52.813518
1098.000000	51.154707
1097.000000	50.144696
1096.000000	50.282222
1095.000000	51.630986
1094.000000	53.830303
1093.000000	56.332701
1092.000000	58.694130
1091.000000	60.699955
1090.000000	62.328505
1089.000000	63.648760
1088.000000	64.743451
1087.000000	65.680448
1086.000000	66.508516
1085.000000	67.253226
1084.000000	67.917351
1083.000000	68.500361
1082.000000	69.004738
1081.000000	69.436428
1080.000000	69.802576
1079.000000	70.109712
1078.000000	70.364714
1077.000000	70.558146
1076.000000	70.656837
1075.000000	70.612287
1074.000000	70.361568
1073.000000	69.833835
1072.000000	68.930195
1071.000000	67.520248
1070.000000	65.446820
1069.000000	62.513961
1068.000000	58.561223
1067.000000	53.594742
1066.000000	47.945724
1065.000000	42.317047
1064.000000	37.599444
1063.000000	34.466646
1062.000000	32.970979
1061.000000	32.471883
1060.000000	32.020014
1059.000000	30.973907
1058.000000	29.369506
1057.000000	27.868207
1056.000000	27.326699
1055.000000	28.259345
1054.000000	30.605177
1053.000000	33.858678
1052.000000	37.415450
1051.000000	40.838281
1050.000000	43.907082
1049.000000	46.576629
1048.000000	48.900716
1047.000000	50.962036
1046.000000	52.814512
1045.000000	54.475912
1044.000000	55.944559
1043.000000	57.224700
1042.000000	58.331381
1041.000000	59.279611
1040.000000	60.091266
1039.000000	60.790216
1038.000000	61.395809
1037.000000	61.919176
1036.000000	62.365471
1035.000000	62.745278
1034.000000	63.069889
1033.000000	63.345811
1032.000000	63.578506
1031.000000	63.776039
1030.000000	63.948508
1029.000000	64.100607
1028.000000	64.231920
1027.000000	64.342760
1026.000000	64.431174
1025.000000	64.489249
1024.000000	64.503679
1023.000000	64.460730
1022.000000	64.348496
1021.000000	64.148504
1020.000000	63.837771
1019.000000	63.390430
1018.000000	62.773258
1017.000000	61.947176
1016.000000	60.871472
1015.000000	59.531929
1014.000000	57.968534
1013.000000	56.294979
1012.000000	54.696899
1011.000000	53.377087
1010.000000	52.449655
1009.000000	51.853381
1008.000000	51.383792
1007.000000	50.848178
1006.000000	50.257495
1005.000000	49.879704
1004.000000	50.087709
1003.000000	51.098863
1002.000000	52.800227
1001.000000	54.820045
1000.000000	56.737950
999.000000	58.255069
998.000000	59.236962
997.000000	59.676138
996.000000	59.658432
995.000000	59.352213
994.000000	58.992952
993.000000	58.833878
992.000000	59.074266
991.000000	59.783958
990.000000	60.871330
989.000000	62.136360
988.000000	63.382287
987.000000	64.491111
986.000000	65.431348
985.000000	66.222603
984.000000	66.901972
983.000000	67.506567
982.000000	68.063620
981.000000	68.583023
980.000000	69.060890
979.000000	69.493132
978.000000	69.876538
977.000000	70.207843
976.000000	70.487341
975.000000	70.725371
974.000000	70.941697
973.000000	71.154224
972.000000	71.374636
971.000000	71.610356
970.000000	71.862122
969.000000	72.119101
968.000000	72.361426
967.000000	72.572291
966.000000	72.745697
965.000000	72.884394
964.000000	72.998604
963.000000	73.107522
962.000000	73.234380
961.000000	73.393697
960.000000	73.584076
959.000000	73.793087
958.000000	74.002970
957.000000	74.192856
956.000000	74.344987
955.000000	74.455720
954.000000	74.538908
953.000000	74.617055
952.000000	74.711794
951.000000	74.840471
950.000000	75.011130
949.000000	75.214784
948.000000	75.426108
947.000000	75.616604
946.000000	75.767284
945.000000	75.871137
944.000000	75.933917
943.000000	75.977505
942.000000	76.034499
941.000000	76.130528
940.000000	76.271431
939.000000	76.446283
938.000000	76.634946
937.000000	76.810895
936.000000	76.947329
935.000000	77.030954
934.000000	77.070501
933.000000	77.089657
932.000000	77.115077
931.000000	77.171524
930.000000	77.276660
929.000000	77.429852
928.000000	77.607766
927.000000	77.776956
926.000000	77.910865
925.000000	77.995501
924.000000	78.029943
923.000000	78.030289
922.000000	78.027901
921.000000	78.054297
920.000000	78.126484
919.000000	78.245565
918.000000	78.400617
917.000000	78.567387
916.000000	78.711509
915.000000	78.804872
914.000000	78.841407
913.000000	78.834956
912.000000	78.806262
911.000000	78.777960
910.000000	78.768824
909.000000	78.775554
908.000000	78.758989
907.000000	78.648093
906.000000	78.363082
905.000000	77.832357
904.000000	77.015108
903.000000	75.949608
902.000000	74.798688
901.000000	73.831894
900.000000	73.323257
899.000000	73.415320
898.000000	74.041527
897.000000	74.977403
896.000000	75.964665
895.000000	76.820265
894.000000	77.472784
893.000000	77.928606
892.000000	78.233674
891.000000	78.450928
890.000000	78.644557
889.000000	78.856187
888.000000	79.093367
887.000000	79.326985
886.000000	79.493211
885.000000	79.502020
884.000000	79.271967
883.000000	78.796446
882.000000	78.173371
881.000000	77.551892
880.000000	77.029929
879.000000	76.602337
878.000000	76.214257
877.000000	75.862735
876.000000	75.644949
875.000000	75.691132
874.000000	76.049313
873.000000	76.630870
872.000000	77.273142
871.000000	77.849952
870.000000	78.325986
869.000000	78.730620
868.000000	79.101440
867.000000	79.455313
866.000000	79.785084
865.000000	80.067313
864.000000	80.273728
863.000000	80.391640
862.000000	80.435654
861.000000	80.439384
860.000000	80.440883
859.000000	80.473422
858.000000	80.558504
857.000000	80.695465
856.000000	80.860029
855.000000	81.018775
854.000000	81.143724
853.000000	81.216774
852.000000	81.232578
851.000000	81.205898
850.000000	81.169939
849.000000	81.158640
848.000000	81.190875
847.000000	81.270460
846.000000	81.390969
845.000000	81.533575
844.000000	81.667541
843.000000	81.763656
842.000000	81.808688
841.000000	81.806045
840.000000	81.770673
839.000000	81.729043
838.000000	81.714890
837.000000	81.752847
836.000000	81.845103
835.000000	81.975115
834.000000	82.118072
833.000000	82.245154
832.000000	82.327827
831.000000	82.351162
830.000000	82.324981
829.000000	82.278804
828.000000	82.248136
827.000000	82.265713
826.000000	82.353710
825.000000	82.510521
824.000000	82.704706
823.000000	82.888476
822.000000	83.019375
821.000000	83.072227
820.000000	83.044640
819.000000	82.962760
818.000000	82.875777
817.000000	82.832861
816.000000	82.860052
815.000000	82.953700
814.000000	83.084129
813.000000	83.199863
812.000000	83.240931
811.000000	83.163102
810.000000	82.956957
809.000000	82.645088
808.000000	82.263560
807.000000	81.847862
806.000000	81.416207
805.000000	80.950107
804.000000	80.390673
803.000000	79.652567
802.000000	78.651854
801.000000	77.321698
800.000000	75.627831
799.000000	73.588910
798.000000	71.274219
797.000000	68.785973
796.000000	66.235148
795.000000	63.729735
794.000000	61.365790
793.000000	59.224910
792.000000	57.381947
791.000000	55.911236
790.000000	54.881846
789.000000	54.337300
788.000000	54.290413
787.000000	54.711816
786.000000	55.527103
785.000000	56.627142
784.000000	57.879941
783.000000	59.147001
782.000000	60.291295
781.000000	61.195021
780.000000	61.781199
779.000000	62.033383
778.000000	61.996441
777.000000	61.755478
776.000000	61.401551
775.000000	61.001138
774.000000	60.592660
773.000000	60.208656
772.000000	59.908949
771.000000	59.785252
770.000000	59.932087
769.000000	60.404110
768.000000	61.198044
767.000000	62.262483
766.000000	63.521878
765.000000	64.901168
764.000000	66.334291
763.000000	67.763848
762.000000	69.134474
761.000000	70.391685
760.000000	71.488934
759.000000	72.402475
758.000000	73.143253
757.000000	73.755804
756.000000	74.306283
755.000000	74.862117
754.000000	75.469490
753.000000	76.134691
752.000000	76.821873
751.000000	77.469454
750.000000	78.013068
749.000000	78.407975
748.000000	78.646973
747.000000	78.768620
746.000000	78.845767
745.000000	78.957339
744.000000	79.160544
743.000000	79.472495
742.000000	79.861824
741.000000	80.256066
740.000000	80.569012
739.000000	80.737438
738.000000	80.743417
737.000000	80.615079
736.000000	80.416483
735.000000	80.228650
734.000000	80.118769
733.000000	80.112104
732.000000	80.186755
731.000000	80.289221
730.000000	80.353068
729.000000	80.317483
728.000000	80.148876
727.000000	79.856084
726.000000	79.483589
725.000000	79.087694
724.000000	78.712520
723.000000	78.366461
722.000000	77.993547
721.000000	77.466540
720.000000	76.634930
719.000000	75.413101
718.000000	73.839773
717.000000	72.074535
716.000000	70.356277
715.000000	68.943236
714.000000	68.044290
713.000000	67.762091
712.000000	68.072948
711.000000	68.847863
710.000000	69.901180
709.000000	71.044212
708.000000	72.129000
707.000000	73.076974
706.000000	73.885549
705.000000	74.607957
704.000000	75.316941
703.000000	76.074821
702.000000	76.909139
701.000000	77.795822
700.000000	78.664708
699.000000	79.426352
698.000000	80.007385
697.000000	80.377313
696.000000	80.563615
695.000000	80.650963
694.000000	80.746900
693.000000	80.936875
692.000000	81.261992
691.000000	81.710243
690.000000	82.214857
689.000000	82.666597
688.000000	82.960351
687.000000	83.055989
686.000000	82.985542
685.000000	82.821981
684.000000	82.663504
683.000000	82.615352
682.000000	82.742641
681.000000	83.029795
680.000000	83.392921
679.000000	83.729333
678.000000	83.942244
677.000000	83.962387
676.000000	83.803757
675.000000	83.543469
674.000000	83.294593
673.000000	83.199101
672.000000	83.392722
671.000000	83.929964
670.000000	84.714010
669.000000	85.433569
668.000000	85.651685
667.000000	85.241881
666.000000	84.555993
665.000000	83.968336
664.000000	83.594214
663.000000	83.418814
662.000000	83.425567
661.000000	83.598805
660.000000	83.881504
659.000000	84.175763
658.000000	84.382394
657.000000	84.441566
656.000000	84.351386
655.000000	84.138023
654.000000	83.874098
653.000000	83.672409
652.000000	83.611659
651.000000	83.697461
650.000000	83.888166
649.000000	84.121253
648.000000	84.305608
647.000000	84.345323
646.000000	84.209646
645.000000	83.950139
644.000000	83.644006
643.000000	83.358385
642.000000	83.157280
641.000000	83.090890
640.000000	83.155847
639.000000	83.287778
638.000000	83.404958
637.000000	83.442587
636.000000	83.349947
635.000000	83.103395
634.000000	82.741150
633.000000	82.354560
632.000000	82.032518
631.000000	81.826513
630.000000	81.753399
629.000000	81.792320
628.000000	81.870463
627.000000	81.880682
626.000000	81.739456
625.000000	81.426272
624.000000	80.974393
623.000000	80.453558
622.000000	79.960978
621.000000	79.590671
620.000000	79.383384
619.000000	79.299740
618.000000	79.234449
617.000000	79.060915
616.000000	78.687207
615.000000	78.094260
614.000000	77.333534
613.000000	76.488472
612.000000	75.637731
611.000000	74.843009
610.000000	74.133121
609.000000	73.478600
608.000000	72.795689
607.000000	71.984284
606.000000	70.967278
605.000000	69.708274
604.000000	68.226323
603.000000	66.601687
602.000000	64.933160
601.000000	63.283414
600.000000	61.677939
599.000000	60.129791
598.000000	58.624413
597.000000	57.103690
596.000000	55.518953
595.000000	53.887592
594.000000	52.265431
593.000000	50.689355
592.000000	49.201657
591.000000	47.883586
590.000000	46.794116
589.000000	45.903990
588.000000	45.134863
587.000000	44.421646
586.000000	43.688403
585.000000	42.828988
584.000000	41.788184
583.000000	40.629470
582.000000	39.476708
581.000000	38.437899
580.000000	37.624598
579.000000	37.177957
578.000000	37.180280
577.000000	37.590235
576.000000	38.300999
575.000000	39.193484
574.000000	40.117239
573.000000	40.905369
572.000000	41.490589
571.000000	41.976485
570.000000	42.556820
569.000000	43.378729
568.000000	44.484066
567.000000	45.810581
566.000000	47.199708
565.000000	48.464790
564.000000	49.503316
563.000000	50.331307
562.000000	51.016300
561.000000	51.615954
560.000000	52.186476
559.000000	52.791205
558.000000	53.460823
557.000000	54.169251
556.000000	54.869941
555.000000	55.535610
554.000000	56.146944
553.000000	56.683122
552.000000	57.151162
551.000000	57.602227
550.000000	58.094680
549.000000	58.652193
548.000000	59.270489
547.000000	59.935995
546.000000	60.614165
545.000000	61.243700
544.000000	61.770225
543.000000	62.181803
542.000000	62.507582
541.000000	62.794498
540.000000	63.094549
539.000000	63.456534
538.000000	63.903721
537.000000	64.416974
536.000000	64.943263
535.000000	65.419879
534.000000	65.791291
533.000000	66.027020
532.000000	66.137095
531.000000	66.172338
530.000000	66.199887
529.000000	66.263465
528.000000	66.358696
527.000000	66.440558
526.000000	66.433394
525.000000	66.252566
524.000000	65.846738
523.000000	65.232613
522.000000	64.501124
521.000000	63.778563
520.000000	63.162836
519.000000	62.658110
518.000000	62.126370
517.000000	61.328228
516.000000	60.055462
515.000000	58.271680
514.000000	56.145199
513.000000	53.981166
512.000000	52.129397
511.000000	50.901939
510.000000	50.471226
509.000000	50.828506
508.000000	51.865402
507.000000	53.418367
506.000000	55.256311
505.000000	57.135368
504.000000	58.899933
503.000000	60.502051
502.000000	61.925888
501.000000	63.163590
500.000000	64.245829
499.000000	65.239804
498.000000	66.193777
497.000000	67.111738
496.000000	67.971416
495.000000	68.746672
494.000000	69.421104
493.000000	69.990293
492.000000	70.468665
491.000000	70.890575
490.000000	71.294171
489.000000	71.709628
488.000000	72.149482
487.000000	72.609117
486.000000	73.071042
485.000000	73.507456
484.000000	73.887021
483.000000	74.187772
482.000000	74.412258
481.000000	74.585239
480.000000	74.735102
479.000000	74.882350
478.000000	75.032810
477.000000	75.175687
476.000000	75.280400
475.000000	75.284022
474.000000	75.088892
473.000000	74.584053
472.000000	73.718650
471.000000	72.585836
470.000000	71.395763
469.000000	70.377664
468.000000	69.717318
467.000000	69.481750
466.000000	69.513349
465.000000	69.462177
464.000000	68.996180
463.000000	68.025983
462.000000	66.812543
461.000000	65.831903
460.000000	65.527213
459.000000	66.146580
458.000000	67.623014
457.000000	69.528809
456.000000	71.350151
455.000000	72.844409
454.000000	74.014126
453.000000	74.905783
452.000000	75.530662
451.000000	75.910650
450.000000	76.083916
449.000000	76.060125
448.000000	75.799201
447.000000	75.249014
446.000000	74.419989
445.000000	73.421153
444.000000	72.458435
443.000000	71.790357
442.000000	71.602331
441.000000	71.883817
440.000000	72.483921
439.000000	73.243155
438.000000	74.045110
437.000000	74.805806
436.000000	75.449953
435.000000	75.920532
434.000000	76.205349
433.000000	76.337929
432.000000	76.363930
431.000000	76.325299
430.000000	76.262883
429.000000	76.201905
428.000000	76.142081
427.000000	76.070394
426.000000	75.976620
425.000000	75.847361
424.000000	75.669936
423.000000	75.464333
422.000000	75.270077
421.000000	75.091557
420.000000	74.901554
419.000000	74.731009
418.000000	74.682016
417.000000	74.763346
416.000000	74.873555
415.000000	74.940118
414.000000	74.962491
413.000000	74.975752
412.000000	75.010677
411.000000	75.083046
410.000000	75.201490
409.000000	75.351657
408.000000	75.505217
407.000000	75.661116
406.000000	75.840010
405.000000	76.029388
404.000000	76.180485
403.000000	76.282164
402.000000	76.392810
401.000000	76.568584
400.000000	76.783398
