PE IR       SUBTECH     SPECTRUM    ASCII       PEDS        4.00        
   -1
23ms075cis.asc
24/10/22
16:04:02.00
24/10/22
16:04:02.00
Administrator
Sample 1335 By Administrator Date Tuesday, October 22 2024
400.000000
#HDR
-1
-1
#GR
cm-1
%T
1.0
0.0
4000.000000
-1.000000
3601
8
77.401037
7.513936
#DATA
4000.000000	53.571958
3999.000000	53.555883
3998.000000	53.544693
3997.000000	53.536574
3996.000000	53.529412
3995.000000	53.522774
3994.000000	53.517790
3993.000000	53.515159
3992.000000	53.514147
3991.000000	53.514346
3990.000000	53.517320
3989.000000	53.525307
3988.000000	53.538932
3987.000000	53.557211
3986.000000	53.579670
3985.000000	53.606952
3984.000000	53.639250
3983.000000	53.675380
3982.000000	53.713831
3981.000000	53.754195
3980.000000	53.797098
3979.000000	53.842761
3978.000000	53.890328
3977.000000	53.938534
3976.000000	53.986664
3975.000000	54.033993
3974.000000	54.079428
3973.000000	54.122247
3972.000000	54.162425
3971.000000	54.200579
3970.000000	54.237772
3969.000000	54.275979
3968.000000	54.317143
3967.000000	54.362361
3966.000000	54.411634
3965.000000	54.464118
3964.000000	54.518634
3963.000000	54.574144
3962.000000	54.631175
3961.000000	54.691752
3960.000000	54.756717
3959.000000	54.824233
3958.000000	54.891441
3957.000000	54.958119
3956.000000	55.025418
3955.000000	55.093572
3954.000000	55.161251
3953.000000	55.225706
3952.000000	55.283883
3951.000000	55.333281
3950.000000	55.374475
3949.000000	55.411557
3948.000000	55.450820
3947.000000	55.498279
3946.000000	55.554017
3945.000000	55.608452
3944.000000	55.649673
3943.000000	55.677085
3942.000000	55.704352
3941.000000	55.744242
3940.000000	55.796064
3939.000000	55.851545
3938.000000	55.905374
3937.000000	55.960011
3936.000000	56.018002
3935.000000	56.074363
3934.000000	56.120812
3933.000000	56.154512
3932.000000	56.181956
3931.000000	56.209364
3930.000000	56.236809
3929.000000	56.264945
3928.000000	56.297058
3927.000000	56.330813
3926.000000	56.353499
3925.000000	56.359290
3924.000000	56.361194
3923.000000	56.372496
3922.000000	56.389068
3921.000000	56.400191
3920.000000	56.405891
3919.000000	56.414200
3918.000000	56.425765
3917.000000	56.436544
3916.000000	56.449617
3915.000000	56.470553
3914.000000	56.497167
3913.000000	56.524063
3912.000000	56.550573
3911.000000	56.582225
3910.000000	56.618887
3909.000000	56.658787
3908.000000	56.700857
3907.000000	56.740843
3906.000000	56.764954
3905.000000	56.760485
3904.000000	56.741393
3903.000000	56.738645
3902.000000	56.764863
3901.000000	56.805049
3900.000000	56.841946
3899.000000	56.878724
3898.000000	56.927369
3897.000000	56.987289
3896.000000	57.051099
3895.000000	57.119457
3894.000000	57.193259
3893.000000	57.264279
3892.000000	57.315456
3891.000000	57.348049
3890.000000	57.381694
3889.000000	57.435773
3888.000000	57.507654
3887.000000	57.568945
3886.000000	57.604253
3885.000000	57.637256
3884.000000	57.686513
3883.000000	57.736764
3882.000000	57.759183
3881.000000	57.746932
3880.000000	57.729682
3879.000000	57.738126
3878.000000	57.773386
3877.000000	57.818188
3876.000000	57.845838
3875.000000	57.839089
3874.000000	57.819102
3873.000000	57.828522
3872.000000	57.872051
3871.000000	57.903693
3870.000000	57.903144
3869.000000	57.913034
3868.000000	57.962415
3867.000000	58.026058
3866.000000	58.061845
3865.000000	58.067815
3864.000000	58.080266
3863.000000	58.113436
3862.000000	58.149125
3861.000000	58.182504
3860.000000	58.217618
3859.000000	58.259973
3858.000000	58.320792
3857.000000	58.419615
3856.000000	58.543092
3855.000000	58.612675
3854.000000	58.604353
3853.000000	58.608833
3852.000000	58.649600
3851.000000	58.662041
3850.000000	58.628612
3849.000000	58.589439
3848.000000	58.584756
3847.000000	58.621606
3846.000000	58.679503
3845.000000	58.737252
3844.000000	58.781206
3843.000000	58.810346
3842.000000	58.839000
3841.000000	58.879971
3840.000000	58.922039
3839.000000	58.958617
3838.000000	58.998782
3837.000000	59.042831
3836.000000	59.074702
3835.000000	59.088356
3834.000000	59.097800
3833.000000	59.113917
3832.000000	59.136886
3831.000000	59.169380
3830.000000	59.215495
3829.000000	59.271720
3828.000000	59.320322
3827.000000	59.344819
3826.000000	59.355527
3825.000000	59.388506
3824.000000	59.460108
3823.000000	59.536520
3822.000000	59.567211
3821.000000	59.563115
3820.000000	59.577958
3819.000000	59.632363
3818.000000	59.703915
3817.000000	59.750137
3816.000000	59.769377
3815.000000	59.799697
3814.000000	59.844303
3813.000000	59.867531
3812.000000	59.858007
3811.000000	59.850596
3810.000000	59.887395
3809.000000	59.963879
3808.000000	60.031539
3807.000000	60.064615
3806.000000	60.087824
3805.000000	60.133770
3804.000000	60.203100
3803.000000	60.260623
3802.000000	60.278067
3801.000000	60.290558
3800.000000	60.325783
3799.000000	60.357261
3798.000000	60.360341
3797.000000	60.341906
3796.000000	60.336448
3795.000000	60.366144
3794.000000	60.418728
3793.000000	60.466672
3792.000000	60.502060
3791.000000	60.536542
3790.000000	60.577806
3789.000000	60.621030
3788.000000	60.660461
3787.000000	60.694662
3786.000000	60.721347
3785.000000	60.737110
3784.000000	60.748055
3783.000000	60.768296
3782.000000	60.800118
3781.000000	60.827877
3780.000000	60.839057
3779.000000	60.847124
3778.000000	60.872005
3777.000000	60.912604
3776.000000	60.948399
3775.000000	60.970010
3774.000000	60.992924
3773.000000	61.034821
3772.000000	61.085949
3771.000000	61.123684
3770.000000	61.151342
3769.000000	61.190849
3768.000000	61.244833
3767.000000	61.296790
3766.000000	61.334434
3765.000000	61.364495
3764.000000	61.407354
3763.000000	61.472134
3762.000000	61.541936
3761.000000	61.594250
3760.000000	61.631292
3759.000000	61.673111
3758.000000	61.717873
3757.000000	61.756290
3756.000000	61.798540
3755.000000	61.859810
3754.000000	61.933968
3753.000000	61.997123
3752.000000	62.048400
3751.000000	62.109071
3750.000000	62.169084
3749.000000	62.200152
3748.000000	62.219586
3747.000000	62.271696
3746.000000	62.334756
3745.000000	62.367553
3744.000000	62.415164
3743.000000	62.495903
3742.000000	62.544247
3741.000000	62.534397
3740.000000	62.512084
3739.000000	62.539455
3738.000000	62.615425
3737.000000	62.679296
3736.000000	62.699496
3735.000000	62.706521
3734.000000	62.736666
3733.000000	62.786136
3732.000000	62.837738
3731.000000	62.883646
3730.000000	62.923632
3729.000000	62.961359
3728.000000	62.993207
3727.000000	63.014887
3726.000000	63.040145
3725.000000	63.079416
3724.000000	63.120848
3723.000000	63.150059
3722.000000	63.173338
3721.000000	63.206921
3720.000000	63.256269
3719.000000	63.316814
3718.000000	63.375961
3717.000000	63.432562
3716.000000	63.495213
3715.000000	63.562448
3714.000000	63.620794
3713.000000	63.661615
3712.000000	63.697646
3711.000000	63.744726
3710.000000	63.801627
3709.000000	63.861007
3708.000000	63.917064
3707.000000	63.967932
3706.000000	64.021102
3705.000000	64.082716
3704.000000	64.147465
3703.000000	64.201788
3702.000000	64.244276
3701.000000	64.287999
3700.000000	64.340867
3699.000000	64.399158
3698.000000	64.451311
3697.000000	64.493433
3696.000000	64.536891
3695.000000	64.589797
3694.000000	64.643239
3693.000000	64.688490
3692.000000	64.726733
3691.000000	64.762149
3690.000000	64.800347
3689.000000	64.856630
3688.000000	64.933179
3687.000000	65.000230
3686.000000	65.033588
3685.000000	65.037423
3684.000000	65.034822
3683.000000	65.053022
3682.000000	65.099209
3681.000000	65.147129
3680.000000	65.176152
3679.000000	65.205065
3678.000000	65.262238
3677.000000	65.317125
3676.000000	65.334847
3675.000000	65.352235
3674.000000	65.394212
3673.000000	65.444023
3672.000000	65.480481
3671.000000	65.487374
3670.000000	65.490503
3669.000000	65.528164
3668.000000	65.582448
3667.000000	65.617998
3666.000000	65.631507
3665.000000	65.641903
3664.000000	65.665450
3663.000000	65.703558
3662.000000	65.741184
3661.000000	65.764973
3660.000000	65.782490
3659.000000	65.807368
3658.000000	65.837953
3657.000000	65.860336
3656.000000	65.879857
3655.000000	65.909589
3654.000000	65.946728
3653.000000	65.980269
3652.000000	65.996063
3651.000000	65.986953
3650.000000	65.978380
3649.000000	66.002442
3648.000000	66.051181
3647.000000	66.098595
3646.000000	66.134855
3645.000000	66.165721
3644.000000	66.197896
3643.000000	66.233352
3642.000000	66.270012
3641.000000	66.308986
3640.000000	66.348636
3639.000000	66.380998
3638.000000	66.403919
3637.000000	66.424512
3636.000000	66.447123
3635.000000	66.459606
3634.000000	66.452625
3633.000000	66.439150
3632.000000	66.437667
3631.000000	66.433821
3630.000000	66.390890
3629.000000	66.336645
3628.000000	66.331512
3627.000000	66.352173
3626.000000	66.338685
3625.000000	66.282715
3624.000000	66.215741
3623.000000	66.165218
3622.000000	66.126092
3621.000000	66.067317
3620.000000	65.971310
3619.000000	65.856309
3618.000000	65.746560
3617.000000	65.646319
3616.000000	65.547116
3615.000000	65.433441
3614.000000	65.296288
3613.000000	65.148462
3612.000000	65.010741
3611.000000	64.886262
3610.000000	64.761754
3609.000000	64.628580
3608.000000	64.492361
3607.000000	64.359396
3606.000000	64.225627
3605.000000	64.086094
3604.000000	63.943305
3603.000000	63.801902
3602.000000	63.664375
3601.000000	63.534575
3600.000000	63.418917
3599.000000	63.315434
3598.000000	63.212040
3597.000000	63.099988
3596.000000	62.978998
3595.000000	62.848542
3594.000000	62.710495
3593.000000	62.570006
3592.000000	62.433756
3591.000000	62.310431
3590.000000	62.206553
3589.000000	62.125680
3588.000000	62.076760
3587.000000	62.069153
3586.000000	62.092079
3585.000000	62.117790
3584.000000	62.124182
3583.000000	62.104777
3582.000000	62.063993
3581.000000	62.009594
3580.000000	61.947171
3579.000000	61.877440
3578.000000	61.799656
3577.000000	61.716226
3576.000000	61.630848
3575.000000	61.544805
3574.000000	61.456274
3573.000000	61.364004
3572.000000	61.266154
3571.000000	61.160260
3570.000000	61.040581
3569.000000	60.898273
3568.000000	60.733520
3567.000000	60.565367
3566.000000	60.413010
3565.000000	60.275416
3564.000000	60.139973
3563.000000	59.997046
3562.000000	59.843608
3561.000000	59.680941
3560.000000	59.511297
3559.000000	59.336008
3558.000000	59.155308
3557.000000	58.970234
3556.000000	58.781549
3555.000000	58.586554
3554.000000	58.379136
3553.000000	58.157652
3552.000000	57.928979
3551.000000	57.699930
3550.000000	57.468345
3549.000000	57.226189
3548.000000	56.968493
3547.000000	56.697779
3546.000000	56.420234
3545.000000	56.140991
3544.000000	55.861456
3543.000000	55.578789
3542.000000	55.288184
3541.000000	54.987172
3540.000000	54.675438
3539.000000	54.350573
3538.000000	54.007591
3537.000000	53.645374
3536.000000	53.269727
3535.000000	52.886027
3534.000000	52.493960
3533.000000	52.089539
3532.000000	51.670158
3531.000000	51.233496
3530.000000	50.775655
3529.000000	50.294963
3528.000000	49.795563
3527.000000	49.283398
3526.000000	48.759411
3525.000000	48.220778
3524.000000	47.667102
3523.000000	47.101630
3522.000000	46.526872
3521.000000	45.942333
3520.000000	45.345372
3519.000000	44.732810
3518.000000	44.103477
3517.000000	43.459908
3516.000000	42.805847
3515.000000	42.142355
3514.000000	41.469499
3513.000000	40.788251
3512.000000	40.097447
3511.000000	39.391624
3510.000000	38.667623
3509.000000	37.932724
3508.000000	37.199919
3507.000000	36.473813
3506.000000	35.746203
3505.000000	35.006854
3504.000000	34.254789
3503.000000	33.497867
3502.000000	32.745560
3501.000000	32.004619
3500.000000	31.276970
3499.000000	30.558335
3498.000000	29.842375
3497.000000	29.128248
3496.000000	28.421356
3495.000000	27.726458
3494.000000	27.044763
3493.000000	26.378062
3492.000000	25.729149
3491.000000	25.097090
3490.000000	24.477752
3489.000000	23.870482
3488.000000	23.280663
3487.000000	22.714374
3486.000000	22.173918
3485.000000	21.658562
3484.000000	21.164129
3483.000000	20.682642
3482.000000	20.208719
3481.000000	19.746781
3480.000000	19.306763
3479.000000	18.891706
3478.000000	18.495013
3477.000000	18.109274
3476.000000	17.731480
3475.000000	17.360164
3474.000000	16.993668
3473.000000	16.633385
3472.000000	16.284090
3471.000000	15.950223
3470.000000	15.636964
3469.000000	15.353502
3468.000000	15.109593
3467.000000	14.908639
3466.000000	14.748012
3465.000000	14.625871
3464.000000	14.542015
3463.000000	14.494172
3462.000000	14.480511
3461.000000	14.504370
3460.000000	14.570834
3459.000000	14.677892
3458.000000	14.816078
3457.000000	14.976606
3456.000000	15.153480
3455.000000	15.339025
3454.000000	15.523645
3453.000000	15.699768
3452.000000	15.861858
3451.000000	16.002150
3450.000000	16.110148
3449.000000	16.177252
3448.000000	16.198716
3447.000000	16.172486
3446.000000	16.101090
3445.000000	15.992115
3444.000000	15.853367
3443.000000	15.688713
3442.000000	15.500863
3441.000000	15.297285
3440.000000	15.088245
3439.000000	14.881286
3438.000000	14.683114
3437.000000	14.504374
3436.000000	14.356620
3435.000000	14.244800
3434.000000	14.166807
3433.000000	14.119523
3432.000000	14.102868
3431.000000	14.118376
3430.000000	14.169490
3429.000000	14.262837
3428.000000	14.403382
3427.000000	14.591025
3426.000000	14.823555
3425.000000	15.101869
3424.000000	15.428935
3423.000000	15.803577
3422.000000	16.222600
3421.000000	16.685563
3420.000000	17.192962
3419.000000	17.741735
3418.000000	18.324855
3417.000000	18.936295
3416.000000	19.571324
3415.000000	20.223829
3414.000000	20.888596
3413.000000	21.563574
3412.000000	22.247148
3411.000000	22.934312
3410.000000	23.618895
3409.000000	24.298148
3408.000000	24.970664
3407.000000	25.631412
3406.000000	26.273404
3405.000000	26.893333
3404.000000	27.492178
3403.000000	28.072468
3402.000000	28.638557
3401.000000	29.197071
3400.000000	29.751809
3399.000000	30.298181
3398.000000	30.827555
3397.000000	31.336050
3396.000000	31.825118
3395.000000	32.296554
3394.000000	32.751926
3393.000000	33.196473
3392.000000	33.637548
3391.000000	34.077863
3390.000000	34.514665
3389.000000	34.944876
3388.000000	35.367690
3387.000000	35.782577
3386.000000	36.188807
3385.000000	36.587871
3384.000000	36.982792
3383.000000	37.375109
3382.000000	37.765296
3381.000000	38.155145
3380.000000	38.546689
3379.000000	38.939141
3378.000000	39.330086
3377.000000	39.719071
3376.000000	40.106843
3375.000000	40.492136
3374.000000	40.872339
3373.000000	41.247034
3372.000000	41.618207
3371.000000	41.987740
3370.000000	42.357277
3369.000000	42.728982
3368.000000	43.103307
3367.000000	43.476999
3366.000000	43.845921
3365.000000	44.209053
3364.000000	44.567692
3363.000000	44.922427
3362.000000	45.273727
3361.000000	45.623768
3360.000000	45.974514
3359.000000	46.324712
3358.000000	46.671498
3357.000000	47.014021
3356.000000	47.352618
3355.000000	47.686049
3354.000000	48.012783
3353.000000	48.334270
3352.000000	48.653825
3351.000000	48.972343
3350.000000	49.287703
3349.000000	49.597841
3348.000000	49.901863
3347.000000	50.199116
3346.000000	50.489691
3345.000000	50.775516
3344.000000	51.058422
3343.000000	51.337023
3342.000000	51.608462
3341.000000	51.872397
3340.000000	52.130912
3339.000000	52.384838
3338.000000	52.632180
3337.000000	52.870541
3336.000000	53.098428
3335.000000	53.314474
3334.000000	53.517588
3333.000000	53.707251
3332.000000	53.882658
3331.000000	54.040890
3330.000000	54.177784
3329.000000	54.290883
3328.000000	54.379031
3327.000000	54.440577
3326.000000	54.472750
3325.000000	54.472450
3324.000000	54.437035
3323.000000	54.362454
3322.000000	54.244557
3321.000000	54.080432
3320.000000	53.866440
3319.000000	53.597746
3318.000000	53.268131
3317.000000	52.872517
3316.000000	52.405776
3315.000000	51.859183
3314.000000	51.223897
3313.000000	50.492801
3312.000000	49.660408
3311.000000	48.721622
3310.000000	47.671278
3309.000000	46.511009
3308.000000	45.246730
3307.000000	43.883704
3306.000000	42.426226
3305.000000	40.876989
3304.000000	39.240175
3303.000000	37.518939
3302.000000	35.718068
3301.000000	33.849258
3300.000000	31.929192
3299.000000	29.979040
3298.000000	28.027471
3297.000000	26.113350
3296.000000	24.278865
3295.000000	22.560382
3294.000000	20.985183
3293.000000	19.574571
3292.000000	18.340669
3291.000000	17.276827
3290.000000	16.363218
3289.000000	15.573184
3288.000000	14.878084
3287.000000	14.250619
3286.000000	13.667426
3285.000000	13.117247
3284.000000	12.596628
3283.000000	12.105085
3282.000000	11.647909
3281.000000	11.236941
3280.000000	10.886978
3279.000000	10.608632
3278.000000	10.409722
3277.000000	10.299750
3276.000000	10.284051
3275.000000	10.358914
3274.000000	10.513673
3273.000000	10.734719
3272.000000	11.004697
3271.000000	11.297915
3270.000000	11.584541
3269.000000	11.837315
3268.000000	12.031823
3267.000000	12.146056
3266.000000	12.166891
3265.000000	12.095266
3264.000000	11.942839
3263.000000	11.726612
3262.000000	11.467581
3261.000000	11.192620
3260.000000	10.928548
3259.000000	10.695230
3258.000000	10.507552
3257.000000	10.378968
3256.000000	10.317792
3255.000000	10.323193
3254.000000	10.388927
3253.000000	10.507660
3252.000000	10.670373
3251.000000	10.862489
3250.000000	11.067945
3249.000000	11.275584
3248.000000	11.476892
3247.000000	11.662394
3246.000000	11.823221
3245.000000	11.954817
3244.000000	12.055715
3243.000000	12.125411
3242.000000	12.165985
3241.000000	12.183728
3240.000000	12.185067
3239.000000	12.172258
3238.000000	12.147008
3237.000000	12.113651
3236.000000	12.076953
3235.000000	12.040035
3234.000000	12.006320
3233.000000	11.980000
3232.000000	11.959810
3231.000000	11.936341
3230.000000	11.899629
3229.000000	11.845927
3228.000000	11.774937
3227.000000	11.684580
3226.000000	11.572966
3225.000000	11.442038
3224.000000	11.294178
3223.000000	11.129152
3222.000000	10.947787
3221.000000	10.755756
3220.000000	10.560084
3219.000000	10.364301
3218.000000	10.170823
3217.000000	9.983662
3216.000000	9.804779
3215.000000	9.631228
3214.000000	9.459707
3213.000000	9.290742
3212.000000	9.125048
3211.000000	8.959867
3210.000000	8.792823
3209.000000	8.626245
3208.000000	8.463803
3207.000000	8.306613
3206.000000	8.156351
3205.000000	8.017850
3204.000000	7.895130
3203.000000	7.787867
3202.000000	7.695452
3201.000000	7.621004
3200.000000	7.566988
3199.000000	7.531847
3198.000000	7.513936
3197.000000	7.515237
3196.000000	7.538006
3195.000000	7.580435
3194.000000	7.640637
3193.000000	7.719784
3192.000000	7.817827
3191.000000	7.931010
3190.000000	8.055818
3189.000000	8.192719
3188.000000	8.342032
3187.000000	8.500079
3186.000000	8.663794
3185.000000	8.834161
3184.000000	9.012209
3183.000000	9.195385
3182.000000	9.381252
3181.000000	9.570929
3180.000000	9.764681
3179.000000	9.958538
3178.000000	10.148901
3177.000000	10.336685
3176.000000	10.523525
3175.000000	10.707641
3174.000000	10.887024
3173.000000	11.062761
3172.000000	11.235701
3171.000000	11.403308
3170.000000	11.563569
3169.000000	11.718410
3168.000000	11.869826
3167.000000	12.016406
3166.000000	12.156434
3165.000000	12.291030
3164.000000	12.420907
3163.000000	12.543535
3162.000000	12.656941
3161.000000	12.762179
3160.000000	12.859605
3159.000000	12.946462
3158.000000	13.020982
3157.000000	13.085795
3156.000000	13.143943
3155.000000	13.195739
3154.000000	13.242509
3153.000000	13.289114
3152.000000	13.339629
3151.000000	13.393748
3150.000000	13.450561
3149.000000	13.512093
3148.000000	13.580005
3147.000000	13.652615
3146.000000	13.728435
3145.000000	13.808934
3144.000000	13.894705
3143.000000	13.982725
3142.000000	14.070196
3141.000000	14.157597
3140.000000	14.244898
3139.000000	14.328677
3138.000000	14.406034
3137.000000	14.477551
3136.000000	14.543114
3135.000000	14.598297
3134.000000	14.638375
3133.000000	14.661587
3132.000000	14.666130
3131.000000	14.647238
3130.000000	14.600055
3129.000000	14.523080
3128.000000	14.415220
3127.000000	14.274935
3126.000000	14.104923
3125.000000	13.913791
3124.000000	13.711318
3123.000000	13.504251
3122.000000	13.299376
3121.000000	13.105390
3120.000000	12.927791
3119.000000	12.765641
3118.000000	12.616322
3117.000000	12.479804
3116.000000	12.355445
3115.000000	12.239320
3114.000000	12.127739
3113.000000	12.020096
3112.000000	11.915540
3111.000000	11.811193
3110.000000	11.706966
3109.000000	11.607423
3108.000000	11.516329
3107.000000	11.433406
3106.000000	11.358872
3105.000000	11.297194
3104.000000	11.252545
3103.000000	11.225464
3102.000000	11.217307
3101.000000	11.233032
3100.000000	11.277353
3099.000000	11.350554
3098.000000	11.451893
3097.000000	11.583030
3096.000000	11.743873
3095.000000	11.930963
3094.000000	12.141667
3093.000000	12.376938
3092.000000	12.637345
3091.000000	12.919065
3090.000000	13.217847
3089.000000	13.531577
3088.000000	13.857114
3087.000000	14.189322
3086.000000	14.525306
3085.000000	14.866494
3084.000000	15.213089
3083.000000	15.560799
3082.000000	15.905767
3081.000000	16.248344
3080.000000	16.589644
3079.000000	16.928222
3078.000000	17.262952
3077.000000	17.594929
3076.000000	17.923742
3075.000000	18.245625
3074.000000	18.558024
3073.000000	18.862544
3072.000000	19.160785
3071.000000	19.451346
3070.000000	19.733309
3069.000000	20.009046
3068.000000	20.280792
3067.000000	20.547279
3066.000000	20.806735
3065.000000	21.059945
3064.000000	21.308059
3063.000000	21.550674
3062.000000	21.788009
3061.000000	22.022206
3060.000000	22.253996
3059.000000	22.481104
3058.000000	22.702176
3057.000000	22.918987
3056.000000	23.133144
3055.000000	23.343774
3054.000000	23.550569
3053.000000	23.755906
3052.000000	23.961456
3051.000000	24.165707
3050.000000	24.366802
3049.000000	24.565022
3048.000000	24.760768
3047.000000	24.953109
3046.000000	25.142369
3045.000000	25.330999
3044.000000	25.519964
3043.000000	25.707392
3042.000000	25.892422
3041.000000	26.077064
3040.000000	26.262275
3039.000000	26.445606
3038.000000	26.625026
3037.000000	26.801970
3036.000000	26.978678
3035.000000	27.155406
3034.000000	27.332135
3033.000000	27.509929
3032.000000	27.688534
3031.000000	27.865815
3030.000000	28.041283
3029.000000	28.216946
3028.000000	28.393112
3027.000000	28.566857
3026.000000	28.736409
3025.000000	28.903580
3024.000000	29.069565
3023.000000	29.231738
3022.000000	29.386579
3021.000000	29.532252
3020.000000	29.666280
3019.000000	29.783047
3018.000000	29.876704
3017.000000	29.944295
3016.000000	29.984786
3015.000000	29.999030
3014.000000	29.993374
3013.000000	29.981998
3012.000000	29.982775
3011.000000	30.011807
3010.000000	30.081115
3009.000000	30.196320
3008.000000	30.352945
3007.000000	30.536608
3006.000000	30.728651
3005.000000	30.910303
3004.000000	31.061325
3003.000000	31.158767
3002.000000	31.180420
3001.000000	31.108557
3000.000000	30.934171
2999.000000	30.664774
2998.000000	30.335067
2997.000000	30.007419
2996.000000	29.755741
2995.000000	29.642556
2994.000000	29.700112
2993.000000	29.921823
2992.000000	30.264026
2991.000000	30.664035
2990.000000	31.065412
2989.000000	31.433604
2988.000000	31.754955
2987.000000	32.028047
2986.000000	32.258637
2985.000000	32.454914
2984.000000	32.621943
2983.000000	32.759134
2982.000000	32.864476
2981.000000	32.937117
2980.000000	32.974772
2979.000000	32.971899
2978.000000	32.923412
2977.000000	32.830410
2976.000000	32.700957
2975.000000	32.550295
2974.000000	32.401044
2973.000000	32.278748
2972.000000	32.201838
2971.000000	32.172995
2970.000000	32.177952
2969.000000	32.187369
2968.000000	32.159764
2967.000000	32.052610
2966.000000	31.841484
2965.000000	31.533683
2964.000000	31.164945
2963.000000	30.784885
2962.000000	30.442872
2961.000000	30.176868
2960.000000	30.007276
2959.000000	29.938355
2958.000000	29.967192
2957.000000	30.087563
2956.000000	30.286122
2955.000000	30.540626
2954.000000	30.824309
2953.000000	31.109949
2952.000000	31.368374
2951.000000	31.572504
2950.000000	31.708041
2949.000000	31.780983
2948.000000	31.811553
2947.000000	31.819155
2946.000000	31.807310
2945.000000	31.751057
2944.000000	31.597922
2943.000000	31.294543
2942.000000	30.835017
2941.000000	30.294469
2940.000000	29.817233
2939.000000	29.560553
2938.000000	29.625969
2937.000000	30.018799
2936.000000	30.653448
2935.000000	31.401505
2934.000000	32.148764
2933.000000	32.827262
2932.000000	33.412654
2931.000000	33.907793
2930.000000	34.329439
2929.000000	34.697478
2928.000000	35.027318
2927.000000	35.327155
2926.000000	35.602669
2925.000000	35.859340
2924.000000	36.099489
2923.000000	36.321238
2922.000000	36.522956
2921.000000	36.705674
2920.000000	36.869325
2919.000000	37.011278
2918.000000	37.130208
2917.000000	37.228708
2916.000000	37.310259
2915.000000	37.376543
2914.000000	37.429517
2913.000000	37.472582
2912.000000	37.507510
2911.000000	37.532720
2910.000000	37.545613
2909.000000	37.544020
2908.000000	37.523609
2907.000000	37.475743
2906.000000	37.389680
2905.000000	37.254120
2904.000000	37.055974
2903.000000	36.783104
2902.000000	36.431708
2901.000000	36.011872
2900.000000	35.548297
2899.000000	35.079004
2898.000000	34.652667
2897.000000	34.320132
2896.000000	34.118668
2895.000000	34.061422
2894.000000	34.139727
2893.000000	34.329884
2892.000000	34.599260
2891.000000	34.912692
2890.000000	35.241307
2889.000000	35.565740
2888.000000	35.872924
2887.000000	36.153316
2886.000000	36.402173
2885.000000	36.620328
2884.000000	36.809920
2883.000000	36.972306
2882.000000	37.110440
2881.000000	37.230207
2880.000000	37.337532
2879.000000	37.436387
2878.000000	37.530638
2877.000000	37.624444
2876.000000	37.718930
2875.000000	37.810846
2874.000000	37.896810
2873.000000	37.976824
2872.000000	38.053118
2871.000000	38.128948
2870.000000	38.210091
2869.000000	38.304417
2868.000000	38.417005
2867.000000	38.546871
2866.000000	38.689289
2865.000000	38.838680
2864.000000	38.988420
2863.000000	39.131646
2862.000000	39.264815
2861.000000	39.388714
2860.000000	39.504941
2859.000000	39.613714
2858.000000	39.716276
2857.000000	39.816389
2856.000000	39.917469
2855.000000	40.020387
2854.000000	40.125042
2853.000000	40.231082
2852.000000	40.335458
2851.000000	40.432004
2850.000000	40.515551
2849.000000	40.584959
2848.000000	40.641704
2847.000000	40.688440
2846.000000	40.730250
2845.000000	40.774098
2844.000000	40.824889
2843.000000	40.883490
2842.000000	40.949456
2841.000000	41.023467
2840.000000	41.105730
2839.000000	41.194508
2838.000000	41.287878
2837.000000	41.385158
2836.000000	41.485678
2835.000000	41.588206
2834.000000	41.692573
2833.000000	41.799863
2832.000000	41.910006
2831.000000	42.021015
2830.000000	42.131439
2829.000000	42.241385
2828.000000	42.350249
2827.000000	42.455760
2826.000000	42.556364
2825.000000	42.652581
2824.000000	42.745155
2823.000000	42.833887
2822.000000	42.919309
2821.000000	43.003272
2820.000000	43.086552
2819.000000	43.167703
2818.000000	43.245158
2817.000000	43.318671
2816.000000	43.387982
2815.000000	43.452183
2814.000000	43.511544
2813.000000	43.568060
2812.000000	43.623166
2811.000000	43.676659
2810.000000	43.728523
2809.000000	43.779757
2808.000000	43.830524
2807.000000	43.879522
2806.000000	43.926269
2805.000000	43.972107
2804.000000	44.018009
2803.000000	44.063355
2802.000000	44.107820
2801.000000	44.152545
2800.000000	44.198396
2799.000000	44.244740
2798.000000	44.290735
2797.000000	44.336064
2796.000000	44.379739
2795.000000	44.420157
2794.000000	44.457246
2793.000000	44.492770
2792.000000	44.527852
2791.000000	44.561999
2790.000000	44.595071
2789.000000	44.627958
2788.000000	44.660480
2787.000000	44.690702
2786.000000	44.717435
2785.000000	44.741869
2784.000000	44.766254
2783.000000	44.793109
2782.000000	44.826174
2781.000000	44.869388
2780.000000	44.923506
2779.000000	44.985349
2778.000000	45.051095
2777.000000	45.118661
2776.000000	45.186480
2775.000000	45.252509
2774.000000	45.315776
2773.000000	45.376983
2772.000000	45.436658
2771.000000	45.494357
2770.000000	45.550104
2769.000000	45.604539
2768.000000	45.656917
2767.000000	45.704980
2766.000000	45.747765
2765.000000	45.786548
2764.000000	45.822335
2763.000000	45.854630
2762.000000	45.883381
2761.000000	45.909965
2760.000000	45.935143
2759.000000	45.957919
2758.000000	45.977523
2757.000000	45.994482
2756.000000	46.008865
2755.000000	46.019612
2754.000000	46.026830
2753.000000	46.033297
2752.000000	46.042777
2751.000000	46.058246
2750.000000	46.081984
2749.000000	46.114758
2748.000000	46.153489
2747.000000	46.191645
2746.000000	46.223534
2745.000000	46.247553
2744.000000	46.265463
2743.000000	46.280563
2742.000000	46.296661
2741.000000	46.315895
2740.000000	46.335881
2739.000000	46.350852
2738.000000	46.357418
2737.000000	46.358914
2736.000000	46.364094
2735.000000	46.383231
2734.000000	46.424891
2733.000000	46.492330
2732.000000	46.580855
2731.000000	46.679992
2730.000000	46.779445
2729.000000	46.872824
2728.000000	46.956582
2727.000000	47.028747
2726.000000	47.090112
2725.000000	47.144123
2724.000000	47.193609
2723.000000	47.238703
2722.000000	47.278110
2721.000000	47.310385
2720.000000	47.333791
2719.000000	47.347036
2718.000000	47.351719
2717.000000	47.352790
2716.000000	47.355528
2715.000000	47.363498
2714.000000	47.379394
2713.000000	47.405255
2712.000000	47.440652
2711.000000	47.482431
2710.000000	47.527166
2709.000000	47.572598
2708.000000	47.616423
2707.000000	47.655900
2706.000000	47.689715
2705.000000	47.718450
2704.000000	47.742295
2703.000000	47.759972
2702.000000	47.770467
2701.000000	47.773565
2700.000000	47.768335
2699.000000	47.753048
2698.000000	47.727811
2697.000000	47.696055
2696.000000	47.662392
2695.000000	47.630701
2694.000000	47.604447
2693.000000	47.586189
2692.000000	47.575465
2691.000000	47.568844
2690.000000	47.563202
2689.000000	47.557868
2688.000000	47.553429
2687.000000	47.550409
2686.000000	47.549987
2685.000000	47.553980
2684.000000	47.563264
2683.000000	47.578006
2682.000000	47.599452
2681.000000	47.629475
2680.000000	47.667503
2679.000000	47.709783
2678.000000	47.752500
2677.000000	47.793457
2676.000000	47.830471
2675.000000	47.860770
2674.000000	47.883072
2673.000000	47.898347
2672.000000	47.907737
2671.000000	47.911682
2670.000000	47.912046
2669.000000	47.913229
2668.000000	47.919950
2667.000000	47.935408
2666.000000	47.961922
2665.000000	48.000783
2664.000000	48.049974
2663.000000	48.103842
2662.000000	48.155996
2661.000000	48.201304
2660.000000	48.235230
2659.000000	48.253911
2658.000000	48.256449
2657.000000	48.246025
2656.000000	48.228036
2655.000000	48.208447
2654.000000	48.194106
2653.000000	48.191906
2652.000000	48.205987
2651.000000	48.236813
2650.000000	48.282966
2649.000000	48.341643
2648.000000	48.407447
2647.000000	48.473203
2646.000000	48.533421
2645.000000	48.586181
2644.000000	48.631565
2643.000000	48.670902
2642.000000	48.707908
2641.000000	48.747728
2640.000000	48.793284
2639.000000	48.843789
2638.000000	48.897047
2637.000000	48.951052
2636.000000	49.002977
2635.000000	49.049207
2634.000000	49.087894
2633.000000	49.119696
2632.000000	49.145251
2631.000000	49.164041
2630.000000	49.176232
2629.000000	49.183758
2628.000000	49.188284
2627.000000	49.189889
2626.000000	49.188905
2625.000000	49.186794
2624.000000	49.184477
2623.000000	49.181576
2622.000000	49.178201
2621.000000	49.175658
2620.000000	49.173990
2619.000000	49.170639
2618.000000	49.162441
2617.000000	49.147356
2616.000000	49.123814
2615.000000	49.090277
2614.000000	49.047027
2613.000000	48.996949
2612.000000	48.943544
2611.000000	48.889950
2610.000000	48.840309
2609.000000	48.799904
2608.000000	48.772557
2607.000000	48.759419
2606.000000	48.760625
2605.000000	48.776680
2604.000000	48.807083
2603.000000	48.849179
2602.000000	48.899860
2601.000000	48.956065
2600.000000	49.013710
2599.000000	49.068193
2598.000000	49.116919
2597.000000	49.160280
2596.000000	49.199471
2595.000000	49.235356
2594.000000	49.269904
2593.000000	49.306287
2592.000000	49.346065
2591.000000	49.387786
2590.000000	49.428843
2589.000000	49.466930
2588.000000	49.499404
2587.000000	49.523605
2586.000000	49.539527
2585.000000	49.550736
2584.000000	49.561752
2583.000000	49.576073
2582.000000	49.597249
2581.000000	49.629435
2580.000000	49.675291
2579.000000	49.734481
2578.000000	49.804670
2577.000000	49.883000
2576.000000	49.965873
2575.000000	50.049444
2574.000000	50.131652
2573.000000	50.212202
2572.000000	50.290400
2571.000000	50.364392
2570.000000	50.433016
2569.000000	50.496638
2568.000000	50.555624
2567.000000	50.609583
2566.000000	50.658945
2565.000000	50.705719
2564.000000	50.751620
2563.000000	50.797031
2562.000000	50.842052
2561.000000	50.886940
2560.000000	50.930939
2559.000000	50.972182
2558.000000	51.009812
2557.000000	51.044779
2556.000000	51.078257
2555.000000	51.110975
2554.000000	51.144579
2553.000000	51.181717
2552.000000	51.223737
2551.000000	51.269641
2550.000000	51.317872
2549.000000	51.367576
2548.000000	51.417458
2547.000000	51.465171
2546.000000	51.508818
2545.000000	51.547883
2544.000000	51.581988
2543.000000	51.610317
2542.000000	51.632838
2541.000000	51.650377
2540.000000	51.662948
2539.000000	51.668785
2538.000000	51.666075
2537.000000	51.654364
2536.000000	51.633501
2535.000000	51.603297
2534.000000	51.564326
2533.000000	51.518254
2532.000000	51.466843
2531.000000	51.411522
2530.000000	51.354686
2529.000000	51.299400
2528.000000	51.247494
2527.000000	51.199326
2526.000000	51.155547
2525.000000	51.117238
2524.000000	51.083671
2523.000000	51.051662
2522.000000	51.017782
2521.000000	50.979740
2520.000000	50.935427
2519.000000	50.882732
2518.000000	50.821239
2517.000000	50.752639
2516.000000	50.678581
2515.000000	50.600140
2514.000000	50.519750
2513.000000	50.441887
2512.000000	50.371041
2511.000000	50.310733
2510.000000	50.264593
2509.000000	50.236092
2508.000000	50.226309
2507.000000	50.232981
2506.000000	50.253438
2505.000000	50.285911
2504.000000	50.327932
2503.000000	50.375985
2502.000000	50.426919
2501.000000	50.478846
2500.000000	50.529474
2499.000000	50.575637
2498.000000	50.615262
2497.000000	50.647937
2496.000000	50.673093
2495.000000	50.689593
2494.000000	50.697911
2493.000000	50.700677
2492.000000	50.700682
2491.000000	50.699652
2490.000000	50.699610
2489.000000	50.703348
2488.000000	50.712433
2487.000000	50.726366
2486.000000	50.744220
2485.000000	50.765459
2484.000000	50.788647
2483.000000	50.811537
2482.000000	50.833138
2481.000000	50.854278
2480.000000	50.875709
2479.000000	50.897408
2478.000000	50.920415
2477.000000	50.947155
2476.000000	50.979306
2475.000000	51.017090
2474.000000	51.060979
2473.000000	51.112494
2472.000000	51.172182
2471.000000	51.238606
2470.000000	51.309857
2469.000000	51.384007
2468.000000	51.457958
2467.000000	51.527696
2466.000000	51.590758
2465.000000	51.646980
2464.000000	51.696603
2463.000000	51.739409
2462.000000	51.776342
2461.000000	51.809983
2460.000000	51.842102
2459.000000	51.872441
2458.000000	51.899959
2457.000000	51.923906
2456.000000	51.943203
2455.000000	51.956350
2454.000000	51.963264
2453.000000	51.965785
2452.000000	51.966291
2451.000000	51.967175
2450.000000	51.971653
2449.000000	51.983021
2448.000000	52.002493
2447.000000	52.029406
2446.000000	52.063628
2445.000000	52.106116
2444.000000	52.156271
2443.000000	52.211030
2442.000000	52.267030
2441.000000	52.321860
2440.000000	52.373124
2439.000000	52.418333
2438.000000	52.456835
2437.000000	52.490058
2436.000000	52.519303
2435.000000	52.544475
2434.000000	52.565441
2433.000000	52.582522
2432.000000	52.594805
2431.000000	52.600186
2430.000000	52.597232
2429.000000	52.585867
2428.000000	52.565673
2427.000000	52.535175
2426.000000	52.494125
2425.000000	52.444257
2424.000000	52.387948
2423.000000	52.327913
2422.000000	52.268772
2421.000000	52.216847
2420.000000	52.176817
2419.000000	52.149963
2418.000000	52.135706
2417.000000	52.133004
2416.000000	52.138923
2415.000000	52.148194
2414.000000	52.155085
2413.000000	52.154697
2412.000000	52.142317
2411.000000	52.114011
2410.000000	52.068865
2409.000000	52.009151
2408.000000	51.938189
2407.000000	51.859213
2406.000000	51.777032
2405.000000	51.697632
2404.000000	51.625148
2403.000000	51.560935
2402.000000	51.506077
2401.000000	51.462412
2400.000000	51.430085
2399.000000	51.406570
2398.000000	51.388761
2397.000000	51.374253
2396.000000	51.359447
2395.000000	51.339230
2394.000000	51.309935
2393.000000	51.271068
2392.000000	51.223050
2391.000000	51.166037
2390.000000	51.102253
2389.000000	51.036713
2388.000000	50.975493
2387.000000	50.923584
2386.000000	50.886175
2385.000000	50.869440
2384.000000	50.876584
2383.000000	50.906646
2382.000000	50.955916
2381.000000	51.019633
2380.000000	51.091291
2379.000000	51.161314
2378.000000	51.220785
2377.000000	51.265198
2376.000000	51.291852
2375.000000	51.297555
2374.000000	51.281599
2373.000000	51.246899
2372.000000	51.198774
2371.000000	51.140660
2370.000000	51.073868
2369.000000	51.005452
2368.000000	50.948299
2367.000000	50.910485
2366.000000	50.891880
2365.000000	50.899320
2364.000000	50.946787
2363.000000	51.025689
2362.000000	51.128708
2361.000000	51.252772
2360.000000	51.379761
2359.000000	51.497993
2358.000000	51.584295
2357.000000	51.631154
2356.000000	51.640681
2355.000000	51.601442
2354.000000	51.533164
2353.000000	51.481592
2352.000000	51.522024
2351.000000	51.643511
2350.000000	51.748602
2349.000000	51.771137
2348.000000	51.715480
2347.000000	51.679767
2346.000000	51.727142
2345.000000	51.843378
2344.000000	51.964709
2343.000000	52.028779
2342.000000	52.067545
2341.000000	52.096071
2340.000000	52.120749
2339.000000	52.129488
2338.000000	52.123294
2337.000000	52.112533
2336.000000	52.102704
2335.000000	52.096139
2334.000000	52.088525
2333.000000	52.071904
2332.000000	52.037897
2331.000000	51.984798
2330.000000	51.898059
2329.000000	51.813209
2328.000000	51.724161
2327.000000	51.664280
2326.000000	51.621747
2325.000000	51.606513
2324.000000	51.610338
2323.000000	51.614309
2322.000000	51.613990
2321.000000	51.597111
2320.000000	51.571748
2319.000000	51.536773
2318.000000	51.497147
2317.000000	51.459015
2316.000000	51.418507
2315.000000	51.379482
2314.000000	51.327908
2313.000000	51.266752
2312.000000	51.179770
2311.000000	51.076244
2310.000000	50.950718
2309.000000	50.819717
2308.000000	50.678469
2307.000000	50.536139
2306.000000	50.389270
2305.000000	50.247656
2304.000000	50.110288
2303.000000	49.981623
2302.000000	49.857431
2301.000000	49.740309
2300.000000	49.622773
2299.000000	49.506539
2298.000000	49.389240
2297.000000	49.281762
2296.000000	49.186277
2295.000000	49.112355
2294.000000	49.061769
2293.000000	49.041294
2292.000000	49.048553
2291.000000	49.081339
2290.000000	49.134535
2289.000000	49.204506
2288.000000	49.286599
2287.000000	49.376980
2286.000000	49.475279
2285.000000	49.580969
2284.000000	49.691557
2283.000000	49.801392
2282.000000	49.907860
2281.000000	50.008742
2280.000000	50.101514
2279.000000	50.182144
2278.000000	50.251077
2277.000000	50.312155
2276.000000	50.369895
2275.000000	50.428366
2274.000000	50.491872
2273.000000	50.565587
2272.000000	50.651511
2271.000000	50.749603
2270.000000	50.859627
2269.000000	50.982038
2268.000000	51.116053
2267.000000	51.260020
2266.000000	51.412767
2265.000000	51.573684
2264.000000	51.739137
2263.000000	51.904546
2262.000000	52.066234
2261.000000	52.221865
2260.000000	52.368728
2259.000000	52.503103
2258.000000	52.624716
2257.000000	52.735317
2256.000000	52.837671
2255.000000	52.933518
2254.000000	53.025670
2253.000000	53.117693
2252.000000	53.211186
2251.000000	53.306159
2250.000000	53.401718
2249.000000	53.497110
2248.000000	53.590277
2247.000000	53.678700
2246.000000	53.760815
2245.000000	53.836578
2244.000000	53.905539
2243.000000	53.967145
2242.000000	54.021812
2241.000000	54.070575
2240.000000	54.113045
2239.000000	54.147526
2238.000000	54.173200
2237.000000	54.190447
2236.000000	54.199895
2235.000000	54.202427
2234.000000	54.201004
2233.000000	54.200216
2232.000000	54.203999
2231.000000	54.214433
2230.000000	54.232342
2229.000000	54.257103
2228.000000	54.285929
2227.000000	54.315191
2226.000000	54.342599
2225.000000	54.367161
2224.000000	54.387500
2223.000000	54.402368
2222.000000	54.412394
2221.000000	54.419854
2220.000000	54.426572
2219.000000	54.433932
2218.000000	54.444365
2217.000000	54.460900
2216.000000	54.484901
2215.000000	54.515778
2214.000000	54.552773
2213.000000	54.595143
2212.000000	54.641009
2211.000000	54.687897
2210.000000	54.734660
2209.000000	54.781076
2208.000000	54.825726
2207.000000	54.865979
2206.000000	54.899936
2205.000000	54.926833
2204.000000	54.945521
2203.000000	54.954615
2202.000000	54.954214
2201.000000	54.946187
2200.000000	54.932771
2199.000000	54.916439
2198.000000	54.900897
2197.000000	54.890107
2196.000000	54.886159
2195.000000	54.889321
2194.000000	54.900109
2193.000000	54.919476
2192.000000	54.947125
2191.000000	54.981643
2190.000000	55.022304
2189.000000	55.069330
2188.000000	55.122271
2187.000000	55.179827
2186.000000	55.240825
2185.000000	55.303734
2184.000000	55.365354
2183.000000	55.421771
2182.000000	55.470865
2181.000000	55.512627
2180.000000	55.547764
2179.000000	55.577588
2178.000000	55.604790
2177.000000	55.632057
2176.000000	55.659361
2175.000000	55.683933
2174.000000	55.702683
2173.000000	55.713547
2172.000000	55.715151
2171.000000	55.707478
2170.000000	55.693187
2169.000000	55.676685
2168.000000	55.661578
2167.000000	55.649821
2166.000000	55.642589
2165.000000	55.639971
2164.000000	55.639967
2163.000000	55.639832
2162.000000	55.638680
2161.000000	55.637776
2160.000000	55.638787
2159.000000	55.643415
2158.000000	55.654202
2157.000000	55.673410
2156.000000	55.700747
2155.000000	55.733404
2154.000000	55.768073
2153.000000	55.801542
2152.000000	55.830408
2151.000000	55.852593
2150.000000	55.869293
2149.000000	55.883811
2148.000000	55.898500
2147.000000	55.914198
2146.000000	55.931516
2145.000000	55.950456
2144.000000	55.968871
2143.000000	55.983504
2142.000000	55.992873
2141.000000	55.997857
2140.000000	55.999652
2139.000000	55.998987
2138.000000	55.997125
2137.000000	55.995597
2136.000000	55.994502
2135.000000	55.992279
2134.000000	55.987092
2133.000000	55.976988
2132.000000	55.959368
2131.000000	55.932455
2130.000000	55.897584
2129.000000	55.858588
2128.000000	55.819192
2127.000000	55.782396
2126.000000	55.751633
2125.000000	55.730177
2124.000000	55.718941
2123.000000	55.716772
2122.000000	55.723043
2121.000000	55.738366
2120.000000	55.762926
2119.000000	55.795770
2118.000000	55.835543
2117.000000	55.880345
2116.000000	55.926994
2115.000000	55.971953
2114.000000	56.013025
2113.000000	56.048785
2112.000000	56.077072
2111.000000	56.095908
2110.000000	56.105588
2109.000000	56.108460
2108.000000	56.107208
2107.000000	56.104846
2106.000000	56.105664
2105.000000	56.113564
2104.000000	56.128878
2103.000000	56.147907
2102.000000	56.165120
2101.000000	56.174588
2100.000000	56.170393
2099.000000	56.148489
2098.000000	56.109200
2097.000000	56.057125
2096.000000	55.999288
2095.000000	55.944326
2094.000000	55.901238
2093.000000	55.875940
2092.000000	55.869051
2091.000000	55.878350
2090.000000	55.902556
2089.000000	55.940961
2088.000000	55.990590
2087.000000	56.046682
2086.000000	56.105422
2085.000000	56.163737
2084.000000	56.217507
2083.000000	56.262382
2082.000000	56.295592
2081.000000	56.315438
2080.000000	56.319931
2079.000000	56.308229
2078.000000	56.282924
2077.000000	56.248672
2076.000000	56.209070
2075.000000	56.166503
2074.000000	56.122963
2073.000000	56.078467
2072.000000	56.029295
2071.000000	55.970813
2070.000000	55.902109
2069.000000	55.824777
2068.000000	55.738436
2067.000000	55.641727
2066.000000	55.538044
2065.000000	55.436157
2064.000000	55.342735
2063.000000	55.257064
2062.000000	55.173617
2061.000000	55.086764
2060.000000	54.992677
2059.000000	54.890171
2058.000000	54.781846
2057.000000	54.673151
2056.000000	54.569549
2055.000000	54.475301
2054.000000	54.394089
2053.000000	54.327610
2052.000000	54.273062
2051.000000	54.224827
2050.000000	54.179248
2049.000000	54.135916
2048.000000	54.095269
2047.000000	54.058766
2046.000000	54.030935
2045.000000	54.016135
2044.000000	54.013191
2043.000000	54.017096
2042.000000	54.025642
2041.000000	54.040689
2040.000000	54.062796
2039.000000	54.089973
2038.000000	54.122504
2037.000000	54.164506
2036.000000	54.220197
2035.000000	54.291356
2034.000000	54.378320
2033.000000	54.479511
2032.000000	54.588962
2031.000000	54.698076
2030.000000	54.800653
2029.000000	54.894293
2028.000000	54.978350
2027.000000	55.054019
2026.000000	55.126002
2025.000000	55.200313
2024.000000	55.279578
2023.000000	55.362845
2022.000000	55.448913
2021.000000	55.535192
2020.000000	55.614408
2019.000000	55.678817
2018.000000	55.729739
2017.000000	55.778943
2016.000000	55.838618
2015.000000	55.913429
2014.000000	56.002127
2013.000000	56.101251
2012.000000	56.205121
2011.000000	56.306710
2010.000000	56.401291
2009.000000	56.487841
2008.000000	56.567381
2007.000000	56.642453
2006.000000	56.718078
2005.000000	56.799530
2004.000000	56.887738
2003.000000	56.978877
2002.000000	57.068309
2001.000000	57.152367
2000.000000	57.227339
1999.000000	57.290502
1998.000000	57.344323
1997.000000	57.397370
1996.000000	57.456457
1995.000000	57.518989
1994.000000	57.577294
1993.000000	57.630526
1992.000000	57.687613
1991.000000	57.756027
1990.000000	57.833162
1989.000000	57.911616
1988.000000	57.988185
1987.000000	58.064749
1986.000000	58.143780
1985.000000	58.226066
1984.000000	58.311613
1983.000000	58.400093
1982.000000	58.489795
1981.000000	58.578020
1980.000000	58.662838
1979.000000	58.743027
1978.000000	58.817918
1977.000000	58.889618
1976.000000	58.963205
1975.000000	59.042259
1974.000000	59.126060
1973.000000	59.212765
1972.000000	59.301889
1971.000000	59.390088
1970.000000	59.467238
1969.000000	59.522436
1968.000000	59.554640
1967.000000	59.574364
1966.000000	59.593313
1965.000000	59.614437
1964.000000	59.633082
1963.000000	59.642910
1962.000000	59.639702
1961.000000	59.623625
1960.000000	59.598514
1959.000000	59.568497
1958.000000	59.535666
1957.000000	59.502326
1956.000000	59.474457
1955.000000	59.459571
1954.000000	59.461174
1953.000000	59.477332
1952.000000	59.504180
1951.000000	59.538424
1950.000000	59.575690
1949.000000	59.610302
1948.000000	59.640814
1947.000000	59.671290
1946.000000	59.701900
1945.000000	59.722206
1944.000000	59.720670
1943.000000	59.702107
1942.000000	59.686971
1941.000000	59.688943
1940.000000	59.704005
1939.000000	59.721390
1938.000000	59.734320
1937.000000	59.741084
1936.000000	59.741537
1935.000000	59.735222
1934.000000	59.722514
1933.000000	59.704802
1932.000000	59.683729
1931.000000	59.662425
1930.000000	59.644166
1929.000000	59.630882
1928.000000	59.626238
1927.000000	59.634987
1926.000000	59.654480
1925.000000	59.669787
1924.000000	59.669009
1923.000000	59.663905
1922.000000	59.676911
1921.000000	59.709435
1920.000000	59.739882
1919.000000	59.751137
1918.000000	59.751272
1917.000000	59.755859
1916.000000	59.762848
1915.000000	59.764144
1914.000000	59.759824
1913.000000	59.750204
1912.000000	59.729536
1911.000000	59.695829
1910.000000	59.659113
1909.000000	59.632652
1908.000000	59.620838
1907.000000	59.621937
1906.000000	59.636393
1905.000000	59.661978
1904.000000	59.690958
1903.000000	59.720692
1902.000000	59.757525
1901.000000	59.806718
1900.000000	59.866419
1899.000000	59.933874
1898.000000	60.008176
1897.000000	60.082963
1896.000000	60.148372
1895.000000	60.206520
1894.000000	60.269703
1893.000000	60.337939
1892.000000	60.393039
1891.000000	60.421475
1890.000000	60.435877
1889.000000	60.462027
1888.000000	60.507441
1887.000000	60.561831
1886.000000	60.616987
1885.000000	60.668889
1884.000000	60.713669
1883.000000	60.751768
1882.000000	60.788797
1881.000000	60.827914
1880.000000	60.867740
1879.000000	60.909544
1878.000000	60.959949
1877.000000	61.021360
1876.000000	61.085528
1875.000000	61.145626
1874.000000	61.204885
1873.000000	61.264826
1872.000000	61.314192
1871.000000	61.337908
1870.000000	61.336426
1869.000000	61.334666
1868.000000	61.358401
1867.000000	61.411943
1866.000000	61.489195
1865.000000	61.579481
1864.000000	61.664982
1863.000000	61.732460
1862.000000	61.784020
1861.000000	61.827994
1860.000000	61.867492
1859.000000	61.906060
1858.000000	61.953717
1857.000000	62.016321
1856.000000	62.085730
1855.000000	62.150919
1854.000000	62.209957
1853.000000	62.264741
1852.000000	62.314025
1851.000000	62.354586
1850.000000	62.386612
1849.000000	62.416664
1848.000000	62.454552
1847.000000	62.507848
1846.000000	62.571342
1845.000000	62.628233
1844.000000	62.676482
1843.000000	62.722481
1842.000000	62.763208
1841.000000	62.800343
1840.000000	62.838215
1839.000000	62.875194
1838.000000	62.912174
1837.000000	62.954604
1836.000000	63.006046
1835.000000	63.066347
1834.000000	63.130438
1833.000000	63.186876
1832.000000	63.220403
1831.000000	63.224757
1830.000000	63.227120
1829.000000	63.263279
1828.000000	63.329530
1827.000000	63.397424
1826.000000	63.452361
1825.000000	63.508492
1824.000000	63.580725
1823.000000	63.659353
1822.000000	63.730666
1821.000000	63.793229
1820.000000	63.844499
1819.000000	63.877071
1818.000000	63.896700
1817.000000	63.924865
1816.000000	63.974314
1815.000000	64.032933
1814.000000	64.079191
1813.000000	64.100833
1812.000000	64.095493
1811.000000	64.069737
1810.000000	64.039008
1809.000000	64.014808
1808.000000	63.998229
1807.000000	63.993951
1806.000000	64.014835
1805.000000	64.058983
1804.000000	64.096526
1803.000000	64.095463
1802.000000	64.059127
1801.000000	64.025537
1800.000000	64.020851
1799.000000	64.036938
1798.000000	64.057887
1797.000000	64.081665
1796.000000	64.116742
1795.000000	64.169587
1794.000000	64.228656
1793.000000	64.268900
1792.000000	64.280949
1791.000000	64.277110
1790.000000	64.277775
1789.000000	64.298736
1788.000000	64.333431
1787.000000	64.358650
1786.000000	64.367192
1785.000000	64.378870
1784.000000	64.409690
1783.000000	64.446764
1782.000000	64.465528
1781.000000	64.462181
1780.000000	64.454615
1779.000000	64.455938
1778.000000	64.462846
1777.000000	64.473527
1776.000000	64.501639
1775.000000	64.561965
1774.000000	64.647962
1773.000000	64.749258
1772.000000	64.869333
1771.000000	64.980316
1770.000000	65.041694
1769.000000	65.059297
1768.000000	65.075338
1767.000000	65.121817
1766.000000	65.195960
1765.000000	65.283489
1764.000000	65.369673
1763.000000	65.430999
1762.000000	65.464159
1761.000000	65.492369
1760.000000	65.519487
1759.000000	65.527778
1758.000000	65.506347
1757.000000	65.481023
1756.000000	65.502772
1755.000000	65.578703
1754.000000	65.673325
1753.000000	65.754084
1752.000000	65.802476
1751.000000	65.820833
1750.000000	65.820574
1749.000000	65.816245
1748.000000	65.837547
1747.000000	65.898431
1746.000000	65.973506
1745.000000	66.036455
1744.000000	66.093601
1743.000000	66.162653
1742.000000	66.241560
1741.000000	66.308972
1740.000000	66.351880
1739.000000	66.376379
1738.000000	66.388043
1737.000000	66.405489
1736.000000	66.437676
1735.000000	66.449379
1734.000000	66.472668
1733.000000	66.536163
1732.000000	66.567080
1731.000000	66.543458
1730.000000	66.506340
1729.000000	66.481672
1728.000000	66.472495
1727.000000	66.471670
1726.000000	66.472395
1725.000000	66.475385
1724.000000	66.487848
1723.000000	66.519878
1722.000000	66.573018
1721.000000	66.635017
1720.000000	66.681246
1719.000000	66.676627
1718.000000	66.635427
1717.000000	66.618093
1716.000000	66.620877
1715.000000	66.624113
1714.000000	66.663200
1713.000000	66.753459
1712.000000	66.853884
1711.000000	66.928277
1710.000000	66.982498
1709.000000	67.030871
1708.000000	67.064595
1707.000000	67.073509
1706.000000	67.084500
1705.000000	67.140499
1704.000000	67.232282
1703.000000	67.345571
1702.000000	67.467886
1701.000000	67.563050
1700.000000	67.662977
1699.000000	67.749175
1698.000000	67.787520
1697.000000	67.833277
1696.000000	67.932243
1695.000000	68.074114
1694.000000	68.188464
1693.000000	68.251459
1692.000000	68.308453
1691.000000	68.370164
1690.000000	68.404461
1689.000000	68.402964
1688.000000	68.403961
1687.000000	68.455387
1686.000000	68.537340
1685.000000	68.564268
1684.000000	68.584219
1683.000000	68.655248
1682.000000	68.694396
1681.000000	68.675318
1680.000000	68.651415
1679.000000	68.656777
1678.000000	68.676668
1677.000000	68.669763
1676.000000	68.625483
1675.000000	68.595505
1674.000000	68.594459
1673.000000	68.576822
1672.000000	68.541310
1671.000000	68.516606
1670.000000	68.511227
1669.000000	68.517299
1668.000000	68.520269
1667.000000	68.515724
1666.000000	68.507067
1665.000000	68.484799
1664.000000	68.435436
1663.000000	68.379746
1662.000000	68.339336
1661.000000	68.281020
1660.000000	68.180669
1659.000000	68.057592
1658.000000	67.920281
1657.000000	67.757145
1656.000000	67.573051
1655.000000	67.337973
1654.000000	66.929574
1653.000000	66.428874
1652.000000	65.947658
1651.000000	65.362450
1650.000000	64.632175
1649.000000	63.730182
1648.000000	62.481928
1647.000000	60.756538
1646.000000	58.634062
1645.000000	56.239611
1644.000000	53.585231
1643.000000	50.620196
1642.000000	47.327075
1641.000000	43.813291
1640.000000	40.359512
1639.000000	37.266591
1638.000000	34.672929
1637.000000	32.596598
1636.000000	31.164602
1635.000000	30.596774
1634.000000	30.857885
1633.000000	31.710269
1632.000000	32.972123
1631.000000	34.535871
1630.000000	36.314466
1629.000000	38.230043
1628.000000	40.203781
1627.000000	42.122775
1626.000000	43.908304
1625.000000	45.603504
1624.000000	47.300595
1623.000000	48.984718
1622.000000	50.514252
1621.000000	51.804144
1620.000000	52.925234
1619.000000	54.000148
1618.000000	55.090797
1617.000000	56.190156
1616.000000	57.222822
1615.000000	58.062976
1614.000000	58.678249
1613.000000	59.161031
1612.000000	59.598792
1611.000000	59.989909
1610.000000	60.275137
1609.000000	60.427720
1608.000000	60.456803
1607.000000	60.333323
1606.000000	59.978839
1605.000000	59.330138
1604.000000	58.373860
1603.000000	57.110062
1602.000000	55.560896
1601.000000	53.828232
1600.000000	52.083415
1599.000000	50.485584
1598.000000	49.117988
1597.000000	48.002353
1596.000000	47.130069
1595.000000	46.454130
1594.000000	45.881986
1593.000000	45.329190
1592.000000	44.771489
1591.000000	44.214467
1590.000000	43.645622
1589.000000	43.043088
1588.000000	42.402203
1587.000000	41.710777
1586.000000	40.924109
1585.000000	40.006761
1584.000000	38.984040
1583.000000	37.906696
1582.000000	36.791136
1581.000000	35.647130
1580.000000	34.517936
1579.000000	33.411776
1578.000000	32.200635
1577.000000	30.678263
1576.000000	28.864938
1575.000000	27.104767
1574.000000	25.654711
1573.000000	24.474151
1572.000000	23.436155
1571.000000	22.477655
1570.000000	21.619805
1569.000000	20.940468
1568.000000	20.517331
1567.000000	20.377039
1566.000000	20.463671
1565.000000	20.679189
1564.000000	20.978936
1563.000000	21.391168
1562.000000	21.950066
1561.000000	22.653950
1560.000000	23.509315
1559.000000	24.569225
1558.000000	25.700773
1557.000000	26.651510
1556.000000	27.426800
1555.000000	28.156923
1554.000000	28.857711
1553.000000	29.459178
1552.000000	29.941627
1551.000000	30.381446
1550.000000	30.867032
1549.000000	31.434761
1548.000000	32.091943
1547.000000	32.859413
1546.000000	33.739178
1545.000000	34.677673
1544.000000	35.614599
1543.000000	36.543352
1542.000000	37.495058
1541.000000	38.478779
1540.000000	39.485026
1539.000000	40.467863
1538.000000	41.326533
1537.000000	42.036921
1536.000000	42.696994
1535.000000	43.405323
1534.000000	44.173967
1533.000000	44.942714
1532.000000	45.652489
1531.000000	46.310966
1530.000000	46.955763
1529.000000	47.585807
1528.000000	48.182837
1527.000000	48.755017
1526.000000	49.313399
1525.000000	49.842119
1524.000000	50.336306
1523.000000	50.815344
1522.000000	51.272293
1521.000000	51.683948
1520.000000	52.043344
1519.000000	52.372111
1518.000000	52.701170
1517.000000	53.036883
1516.000000	53.385188
1515.000000	53.754167
1514.000000	54.130764
1513.000000	54.489655
1512.000000	54.811150
1511.000000	55.098396
1510.000000	55.358222
1509.000000	55.582828
1508.000000	55.764541
1507.000000	56.002164
1506.000000	56.407518
1505.000000	56.850994
1504.000000	57.189778
1503.000000	57.463253
1502.000000	57.727207
1501.000000	57.976922
1500.000000	58.202581
1499.000000	58.422676
1498.000000	58.652665
1497.000000	58.891813
1496.000000	59.147473
1495.000000	59.423186
1494.000000	59.697140
1493.000000	59.945413
1492.000000	60.153460
1491.000000	60.311286
1490.000000	60.430758
1489.000000	60.543251
1488.000000	60.674836
1487.000000	60.837438
1486.000000	61.002027
1485.000000	61.104812
1484.000000	61.110363
1483.000000	61.007025
1482.000000	60.762071
1481.000000	60.344425
1480.000000	59.760101
1479.000000	58.985509
1478.000000	57.895241
1477.000000	56.367932
1476.000000	54.446166
1475.000000	52.265150
1474.000000	49.857469
1473.000000	47.276740
1472.000000	44.856711
1471.000000	42.974105
1470.000000	41.687698
1469.000000	40.863586
1468.000000	40.424234
1467.000000	40.386252
1466.000000	40.791830
1465.000000	41.619137
1464.000000	42.705943
1463.000000	43.782124
1462.000000	44.625609
1461.000000	45.139491
1460.000000	45.292180
1459.000000	45.029225
1458.000000	44.256848
1457.000000	43.101843
1456.000000	42.009217
1455.000000	41.269071
1454.000000	40.826607
1453.000000	40.549036
1452.000000	40.365018
1451.000000	40.254590
1450.000000	40.224090
1449.000000	40.298701
1448.000000	40.505051
1447.000000	40.831467
1446.000000	41.231138
1445.000000	41.683870
1444.000000	42.210952
1443.000000	42.836335
1442.000000	43.576980
1441.000000	44.457128
1440.000000	45.499755
1439.000000	46.714131
1438.000000	48.091870
1437.000000	49.580938
1436.000000	51.033502
1435.000000	52.266094
1434.000000	53.247438
1433.000000	54.080732
1432.000000	54.829550
1431.000000	55.480492
1430.000000	56.023641
1429.000000	56.491691
1428.000000	56.912840
1427.000000	57.289986
1426.000000	57.624140
1425.000000	57.931723
1424.000000	58.239966
1423.000000	58.562698
1422.000000	58.899097
1421.000000	59.229406
1420.000000	59.497665
1419.000000	59.676380
1418.000000	59.819546
1417.000000	59.992020
1416.000000	60.215825
1415.000000	60.478716
1414.000000	60.756095
1413.000000	61.030719
1412.000000	61.289779
1411.000000	61.520901
1410.000000	61.728758
1409.000000	61.932976
1408.000000	62.137105
1407.000000	62.326080
1406.000000	62.492690
1405.000000	62.652498
1404.000000	62.818478
1403.000000	62.966575
1402.000000	63.039838
1401.000000	62.955378
1400.000000	62.629486
1399.000000	62.078643
1398.000000	61.472127
1397.000000	61.021953
1396.000000	60.857502
1395.000000	60.988095
1394.000000	61.307269
1393.000000	61.668063
1392.000000	62.000083
1391.000000	62.333987
1390.000000	62.727425
1389.000000	63.198632
1388.000000	63.722316
1387.000000	64.264232
1386.000000	64.796070
1385.000000	65.291136
1384.000000	65.728376
1383.000000	66.096507
1382.000000	66.400936
1381.000000	66.653413
1380.000000	66.853469
1379.000000	66.989712
1378.000000	67.044756
1377.000000	66.963026
1376.000000	66.586290
1375.000000	65.630776
1374.000000	63.764620
1373.000000	60.773887
1372.000000	56.723869
1371.000000	52.050437
1370.000000	47.555395
1369.000000	44.218595
1368.000000	42.739077
1367.000000	43.088301
1366.000000	44.573567
1365.000000	46.296553
1364.000000	47.504927
1363.000000	47.758314
1362.000000	47.062354
1361.000000	45.905584
1360.000000	45.045893
1359.000000	45.148095
1358.000000	46.478299
1357.000000	48.793253
1356.000000	51.528736
1355.000000	54.144743
1354.000000	56.355805
1353.000000	58.127632
1352.000000	59.535423
1351.000000	60.663330
1350.000000	61.581503
1349.000000	62.345162
1348.000000	62.991518
1347.000000	63.548535
1346.000000	64.045086
1345.000000	64.504862
1344.000000	64.937740
1343.000000	65.339849
1342.000000	65.703001
1341.000000	66.019981
1340.000000	66.292978
1339.000000	66.544440
1338.000000	66.803356
1337.000000	67.079600
1336.000000	67.355441
1335.000000	67.596614
1334.000000	67.761393
1333.000000	67.782867
1332.000000	67.555617
1331.000000	66.957808
1330.000000	65.901312
1329.000000	64.374063
1328.000000	62.415410
1327.000000	60.055628
1326.000000	57.309890
1325.000000	54.292994
1324.000000	51.375027
1323.000000	49.133165
1322.000000	48.017580
1321.000000	48.031486
1320.000000	48.759557
1319.000000	49.696530
1318.000000	50.556528
1317.000000	51.305408
1316.000000	51.999191
1315.000000	52.674941
1314.000000	53.361799
1313.000000	54.127807
1312.000000	55.063738
1311.000000	56.211234
1310.000000	57.513057
1309.000000	58.829981
1308.000000	60.002245
1307.000000	60.908572
1306.000000	61.488266
1305.000000	61.715844
1304.000000	61.573653
1303.000000	61.045605
1302.000000	60.129220
1301.000000	58.871439
1300.000000	57.412408
1299.000000	56.000586
1298.000000	54.916003
1297.000000	54.323492
1296.000000	54.177373
1295.000000	54.250160
1294.000000	54.249855
1293.000000	53.932652
1292.000000	53.160837
1291.000000	51.904273
1290.000000	50.196097
1289.000000	48.103883
1288.000000	45.772528
1287.000000	43.491080
1286.000000	41.650245
1285.000000	40.569062
1284.000000	40.338663
1283.000000	40.826362
1282.000000	41.830142
1281.000000	43.209862
1280.000000	44.874555
1279.000000	46.667645
1278.000000	48.314349
1277.000000	49.522698
1276.000000	50.130733
1275.000000	50.165955
1274.000000	49.808350
1273.000000	49.330378
1272.000000	49.045616
1271.000000	49.234319
1270.000000	50.039595
1269.000000	51.403909
1268.000000	53.108930
1267.000000	54.893047
1266.000000	56.557445
1265.000000	58.006318
1264.000000	59.227089
1263.000000	60.250177
1262.000000	61.119783
1261.000000	61.878909
1260.000000	62.559613
1259.000000	63.178948
1258.000000	63.745738
1257.000000	64.259616
1256.000000	64.711553
1255.000000	65.095038
1254.000000	65.416448
1253.000000	65.695710
1252.000000	65.955103
1251.000000	66.214428
1250.000000	66.490910
1249.000000	66.791516
1248.000000	67.106157
1247.000000	67.413220
1246.000000	67.693441
1245.000000	67.936334
1244.000000	68.138141
1243.000000	68.304515
1242.000000	68.452849
1241.000000	68.602606
1240.000000	68.761446
1239.000000	68.922749
1238.000000	69.074304
1237.000000	69.200779
1236.000000	69.282271
1235.000000	69.303574
1234.000000	69.265367
1233.000000	69.182861
1232.000000	69.073448
1231.000000	68.950093
1230.000000	68.821956
1229.000000	68.684326
1228.000000	68.510780
1227.000000	68.259101
1226.000000	67.882944
1225.000000	67.340799
1224.000000	66.589104
1223.000000	65.587504
1222.000000	64.307320
1221.000000	62.728529
1220.000000	60.850173
1219.000000	58.700102
1218.000000	56.342046
1217.000000	53.869039
1216.000000	51.393190
1215.000000	49.043244
1214.000000	46.959699
1213.000000	45.278490
1212.000000	44.108934
1211.000000	43.509505
1210.000000	43.443931
1209.000000	43.778312
1208.000000	44.321112
1207.000000	44.868919
1206.000000	45.250545
1205.000000	45.349698
1204.000000	45.114741
1203.000000	44.556830
1202.000000	43.743102
1201.000000	42.796431
1200.000000	41.892637
1199.000000	41.232019
1198.000000	40.977585
1197.000000	41.196826
1196.000000	41.858972
1195.000000	42.865437
1194.000000	44.096083
1193.000000	45.452729
1192.000000	46.871735
1191.000000	48.321414
1190.000000	49.782402
1189.000000	51.235120
1188.000000	52.657942
1187.000000	54.024426
1186.000000	55.304796
1185.000000	56.474772
1184.000000	57.523309
1183.000000	58.449398
1182.000000	59.260565
1181.000000	59.967371
1180.000000	60.583867
1179.000000	61.130349
1178.000000	61.623722
1177.000000	62.069364
1176.000000	62.452448
1175.000000	62.745045
1174.000000	62.920687
1173.000000	62.950219
1172.000000	62.800981
1171.000000	62.432454
1170.000000	61.799259
1169.000000	60.860105
1168.000000	59.585583
1167.000000	57.993862
1166.000000	56.183976
1165.000000	54.340865
1164.000000	52.704022
1163.000000	51.507805
1162.000000	50.903709
1161.000000	50.917826
1160.000000	51.465502
1159.000000	52.388884
1158.000000	53.514716
1157.000000	54.689806
1156.000000	55.799388
1155.000000	56.772258
1154.000000	57.571216
1153.000000	58.181975
1152.000000	58.601729
1151.000000	58.831639
1150.000000	58.868097
1149.000000	58.705311
1148.000000	58.321350
1147.000000	57.677842
1146.000000	56.725837
1145.000000	55.397231
1144.000000	53.623344
1143.000000	51.350224
1142.000000	48.576306
1141.000000	45.397815
1140.000000	42.022439
1139.000000	38.734822
1138.000000	35.791583
1137.000000	33.315732
1136.000000	31.268545
1135.000000	29.523554
1134.000000	27.972057
1133.000000	26.637809
1132.000000	25.717656
1131.000000	25.488107
1130.000000	26.165982
1129.000000	27.775297
1128.000000	30.127753
1127.000000	32.879800
1126.000000	35.607872
1125.000000	37.894093
1124.000000	39.394789
1123.000000	39.884869
1122.000000	39.291724
1121.000000	37.714785
1120.000000	35.370332
1119.000000	32.536752
1118.000000	29.546481
1117.000000	26.819428
1116.000000	24.855169
1115.000000	24.095478
1114.000000	24.712720
1113.000000	26.505344
1112.000000	28.975455
1111.000000	31.481392
1110.000000	33.453832
1109.000000	34.618320
1108.000000	35.111070
1107.000000	35.372808
1106.000000	35.853813
1105.000000	36.751168
1104.000000	37.950105
1103.000000	39.127020
1102.000000	39.874474
1101.000000	39.842737
1100.000000	38.899083
1099.000000	37.266150
1098.000000	35.517390
1097.000000	34.362561
1096.000000	34.325439
1095.000000	35.516275
1094.000000	37.631220
1093.000000	40.163014
1092.000000	42.672243
1091.000000	44.914271
1090.000000	46.822802
1089.000000	48.432673
1088.000000	49.811950
1087.000000	51.029965
1086.000000	52.142985
1085.000000	53.184798
1084.000000	54.164559
1083.000000	55.082474
1082.000000	55.936326
1081.000000	56.725087
1080.000000	57.448793
1079.000000	58.103202
1078.000000	58.682922
1077.000000	59.166921
1076.000000	59.512635
1075.000000	59.660323
1074.000000	59.526692
1073.000000	59.015169
1072.000000	57.992195
1071.000000	56.289827
1070.000000	53.729525
1069.000000	50.141600
1068.000000	45.467346
1067.000000	39.877026
1066.000000	33.854182
1065.000000	28.145994
1064.000000	23.538970
1063.000000	20.523747
1062.000000	19.031758
1061.000000	18.456017
1060.000000	17.990832
1059.000000	17.106361
1058.000000	15.796863
1057.000000	14.527095
1056.000000	13.922892
1055.000000	14.384373
1054.000000	15.921254
1053.000000	18.227911
1052.000000	20.909168
1051.000000	23.653433
1050.000000	26.266590
1049.000000	28.668271
1048.000000	30.861480
1047.000000	32.884271
1046.000000	34.759921
1045.000000	36.484590
1044.000000	38.043699
1043.000000	39.430382
1042.000000	40.649918
1041.000000	41.714571
1040.000000	42.650734
1039.000000	43.488204
1038.000000	44.248227
1037.000000	44.939665
1036.000000	45.560124
1035.000000	46.105014
1034.000000	46.566571
1033.000000	46.939867
1032.000000	47.234497
1031.000000	47.474537
1030.000000	47.691208
1029.000000	47.909638
1028.000000	48.141884
1027.000000	48.384756
1026.000000	48.615921
1025.000000	48.801102
1024.000000	48.905601
1023.000000	48.904483
1022.000000	48.788602
1021.000000	48.556536
1020.000000	48.211101
1019.000000	47.746736
1018.000000	47.134546
1017.000000	46.323816
1016.000000	45.250624
1015.000000	43.873659
1014.000000	42.213853
1013.000000	40.384122
1012.000000	38.587585
1011.000000	37.052361
1010.000000	35.919294
1009.000000	35.153800
1008.000000	34.569254
1007.000000	33.965639
1006.000000	33.315920
1005.000000	32.838847
1004.000000	32.879877
1003.000000	33.669312
1002.000000	35.138406
1001.000000	36.967257
1000.000000	38.773438
999.000000	40.269315
998.000000	41.306006
997.000000	41.844438
996.000000	41.932770
995.000000	41.702827
994.000000	41.362105
993.000000	41.155664
992.000000	41.298173
991.000000	41.893580
990.000000	42.890291
989.000000	44.122619
988.000000	45.412714
987.000000	46.640384
986.000000	47.752098
985.000000	48.736028
984.000000	49.598196
983.000000	50.351891
982.000000	51.013131
981.000000	51.599173
980.000000	52.130092
979.000000	52.629217
978.000000	53.111186
977.000000	53.576455
976.000000	54.015519
975.000000	54.416552
974.000000	54.772385
973.000000	55.081798
972.000000	55.353874
971.000000	55.608210
970.000000	55.865752
969.000000	56.138859
968.000000	56.427542
967.000000	56.722998
966.000000	57.011150
965.000000	57.275750
964.000000	57.505829
963.000000	57.702427
962.000000	57.878715
961.000000	58.052973
960.000000	58.240855
959.000000	58.451326
958.000000	58.683152
957.000000	58.923872
956.000000	59.155636
955.000000	59.364989
954.000000	59.548703
953.000000	59.712667
952.000000	59.868964
951.000000	60.033317
950.000000	60.219168
949.000000	60.429770
948.000000	60.655513
947.000000	60.879907
946.000000	61.087982
945.000000	61.270223
944.000000	61.424836
943.000000	61.560621
942.000000	61.695255
941.000000	61.845893
940.000000	62.019592
939.000000	62.212134
938.000000	62.411958
937.000000	62.603641
936.000000	62.772440
935.000000	62.911451
934.000000	63.026500
933.000000	63.132778
932.000000	63.247003
931.000000	63.382489
930.000000	63.545427
929.000000	63.729880
928.000000	63.917292
927.000000	64.086123
926.000000	64.224117
925.000000	64.331524
924.000000	64.417685
923.000000	64.498855
922.000000	64.595013
921.000000	64.720539
920.000000	64.874839
919.000000	65.043588
918.000000	65.208180
917.000000	65.352130
916.000000	65.464058
915.000000	65.543562
914.000000	65.605036
913.000000	65.670579
912.000000	65.754750
911.000000	65.858804
910.000000	65.968282
909.000000	66.045460
908.000000	66.025691
907.000000	65.825389
906.000000	65.367663
905.000000	64.598189
904.000000	63.499443
903.000000	62.131748
902.000000	60.682011
901.000000	59.455386
900.000000	58.768678
899.000000	58.791104
898.000000	59.447738
897.000000	60.481777
896.000000	61.604157
895.000000	62.620242
894.000000	63.465508
893.000000	64.156384
892.000000	64.735373
891.000000	65.239336
890.000000	65.689426
889.000000	66.087487
888.000000	66.421022
887.000000	66.663826
886.000000	66.771543
885.000000	66.681415
884.000000	66.337138
883.000000	65.753246
882.000000	65.045465
881.000000	64.372250
880.000000	63.814416
879.000000	63.314923
878.000000	62.762738
877.000000	62.149165
876.000000	61.641278
875.000000	61.480171
874.000000	61.801709
873.000000	62.539432
872.000000	63.485431
871.000000	64.428152
870.000000	65.243892
869.000000	65.901756
868.000000	66.417769
867.000000	66.820610
866.000000	67.139381
865.000000	67.401035
864.000000	67.626874
863.000000	67.833822
862.000000	68.034965
861.000000	68.234537
860.000000	68.427266
859.000000	68.603781
858.000000	68.759105
857.000000	68.893596
856.000000	69.009908
855.000000	69.114598
854.000000	69.218789
853.000000	69.332113
852.000000	69.455722
851.000000	69.584225
850.000000	69.712413
849.000000	69.835835
848.000000	69.948591
847.000000	70.047064
846.000000	70.135485
845.000000	70.223624
844.000000	70.319717
843.000000	70.428330
842.000000	70.551180
841.000000	70.684108
840.000000	70.815298
839.000000	70.932706
838.000000	71.033867
837.000000	71.125083
836.000000	71.213375
835.000000	71.304458
834.000000	71.405710
833.000000	71.523729
832.000000	71.658313
831.000000	71.803341
830.000000	71.952716
829.000000	72.101494
828.000000	72.244045
827.000000	72.378101
826.000000	72.510423
825.000000	72.652247
824.000000	72.809356
823.000000	72.980903
822.000000	73.164758
821.000000	73.356230
820.000000	73.543240
819.000000	73.710775
818.000000	73.850458
817.000000	73.962035
816.000000	74.048189
815.000000	74.114785
814.000000	74.172565
813.000000	74.227910
812.000000	74.272262
811.000000	74.282647
810.000000	74.231117
809.000000	74.089047
808.000000	73.823421
807.000000	73.404846
806.000000	72.813162
805.000000	72.030992
804.000000	71.033883
803.000000	69.783559
802.000000	68.238066
801.000000	66.353266
800.000000	64.092558
799.000000	61.455234
798.000000	58.494385
797.000000	55.317848
796.000000	52.065866
795.000000	48.888978
794.000000	45.927918
793.000000	43.302904
792.000000	41.109762
791.000000	39.419635
790.000000	38.278105
789.000000	37.695002
788.000000	37.647109
787.000000	38.072166
786.000000	38.874527
785.000000	39.941353
784.000000	41.150148
783.000000	42.378054
782.000000	43.505955
781.000000	44.430225
780.000000	45.074096
779.000000	45.401142
778.000000	45.424707
777.000000	45.200799
776.000000	44.800788
775.000000	44.284131
774.000000	43.700557
773.000000	43.114054
772.000000	42.624352
771.000000	42.357378
770.000000	42.430110
769.000000	42.906595
768.000000	43.773824
767.000000	44.950078
766.000000	46.321849
765.000000	47.786266
764.000000	49.266952
763.000000	50.714200
762.000000	52.100513
761.000000	53.413786
760.000000	54.644955
759.000000	55.781624
758.000000	56.816000
757.000000	57.752293
756.000000	58.604655
755.000000	59.392735
754.000000	60.143197
753.000000	60.883906
752.000000	61.627900
751.000000	62.365240
750.000000	63.071167
749.000000	63.719135
748.000000	64.286149
747.000000	64.759370
746.000000	65.148030
745.000000	65.483940
744.000000	65.805101
743.000000	66.138834
742.000000	66.496715
741.000000	66.873204
740.000000	67.242160
739.000000	67.564066
738.000000	67.805464
737.000000	67.951608
736.000000	68.004418
735.000000	67.978790
734.000000	67.903475
733.000000	67.813773
732.000000	67.735262
731.000000	67.677015
730.000000	67.637559
729.000000	67.605621
728.000000	67.554985
727.000000	67.449055
726.000000	67.257250
725.000000	66.965516
724.000000	66.566545
723.000000	66.038675
722.000000	65.328913
721.000000	64.355462
720.000000	63.039620
719.000000	61.360180
718.000000	59.392148
717.000000	57.302974
716.000000	55.314726
715.000000	53.653301
714.000000	52.503994
713.000000	51.972636
712.000000	52.058187
711.000000	52.660721
710.000000	53.633545
709.000000	54.834981
708.000000	56.142822
707.000000	57.455592
706.000000	58.707790
705.000000	59.879581
704.000000	60.975919
703.000000	62.004911
702.000000	62.981290
701.000000	63.925215
700.000000	64.838446
699.000000	65.695620
698.000000	66.468869
697.000000	67.149887
696.000000	67.740122
695.000000	68.240621
694.000000	68.670847
693.000000	69.074613
692.000000	69.487078
691.000000	69.909369
690.000000	70.325831
689.000000	70.728279
688.000000	71.105631
687.000000	71.432645
686.000000	71.694701
685.000000	71.905736
684.000000	72.085474
683.000000	72.242100
682.000000	72.392474
681.000000	72.569317
680.000000	72.781976
679.000000	73.001476
678.000000	73.197580
677.000000	73.356325
676.000000	73.474404
675.000000	73.555210
674.000000	73.628636
673.000000	73.788895
672.000000	74.203188
671.000000	75.017304
670.000000	76.171832
669.000000	77.197043
668.000000	77.401037
667.000000	76.710333
666.000000	75.756651
665.000000	75.047475
664.000000	74.707000
663.000000	74.635216
662.000000	74.690345
661.000000	74.787294
660.000000	74.890318
659.000000	74.990649
658.000000	75.088348
657.000000	75.170038
656.000000	75.223455
655.000000	75.262917
654.000000	75.303231
653.000000	75.334852
652.000000	75.350790
651.000000	75.365554
650.000000	75.385052
649.000000	75.387005
648.000000	75.356014
647.000000	75.310256
646.000000	75.271483
645.000000	75.236861
644.000000	75.195554
643.000000	75.146634
642.000000	75.084172
641.000000	74.986797
640.000000	74.845389
639.000000	74.684339
638.000000	74.534886
637.000000	74.404938
636.000000	74.291438
635.000000	74.196569
634.000000	74.110704
633.000000	73.999205
632.000000	73.828047
631.000000	73.593594
630.000000	73.314155
629.000000	73.007849
628.000000	72.697409
627.000000	72.415688
626.000000	72.179272
625.000000	71.967553
624.000000	71.739216
623.000000	71.458595
622.000000	71.100277
621.000000	70.652569
620.000000	70.131325
619.000000	69.572765
618.000000	69.000449
617.000000	68.411460
616.000000	67.804102
615.000000	67.185140
614.000000	66.528580
613.000000	65.763226
612.000000	64.830228
611.000000	63.736263
610.000000	62.527875
609.000000	61.239791
608.000000	59.897932
607.000000	58.531779
606.000000	57.138868
605.000000	55.664462
604.000000	54.054066
603.000000	52.307292
602.000000	50.449182
601.000000	48.492433
600.000000	46.473047
599.000000	44.479312
598.000000	42.584739
597.000000	40.789971
596.000000	39.076464
595.000000	37.463843
594.000000	35.964737
593.000000	34.539603
592.000000	33.168477
591.000000	31.905477
590.000000	30.798984
589.000000	29.819253
588.000000	28.917036
587.000000	28.083693
586.000000	27.288393
585.000000	26.433938
584.000000	25.455646
583.000000	24.404933
582.000000	23.378658
581.000000	22.438610
580.000000	21.658307
579.000000	21.168498
578.000000	21.058447
577.000000	21.300607
576.000000	21.819443
575.000000	22.544717
574.000000	23.355211
573.000000	24.067818
572.000000	24.576364
571.000000	24.952986
570.000000	25.365654
569.000000	25.942624
568.000000	26.742702
567.000000	27.766879
566.000000	28.925033
565.000000	30.058934
564.000000	31.062862
563.000000	31.938494
562.000000	32.714748
561.000000	33.386992
560.000000	33.969161
559.000000	34.529625
558.000000	35.122567
557.000000	35.737657
556.000000	36.353864
555.000000	36.987377
554.000000	37.641113
553.000000	38.270236
552.000000	38.844343
551.000000	39.393342
550.000000	39.953240
549.000000	40.516468
548.000000	41.074296
547.000000	41.653050
546.000000	42.264139
545.000000	42.865179
544.000000	43.412595
543.000000	43.909950
542.000000	44.374806
541.000000	44.803992
540.000000	45.207979
539.000000	45.632542
538.000000	46.106402
537.000000	46.600835
536.000000	47.070510
535.000000	47.499413
534.000000	47.878210
533.000000	48.183223
532.000000	48.409254
531.000000	48.593081
530.000000	48.770861
529.000000	48.932145
528.000000	49.036077
527.000000	49.049132
526.000000	48.929598
525.000000	48.618112
524.000000	48.088005
523.000000	47.386694
522.000000	46.616914
521.000000	45.885041
520.000000	45.267018
519.000000	44.759427
518.000000	44.207665
517.000000	43.339366
516.000000	41.943323
515.000000	40.032436
514.000000	37.830386
513.000000	35.653137
512.000000	33.821781
511.000000	32.605482
510.000000	32.128471
509.000000	32.336621
508.000000	33.104775
507.000000	34.308032
506.000000	35.788840
505.000000	37.361916
504.000000	38.902123
503.000000	40.381093
502.000000	41.785066
501.000000	43.073710
500.000000	44.237921
499.000000	45.327345
498.000000	46.380210
497.000000	47.378278
496.000000	48.290168
495.000000	49.114522
494.000000	49.864567
493.000000	50.543567
492.000000	51.172559
491.000000	51.804466
490.000000	52.474259
489.000000	53.167600
488.000000	53.848743
487.000000	54.495337
486.000000	55.086982
485.000000	55.594370
484.000000	56.012424
483.000000	56.377546
482.000000	56.730426
481.000000	57.087103
480.000000	57.461232
479.000000	57.874524
478.000000	58.307330
477.000000	58.680065
476.000000	58.908325
475.000000	58.929800
474.000000	58.665107
473.000000	58.013686
472.000000	56.963392
471.000000	55.675527
470.000000	54.389950
469.000000	53.312330
468.000000	52.607400
467.000000	52.343125
466.000000	52.339391
465.000000	52.186149
464.000000	51.514957
463.000000	50.272410
462.000000	48.783576
461.000000	47.566358
460.000000	47.099666
459.000000	47.669669
458.000000	49.211424
457.000000	51.251106
456.000000	53.227473
455.000000	54.883256
454.000000	56.209314
453.000000	57.227444
452.000000	57.975713
451.000000	58.562110
450.000000	59.052191
449.000000	59.359683
448.000000	59.314342
447.000000	58.796997
446.000000	57.805326
445.000000	56.454622
444.000000	55.012923
443.000000	53.886352
442.000000	53.407283
441.000000	53.614834
440.000000	54.335798
439.000000	55.370419
438.000000	56.515462
437.000000	57.545838
436.000000	58.298824
435.000000	58.760858
434.000000	59.001145
433.000000	59.070873
432.000000	59.027278
431.000000	58.985725
430.000000	59.042880
429.000000	59.172075
428.000000	59.283504
427.000000	59.327137
426.000000	59.267525
425.000000	59.030076
424.000000	58.601866
423.000000	58.142759
422.000000	57.837196
421.000000	57.695777
420.000000	57.623671
419.000000	57.621308
418.000000	57.735663
417.000000	57.852452
416.000000	57.842236
415.000000	57.737616
414.000000	57.618316
413.000000	57.497916
412.000000	57.397833
411.000000	57.428134
410.000000	57.671912
409.000000	58.033919
408.000000	58.357798
407.000000	58.606634
406.000000	58.798203
405.000000	58.878248
404.000000	58.843601
403.000000	58.862502
402.000000	59.109303
401.000000	59.539286
400.000000	59.986100
