PE IR       SUBTECH     SPECTRUM    ASCII       PEDS        4.00        
   -1
23ms003-cis.asc
24/10/21
15:51:00.00
24/10/21
15:51:00.00
Administrator
Sample 1319 By Administrator Date Monday, October 21 2024
400.000000
#HDR
-1
-1
#GR
cm-1
%T
1.0
0.0
4000.000000
-1.000000
3601
8
82.621170
3.516076
#DATA
4000.000000	47.862383
3999.000000	47.847645
3998.000000	47.835482
3997.000000	47.825700
3996.000000	47.818816
3995.000000	47.814994
3994.000000	47.813414
3993.000000	47.813184
3992.000000	47.814413
3991.000000	47.818006
3990.000000	47.824606
3989.000000	47.834204
3988.000000	47.846924
3987.000000	47.863408
3986.000000	47.884252
3985.000000	47.909448
3984.000000	47.938567
3983.000000	47.971312
3982.000000	48.007462
3981.000000	48.046412
3980.000000	48.087141
3979.000000	48.128735
3978.000000	48.170940
3977.000000	48.213896
3976.000000	48.257601
3975.000000	48.301769
3974.000000	48.345962
3973.000000	48.389423
3972.000000	48.431158
3971.000000	48.470715
3970.000000	48.508563
3969.000000	48.545876
3968.000000	48.583820
3967.000000	48.623243
3966.000000	48.664843
3965.000000	48.709542
3964.000000	48.758454
3963.000000	48.812267
3962.000000	48.870362
3961.000000	48.930619
3960.000000	48.990889
3959.000000	49.050771
3958.000000	49.110916
3957.000000	49.171555
3956.000000	49.231873
3955.000000	49.290962
3954.000000	49.348115
3953.000000	49.402393
3952.000000	49.453176
3951.000000	49.500835
3950.000000	49.547062
3949.000000	49.593644
3948.000000	49.640494
3947.000000	49.684983
3946.000000	49.725056
3945.000000	49.762811
3944.000000	49.802797
3943.000000	49.847176
3942.000000	49.893660
3941.000000	49.938973
3940.000000	49.983910
3939.000000	50.032461
3938.000000	50.085001
3937.000000	50.137022
3936.000000	50.183692
3935.000000	50.224582
3934.000000	50.262510
3933.000000	50.299046
3932.000000	50.333940
3931.000000	50.366617
3930.000000	50.397431
3929.000000	50.426211
3928.000000	50.450901
3927.000000	50.471306
3926.000000	50.491371
3925.000000	50.514509
3924.000000	50.537920
3923.000000	50.556688
3922.000000	50.572292
3921.000000	50.589398
3920.000000	50.606937
3919.000000	50.620445
3918.000000	50.630810
3917.000000	50.644232
3916.000000	50.662928
3915.000000	50.683998
3914.000000	50.706717
3913.000000	50.733735
3912.000000	50.764400
3911.000000	50.795450
3910.000000	50.824622
3909.000000	50.853509
3908.000000	50.882952
3907.000000	50.911243
3906.000000	50.935531
3905.000000	50.954253
3904.000000	50.967268
3903.000000	50.974551
3902.000000	50.980838
3901.000000	50.997915
3900.000000	51.034198
3899.000000	51.084565
3898.000000	51.137113
3897.000000	51.188531
3896.000000	51.245134
3895.000000	51.310207
3894.000000	51.376886
3893.000000	51.438550
3892.000000	51.496602
3891.000000	51.555784
3890.000000	51.609356
3889.000000	51.651821
3888.000000	51.691828
3887.000000	51.736425
3886.000000	51.782271
3885.000000	51.820485
3884.000000	51.843551
3883.000000	51.861744
3882.000000	51.893366
3881.000000	51.939202
3880.000000	51.984707
3879.000000	52.014725
3878.000000	52.025933
3877.000000	52.031668
3876.000000	52.044381
3875.000000	52.065353
3874.000000	52.087928
3873.000000	52.102467
3872.000000	52.108855
3871.000000	52.120425
3870.000000	52.147123
3869.000000	52.178506
3868.000000	52.197996
3867.000000	52.217261
3866.000000	52.256383
3865.000000	52.306330
3864.000000	52.345938
3863.000000	52.373444
3862.000000	52.402258
3861.000000	52.440209
3860.000000	52.483495
3859.000000	52.535380
3858.000000	52.605044
3857.000000	52.690290
3856.000000	52.764065
3855.000000	52.790973
3854.000000	52.771682
3853.000000	52.744219
3852.000000	52.718249
3851.000000	52.696842
3850.000000	52.713774
3849.000000	52.774972
3848.000000	52.850727
3847.000000	52.918732
3846.000000	52.976454
3845.000000	53.027292
3844.000000	53.071962
3843.000000	53.111714
3842.000000	53.147540
3841.000000	53.181822
3840.000000	53.214889
3839.000000	53.242969
3838.000000	53.261976
3837.000000	53.276515
3836.000000	53.296270
3835.000000	53.328232
3834.000000	53.371924
3833.000000	53.421310
3832.000000	53.470654
3831.000000	53.515836
3830.000000	53.554215
3829.000000	53.588882
3828.000000	53.628134
3827.000000	53.678197
3826.000000	53.734084
3825.000000	53.784010
3824.000000	53.823542
3823.000000	53.858225
3822.000000	53.894080
3821.000000	53.935819
3820.000000	53.971926
3819.000000	53.992293
3818.000000	54.016027
3817.000000	54.054469
3816.000000	54.095492
3815.000000	54.122917
3814.000000	54.134829
3813.000000	54.155999
3812.000000	54.207114
3811.000000	54.274119
3810.000000	54.332710
3809.000000	54.376397
3808.000000	54.415418
3807.000000	54.458388
3806.000000	54.497251
3805.000000	54.522449
3804.000000	54.547405
3803.000000	54.583827
3802.000000	54.622013
3801.000000	54.650155
3800.000000	54.659108
3799.000000	54.662569
3798.000000	54.691632
3797.000000	54.747411
3796.000000	54.805079
3795.000000	54.848020
3794.000000	54.881388
3793.000000	54.919521
3792.000000	54.965757
3791.000000	55.011560
3790.000000	55.051642
3789.000000	55.088072
3788.000000	55.123373
3787.000000	55.157197
3786.000000	55.190519
3785.000000	55.225548
3784.000000	55.260272
3783.000000	55.289070
3782.000000	55.311632
3781.000000	55.334701
3780.000000	55.363239
3779.000000	55.395104
3778.000000	55.423266
3777.000000	55.447612
3776.000000	55.477671
3775.000000	55.519045
3774.000000	55.564310
3773.000000	55.604527
3772.000000	55.641706
3771.000000	55.684022
3770.000000	55.730745
3769.000000	55.771818
3768.000000	55.803944
3767.000000	55.840638
3766.000000	55.894463
3765.000000	55.959476
3764.000000	56.018703
3763.000000	56.065177
3762.000000	56.109054
3761.000000	56.159490
3760.000000	56.211757
3759.000000	56.260241
3758.000000	56.308082
3757.000000	56.361126
3756.000000	56.418413
3755.000000	56.476928
3754.000000	56.534824
3753.000000	56.585403
3752.000000	56.620752
3751.000000	56.646695
3750.000000	56.679410
3749.000000	56.720190
3748.000000	56.758158
3747.000000	56.797870
3746.000000	56.851785
3745.000000	56.922786
3744.000000	57.004128
3743.000000	57.057345
3742.000000	57.074488
3741.000000	57.110127
3740.000000	57.177979
3739.000000	57.239861
3738.000000	57.274903
3737.000000	57.302730
3736.000000	57.348712
3735.000000	57.410988
3734.000000	57.473966
3733.000000	57.533881
3732.000000	57.590825
3731.000000	57.635024
3730.000000	57.663119
3729.000000	57.689730
3728.000000	57.729549
3727.000000	57.781094
3726.000000	57.832771
3725.000000	57.876031
3724.000000	57.915815
3723.000000	57.960678
3722.000000	58.009613
3721.000000	58.056223
3720.000000	58.099294
3719.000000	58.145941
3718.000000	58.201061
3717.000000	58.259945
3716.000000	58.312740
3715.000000	58.358755
3714.000000	58.404987
3713.000000	58.455592
3712.000000	58.511021
3711.000000	58.572623
3710.000000	58.639792
3709.000000	58.708876
3708.000000	58.776859
3707.000000	58.841897
3706.000000	58.903899
3705.000000	58.962928
3704.000000	59.021406
3703.000000	59.083584
3702.000000	59.152391
3701.000000	59.222614
3700.000000	59.282977
3699.000000	59.331360
3698.000000	59.379212
3697.000000	59.434531
3696.000000	59.490332
3695.000000	59.538108
3694.000000	59.580672
3693.000000	59.626115
3692.000000	59.673776
3691.000000	59.720075
3690.000000	59.768238
3689.000000	59.824494
3688.000000	59.882232
3687.000000	59.925425
3686.000000	59.957598
3685.000000	59.998442
3684.000000	60.052735
3683.000000	60.106102
3682.000000	60.150156
3681.000000	60.192067
3680.000000	60.239040
3679.000000	60.281134
3678.000000	60.307974
3677.000000	60.331256
3676.000000	60.379264
3675.000000	60.451419
3674.000000	60.498076
3673.000000	60.502442
3672.000000	60.507982
3671.000000	60.544339
3670.000000	60.608134
3669.000000	60.678881
3668.000000	60.733929
3667.000000	60.776122
3666.000000	60.818953
3665.000000	60.863821
3664.000000	60.906641
3663.000000	60.947995
3662.000000	60.991144
3661.000000	61.034689
3660.000000	61.071985
3659.000000	61.099963
3658.000000	61.128277
3657.000000	61.170061
3656.000000	61.222770
3655.000000	61.260183
3654.000000	61.268354
3653.000000	61.267952
3652.000000	61.281106
3651.000000	61.307285
3650.000000	61.342124
3649.000000	61.391237
3648.000000	61.458884
3647.000000	61.534737
3646.000000	61.600737
3645.000000	61.650896
3644.000000	61.694891
3643.000000	61.744832
3642.000000	61.802580
3641.000000	61.861671
3640.000000	61.916257
3639.000000	61.966103
3638.000000	62.010460
3637.000000	62.044754
3636.000000	62.070395
3635.000000	62.096157
3634.000000	62.123421
3633.000000	62.137106
3632.000000	62.126204
3631.000000	62.104778
3630.000000	62.105344
3629.000000	62.150003
3628.000000	62.207967
3627.000000	62.222572
3626.000000	62.194373
3625.000000	62.159125
3624.000000	62.123488
3623.000000	62.074676
3622.000000	62.011316
3621.000000	61.947619
3620.000000	61.897019
3619.000000	61.857384
3618.000000	61.809705
3617.000000	61.736754
3616.000000	61.642486
3615.000000	61.544978
3614.000000	61.456279
3613.000000	61.372027
3612.000000	61.277938
3611.000000	61.168164
3610.000000	61.053703
3609.000000	60.949051
3608.000000	60.856569
3607.000000	60.764917
3606.000000	60.662245
3605.000000	60.546034
3604.000000	60.420791
3603.000000	60.294239
3602.000000	60.176437
3601.000000	60.073920
3600.000000	59.983125
3599.000000	59.894417
3598.000000	59.803353
3597.000000	59.712018
3596.000000	59.624856
3595.000000	59.544049
3594.000000	59.464951
3593.000000	59.375062
3592.000000	59.264750
3591.000000	59.138775
3590.000000	59.018667
3589.000000	58.935138
3588.000000	58.910787
3587.000000	58.937096
3586.000000	58.975531
3585.000000	58.991216
3584.000000	58.976205
3583.000000	58.939225
3582.000000	58.890768
3581.000000	58.837538
3580.000000	58.781982
3579.000000	58.723542
3578.000000	58.661177
3577.000000	58.594602
3576.000000	58.524030
3575.000000	58.450052
3574.000000	58.371231
3573.000000	58.283124
3572.000000	58.178928
3571.000000	58.054182
3570.000000	57.911832
3569.000000	57.766331
3568.000000	57.638192
3567.000000	57.537377
3566.000000	57.449367
3565.000000	57.348758
3564.000000	57.223507
3563.000000	57.078296
3562.000000	56.922431
3561.000000	56.762264
3560.000000	56.599516
3559.000000	56.432212
3558.000000	56.256580
3557.000000	56.069548
3556.000000	55.870019
3555.000000	55.660185
3554.000000	55.445019
3553.000000	55.228964
3552.000000	55.010906
3551.000000	54.783376
3550.000000	54.539101
3549.000000	54.278197
3548.000000	54.007658
3547.000000	53.735651
3546.000000	53.466043
3545.000000	53.196134
3544.000000	52.919091
3543.000000	52.628854
3542.000000	52.322550
3541.000000	51.999660
3540.000000	51.660197
3539.000000	51.304496
3538.000000	50.934013
3537.000000	50.551314
3536.000000	50.157766
3535.000000	49.751100
3534.000000	49.326986
3533.000000	48.882489
3532.000000	48.417790
3531.000000	47.933830
3530.000000	47.430841
3529.000000	46.909324
3528.000000	46.370525
3527.000000	45.814511
3526.000000	45.239404
3525.000000	44.644272
3524.000000	44.031527
3523.000000	43.404603
3522.000000	42.764323
3521.000000	42.108752
3520.000000	41.435859
3519.000000	40.744843
3518.000000	40.035598
3517.000000	39.308811
3516.000000	38.566605
3515.000000	37.811566
3514.000000	37.045397
3513.000000	36.268330
3512.000000	35.479627
3511.000000	34.678565
3510.000000	33.867133
3509.000000	33.052052
3508.000000	32.240246
3507.000000	31.430873
3506.000000	30.615251
3505.000000	29.786315
3504.000000	28.947261
3503.000000	28.109754
3502.000000	27.285221
3501.000000	26.478519
3500.000000	25.687126
3499.000000	24.903924
3498.000000	24.123346
3497.000000	23.346782
3496.000000	22.581272
3495.000000	21.832878
3494.000000	21.103639
3493.000000	20.394740
3492.000000	19.707678
3491.000000	19.041339
3490.000000	18.392747
3489.000000	17.762412
3488.000000	17.156226
3487.000000	16.580303
3486.000000	16.036171
3485.000000	15.521329
3484.000000	15.029954
3483.000000	14.554133
3482.000000	14.089696
3481.000000	13.641579
3480.000000	13.219399
3479.000000	12.825996
3478.000000	12.454508
3477.000000	12.096198
3476.000000	11.746251
3475.000000	11.402728
3474.000000	11.064710
3473.000000	10.733465
3472.000000	10.412197
3471.000000	10.104069
3470.000000	9.814391
3469.000000	9.553237
3468.000000	9.331313
3467.000000	9.152729
3466.000000	9.014552
3465.000000	8.912775
3464.000000	8.844202
3463.000000	8.805086
3462.000000	8.794432
3461.000000	8.817368
3460.000000	8.880501
3459.000000	8.983229
3458.000000	9.117628
3457.000000	9.275885
3456.000000	9.452053
3455.000000	9.638428
3454.000000	9.825913
3453.000000	10.007489
3452.000000	10.177120
3451.000000	10.325781
3450.000000	10.442844
3449.000000	10.521707
3448.000000	10.560345
3447.000000	10.557353
3446.000000	10.512584
3445.000000	10.429198
3444.000000	10.311611
3443.000000	10.162822
3442.000000	9.986475
3441.000000	9.790925
3440.000000	9.586533
3439.000000	9.380987
3438.000000	9.181958
3437.000000	9.001392
3436.000000	8.851587
3435.000000	8.737511
3434.000000	8.656665
3433.000000	8.605175
3432.000000	8.581613
3431.000000	8.586533
3430.000000	8.623899
3429.000000	8.701757
3428.000000	8.825819
3427.000000	8.995493
3426.000000	9.207772
3425.000000	9.463134
3424.000000	9.764707
3423.000000	10.112680
3422.000000	10.506551
3421.000000	10.948395
3420.000000	11.439319
3419.000000	11.975375
3418.000000	12.548922
3417.000000	13.154292
3416.000000	13.787296
3415.000000	14.442336
3414.000000	15.115229
3413.000000	15.804773
3412.000000	16.508699
3411.000000	17.219997
3410.000000	17.930975
3409.000000	18.638774
3408.000000	19.342299
3407.000000	20.036377
3406.000000	20.713451
3405.000000	21.368932
3404.000000	22.001641
3403.000000	22.612237
3402.000000	23.205031
3401.000000	23.788690
3400.000000	24.370008
3399.000000	24.946857
3398.000000	25.510870
3397.000000	26.055542
3396.000000	26.578866
3395.000000	27.081382
3394.000000	27.565899
3393.000000	28.038867
3392.000000	28.507706
3391.000000	28.975489
3390.000000	29.440669
3389.000000	29.900459
3388.000000	30.352834
3387.000000	30.796738
3386.000000	31.232779
3385.000000	31.663340
3384.000000	32.089915
3383.000000	32.511858
3382.000000	32.929196
3381.000000	33.344581
3380.000000	33.760638
3379.000000	34.177010
3378.000000	34.592259
3377.000000	35.006986
3376.000000	35.422536
3375.000000	35.837834
3374.000000	36.249623
3373.000000	36.655265
3372.000000	37.054036
3371.000000	37.447029
3370.000000	37.837637
3369.000000	38.230731
3368.000000	38.629198
3367.000000	39.031655
3366.000000	39.434374
3365.000000	39.834365
3364.000000	40.229693
3363.000000	40.618874
3362.000000	41.001968
3361.000000	41.381069
3360.000000	41.758183
3359.000000	42.133431
3358.000000	42.506346
3357.000000	42.877494
3356.000000	43.247022
3355.000000	43.613103
3354.000000	43.973401
3353.000000	44.327352
3352.000000	44.676037
3351.000000	45.020621
3350.000000	45.361934
3349.000000	45.700504
3348.000000	46.035680
3347.000000	46.365813
3346.000000	46.690084
3345.000000	47.009419
3344.000000	47.324698
3343.000000	47.634776
3342.000000	47.937422
3341.000000	48.231130
3340.000000	48.515773
3339.000000	48.792533
3338.000000	49.063458
3337.000000	49.330239
3336.000000	49.591962
3335.000000	49.844946
3334.000000	50.085431
3333.000000	50.311033
3332.000000	50.519933
3331.000000	50.709578
3330.000000	50.877355
3329.000000	51.021971
3328.000000	51.142218
3327.000000	51.236445
3326.000000	51.302841
3325.000000	51.339110
3324.000000	51.341730
3323.000000	51.304816
3322.000000	51.222379
3321.000000	51.090174
3320.000000	50.904028
3319.000000	50.659825
3318.000000	50.352253
3317.000000	49.976078
3316.000000	49.525052
3315.000000	48.990081
3314.000000	48.362321
3313.000000	47.633497
3312.000000	46.795349
3311.000000	45.839994
3310.000000	44.759705
3309.000000	43.552876
3308.000000	42.221609
3307.000000	40.768958
3306.000000	39.200195
3305.000000	37.520402
3304.000000	35.736263
3303.000000	33.852916
3302.000000	31.877635
3301.000000	29.825807
3300.000000	27.719448
3299.000000	25.586549
3298.000000	23.463354
3297.000000	21.395695
3296.000000	19.431093
3295.000000	17.608837
3294.000000	15.956430
3293.000000	14.492948
3292.000000	13.227770
3291.000000	12.151436
3290.000000	11.241681
3289.000000	10.468879
3288.000000	9.801451
3287.000000	9.210210
3286.000000	8.670718
3285.000000	8.170334
3284.000000	7.703024
3283.000000	7.265320
3282.000000	6.859751
3281.000000	6.495680
3280.000000	6.185256
3279.000000	5.936742
3278.000000	5.756301
3277.000000	5.652554
3276.000000	5.631498
3275.000000	5.691993
3274.000000	5.827469
3273.000000	6.028658
3272.000000	6.281968
3271.000000	6.564977
3270.000000	6.850156
3269.000000	7.110329
3268.000000	7.319051
3267.000000	7.452065
3266.000000	7.494899
3265.000000	7.447455
3264.000000	7.319811
3263.000000	7.127605
3262.000000	6.891417
3261.000000	6.637963
3260.000000	6.393248
3259.000000	6.176191
3258.000000	6.001380
3257.000000	5.882650
3256.000000	5.829169
3255.000000	5.841399
3254.000000	5.914664
3253.000000	6.042588
3252.000000	6.216283
3251.000000	6.421423
3250.000000	6.642807
3249.000000	6.869638
3248.000000	7.092399
3247.000000	7.300140
3246.000000	7.483129
3245.000000	7.636136
3244.000000	7.756181
3243.000000	7.840904
3242.000000	7.891463
3241.000000	7.914514
3240.000000	7.917603
3239.000000	7.904268
3238.000000	7.877300
3237.000000	7.841396
3236.000000	7.801050
3235.000000	7.759308
3234.000000	7.720447
3233.000000	7.690004
3232.000000	7.667730
3231.000000	7.644613
3230.000000	7.610510
3229.000000	7.560911
3228.000000	7.494359
3227.000000	7.407928
3226.000000	7.299566
3225.000000	7.171349
3224.000000	7.025777
3223.000000	6.862976
3222.000000	6.684453
3221.000000	6.496398
3220.000000	6.305933
3219.000000	6.116647
3218.000000	5.931042
3217.000000	5.752856
3216.000000	5.583571
3215.000000	5.420403
3214.000000	5.261171
3213.000000	5.107363
3212.000000	4.959458
3211.000000	4.813644
3210.000000	4.666753
3209.000000	4.520888
3208.000000	4.379458
3207.000000	4.242871
3206.000000	4.111717
3205.000000	3.989709
3204.000000	3.880165
3203.000000	3.782931
3202.000000	3.698132
3201.000000	3.629137
3200.000000	3.577928
3199.000000	3.542395
3198.000000	3.520999
3197.000000	3.516076
3196.000000	3.529661
3195.000000	3.559363
3194.000000	3.602882
3193.000000	3.661450
3192.000000	3.735641
3191.000000	3.822770
3190.000000	3.920597
3189.000000	4.030262
3188.000000	4.151867
3187.000000	4.281400
3186.000000	4.415928
3185.000000	4.556853
3184.000000	4.705397
3183.000000	4.858991
3182.000000	5.015216
3181.000000	5.175289
3180.000000	5.339844
3179.000000	5.505905
3178.000000	5.671133
3177.000000	5.836794
3176.000000	6.003474
3175.000000	6.168004
3174.000000	6.327914
3173.000000	6.484691
3172.000000	6.639632
3171.000000	6.790539
3170.000000	6.935745
3169.000000	7.077146
3168.000000	7.216065
3167.000000	7.350378
3166.000000	7.478487
3165.000000	7.602194
3164.000000	7.722463
3163.000000	7.836291
3162.000000	7.941159
3161.000000	8.038165
3160.000000	8.128151
3159.000000	8.208799
3158.000000	8.278453
3157.000000	8.339413
3156.000000	8.394187
3155.000000	8.442845
3154.000000	8.487015
3153.000000	8.532090
3152.000000	8.582400
3151.000000	8.637612
3150.000000	8.696719
3149.000000	8.761468
3148.000000	8.832973
3147.000000	8.909057
3146.000000	8.988234
3145.000000	9.072377
3144.000000	9.162432
3143.000000	9.255518
3142.000000	9.348870
3141.000000	9.443007
3140.000000	9.538133
3139.000000	9.631342
3138.000000	9.720113
3137.000000	9.804637
3136.000000	9.883934
3135.000000	9.953234
3134.000000	10.008152
3133.000000	10.047054
3132.000000	10.067305
3131.000000	10.062878
3130.000000	10.028240
3129.000000	9.962169
3128.000000	9.864398
3127.000000	9.734001
3126.000000	9.573567
3125.000000	9.390876
3124.000000	9.194710
3123.000000	8.991329
3122.000000	8.787784
3121.000000	8.593342
3120.000000	8.414080
3119.000000	8.249920
3118.000000	8.099307
3117.000000	7.962750
3116.000000	7.839218
3115.000000	7.724107
3114.000000	7.613627
3113.000000	7.507593
3112.000000	7.405308
3111.000000	7.303423
3110.000000	7.201129
3109.000000	7.102623
3108.000000	7.011754
3107.000000	6.928399
3106.000000	6.852604
3105.000000	6.788141
3104.000000	6.738442
3103.000000	6.704068
3102.000000	6.687240
3101.000000	6.693568
3100.000000	6.727158
3099.000000	6.787100
3098.000000	6.872155
3097.000000	6.984410
3096.000000	7.124547
3095.000000	7.289684
3094.000000	7.477570
3093.000000	7.689242
3092.000000	7.925090
3091.000000	8.181609
3090.000000	8.455707
3089.000000	8.746391
3088.000000	9.050418
3087.000000	9.361583
3086.000000	9.676390
3085.000000	9.996714
3084.000000	10.323508
3083.000000	10.652718
3082.000000	10.980259
3081.000000	11.306127
3080.000000	11.631251
3079.000000	11.954399
3078.000000	12.274927
3077.000000	12.594130
3076.000000	12.911191
3075.000000	13.221729
3074.000000	13.522881
3073.000000	13.816125
3072.000000	14.102780
3071.000000	14.381217
3070.000000	14.650656
3069.000000	14.913633
3068.000000	15.172294
3067.000000	15.425681
3066.000000	15.673253
3065.000000	15.916969
3064.000000	16.157693
3063.000000	16.393471
3062.000000	16.623173
3061.000000	16.848452
3060.000000	17.070053
3059.000000	17.286096
3058.000000	17.496112
3057.000000	17.702797
3056.000000	17.908002
3055.000000	18.110451
3054.000000	18.309229
3053.000000	18.506024
3052.000000	18.702009
3051.000000	18.896220
3050.000000	19.088462
3049.000000	19.280068
3048.000000	19.470447
3047.000000	19.656615
3046.000000	19.837869
3045.000000	20.017164
3044.000000	20.196569
3043.000000	20.375347
3042.000000	20.553613
3041.000000	20.733562
3040.000000	20.915187
3039.000000	21.094847
3038.000000	21.270136
3037.000000	21.442577
3036.000000	21.614172
3035.000000	21.785126
3034.000000	21.956333
3033.000000	22.130037
3032.000000	22.306224
3031.000000	22.482171
3030.000000	22.656953
3029.000000	22.832416
3028.000000	23.008381
3027.000000	23.181268
3026.000000	23.349270
3025.000000	23.514708
3024.000000	23.679036
3023.000000	23.839479
3022.000000	23.992621
3021.000000	24.137037
3020.000000	24.270307
3019.000000	24.386484
3018.000000	24.479487
3017.000000	24.546153
3016.000000	24.584928
3015.000000	24.596329
3014.000000	24.587072
3013.000000	24.571764
3012.000000	24.568027
3011.000000	24.591974
3010.000000	24.657132
3009.000000	24.771452
3008.000000	24.931712
3007.000000	25.123281
3006.000000	25.327046
3005.000000	25.524100
3004.000000	25.693636
3003.000000	25.811176
3002.000000	25.852472
3001.000000	25.797317
3000.000000	25.633435
2999.000000	25.365140
2998.000000	25.025664
2997.000000	24.678665
2996.000000	24.401732
2995.000000	24.262911
2994.000000	24.300856
2993.000000	24.514692
2992.000000	24.863703
2991.000000	25.284760
2990.000000	25.718207
2989.000000	26.124629
2988.000000	26.485266
2987.000000	26.794918
2986.000000	27.057578
2985.000000	27.280719
2984.000000	27.469005
2983.000000	27.622137
2982.000000	27.739642
2981.000000	27.822506
2980.000000	27.869318
2979.000000	27.874411
2978.000000	27.832209
2977.000000	27.742896
2976.000000	27.613002
2975.000000	27.456717
2974.000000	27.297423
2973.000000	27.162897
2972.000000	27.074002
2971.000000	27.035773
2970.000000	27.036708
2969.000000	27.049686
2968.000000	27.032981
2967.000000	26.940621
2966.000000	26.742957
2965.000000	26.442069
2964.000000	26.070251
2963.000000	25.676833
2962.000000	25.314537
2961.000000	25.026439
2960.000000	24.837202
2959.000000	24.753466
2958.000000	24.773696
2957.000000	24.892486
2956.000000	25.096052
2955.000000	25.360368
2954.000000	25.656767
2953.000000	25.957088
2952.000000	26.231598
2951.000000	26.451862
2950.000000	26.601017
2949.000000	26.682176
2948.000000	26.713733
2947.000000	26.715219
2946.000000	26.691834
2945.000000	26.619834
2944.000000	26.445390
2943.000000	26.110484
2942.000000	25.602963
2941.000000	24.994158
2940.000000	24.431698
2939.000000	24.085232
2938.000000	24.073798
2937.000000	24.417126
2936.000000	25.033912
2935.000000	25.789529
2934.000000	26.558057
2933.000000	27.260034
2932.000000	27.863271
2931.000000	28.367568
2930.000000	28.790717
2929.000000	29.155293
2928.000000	29.478894
2927.000000	29.770806
2926.000000	30.037450
2925.000000	30.284980
2924.000000	30.516311
2923.000000	30.730292
2922.000000	30.926285
2921.000000	31.105961
2920.000000	31.269501
2919.000000	31.415202
2918.000000	31.543719
2917.000000	31.659103
2916.000000	31.764175
2915.000000	31.858478
2914.000000	31.942057
2913.000000	32.016995
2912.000000	32.083755
2911.000000	32.139675
2910.000000	32.182003
2909.000000	32.208921
2908.000000	32.216268
2907.000000	32.195729
2906.000000	32.137427
2905.000000	32.030356
2904.000000	31.859966
2903.000000	31.610885
2902.000000	31.275755
2901.000000	30.862125
2900.000000	30.392852
2899.000000	29.905771
2898.000000	29.452150
2897.000000	29.088126
2896.000000	28.857336
2895.000000	28.778374
2894.000000	28.845578
2893.000000	29.034812
2892.000000	29.310133
2891.000000	29.632437
2890.000000	29.970454
2889.000000	30.304210
2888.000000	30.620831
2887.000000	30.911284
2886.000000	31.171454
2885.000000	31.402159
2884.000000	31.604348
2883.000000	31.777861
2882.000000	31.924944
2881.000000	32.051402
2880.000000	32.163014
2879.000000	32.263747
2878.000000	32.358055
2877.000000	32.450755
2876.000000	32.543150
2875.000000	32.632379
2874.000000	32.716297
2873.000000	32.795868
2872.000000	32.872574
2871.000000	32.947912
2870.000000	33.026804
2869.000000	33.117494
2868.000000	33.225529
2867.000000	33.350147
2866.000000	33.487211
2865.000000	33.631867
2864.000000	33.777317
2863.000000	33.915650
2862.000000	34.042474
2861.000000	34.158294
2860.000000	34.264529
2859.000000	34.361407
2858.000000	34.450819
2857.000000	34.537370
2856.000000	34.624731
2855.000000	34.713894
2854.000000	34.805708
2853.000000	34.901148
2852.000000	34.997565
2851.000000	35.088387
2850.000000	35.168584
2849.000000	35.238049
2848.000000	35.299209
2847.000000	35.354887
2846.000000	35.409557
2845.000000	35.468689
2844.000000	35.534812
2843.000000	35.606522
2842.000000	35.682267
2841.000000	35.762458
2840.000000	35.847215
2839.000000	35.935401
2838.000000	36.026989
2837.000000	36.123373
2836.000000	36.224418
2835.000000	36.328163
2834.000000	36.434110
2833.000000	36.543773
2832.000000	36.657021
2831.000000	36.770870
2830.000000	36.882889
2829.000000	36.992908
2828.000000	37.100583
2827.000000	37.204439
2826.000000	37.304368
2825.000000	37.402209
2824.000000	37.498857
2823.000000	37.593303
2822.000000	37.685228
2821.000000	37.775561
2820.000000	37.863684
2819.000000	37.947124
2818.000000	38.024959
2817.000000	38.098812
2816.000000	38.169802
2815.000000	38.237359
2814.000000	38.301801
2813.000000	38.364977
2812.000000	38.427379
2811.000000	38.487508
2810.000000	38.544943
2809.000000	38.601131
2808.000000	38.656309
2807.000000	38.708710
2806.000000	38.757926
2805.000000	38.806212
2804.000000	38.855322
2803.000000	38.904813
2802.000000	38.954364
2801.000000	39.004875
2800.000000	39.056192
2799.000000	39.106444
2798.000000	39.154700
2797.000000	39.201763
2796.000000	39.247605
2795.000000	39.290831
2794.000000	39.331562
2793.000000	39.372017
2792.000000	39.413287
2791.000000	39.454171
2790.000000	39.493899
2789.000000	39.533052
2788.000000	39.570904
2787.000000	39.604911
2786.000000	39.634157
2785.000000	39.660946
2784.000000	39.688214
2783.000000	39.718145
2782.000000	39.753922
2781.000000	39.799350
2780.000000	39.855155
2779.000000	39.918013
2778.000000	39.984229
2777.000000	40.052110
2776.000000	40.120219
2775.000000	40.186465
2774.000000	40.250297
2773.000000	40.313212
2772.000000	40.376009
2771.000000	40.437811
2770.000000	40.498262
2769.000000	40.558012
2768.000000	40.616307
2767.000000	40.670796
2766.000000	40.720643
2765.000000	40.767134
2764.000000	40.810562
2763.000000	40.849500
2762.000000	40.883933
2761.000000	40.916242
2760.000000	40.947979
2759.000000	40.978223
2758.000000	41.006088
2757.000000	41.031880
2756.000000	41.054819
2755.000000	41.072663
2754.000000	41.085118
2753.000000	41.095579
2752.000000	41.108538
2751.000000	41.127378
2750.000000	41.154906
2749.000000	41.192498
2748.000000	41.237065
2747.000000	41.281428
2746.000000	41.319400
2745.000000	41.349135
2744.000000	41.371711
2743.000000	41.389462
2742.000000	41.406196
2741.000000	41.425528
2740.000000	41.447098
2739.000000	41.466599
2738.000000	41.480989
2737.000000	41.492315
2736.000000	41.506339
2735.000000	41.530125
2734.000000	41.571042
2733.000000	41.633653
2732.000000	41.715487
2731.000000	41.807871
2730.000000	41.902042
2729.000000	41.993158
2728.000000	42.078614
2727.000000	42.156178
2726.000000	42.225383
2725.000000	42.287790
2724.000000	42.344127
2723.000000	42.393262
2722.000000	42.434626
2721.000000	42.469172
2720.000000	42.497392
2719.000000	42.518740
2718.000000	42.534283
2717.000000	42.547734
2716.000000	42.562597
2715.000000	42.580513
2714.000000	42.602894
2713.000000	42.631538
2712.000000	42.666688
2711.000000	42.706762
2710.000000	42.750735
2709.000000	42.798593
2708.000000	42.848809
2707.000000	42.897845
2706.000000	42.942969
2705.000000	42.983212
2704.000000	43.016934
2703.000000	43.041297
2702.000000	43.055135
2701.000000	43.059771
2700.000000	43.056525
2699.000000	43.045692
2698.000000	43.028674
2697.000000	43.008748
2696.000000	42.988509
2695.000000	42.969014
2694.000000	42.951837
2693.000000	42.938995
2692.000000	42.930133
2691.000000	42.922619
2690.000000	42.915564
2689.000000	42.911336
2688.000000	42.912259
2687.000000	42.918264
2686.000000	42.928678
2685.000000	42.943421
2684.000000	42.961395
2683.000000	42.980703
2682.000000	43.001643
2681.000000	43.027357
2680.000000	43.060239
2679.000000	43.099651
2678.000000	43.143815
2677.000000	43.190997
2676.000000	43.237979
2675.000000	43.280094
2674.000000	43.314110
2673.000000	43.339337
2672.000000	43.355644
2671.000000	43.363111
2670.000000	43.364631
2669.000000	43.366467
2668.000000	43.374906
2667.000000	43.393967
2666.000000	43.426148
2665.000000	43.471963
2664.000000	43.527474
2663.000000	43.585058
2662.000000	43.637945
2661.000000	43.682350
2660.000000	43.715462
2659.000000	43.734712
2658.000000	43.740295
2657.000000	43.736106
2656.000000	43.726927
2655.000000	43.716608
2654.000000	43.709611
2653.000000	43.711259
2652.000000	43.725051
2651.000000	43.751702
2650.000000	43.791237
2649.000000	43.843342
2648.000000	43.905220
2647.000000	43.971564
2646.000000	44.037607
2645.000000	44.100523
2644.000000	44.157646
2643.000000	44.206805
2642.000000	44.249447
2641.000000	44.290685
2640.000000	44.335013
2639.000000	44.383713
2638.000000	44.436527
2637.000000	44.492779
2636.000000	44.549898
2635.000000	44.603504
2634.000000	44.650528
2633.000000	44.690369
2632.000000	44.722630
2631.000000	44.746431
2630.000000	44.762595
2629.000000	44.774265
2628.000000	44.784174
2627.000000	44.793181
2626.000000	44.802083
2625.000000	44.811926
2624.000000	44.822081
2623.000000	44.830432
2622.000000	44.836272
2621.000000	44.840910
2620.000000	44.844618
2619.000000	44.845634
2618.000000	44.842652
2617.000000	44.835523
2616.000000	44.822976
2615.000000	44.802201
2614.000000	44.772080
2613.000000	44.734549
2612.000000	44.691986
2611.000000	44.646198
2610.000000	44.600793
2609.000000	44.561824
2608.000000	44.534606
2607.000000	44.521766
2606.000000	44.524475
2605.000000	44.543173
2604.000000	44.575903
2603.000000	44.618381
2602.000000	44.667368
2601.000000	44.721190
2600.000000	44.777153
2599.000000	44.831192
2598.000000	44.880876
2597.000000	44.926773
2596.000000	44.969893
2595.000000	45.010461
2594.000000	45.049850
2593.000000	45.090811
2592.000000	45.134410
2591.000000	45.178798
2590.000000	45.221615
2589.000000	45.261374
2588.000000	45.296176
2587.000000	45.323740
2586.000000	45.344018
2585.000000	45.359823
2584.000000	45.374363
2583.000000	45.390465
2582.000000	45.412369
2581.000000	45.445079
2580.000000	45.490786
2579.000000	45.548052
2578.000000	45.614731
2577.000000	45.689593
2576.000000	45.770380
2575.000000	45.853371
2574.000000	45.936091
2573.000000	46.017870
2572.000000	46.097512
2571.000000	46.172831
2570.000000	46.243138
2569.000000	46.309649
2568.000000	46.372701
2567.000000	46.430977
2566.000000	46.484303
2565.000000	46.534861
2564.000000	46.584530
2563.000000	46.633531
2562.000000	46.682108
2561.000000	46.731077
2560.000000	46.779893
2559.000000	46.826332
2558.000000	46.869222
2557.000000	46.909434
2556.000000	46.947881
2555.000000	46.984955
2554.000000	47.022483
2553.000000	47.063644
2552.000000	47.109933
2551.000000	47.160217
2550.000000	47.213188
2549.000000	47.268320
2548.000000	47.323815
2547.000000	47.376348
2546.000000	47.423969
2545.000000	47.467292
2544.000000	47.507093
2543.000000	47.543012
2542.000000	47.575104
2541.000000	47.604003
2540.000000	47.628838
2539.000000	47.646726
2538.000000	47.655572
2537.000000	47.655402
2536.000000	47.646171
2535.000000	47.627230
2534.000000	47.599200
2533.000000	47.564593
2532.000000	47.525741
2531.000000	47.483670
2530.000000	47.440015
2529.000000	47.397315
2528.000000	47.356883
2527.000000	47.318528
2526.000000	47.282765
2525.000000	47.251090
2524.000000	47.223340
2523.000000	47.197095
2522.000000	47.170231
2521.000000	47.141658
2520.000000	47.109183
2519.000000	47.069282
2518.000000	47.020053
2517.000000	46.962372
2516.000000	46.897467
2515.000000	46.826287
2514.000000	46.751817
2513.000000	46.679424
2512.000000	46.613860
2511.000000	46.558084
2510.000000	46.515163
2509.000000	46.488502
2508.000000	46.479229
2507.000000	46.485234
2506.000000	46.504433
2505.000000	46.535863
2504.000000	46.577476
2503.000000	46.625975
2502.000000	46.678871
2501.000000	46.734988
2500.000000	46.791768
2499.000000	46.844838
2498.000000	46.891192
2497.000000	46.930224
2496.000000	46.961309
2495.000000	46.983165
2494.000000	46.996499
2493.000000	47.004502
2492.000000	47.010157
2491.000000	47.014942
2490.000000	47.020691
2489.000000	47.029951
2488.000000	47.043424
2487.000000	47.059655
2486.000000	47.077878
2485.000000	47.098818
2484.000000	47.122118
2483.000000	47.145827
2482.000000	47.169111
2481.000000	47.193097
2480.000000	47.218397
2479.000000	47.244227
2478.000000	47.270887
2477.000000	47.300363
2476.000000	47.333962
2475.000000	47.371826
2474.000000	47.415129
2473.000000	47.466400
2472.000000	47.526495
2471.000000	47.593722
2470.000000	47.666412
2469.000000	47.743425
2468.000000	47.821870
2467.000000	47.896955
2466.000000	47.965298
2465.000000	48.026364
2464.000000	48.080350
2463.000000	48.127197
2462.000000	48.168357
2461.000000	48.206878
2460.000000	48.244436
2459.000000	48.280513
2458.000000	48.314390
2457.000000	48.345731
2456.000000	48.372790
2455.000000	48.392593
2454.000000	48.404357
2453.000000	48.410608
2452.000000	48.414760
2451.000000	48.419741
2450.000000	48.429036
2449.000000	48.446156
2448.000000	48.472124
2447.000000	48.505610
2446.000000	48.545841
2445.000000	48.593242
2444.000000	48.646632
2443.000000	48.702830
2442.000000	48.759611
2441.000000	48.816491
2440.000000	48.872358
2439.000000	48.924815
2438.000000	48.972710
2437.000000	49.016780
2436.000000	49.057150
2435.000000	49.092282
2434.000000	49.121213
2433.000000	49.144449
2432.000000	49.161931
2431.000000	49.172753
2430.000000	49.176841
2429.000000	49.174995
2428.000000	49.166487
2427.000000	49.148655
2426.000000	49.120059
2425.000000	49.081448
2424.000000	49.034102
2423.000000	48.979883
2422.000000	48.923597
2421.000000	48.872938
2420.000000	48.834652
2419.000000	48.812182
2418.000000	48.806455
2417.000000	48.816083
2416.000000	48.835796
2415.000000	48.857666
2414.000000	48.874940
2413.000000	48.883281
2412.000000	48.878837
2411.000000	48.858427
2410.000000	48.822256
2409.000000	48.773880
2408.000000	48.716886
2407.000000	48.653285
2406.000000	48.585736
2405.000000	48.518091
2404.000000	48.453121
2403.000000	48.392248
2402.000000	48.338007
2401.000000	48.294280
2400.000000	48.263270
2399.000000	48.244390
2398.000000	48.235859
2397.000000	48.234876
2396.000000	48.235621
2395.000000	48.230362
2394.000000	48.213761
2393.000000	48.184484
2392.000000	48.143023
2391.000000	48.091208
2390.000000	48.034192
2389.000000	47.979783
2388.000000	47.935013
2387.000000	47.904589
2386.000000	47.892538
2385.000000	47.902132
2384.000000	47.933642
2383.000000	47.984518
2382.000000	48.052356
2381.000000	48.134597
2380.000000	48.225120
2379.000000	48.314241
2378.000000	48.392309
2377.000000	48.452567
2376.000000	48.488515
2375.000000	48.494481
2374.000000	48.469082
2373.000000	48.416003
2372.000000	48.342445
2371.000000	48.256526
2370.000000	48.167442
2369.000000	48.087582
2368.000000	48.030159
2367.000000	48.001388
2366.000000	47.999949
2365.000000	48.030491
2364.000000	48.097275
2363.000000	48.191470
2362.000000	48.310993
2361.000000	48.449205
2360.000000	48.589754
2359.000000	48.720137
2358.000000	48.822534
2357.000000	48.896160
2356.000000	48.938377
2355.000000	48.943311
2354.000000	48.923403
2353.000000	48.911665
2352.000000	48.954283
2351.000000	49.031157
2350.000000	49.082709
2349.000000	49.077809
2348.000000	49.037437
2347.000000	49.038486
2346.000000	49.114706
2345.000000	49.241716
2344.000000	49.350611
2343.000000	49.399863
2342.000000	49.417254
2341.000000	49.421604
2340.000000	49.426528
2339.000000	49.425017
2338.000000	49.418031
2337.000000	49.409579
2336.000000	49.407693
2335.000000	49.411794
2334.000000	49.419116
2333.000000	49.415977
2332.000000	49.398294
2331.000000	49.348238
2330.000000	49.261284
2329.000000	49.161733
2328.000000	49.065549
2327.000000	49.004328
2326.000000	48.973729
2325.000000	48.979681
2324.000000	49.004279
2323.000000	49.025023
2322.000000	49.030324
2321.000000	49.012035
2320.000000	48.980797
2319.000000	48.936484
2318.000000	48.891985
2317.000000	48.854266
2316.000000	48.828289
2315.000000	48.805211
2314.000000	48.770368
2313.000000	48.713441
2312.000000	48.625461
2311.000000	48.509032
2310.000000	48.368305
2309.000000	48.217903
2308.000000	48.062189
2307.000000	47.905378
2306.000000	47.746492
2305.000000	47.591196
2304.000000	47.441181
2303.000000	47.295652
2302.000000	47.152270
2301.000000	47.012065
2300.000000	46.874172
2299.000000	46.738988
2298.000000	46.608198
2297.000000	46.490161
2296.000000	46.388563
2295.000000	46.307528
2294.000000	46.247964
2293.000000	46.215570
2292.000000	46.210016
2291.000000	46.228871
2290.000000	46.268108
2289.000000	46.327178
2288.000000	46.403903
2287.000000	46.494406
2286.000000	46.595688
2285.000000	46.706207
2284.000000	46.821867
2283.000000	46.935553
2282.000000	47.043191
2281.000000	47.144232
2280.000000	47.238315
2279.000000	47.322545
2278.000000	47.397256
2277.000000	47.466334
2276.000000	47.533976
2275.000000	47.601851
2274.000000	47.672133
2273.000000	47.749136
2272.000000	47.835383
2271.000000	47.931040
2270.000000	48.037134
2269.000000	48.156890
2268.000000	48.291744
2267.000000	48.439463
2266.000000	48.597399
2265.000000	48.764316
2264.000000	48.936612
2263.000000	49.108406
2262.000000	49.274501
2261.000000	49.433047
2260.000000	49.582468
2259.000000	49.720046
2258.000000	49.845704
2257.000000	49.962030
2256.000000	50.071714
2255.000000	50.174927
2254.000000	50.273155
2253.000000	50.369887
2252.000000	50.467172
2251.000000	50.564120
2250.000000	50.659688
2249.000000	50.755027
2248.000000	50.849910
2247.000000	50.941630
2246.000000	51.028036
2245.000000	51.109519
2244.000000	51.186217
2243.000000	51.256388
2242.000000	51.318762
2241.000000	51.374202
2240.000000	51.422996
2239.000000	51.463468
2238.000000	51.494701
2237.000000	51.517997
2236.000000	51.534601
2235.000000	51.544566
2234.000000	51.549864
2233.000000	51.555491
2232.000000	51.565769
2231.000000	51.581672
2230.000000	51.602942
2229.000000	51.629740
2228.000000	51.660611
2227.000000	51.691775
2226.000000	51.720479
2225.000000	51.746910
2224.000000	51.771524
2223.000000	51.793159
2222.000000	51.811066
2221.000000	51.826298
2220.000000	51.839679
2219.000000	51.851244
2218.000000	51.862927
2217.000000	51.879138
2216.000000	51.903014
2215.000000	51.934525
2214.000000	51.973224
2213.000000	52.019677
2212.000000	52.072801
2211.000000	52.128677
2210.000000	52.183770
2209.000000	52.236756
2208.000000	52.286204
2207.000000	52.329502
2206.000000	52.365582
2205.000000	52.395950
2204.000000	52.421294
2203.000000	52.439853
2202.000000	52.450483
2201.000000	52.454601
2200.000000	52.453549
2199.000000	52.447052
2198.000000	52.436192
2197.000000	52.425205
2196.000000	52.418617
2195.000000	52.418844
2194.000000	52.428030
2193.000000	52.449067
2192.000000	52.482721
2191.000000	52.526189
2190.000000	52.576079
2189.000000	52.630777
2188.000000	52.688804
2187.000000	52.747906
2186.000000	52.807292
2185.000000	52.868198
2184.000000	52.930626
2183.000000	52.991794
2182.000000	53.049195
2181.000000	53.102578
2180.000000	53.151829
2179.000000	53.195585
2178.000000	53.233416
2177.000000	53.266808
2176.000000	53.296469
2175.000000	53.321203
2174.000000	53.340625
2173.000000	53.356303
2172.000000	53.368748
2171.000000	53.376017
2170.000000	53.376944
2169.000000	53.373219
2168.000000	53.366972
2167.000000	53.358951
2166.000000	53.350571
2165.000000	53.344797
2164.000000	53.343153
2163.000000	53.344476
2162.000000	53.348088
2161.000000	53.355518
2160.000000	53.367581
2159.000000	53.382699
2158.000000	53.399935
2157.000000	53.420859
2156.000000	53.446635
2155.000000	53.475857
2154.000000	53.506921
2153.000000	53.539827
2152.000000	53.574001
2151.000000	53.606971
2150.000000	53.637041
2149.000000	53.664922
2148.000000	53.691103
2147.000000	53.714247
2146.000000	53.733754
2145.000000	53.751305
2144.000000	53.768239
2143.000000	53.783871
2142.000000	53.797878
2141.000000	53.811724
2140.000000	53.826037
2139.000000	53.839022
2138.000000	53.849041
2137.000000	53.856324
2136.000000	53.860780
2135.000000	53.860713
2134.000000	53.855333
2133.000000	53.845945
2132.000000	53.833184
2131.000000	53.815682
2130.000000	53.793072
2129.000000	53.767676
2128.000000	53.741804
2127.000000	53.715974
2126.000000	53.691340
2125.000000	53.671137
2124.000000	53.657945
2123.000000	53.652397
2122.000000	53.655973
2121.000000	53.672012
2120.000000	53.702145
2119.000000	53.744148
2118.000000	53.794452
2117.000000	53.849917
2116.000000	53.906014
2115.000000	53.956689
2114.000000	53.998432
2113.000000	54.032107
2112.000000	54.059466
2111.000000	54.080656
2110.000000	54.096360
2109.000000	54.109190
2108.000000	54.121015
2107.000000	54.131429
2106.000000	54.140653
2105.000000	54.151196
2104.000000	54.164773
2103.000000	54.180026
2102.000000	54.194561
2101.000000	54.206405
2100.000000	54.211923
2099.000000	54.205488
2098.000000	54.183671
2097.000000	54.147901
2096.000000	54.102044
2095.000000	54.050700
2094.000000	54.001245
2093.000000	53.963717
2092.000000	53.945815
2091.000000	53.949749
2090.000000	53.974913
2089.000000	54.020086
2088.000000	54.081058
2087.000000	54.149751
2086.000000	54.218258
2085.000000	54.281465
2084.000000	54.335341
2083.000000	54.376168
2082.000000	54.403141
2081.000000	54.419061
2080.000000	54.426364
2079.000000	54.424654
2078.000000	54.413577
2077.000000	54.394576
2076.000000	54.367883
2075.000000	54.331276
2074.000000	54.283654
2073.000000	54.227190
2072.000000	54.164101
2071.000000	54.094201
2070.000000	54.017823
2069.000000	53.937627
2068.000000	53.855107
2067.000000	53.768152
2066.000000	53.674361
2065.000000	53.574477
2064.000000	53.470496
2063.000000	53.363373
2062.000000	53.254435
2061.000000	53.145885
2060.000000	53.038048
2059.000000	52.928999
2058.000000	52.818592
2057.000000	52.709822
2056.000000	52.604846
2055.000000	52.503429
2054.000000	52.406921
2053.000000	52.319517
2052.000000	52.243776
2051.000000	52.178737
2050.000000	52.123748
2049.000000	52.080287
2048.000000	52.047963
2047.000000	52.022825
2046.000000	52.002364
2045.000000	51.988019
2044.000000	51.980847
2043.000000	51.978938
2042.000000	51.981372
2041.000000	51.991242
2040.000000	52.011808
2039.000000	52.043524
2038.000000	52.086854
2037.000000	52.143542
2036.000000	52.213349
2035.000000	52.292906
2034.000000	52.379915
2033.000000	52.474951
2032.000000	52.577039
2031.000000	52.681866
2030.000000	52.785953
2029.000000	52.888739
2028.000000	52.989211
2027.000000	53.084473
2026.000000	53.173654
2025.000000	53.259413
2024.000000	53.343631
2023.000000	53.425259
2022.000000	53.504413
2021.000000	53.584520
2020.000000	53.667628
2019.000000	53.751079
2018.000000	53.831691
2017.000000	53.910502
2016.000000	53.990831
2015.000000	54.074489
2014.000000	54.162301
2013.000000	54.255438
2012.000000	54.353498
2011.000000	54.453626
2010.000000	54.553695
2009.000000	54.654033
2008.000000	54.754449
2007.000000	54.852588
2006.000000	54.947138
2005.000000	55.039761
2004.000000	55.131969
2003.000000	55.222524
2002.000000	55.309904
2001.000000	55.394419
2000.000000	55.475888
1999.000000	55.552389
1998.000000	55.622996
1997.000000	55.689964
1996.000000	55.756839
1995.000000	55.825323
1994.000000	55.894805
1993.000000	55.963944
1992.000000	56.032435
1991.000000	56.102751
1990.000000	56.179546
1989.000000	56.265103
1988.000000	56.356244
1987.000000	56.447515
1986.000000	56.536819
1985.000000	56.625854
1984.000000	56.715573
1983.000000	56.804773
1982.000000	56.893235
1981.000000	56.982459
1980.000000	57.072655
1979.000000	57.162280
1978.000000	57.250760
1977.000000	57.338996
1976.000000	57.427236
1975.000000	57.514738
1974.000000	57.601608
1973.000000	57.688568
1972.000000	57.775066
1971.000000	57.859708
1970.000000	57.941479
1969.000000	58.018279
1968.000000	58.084798
1967.000000	58.135544
1966.000000	58.170955
1965.000000	58.196525
1964.000000	58.215832
1963.000000	58.227615
1962.000000	58.229448
1961.000000	58.221063
1960.000000	58.203485
1959.000000	58.179048
1958.000000	58.152943
1957.000000	58.131420
1956.000000	58.117752
1955.000000	58.112325
1954.000000	58.116295
1953.000000	58.131958
1952.000000	58.159270
1951.000000	58.194871
1950.000000	58.235587
1949.000000	58.279273
1948.000000	58.321805
1947.000000	58.358618
1946.000000	58.389779
1945.000000	58.418214
1944.000000	58.442114
1943.000000	58.455137
1942.000000	58.456896
1941.000000	58.456999
1940.000000	58.464092
1939.000000	58.477042
1938.000000	58.490075
1937.000000	58.500038
1936.000000	58.505923
1935.000000	58.506122
1934.000000	58.499905
1933.000000	58.489344
1932.000000	58.476627
1931.000000	58.462096
1930.000000	58.447582
1929.000000	58.437254
1928.000000	58.433409
1927.000000	58.436304
1926.000000	58.447840
1925.000000	58.469725
1924.000000	58.497065
1923.000000	58.521141
1922.000000	58.542198
1921.000000	58.569038
1920.000000	58.602379
1919.000000	58.629465
1918.000000	58.639598
1917.000000	58.637812
1916.000000	58.635066
1915.000000	58.632532
1914.000000	58.625773
1913.000000	58.615674
1912.000000	58.605650
1911.000000	58.594209
1910.000000	58.578949
1909.000000	58.563221
1908.000000	58.552230
1907.000000	58.547293
1906.000000	58.548887
1905.000000	58.560988
1904.000000	58.586595
1903.000000	58.623412
1902.000000	58.669784
1901.000000	58.728044
1900.000000	58.798179
1899.000000	58.875005
1898.000000	58.953708
1897.000000	59.033044
1896.000000	59.109800
1895.000000	59.177404
1894.000000	59.236088
1893.000000	59.295907
1892.000000	59.362933
1891.000000	59.429568
1890.000000	59.484213
1889.000000	59.526090
1888.000000	59.564088
1887.000000	59.603797
1886.000000	59.644524
1885.000000	59.685820
1884.000000	59.728352
1883.000000	59.771583
1882.000000	59.816676
1881.000000	59.867713
1880.000000	59.925703
1879.000000	59.985793
1878.000000	60.043589
1877.000000	60.100262
1876.000000	60.157596
1875.000000	60.212823
1874.000000	60.264545
1873.000000	60.319128
1872.000000	60.383020
1871.000000	60.451894
1870.000000	60.514008
1869.000000	60.562850
1868.000000	60.602313
1867.000000	60.640281
1866.000000	60.682745
1865.000000	60.733336
1864.000000	60.792444
1863.000000	60.855557
1862.000000	60.917355
1861.000000	60.977902
1860.000000	61.039715
1859.000000	61.101191
1858.000000	61.159055
1857.000000	61.214426
1856.000000	61.270343
1855.000000	61.325787
1854.000000	61.377801
1853.000000	61.427484
1852.000000	61.478613
1851.000000	61.532428
1850.000000	61.588225
1849.000000	61.647599
1848.000000	61.713216
1847.000000	61.782563
1846.000000	61.846677
1845.000000	61.895971
1844.000000	61.928942
1843.000000	61.957578
1842.000000	61.997228
1841.000000	62.050943
1840.000000	62.111069
1839.000000	62.169864
1838.000000	62.223783
1837.000000	62.272995
1836.000000	62.318748
1835.000000	62.362736
1834.000000	62.409474
1833.000000	62.464073
1832.000000	62.526050
1831.000000	62.586459
1830.000000	62.634831
1829.000000	62.675005
1828.000000	62.724331
1827.000000	62.789950
1826.000000	62.860544
1825.000000	62.922931
1824.000000	62.976316
1823.000000	63.028074
1822.000000	63.081276
1821.000000	63.134956
1820.000000	63.190519
1819.000000	63.248341
1818.000000	63.303713
1817.000000	63.353378
1816.000000	63.399694
1815.000000	63.444324
1814.000000	63.483801
1813.000000	63.513407
1812.000000	63.531543
1811.000000	63.536501
1810.000000	63.528217
1809.000000	63.516122
1808.000000	63.511889
1807.000000	63.516522
1806.000000	63.524406
1805.000000	63.535731
1804.000000	63.554649
1803.000000	63.577510
1802.000000	63.593676
1801.000000	63.600026
1800.000000	63.605992
1799.000000	63.620791
1798.000000	63.647015
1797.000000	63.686410
1796.000000	63.738663
1795.000000	63.795208
1794.000000	63.841579
1793.000000	63.868048
1792.000000	63.877029
1791.000000	63.878367
1790.000000	63.882643
1789.000000	63.898635
1788.000000	63.929547
1787.000000	63.969290
1786.000000	64.005723
1785.000000	64.032931
1784.000000	64.055745
1783.000000	64.078508
1782.000000	64.096777
1781.000000	64.104817
1780.000000	64.107140
1779.000000	64.116631
1778.000000	64.143835
1777.000000	64.192357
1776.000000	64.260416
1775.000000	64.342317
1774.000000	64.427909
1773.000000	64.503734
1772.000000	64.563858
1771.000000	64.617793
1770.000000	64.675684
1769.000000	64.736609
1768.000000	64.799638
1767.000000	64.869186
1766.000000	64.946995
1765.000000	65.028032
1764.000000	65.103331
1763.000000	65.162637
1762.000000	65.195290
1761.000000	65.204071
1760.000000	65.211709
1759.000000	65.235868
1758.000000	65.274297
1757.000000	65.316325
1756.000000	65.360501
1755.000000	65.415702
1754.000000	65.480650
1753.000000	65.541174
1752.000000	65.590229
1751.000000	65.636219
1750.000000	65.688424
1749.000000	65.744585
1748.000000	65.801084
1747.000000	65.864170
1746.000000	65.939931
1745.000000	66.022180
1744.000000	66.099934
1743.000000	66.167365
1742.000000	66.220877
1741.000000	66.255715
1740.000000	66.273019
1739.000000	66.287074
1738.000000	66.314489
1737.000000	66.356021
1736.000000	66.398605
1735.000000	66.429624
1734.000000	66.441122
1733.000000	66.443955
1732.000000	66.458293
1731.000000	66.477817
1730.000000	66.483764
1729.000000	66.473891
1728.000000	66.461922
1727.000000	66.462739
1726.000000	66.479357
1725.000000	66.505151
1724.000000	66.533112
1723.000000	66.560088
1722.000000	66.586768
1721.000000	66.615524
1720.000000	66.646562
1719.000000	66.675372
1718.000000	66.692447
1717.000000	66.703335
1716.000000	66.729235
1715.000000	66.770907
1714.000000	66.814032
1713.000000	66.856979
1712.000000	66.905972
1711.000000	66.959576
1710.000000	67.011173
1709.000000	67.062938
1708.000000	67.125600
1707.000000	67.202272
1706.000000	67.282868
1705.000000	67.359011
1704.000000	67.433627
1703.000000	67.508250
1702.000000	67.579368
1701.000000	67.651231
1700.000000	67.725320
1699.000000	67.798544
1698.000000	67.869972
1697.000000	67.938450
1696.000000	68.009649
1695.000000	68.089968
1694.000000	68.178692
1693.000000	68.266395
1692.000000	68.344048
1691.000000	68.414905
1690.000000	68.482744
1689.000000	68.538733
1688.000000	68.575517
1687.000000	68.602085
1686.000000	68.637052
1685.000000	68.691222
1684.000000	68.743335
1683.000000	68.778655
1682.000000	68.809894
1681.000000	68.829624
1680.000000	68.826536
1679.000000	68.813457
1678.000000	68.803969
1677.000000	68.791594
1676.000000	68.764844
1675.000000	68.734207
1674.000000	68.718474
1673.000000	68.712517
1672.000000	68.700513
1671.000000	68.685141
1670.000000	68.674438
1669.000000	68.654367
1668.000000	68.613944
1667.000000	68.571841
1666.000000	68.542050
1665.000000	68.512251
1664.000000	68.465961
1663.000000	68.403896
1662.000000	68.333523
1661.000000	68.245574
1660.000000	68.124834
1659.000000	67.982137
1658.000000	67.837648
1657.000000	67.687743
1656.000000	67.500474
1655.000000	67.239548
1654.000000	66.843544
1653.000000	66.242853
1652.000000	65.560026
1651.000000	64.961815
1650.000000	64.371086
1649.000000	63.569549
1648.000000	62.303105
1647.000000	60.404081
1646.000000	57.968650
1645.000000	55.238422
1644.000000	52.299364
1643.000000	49.054079
1642.000000	45.425439
1641.000000	41.520899
1640.000000	37.673694
1639.000000	34.228475
1638.000000	31.321497
1637.000000	28.954043
1636.000000	27.270669
1635.000000	26.550322
1634.000000	26.794770
1633.000000	27.732046
1632.000000	29.126963
1631.000000	30.848124
1630.000000	32.820827
1629.000000	34.986950
1628.000000	37.257382
1627.000000	39.477340
1626.000000	41.543782
1625.000000	43.519594
1624.000000	45.522094
1623.000000	47.509897
1622.000000	49.296828
1621.000000	50.800510
1620.000000	52.103041
1619.000000	53.315482
1618.000000	54.511400
1617.000000	55.715782
1616.000000	56.856145
1615.000000	57.804991
1614.000000	58.533522
1613.000000	59.126297
1612.000000	59.666034
1611.000000	60.149865
1610.000000	60.516696
1609.000000	60.742218
1608.000000	60.831190
1607.000000	60.744417
1606.000000	60.410954
1605.000000	59.785726
1604.000000	58.852596
1603.000000	57.587001
1602.000000	55.992132
1601.000000	54.170732
1600.000000	52.304556
1599.000000	50.569159
1598.000000	49.075058
1597.000000	47.871826
1596.000000	46.960467
1595.000000	46.279950
1594.000000	45.715185
1593.000000	45.164995
1592.000000	44.591446
1591.000000	43.985613
1590.000000	43.329442
1589.000000	42.611410
1588.000000	41.841056
1587.000000	41.011830
1586.000000	40.083406
1585.000000	39.031970
1584.000000	37.887608
1583.000000	36.692288
1582.000000	35.457172
1581.000000	34.197353
1580.000000	32.955879
1579.000000	31.718027
1578.000000	30.320155
1577.000000	28.530524
1576.000000	26.393734
1575.000000	24.354325
1574.000000	22.732271
1573.000000	21.434915
1572.000000	20.268380
1571.000000	19.158402
1570.000000	18.152211
1569.000000	17.349677
1568.000000	16.829875
1567.000000	16.611830
1566.000000	16.634064
1565.000000	16.796098
1564.000000	17.053274
1563.000000	17.427168
1562.000000	17.942221
1561.000000	18.606243
1560.000000	19.511223
1559.000000	20.741307
1558.000000	22.039256
1557.000000	23.095607
1556.000000	23.940861
1555.000000	24.715863
1554.000000	25.453052
1553.000000	26.094330
1552.000000	26.623048
1551.000000	27.119119
1550.000000	27.667197
1549.000000	28.289543
1548.000000	28.987366
1547.000000	29.801547
1546.000000	30.771838
1545.000000	31.861639
1544.000000	32.980663
1543.000000	34.086577
1542.000000	35.205975
1541.000000	36.360406
1540.000000	37.509922
1539.000000	38.576393
1538.000000	39.515863
1537.000000	40.344851
1536.000000	41.129443
1535.000000	41.961648
1534.000000	42.881864
1533.000000	43.810344
1532.000000	44.652608
1531.000000	45.421844
1530.000000	46.168118
1529.000000	46.899534
1528.000000	47.608750
1527.000000	48.304086
1526.000000	48.977201
1525.000000	49.591083
1524.000000	50.139895
1523.000000	50.669203
1522.000000	51.201785
1521.000000	51.689080
1520.000000	52.105976
1519.000000	52.503716
1518.000000	52.915638
1517.000000	53.316943
1516.000000	53.686739
1515.000000	54.047266
1514.000000	54.416039
1513.000000	54.776942
1512.000000	55.124600
1511.000000	55.475736
1510.000000	55.831518
1509.000000	56.170136
1508.000000	56.496000
1507.000000	56.835594
1506.000000	57.173388
1505.000000	57.484267
1504.000000	57.788075
1503.000000	58.112098
1502.000000	58.447511
1501.000000	58.759204
1500.000000	59.035936
1499.000000	59.304097
1498.000000	59.571697
1497.000000	59.811566
1496.000000	60.028328
1495.000000	60.264231
1494.000000	60.519679
1493.000000	60.758605
1492.000000	60.981915
1491.000000	61.223405
1490.000000	61.467469
1489.000000	61.654839
1488.000000	61.785862
1487.000000	61.905310
1486.000000	62.005110
1485.000000	62.035507
1484.000000	61.978804
1483.000000	61.836673
1482.000000	61.562438
1481.000000	61.089854
1480.000000	60.410378
1479.000000	59.509664
1478.000000	58.259931
1477.000000	56.521415
1476.000000	54.333703
1475.000000	51.846644
1474.000000	49.098332
1473.000000	46.137092
1472.000000	43.339930
1471.000000	41.172065
1470.000000	39.714844
1469.000000	38.792056
1468.000000	38.303358
1467.000000	38.280748
1466.000000	38.801315
1465.000000	39.851897
1464.000000	41.219136
1463.000000	42.569993
1462.000000	43.652631
1461.000000	44.358596
1460.000000	44.641618
1459.000000	44.440474
1458.000000	43.662322
1457.000000	42.407607
1456.000000	41.162512
1455.000000	40.330012
1454.000000	39.868134
1453.000000	39.588035
1452.000000	39.394551
1451.000000	39.277661
1450.000000	39.256990
1449.000000	39.358841
1448.000000	39.601538
1447.000000	39.957645
1446.000000	40.374821
1445.000000	40.838829
1444.000000	41.383362
1443.000000	42.053974
1442.000000	42.885708
1441.000000	43.896466
1440.000000	45.087734
1439.000000	46.469447
1438.000000	48.076264
1437.000000	49.864632
1436.000000	51.583816
1435.000000	52.975922
1434.000000	54.044950
1433.000000	54.935928
1432.000000	55.733542
1431.000000	56.446484
1430.000000	57.070027
1429.000000	57.611005
1428.000000	58.069073
1427.000000	58.452124
1426.000000	58.796429
1425.000000	59.133666
1424.000000	59.457395
1423.000000	59.751825
1422.000000	60.032654
1421.000000	60.328163
1420.000000	60.638602
1419.000000	60.934320
1418.000000	61.196569
1417.000000	61.435592
1416.000000	61.660321
1415.000000	61.876256
1414.000000	62.103392
1413.000000	62.356076
1412.000000	62.622396
1411.000000	62.884643
1410.000000	63.142935
1409.000000	63.400537
1408.000000	63.644169
1407.000000	63.861065
1406.000000	64.060888
1405.000000	64.252206
1404.000000	64.414885
1403.000000	64.523491
1402.000000	64.561185
1401.000000	64.481070
1400.000000	64.198093
1399.000000	63.694814
1398.000000	63.117425
1397.000000	62.686850
1396.000000	62.544115
1395.000000	62.690471
1394.000000	63.002327
1393.000000	63.328863
1392.000000	63.614048
1391.000000	63.909292
1390.000000	64.296366
1389.000000	64.813187
1388.000000	65.422275
1387.000000	66.032024
1386.000000	66.564910
1385.000000	67.001174
1384.000000	67.358048
1383.000000	67.662440
1382.000000	67.942131
1381.000000	68.210672
1380.000000	68.453431
1379.000000	68.634378
1378.000000	68.710219
1377.000000	68.609220
1376.000000	68.162894
1375.000000	67.061451
1374.000000	64.918146
1373.000000	61.474441
1372.000000	56.814981
1371.000000	51.460800
1370.000000	46.352947
1369.000000	42.637223
1368.000000	41.123566
1367.000000	41.753376
1366.000000	43.683262
1365.000000	45.849394
1364.000000	47.376229
1363.000000	47.743415
1362.000000	46.952655
1361.000000	45.605497
1360.000000	44.633417
1359.000000	44.828134
1358.000000	46.476472
1357.000000	49.249294
1356.000000	52.446254
1355.000000	55.422316
1354.000000	57.861559
1353.000000	59.759356
1352.000000	61.240614
1351.000000	62.428658
1350.000000	63.415431
1349.000000	64.255369
1348.000000	64.967294
1347.000000	65.564455
1346.000000	66.073765
1345.000000	66.518780
1344.000000	66.907960
1343.000000	67.251651
1342.000000	67.578400
1341.000000	67.914962
1340.000000	68.259484
1339.000000	68.593878
1338.000000	68.909423
1337.000000	69.202617
1336.000000	69.456271
1335.000000	69.642589
1334.000000	69.732590
1333.000000	69.671275
1332.000000	69.354336
1331.000000	68.652384
1330.000000	67.469187
1329.000000	65.783576
1328.000000	63.618975
1327.000000	60.987755
1326.000000	57.902466
1325.000000	54.505874
1324.000000	51.235481
1323.000000	48.758346
1322.000000	47.582075
1321.000000	47.691318
1320.000000	48.596564
1319.000000	49.723569
1318.000000	50.760283
1317.000000	51.675747
1316.000000	52.529731
1315.000000	53.359478
1314.000000	54.199335
1313.000000	55.124769
1312.000000	56.227703
1311.000000	57.545629
1310.000000	59.014082
1309.000000	60.478785
1308.000000	61.757215
1307.000000	62.711778
1306.000000	63.285807
1305.000000	63.467687
1304.000000	63.246504
1303.000000	62.605210
1302.000000	61.539674
1301.000000	60.098170
1300.000000	58.431696
1299.000000	56.819381
1298.000000	55.583561
1297.000000	54.915430
1296.000000	54.761405
1295.000000	54.860776
1294.000000	54.881336
1293.000000	54.540643
1292.000000	53.669702
1291.000000	52.225182
1290.000000	50.246965
1289.000000	47.819710
1288.000000	45.117813
1287.000000	42.488285
1286.000000	40.402996
1285.000000	39.245823
1284.000000	39.121361
1283.000000	39.861211
1282.000000	41.211558
1281.000000	42.989683
1280.000000	45.068124
1279.000000	47.243831
1278.000000	49.187195
1277.000000	50.566667
1276.000000	51.218161
1275.000000	51.205064
1274.000000	50.761480
1273.000000	50.209802
1272.000000	49.900231
1271.000000	50.137624
1270.000000	51.071502
1269.000000	52.624198
1268.000000	54.539490
1267.000000	56.524397
1266.000000	58.369286
1265.000000	59.979219
1264.000000	61.340379
1263.000000	62.478739
1262.000000	63.434700
1261.000000	64.245355
1260.000000	64.934476
1259.000000	65.520290
1258.000000	66.031334
1257.000000	66.494509
1256.000000	66.920667
1255.000000	67.312888
1254.000000	67.677586
1253.000000	68.020761
1252.000000	68.337739
1251.000000	68.622818
1250.000000	68.882935
1249.000000	69.129284
1248.000000	69.364777
1247.000000	69.590410
1246.000000	69.815625
1245.000000	70.048515
1244.000000	70.281241
1243.000000	70.498498
1242.000000	70.692912
1241.000000	70.860892
1240.000000	70.992941
1239.000000	71.081527
1238.000000	71.134020
1237.000000	71.163277
1236.000000	71.172049
1235.000000	71.158847
1234.000000	71.127739
1233.000000	71.080836
1232.000000	71.007100
1231.000000	70.891037
1230.000000	70.727493
1229.000000	70.512344
1228.000000	70.230609
1227.000000	69.862591
1226.000000	69.389645
1225.000000	68.786130
1224.000000	68.001839
1223.000000	66.974280
1222.000000	65.648172
1221.000000	63.974959
1220.000000	61.929097
1219.000000	59.531393
1218.000000	56.862576
1217.000000	54.046297
1216.000000	51.227228
1215.000000	48.566833
1214.000000	46.236319
1213.000000	44.393432
1212.000000	43.156534
1211.000000	42.582407
1210.000000	42.619324
1209.000000	43.103148
1208.000000	43.805066
1207.000000	44.490460
1206.000000	44.969440
1205.000000	45.114663
1204.000000	44.865620
1203.000000	44.228454
1202.000000	43.274649
1201.000000	42.142455
1200.000000	41.037837
1199.000000	40.205926
1198.000000	39.856114
1197.000000	40.083147
1196.000000	40.857786
1195.000000	42.065985
1194.000000	43.566069
1193.000000	45.236752
1192.000000	46.989341
1191.000000	48.769134
1190.000000	50.537960
1189.000000	52.260888
1188.000000	53.904887
1187.000000	55.442470
1186.000000	56.855328
1185.000000	58.135523
1184.000000	59.283665
1183.000000	60.303460
1182.000000	61.203010
1181.000000	61.987277
1180.000000	62.658582
1179.000000	63.226987
1178.000000	63.707301
1177.000000	64.109879
1176.000000	64.428915
1175.000000	64.650173
1174.000000	64.762014
1173.000000	64.740342
1172.000000	64.542879
1171.000000	64.111493
1170.000000	63.381215
1169.000000	62.289316
1168.000000	60.786276
1167.000000	58.886553
1166.000000	56.711555
1165.000000	54.489907
1164.000000	52.515047
1163.000000	51.075238
1162.000000	50.359270
1161.000000	50.398180
1160.000000	51.081032
1159.000000	52.207057
1158.000000	53.561303
1157.000000	54.956522
1156.000000	56.254364
1155.000000	57.374119
1154.000000	58.281766
1153.000000	58.970510
1152.000000	59.443166
1151.000000	59.706521
1150.000000	59.761951
1149.000000	59.602008
1148.000000	59.194077
1147.000000	58.488030
1146.000000	57.427645
1145.000000	55.936144
1144.000000	53.933474
1143.000000	51.359114
1142.000000	48.217169
1141.000000	44.620905
1140.000000	40.804889
1139.000000	37.090089
1138.000000	33.765102
1137.000000	30.961035
1136.000000	28.620720
1135.000000	26.590504
1134.000000	24.746863
1133.000000	23.123477
1132.000000	21.958203
1131.000000	21.591619
1130.000000	22.307793
1129.000000	24.168130
1128.000000	26.971803
1127.000000	30.309981
1126.000000	33.655730
1125.000000	36.478098
1124.000000	38.339151
1123.000000	38.961350
1122.000000	38.267134
1121.000000	36.391603
1120.000000	33.607319
1119.000000	30.260317
1118.000000	26.753191
1117.000000	23.573001
1116.000000	21.282062
1115.000000	20.376248
1114.000000	21.057593
1113.000000	23.111882
1112.000000	25.980028
1111.000000	28.917060
1110.000000	31.244532
1109.000000	32.625484
1108.000000	33.215323
1107.000000	33.540024
1106.000000	34.138545
1105.000000	35.242120
1104.000000	36.701934
1103.000000	38.119780
1102.000000	39.004347
1101.000000	38.942322
1100.000000	37.785732
1099.000000	35.813675
1098.000000	33.718061
1097.000000	32.346826
1096.000000	32.325420
1095.000000	33.788579
1094.000000	36.370105
1093.000000	39.445581
1092.000000	42.464196
1091.000000	45.119893
1090.000000	47.340233
1089.000000	49.181396
1088.000000	50.734402
1087.000000	52.085688
1086.000000	53.303994
1085.000000	54.426634
1084.000000	55.455675
1083.000000	56.385101
1082.000000	57.213577
1081.000000	57.945528
1080.000000	58.587206
1079.000000	59.145003
1078.000000	59.626816
1077.000000	60.017044
1076.000000	60.266185
1075.000000	60.304703
1074.000000	60.043994
1073.000000	59.381712
1072.000000	58.176422
1071.000000	56.253698
1070.000000	53.427519
1069.000000	49.504868
1068.000000	44.394336
1067.000000	38.255413
1066.000000	31.613810
1065.000000	25.306822
1064.000000	20.227899
1063.000000	16.946062
1062.000000	15.402567
1061.000000	14.923662
1060.000000	14.594630
1059.000000	13.793472
1058.000000	12.480778
1057.000000	11.155060
1056.000000	10.518618
1055.000000	11.049355
1054.000000	12.797737
1053.000000	15.447100
1052.000000	18.551060
1051.000000	21.734736
1050.000000	24.754696
1049.000000	27.509949
1048.000000	30.007877
1047.000000	32.305101
1046.000000	34.443060
1045.000000	36.427756
1044.000000	38.243294
1043.000000	39.875840
1042.000000	41.321951
1041.000000	42.583834
1040.000000	43.678484
1039.000000	44.632367
1038.000000	45.472583
1037.000000	46.219068
1036.000000	46.881014
1035.000000	47.466738
1034.000000	47.980569
1033.000000	48.420850
1032.000000	48.787178
1031.000000	49.087308
1030.000000	49.340066
1029.000000	49.565111
1028.000000	49.775542
1027.000000	49.977550
1026.000000	50.165062
1025.000000	50.318054
1024.000000	50.405903
1023.000000	50.397838
1022.000000	50.272623
1021.000000	50.011303
1020.000000	49.596727
1019.000000	49.009630
1018.000000	48.218462
1017.000000	47.178244
1016.000000	45.833731
1015.000000	44.157322
1014.000000	42.190353
1013.000000	40.071994
1012.000000	38.036002
1011.000000	36.340867
1010.000000	35.140188
1009.000000	34.375681
1008.000000	33.807754
1007.000000	33.190881
1006.000000	32.502846
1005.000000	32.025902
1004.000000	32.191834
1003.000000	33.285354
1002.000000	35.220514
1001.000000	37.594020
1000.000000	39.912503
999.000000	41.797081
998.000000	43.054077
997.000000	43.646981
996.000000	43.661059
995.000000	43.289949
994.000000	42.818832
993.000000	42.567607
992.000000	42.801296
991.000000	43.630618
990.000000	44.963323
989.000000	46.561757
988.000000	48.179246
987.000000	49.657696
986.000000	50.944274
985.000000	52.051471
984.000000	53.014724
983.000000	53.870962
982.000000	54.648767
981.000000	55.361189
980.000000	56.009037
979.000000	56.595515
978.000000	57.125624
977.000000	57.602233
976.000000	58.027161
975.000000	58.408624
974.000000	58.763746
973.000000	59.107293
972.000000	59.447222
971.000000	59.788805
970.000000	60.134437
969.000000	60.477839
968.000000	60.803684
967.000000	61.099316
966.000000	61.362871
965.000000	61.598863
964.000000	61.814575
963.000000	62.022936
962.000000	62.241337
961.000000	62.480627
960.000000	62.738090
959.000000	63.004010
958.000000	63.267915
957.000000	63.517043
956.000000	63.738017
955.000000	63.927738
954.000000	64.098807
953.000000	64.269744
952.000000	64.454328
951.000000	64.661999
950.000000	64.898191
949.000000	65.156629
948.000000	65.416668
947.000000	65.656006
946.000000	65.864136
945.000000	66.040655
944.000000	66.190085
943.000000	66.325473
942.000000	66.469257
941.000000	66.640194
940.000000	66.840960
939.000000	67.062065
938.000000	67.290342
937.000000	67.508351
936.000000	67.695108
935.000000	67.838956
934.000000	67.948457
933.000000	68.044903
932.000000	68.148217
931.000000	68.274606
930.000000	68.436829
929.000000	68.634697
928.000000	68.848511
927.000000	69.050856
926.000000	69.223483
925.000000	69.359033
924.000000	69.456803
923.000000	69.527766
922.000000	69.597524
921.000000	69.692284
920.000000	69.822734
919.000000	69.985252
918.000000	70.170486
917.000000	70.361212
916.000000	70.530751
915.000000	70.657721
914.000000	70.742050
913.000000	70.799366
912.000000	70.843385
911.000000	70.883543
910.000000	70.924493
909.000000	70.947130
908.000000	70.892562
907.000000	70.668366
906.000000	70.179721
905.000000	69.346530
904.000000	68.125639
903.000000	66.574604
902.000000	64.918970
901.000000	63.532710
900.000000	62.796999
899.000000	62.910077
898.000000	63.778997
897.000000	65.093024
896.000000	66.497225
895.000000	67.744357
894.000000	68.743307
893.000000	69.504411
892.000000	70.078740
891.000000	70.526667
890.000000	70.906315
889.000000	71.253170
888.000000	71.572173
887.000000	71.836475
886.000000	71.986845
885.000000	71.931386
884.000000	71.577772
883.000000	70.919051
882.000000	70.078840
881.000000	69.242940
880.000000	68.519543
879.000000	67.873756
878.000000	67.217652
877.000000	66.565689
876.000000	66.100569
875.000000	66.060580
874.000000	66.553537
873.000000	67.461265
872.000000	68.523184
871.000000	69.505675
870.000000	70.305037
869.000000	70.933105
868.000000	71.443837
867.000000	71.887027
866.000000	72.292303
865.000000	72.664532
864.000000	72.984656
863.000000	73.231462
862.000000	73.402398
861.000000	73.512540
860.000000	73.585077
859.000000	73.648898
858.000000	73.737285
857.000000	73.872356
856.000000	74.050683
855.000000	74.250228
854.000000	74.444374
853.000000	74.605906
852.000000	74.709949
851.000000	74.749289
850.000000	74.745646
849.000000	74.737396
848.000000	74.759007
847.000000	74.833840
846.000000	74.972648
845.000000	75.164138
844.000000	75.370722
843.000000	75.546271
842.000000	75.660851
841.000000	75.707493
840.000000	75.697753
839.000000	75.663117
838.000000	75.651149
837.000000	75.702472
836.000000	75.828297
835.000000	76.011996
834.000000	76.222863
833.000000	76.421703
832.000000	76.566259
831.000000	76.631815
830.000000	76.630284
829.000000	76.602899
828.000000	76.596887
827.000000	76.652443
826.000000	76.796459
825.000000	77.027027
824.000000	77.303144
823.000000	77.562827
822.000000	77.755491
821.000000	77.856567
820.000000	77.867267
819.000000	77.817941
818.000000	77.763975
817.000000	77.759614
816.000000	77.829129
815.000000	77.961813
814.000000	78.122052
813.000000	78.253815
812.000000	78.290396
811.000000	78.180502
810.000000	77.912824
809.000000	77.511353
808.000000	77.008063
807.000000	76.428295
806.000000	75.778344
805.000000	75.025974
804.000000	74.094183
803.000000	72.876890
802.000000	71.277189
801.000000	69.226126
800.000000	66.696989
799.000000	63.727770
798.000000	60.418406
797.000000	56.908826
796.000000	53.347976
795.000000	49.882057
794.000000	46.645430
793.000000	43.754052
792.000000	41.306280
791.000000	39.387591
790.000000	38.069532
789.000000	37.388719
788.000000	37.342477
787.000000	37.877502
786.000000	38.893008
785.000000	40.255398
784.000000	41.806668
783.000000	43.379764
782.000000	44.809378
781.000000	45.954886
780.000000	46.722660
779.000000	47.086496
778.000000	47.090263
777.000000	46.825127
776.000000	46.388902
775.000000	45.852264
774.000000	45.261726
773.000000	44.669562
772.000000	44.170518
771.000000	43.902801
770.000000	44.010245
769.000000	44.583563
768.000000	45.627565
767.000000	47.068731
766.000000	48.791639
765.000000	50.679407
764.000000	52.628898
763.000000	54.555283
762.000000	56.390741
761.000000	58.083157
760.000000	59.595274
759.000000	60.913091
758.000000	62.056806
757.000000	63.074735
756.000000	64.023470
755.000000	64.949400
754.000000	65.881164
753.000000	66.821455
752.000000	67.742187
751.000000	68.595692
750.000000	69.336222
749.000000	69.937553
748.000000	70.399943
747.000000	70.753483
746.000000	71.053777
745.000000	71.361575
744.000000	71.718581
743.000000	72.135427
742.000000	72.591633
741.000000	73.039962
740.000000	73.417888
739.000000	73.672502
738.000000	73.783317
737.000000	73.764895
736.000000	73.656089
735.000000	73.509178
734.000000	73.377295
733.000000	73.295490
732.000000	73.267331
731.000000	73.268355
730.000000	73.258388
729.000000	73.191872
728.000000	73.028865
727.000000	72.749325
726.000000	72.359957
725.000000	71.886729
724.000000	71.356246
723.000000	70.768251
722.000000	70.060246
721.000000	69.096897
720.000000	67.722341
719.000000	65.861357
718.000000	63.588093
717.000000	61.117930
716.000000	58.751796
715.000000	56.803333
714.000000	55.525125
713.000000	55.046585
712.000000	55.346723
711.000000	56.277055
710.000000	57.625680
709.000000	59.179918
708.000000	60.761180
707.000000	62.247441
706.000000	63.591813
705.000000	64.816942
704.000000	65.978368
703.000000	67.131895
702.000000	68.314917
701.000000	69.527419
700.000000	70.718703
699.000000	71.802193
698.000000	72.697439
697.000000	73.365540
696.000000	73.821736
695.000000	74.134789
694.000000	74.407693
693.000000	74.740001
692.000000	75.191315
691.000000	75.761728
690.000000	76.394770
689.000000	76.991694
688.000000	77.444595
687.000000	77.690786
686.000000	77.740748
685.000000	77.664933
684.000000	77.568261
683.000000	77.560973
682.000000	77.718290
681.000000	78.045280
680.000000	78.471407
679.000000	78.889957
678.000000	79.189728
677.000000	79.288627
676.000000	79.185073
675.000000	78.945165
674.000000	78.695332
673.000000	78.626797
672.000000	78.951653
671.000000	79.790376
670.000000	81.049658
669.000000	82.257693
668.000000	82.621170
667.000000	81.876450
666.000000	80.714581
665.000000	79.786571
664.000000	79.235273
663.000000	78.989771
662.000000	78.987481
661.000000	79.191973
660.000000	79.534877
659.000000	79.904684
658.000000	80.180253
657.000000	80.278219
656.000000	80.182195
655.000000	79.926123
654.000000	79.606510
653.000000	79.359035
652.000000	79.281018
651.000000	79.389827
650.000000	79.634067
649.000000	79.915800
648.000000	80.107911
647.000000	80.104210
646.000000	79.887453
645.000000	79.531029
644.000000	79.135576
643.000000	78.791113
642.000000	78.574373
641.000000	78.526006
640.000000	78.614618
639.000000	78.746366
638.000000	78.820230
637.000000	78.767481
636.000000	78.552934
635.000000	78.183835
634.000000	77.729007
633.000000	77.294270
632.000000	76.962599
631.000000	76.762919
630.000000	76.676987
629.000000	76.649061
628.000000	76.594024
627.000000	76.426779
626.000000	76.104989
625.000000	75.642530
624.000000	75.086415
623.000000	74.499516
622.000000	73.955238
621.000000	73.514288
620.000000	73.187276
619.000000	72.917923
618.000000	72.601469
617.000000	72.131682
616.000000	71.455895
615.000000	70.594684
614.000000	69.607842
613.000000	68.546144
612.000000	67.441001
611.000000	66.324231
610.000000	65.216558
609.000000	64.093300
608.000000	62.891113
607.000000	61.546589
606.000000	60.012842
605.000000	58.256097
604.000000	56.280289
603.000000	54.153542
602.000000	51.964029
601.000000	49.760933
600.000000	47.571848
599.000000	45.441437
598.000000	43.393469
597.000000	41.388275
596.000000	39.384790
595.000000	37.411704
594.000000	35.525700
593.000000	33.740741
592.000000	32.075406
591.000000	30.603707
590.000000	29.376202
589.000000	28.344818
588.000000	27.426194
587.000000	26.579382
586.000000	25.753532
585.000000	24.842185
584.000000	23.781431
583.000000	22.635708
582.000000	21.521004
581.000000	20.514300
580.000000	19.697495
579.000000	19.207050
578.000000	19.132627
577.000000	19.439060
576.000000	20.040769
575.000000	20.859567
574.000000	21.767469
573.000000	22.576940
572.000000	23.187540
571.000000	23.689050
570.000000	24.272746
569.000000	25.083602
568.000000	26.176693
567.000000	27.522405
566.000000	28.982097
565.000000	30.355583
564.000000	31.519836
563.000000	32.485179
562.000000	33.311468
561.000000	34.035538
560.000000	34.702744
559.000000	35.389452
558.000000	36.139561
557.000000	36.924155
556.000000	37.698355
555.000000	38.455411
554.000000	39.190555
553.000000	39.872806
552.000000	40.494858
551.000000	41.107229
550.000000	41.764807
549.000000	42.474495
548.000000	43.223528
547.000000	44.010960
546.000000	44.814988
545.000000	45.572101
544.000000	46.229763
543.000000	46.792577
542.000000	47.296161
541.000000	47.766811
540.000000	48.233492
539.000000	48.743555
538.000000	49.327436
537.000000	49.963060
536.000000	50.594519
535.000000	51.171939
534.000000	51.656140
533.000000	52.017446
532.000000	52.257778
531.000000	52.422103
530.000000	52.567666
529.000000	52.720138
528.000000	52.862314
527.000000	52.950396
526.000000	52.909572
525.000000	52.645421
524.000000	52.102632
523.000000	51.316082
522.000000	50.405896
521.000000	49.517561
520.000000	48.755356
519.000000	48.115377
518.000000	47.418702
517.000000	46.355487
516.000000	44.669366
515.000000	42.351099
514.000000	39.657604
513.000000	36.985237
512.000000	34.742041
511.000000	33.262898
510.000000	32.706690
509.000000	33.026325
508.000000	34.092459
507.000000	35.754382
506.000000	37.797942
505.000000	39.972522
504.000000	42.103145
503.000000	44.123886
502.000000	45.983023
501.000000	47.621159
500.000000	49.045744
499.000000	50.346383
498.000000	51.603007
497.000000	52.827496
496.000000	53.990193
495.000000	55.060658
494.000000	56.017871
493.000000	56.845750
492.000000	57.554177
491.000000	58.191562
490.000000	58.816007
489.000000	59.466351
488.000000	60.154217
487.000000	60.869365
486.000000	61.577736
485.000000	62.223635
484.000000	62.757615
483.000000	63.168269
482.000000	63.490665
481.000000	63.783045
480.000000	64.092065
479.000000	64.434412
478.000000	64.785295
477.000000	65.084534
476.000000	65.258339
475.000000	65.222257
474.000000	64.873602
473.000000	64.101419
472.000000	62.869086
471.000000	61.315868
470.000000	59.722157
469.000000	58.384254
468.000000	57.528949
467.000000	57.209268
466.000000	57.177794
465.000000	56.960560
464.000000	56.153477
463.000000	54.697228
462.000000	52.974887
461.000000	51.617247
460.000000	51.205638
459.000000	52.078511
458.000000	54.141605
457.000000	56.778218
456.000000	59.259023
455.000000	61.275459
454.000000	62.878202
453.000000	64.157644
452.000000	65.125956
451.000000	65.791567
450.000000	66.172018
449.000000	66.228799
448.000000	65.858853
447.000000	64.984850
446.000000	63.668189
445.000000	62.120134
444.000000	60.672021
443.000000	59.713300
442.000000	59.505900
441.000000	60.002032
440.000000	60.940819
439.000000	62.061601
438.000000	63.181986
437.000000	64.185967
436.000000	65.004405
435.000000	65.620281
434.000000	66.054556
433.000000	66.334547
432.000000	66.475040
431.000000	66.498558
430.000000	66.442155
429.000000	66.326839
428.000000	66.152253
427.000000	65.929972
426.000000	65.696605
425.000000	65.475934
424.000000	65.264549
423.000000	65.068194
422.000000	64.899189
421.000000	64.735460
420.000000	64.530887
419.000000	64.295544
418.000000	64.119348
417.000000	64.044075
416.000000	64.029106
415.000000	64.050418
414.000000	64.115620
413.000000	64.216128
412.000000	64.327463
411.000000	64.443712
410.000000	64.571617
409.000000	64.694977
408.000000	64.798326
407.000000	64.915037
406.000000	65.092649
405.000000	65.328124
404.000000	65.592966
403.000000	65.890682
402.000000	66.229080
401.000000	66.565083
400.000000	66.835603
