PE IR       SUBTECH     SPECTRUM    ASCII       PEDS        4.00        
   -1
23ms202-cis.asc
24/10/18
15:17:21.00
24/10/18
15:17:21.00
Administrator
Sample 1301 By Administrator Date Friday, October 18 2024
400.000000
#HDR
-1
-1
#GR
cm-1
%T
1.0
0.0
4000.000000
-1.000000
3601
8
87.925235
9.405267
#DATA
4000.000000	57.631205
3999.000000	57.620839
3998.000000	57.613323
3997.000000	57.607838
3996.000000	57.603186
3995.000000	57.598885
3994.000000	57.595691
3993.000000	57.594772
3992.000000	57.596423
3991.000000	57.600068
3990.000000	57.605413
3989.000000	57.613106
3988.000000	57.624084
3987.000000	57.638601
3986.000000	57.656398
3985.000000	57.677385
3984.000000	57.701721
3983.000000	57.729423
3982.000000	57.760131
3981.000000	57.793325
3980.000000	57.828549
3979.000000	57.865413
3978.000000	57.903455
3977.000000	57.941981
3976.000000	57.980304
3975.000000	58.017794
3974.000000	58.053964
3973.000000	58.088770
3972.000000	58.122375
3971.000000	58.154942
3970.000000	58.186475
3969.000000	58.217461
3968.000000	58.248967
3967.000000	58.282020
3966.000000	58.317275
3965.000000	58.355145
3964.000000	58.395942
3963.000000	58.439548
3962.000000	58.485433
3961.000000	58.533037
3960.000000	58.581929
3959.000000	58.631784
3958.000000	58.681954
3957.000000	58.732212
3956.000000	58.782695
3955.000000	58.833173
3954.000000	58.883070
3953.000000	58.931288
3952.000000	58.976549
3951.000000	59.017619
3950.000000	59.054180
3949.000000	59.087434
3948.000000	59.119649
3947.000000	59.153601
3946.000000	59.190920
3945.000000	59.229800
3944.000000	59.265324
3943.000000	59.293885
3942.000000	59.318381
3941.000000	59.346113
3940.000000	59.381493
3939.000000	59.423693
3938.000000	59.468393
3937.000000	59.512234
3936.000000	59.554633
3935.000000	59.595245
3934.000000	59.632736
3933.000000	59.664921
3932.000000	59.691632
3931.000000	59.714563
3930.000000	59.734873
3929.000000	59.754467
3928.000000	59.775879
3927.000000	59.800313
3926.000000	59.823877
3925.000000	59.840558
3924.000000	59.850876
3923.000000	59.860627
3922.000000	59.872015
3921.000000	59.882670
3920.000000	59.891372
3919.000000	59.900742
3918.000000	59.912313
3917.000000	59.924842
3916.000000	59.938369
3915.000000	59.955161
3914.000000	59.976116
3913.000000	59.999953
3912.000000	60.025086
3911.000000	60.052598
3910.000000	60.082331
3909.000000	60.113383
3908.000000	60.145191
3907.000000	60.174849
3906.000000	60.195425
3905.000000	60.198208
3904.000000	60.185449
3903.000000	60.173273
3902.000000	60.175864
3901.000000	60.194106
3900.000000	60.220107
3899.000000	60.250186
3898.000000	60.288507
3897.000000	60.338060
3896.000000	60.395470
3895.000000	60.457476
3894.000000	60.520986
3893.000000	60.581353
3892.000000	60.629009
3891.000000	60.659992
3890.000000	60.683001
3889.000000	60.711615
3888.000000	60.752845
3887.000000	60.800570
3886.000000	60.841703
3885.000000	60.874236
3884.000000	60.906289
3883.000000	60.940596
3882.000000	60.969661
3881.000000	60.986003
3880.000000	60.993637
3879.000000	61.004724
3878.000000	61.026244
3877.000000	61.056393
3876.000000	61.086931
3875.000000	61.106812
3874.000000	61.113064
3873.000000	61.116895
3872.000000	61.128797
3871.000000	61.141648
3870.000000	61.144380
3869.000000	61.147331
3868.000000	61.167673
3867.000000	61.205468
3866.000000	61.244945
3865.000000	61.274533
3864.000000	61.299050
3863.000000	61.327266
3862.000000	61.357588
3861.000000	61.389650
3860.000000	61.426445
3859.000000	61.471207
3858.000000	61.525923
3857.000000	61.590665
3856.000000	61.655465
3855.000000	61.686825
3854.000000	61.661211
3853.000000	61.618091
3852.000000	61.606275
3851.000000	61.622941
3850.000000	61.647441
3849.000000	61.676215
3848.000000	61.715832
3847.000000	61.769851
3846.000000	61.831168
3845.000000	61.889228
3844.000000	61.935626
3843.000000	61.966663
3842.000000	61.986973
3841.000000	62.006489
3840.000000	62.024215
3839.000000	62.035052
3838.000000	62.043503
3837.000000	62.058122
3836.000000	62.081054
3835.000000	62.108860
3834.000000	62.140947
3833.000000	62.178092
3832.000000	62.217299
3831.000000	62.256815
3830.000000	62.298427
3829.000000	62.343938
3828.000000	62.390484
3827.000000	62.431308
3826.000000	62.462215
3825.000000	62.490332
3824.000000	62.524475
3823.000000	62.562429
3822.000000	62.589479
3821.000000	62.598273
3820.000000	62.604040
3819.000000	62.623106
3818.000000	62.656624
3817.000000	62.692376
3816.000000	62.721935
3815.000000	62.753865
3814.000000	62.797368
3813.000000	62.842858
3812.000000	62.876567
3811.000000	62.901450
3810.000000	62.932464
3809.000000	62.976359
3808.000000	63.021243
3807.000000	63.052344
3806.000000	63.072774
3805.000000	63.097856
3804.000000	63.132896
3803.000000	63.170262
3802.000000	63.193147
3801.000000	63.202315
3800.000000	63.215722
3799.000000	63.237931
3798.000000	63.261965
3797.000000	63.284196
3796.000000	63.310727
3795.000000	63.349073
3794.000000	63.398439
3793.000000	63.448670
3792.000000	63.492427
3791.000000	63.531574
3790.000000	63.569942
3789.000000	63.606990
3788.000000	63.641012
3787.000000	63.672600
3786.000000	63.702681
3785.000000	63.729258
3784.000000	63.750265
3783.000000	63.768510
3782.000000	63.787446
3781.000000	63.806040
3780.000000	63.820643
3779.000000	63.833989
3778.000000	63.853942
3777.000000	63.884266
3776.000000	63.919470
3775.000000	63.952777
3774.000000	63.984291
3773.000000	64.018712
3772.000000	64.055637
3771.000000	64.088054
3770.000000	64.113036
3769.000000	64.137451
3768.000000	64.168096
3767.000000	64.205558
3766.000000	64.246723
3765.000000	64.287669
3764.000000	64.328784
3763.000000	64.374069
3762.000000	64.422569
3761.000000	64.467703
3760.000000	64.505190
3759.000000	64.540231
3758.000000	64.575716
3757.000000	64.608901
3756.000000	64.640712
3755.000000	64.675006
3754.000000	64.711709
3753.000000	64.743645
3752.000000	64.767222
3751.000000	64.790996
3750.000000	64.819382
3749.000000	64.844120
3748.000000	64.864258
3747.000000	64.894019
3746.000000	64.938615
3745.000000	64.983429
3744.000000	65.027475
3743.000000	65.083103
3742.000000	65.139961
3741.000000	65.179796
3740.000000	65.203517
3739.000000	65.232116
3738.000000	65.279610
3737.000000	65.334245
3736.000000	65.376877
3735.000000	65.403808
3734.000000	65.428309
3733.000000	65.461226
3732.000000	65.502492
3731.000000	65.547530
3730.000000	65.592937
3729.000000	65.640059
3728.000000	65.690105
3727.000000	65.738559
3726.000000	65.782819
3725.000000	65.824341
3724.000000	65.862731
3723.000000	65.895469
3722.000000	65.924354
3721.000000	65.956080
3720.000000	65.995670
3719.000000	66.046630
3718.000000	66.105217
3717.000000	66.163062
3716.000000	66.213494
3715.000000	66.253842
3714.000000	66.285314
3713.000000	66.313306
3712.000000	66.343702
3711.000000	66.380688
3710.000000	66.425780
3709.000000	66.478742
3708.000000	66.537138
3707.000000	66.594840
3706.000000	66.651360
3705.000000	66.708712
3704.000000	66.768301
3703.000000	66.826217
3702.000000	66.879149
3701.000000	66.927401
3700.000000	66.972670
3699.000000	67.017015
3698.000000	67.061125
3697.000000	67.104071
3696.000000	67.144791
3695.000000	67.184365
3694.000000	67.220551
3693.000000	67.253275
3692.000000	67.283319
3691.000000	67.311592
3690.000000	67.338690
3689.000000	67.371415
3688.000000	67.416756
3687.000000	67.467844
3686.000000	67.515727
3685.000000	67.556331
3684.000000	67.592414
3683.000000	67.630865
3682.000000	67.678673
3681.000000	67.729088
3680.000000	67.767759
3679.000000	67.789626
3678.000000	67.807820
3677.000000	67.831927
3676.000000	67.855097
3675.000000	67.877337
3674.000000	67.900651
3673.000000	67.921886
3672.000000	67.942269
3671.000000	67.968602
3670.000000	68.007783
3669.000000	68.064598
3668.000000	68.130138
3667.000000	68.187957
3666.000000	68.232176
3665.000000	68.270175
3664.000000	68.310796
3663.000000	68.357184
3662.000000	68.403553
3661.000000	68.439941
3660.000000	68.465140
3659.000000	68.485909
3658.000000	68.510355
3657.000000	68.538191
3656.000000	68.564885
3655.000000	68.586848
3654.000000	68.599992
3653.000000	68.603873
3652.000000	68.604542
3651.000000	68.608554
3650.000000	68.621520
3649.000000	68.650474
3648.000000	68.696856
3647.000000	68.752219
3646.000000	68.805700
3645.000000	68.854228
3644.000000	68.902008
3643.000000	68.954136
3642.000000	69.009032
3641.000000	69.062094
3640.000000	69.110631
3639.000000	69.151827
3638.000000	69.183600
3637.000000	69.207390
3636.000000	69.228600
3635.000000	69.247577
3634.000000	69.257283
3633.000000	69.253112
3632.000000	69.239417
3631.000000	69.225895
3630.000000	69.217163
3629.000000	69.216942
3628.000000	69.231780
3627.000000	69.253627
3626.000000	69.262133
3625.000000	69.249896
3624.000000	69.225769
3623.000000	69.201426
3622.000000	69.180722
3621.000000	69.156745
3620.000000	69.119923
3619.000000	69.069083
3618.000000	69.010559
3617.000000	68.948963
3616.000000	68.885748
3615.000000	68.818736
3614.000000	68.743178
3613.000000	68.658579
3612.000000	68.570369
3611.000000	68.484509
3610.000000	68.404177
3609.000000	68.329509
3608.000000	68.258117
3607.000000	68.185500
3606.000000	68.106864
3605.000000	68.019295
3604.000000	67.926425
3603.000000	67.834439
3602.000000	67.748266
3601.000000	67.669595
3600.000000	67.597439
3599.000000	67.528306
3598.000000	67.456948
3597.000000	67.380861
3596.000000	67.301675
3595.000000	67.220422
3594.000000	67.135655
3593.000000	67.047152
3592.000000	66.955576
3591.000000	66.866279
3590.000000	66.790055
3589.000000	66.738035
3588.000000	66.713626
3587.000000	66.710254
3586.000000	66.716129
3585.000000	66.719285
3584.000000	66.712856
3583.000000	66.695848
3582.000000	66.671133
3581.000000	66.641682
3580.000000	66.607774
3579.000000	66.567831
3578.000000	66.520057
3577.000000	66.465565
3576.000000	66.406020
3575.000000	66.343260
3574.000000	66.277070
3573.000000	66.207173
3572.000000	66.131332
3571.000000	66.047037
3570.000000	65.953652
3569.000000	65.853620
3568.000000	65.749671
3567.000000	65.644420
3566.000000	65.539143
3565.000000	65.432274
3564.000000	65.321369
3563.000000	65.206503
3562.000000	65.088951
3561.000000	64.968966
3560.000000	64.844593
3559.000000	64.713154
3558.000000	64.572704
3557.000000	64.423104
3556.000000	64.264965
3555.000000	64.098599
3554.000000	63.923397
3553.000000	63.739793
3552.000000	63.550434
3551.000000	63.357340
3550.000000	63.158768
3549.000000	62.951318
3548.000000	62.733139
3547.000000	62.505073
3546.000000	62.268558
3545.000000	62.025138
3544.000000	61.776290
3543.000000	61.522388
3542.000000	61.261845
3541.000000	60.992610
3540.000000	60.712731
3539.000000	60.418974
3538.000000	60.107295
3537.000000	59.776461
3536.000000	59.430158
3535.000000	59.072359
3534.000000	58.703479
3533.000000	58.321324
3532.000000	57.924256
3531.000000	57.510615
3530.000000	57.077188
3529.000000	56.621877
3528.000000	56.146379
3527.000000	55.653678
3526.000000	55.143631
3525.000000	54.614350
3524.000000	54.066892
3523.000000	53.505234
3522.000000	52.931833
3521.000000	52.345442
3520.000000	51.742891
3519.000000	51.120995
3518.000000	50.478113
3517.000000	49.815619
3516.000000	49.137338
3515.000000	48.446246
3514.000000	47.743432
3513.000000	47.028798
3512.000000	46.300424
3511.000000	45.554189
3510.000000	44.788564
3509.000000	44.010414
3508.000000	43.230654
3507.000000	42.452200
3506.000000	41.666413
3505.000000	40.863507
3504.000000	40.043892
3503.000000	39.217636
3502.000000	38.395841
3501.000000	37.584597
3500.000000	36.783595
3499.000000	35.987135
3498.000000	35.189154
3497.000000	34.389752
3496.000000	33.595422
3495.000000	32.812246
3494.000000	32.042428
3493.000000	31.287832
3492.000000	30.550929
3491.000000	29.830741
3490.000000	29.123435
3489.000000	28.429294
3488.000000	27.755660
3487.000000	27.110863
3486.000000	26.498133
3485.000000	25.915623
3484.000000	25.356970
3483.000000	24.812421
3482.000000	24.276142
3481.000000	23.753861
3480.000000	23.258061
3479.000000	22.793421
3478.000000	22.352223
3477.000000	21.923883
3476.000000	21.502777
3475.000000	21.087114
3474.000000	20.676391
3473.000000	20.272819
3472.000000	19.881161
3471.000000	19.505968
3470.000000	19.153841
3469.000000	18.836956
3468.000000	18.568525
3467.000000	18.353947
3466.000000	18.190282
3465.000000	18.074113
3464.000000	18.003962
3463.000000	17.977279
3462.000000	17.992987
3461.000000	18.055731
3460.000000	18.171507
3459.000000	18.337570
3458.000000	18.541897
3457.000000	18.772504
3456.000000	19.020606
3455.000000	19.276106
3454.000000	19.527016
3453.000000	19.763156
3452.000000	19.975881
3451.000000	20.154175
3450.000000	20.285044
3449.000000	20.359028
3448.000000	20.371869
3447.000000	20.322039
3446.000000	20.212605
3445.000000	20.052095
3444.000000	19.849618
3443.000000	19.610434
3442.000000	19.338653
3441.000000	19.044007
3440.000000	18.740399
3439.000000	18.439887
3438.000000	18.153942
3437.000000	17.897761
3436.000000	17.686474
3435.000000	17.526561
3434.000000	17.415222
3433.000000	17.347605
3432.000000	17.322892
3431.000000	17.343728
3430.000000	17.415811
3429.000000	17.547753
3428.000000	17.744725
3427.000000	18.005400
3426.000000	18.325900
3425.000000	18.705745
3424.000000	19.147415
3423.000000	19.649757
3422.000000	20.209598
3421.000000	20.825183
3420.000000	21.493581
3419.000000	22.207554
3418.000000	22.956893
3417.000000	23.733956
3416.000000	24.533040
3415.000000	25.347107
3414.000000	26.170254
3413.000000	26.999606
3412.000000	27.831504
3411.000000	28.657917
3410.000000	29.470634
3409.000000	30.267035
3408.000000	31.047246
3407.000000	31.807241
3406.000000	32.539849
3405.000000	33.241126
3404.000000	33.911747
3403.000000	34.554731
3402.000000	35.175611
3401.000000	35.782758
3400.000000	36.382130
3399.000000	36.970689
3398.000000	37.539482
3397.000000	38.082716
3396.000000	38.600455
3395.000000	39.095369
3394.000000	39.571125
3393.000000	40.034228
3392.000000	40.492293
3391.000000	40.948360
3390.000000	41.400125
3389.000000	41.843828
3388.000000	42.277181
3387.000000	42.699409
3386.000000	43.111413
3385.000000	43.516208
3384.000000	43.916408
3383.000000	44.312048
3382.000000	44.702738
3381.000000	45.090374
3380.000000	45.477366
3379.000000	45.863356
3378.000000	46.246627
3377.000000	46.627630
3376.000000	47.007826
3375.000000	47.386036
3374.000000	47.758869
3373.000000	48.124543
3372.000000	48.484068
3371.000000	48.839336
3370.000000	49.192694
3369.000000	49.547301
3368.000000	49.905130
3367.000000	50.264779
3366.000000	50.622949
3365.000000	50.977405
3364.000000	51.326974
3363.000000	51.670296
3362.000000	52.007065
3361.000000	52.339405
3360.000000	52.669779
3359.000000	52.998125
3358.000000	53.322935
3357.000000	53.644208
3356.000000	53.962722
3355.000000	54.277544
3354.000000	54.586586
3353.000000	54.889467
3352.000000	55.187994
3351.000000	55.483901
3350.000000	55.777616
3349.000000	56.068659
3348.000000	56.355634
3347.000000	56.636662
3346.000000	56.911309
3345.000000	57.181558
3344.000000	57.449391
3343.000000	57.713643
3342.000000	57.971024
3341.000000	58.219571
3340.000000	58.459944
3339.000000	58.694044
3338.000000	58.923372
3337.000000	59.148499
3336.000000	59.368331
3335.000000	59.580320
3334.000000	59.782323
3333.000000	59.973150
3332.000000	60.151213
3331.000000	60.313337
3330.000000	60.456273
3329.000000	60.578917
3328.000000	60.681205
3327.000000	60.762731
3326.000000	60.822652
3325.000000	60.859605
3324.000000	60.870759
3323.000000	60.850488
3322.000000	60.793064
3321.000000	60.695255
3320.000000	60.554282
3319.000000	60.366301
3318.000000	60.125657
3317.000000	59.827474
3316.000000	59.466874
3315.000000	59.036016
3314.000000	58.526076
3313.000000	57.928276
3312.000000	57.233883
3311.000000	56.434308
3310.000000	55.521158
3309.000000	54.492080
3308.000000	53.347730
3307.000000	52.087678
3306.000000	50.711187
3305.000000	49.215894
3304.000000	47.600512
3303.000000	45.861342
3302.000000	43.996264
3301.000000	42.011921
3300.000000	39.922534
3299.000000	37.749972
3298.000000	35.526585
3297.000000	33.297924
3296.000000	31.116747
3295.000000	29.031726
3294.000000	27.083767
3293.000000	25.308598
3292.000000	23.732116
3291.000000	22.357706
3290.000000	21.169515
3289.000000	20.139237
3288.000000	19.233388
3287.000000	18.418310
3286.000000	17.663722
3285.000000	16.952490
3284.000000	16.277097
3283.000000	15.635445
3282.000000	15.033811
3281.000000	14.487382
3280.000000	14.016153
3279.000000	13.636751
3278.000000	13.363225
3277.000000	13.211583
3276.000000	13.192639
3275.000000	13.305657
3274.000000	13.539129
3273.000000	13.874142
3272.000000	14.284615
3271.000000	14.733049
3270.000000	15.175677
3269.000000	15.569960
3268.000000	15.876425
3267.000000	16.060990
3266.000000	16.104167
3265.000000	16.006634
3264.000000	15.784610
3263.000000	15.464190
3262.000000	15.078899
3261.000000	14.670851
3260.000000	14.282156
3259.000000	13.945757
3258.000000	13.686784
3257.000000	13.526243
3256.000000	13.476534
3255.000000	13.536871
3254.000000	13.697671
3253.000000	13.944899
3252.000000	14.260870
3251.000000	14.620919
3250.000000	14.999101
3249.000000	15.375901
3248.000000	15.735615
3247.000000	16.062700
3246.000000	16.343470
3245.000000	16.570088
3244.000000	16.739157
3243.000000	16.850308
3242.000000	16.907968
3241.000000	16.922955
3240.000000	16.907314
3239.000000	16.868018
3238.000000	16.810403
3237.000000	16.741179
3236.000000	16.666591
3235.000000	16.590785
3234.000000	16.517887
3233.000000	16.452441
3232.000000	16.392527
3231.000000	16.326999
3230.000000	16.244011
3229.000000	16.138375
3228.000000	16.008578
3227.000000	15.851107
3226.000000	15.662794
3225.000000	15.445275
3224.000000	15.201473
3223.000000	14.932313
3222.000000	14.640431
3221.000000	14.334273
3220.000000	14.024433
3219.000000	13.717812
3218.000000	13.419081
3217.000000	13.132965
3216.000000	12.860845
3215.000000	12.598729
3214.000000	12.342660
3213.000000	12.092588
3212.000000	11.847830
3211.000000	11.603625
3210.000000	11.356421
3209.000000	11.109093
3208.000000	10.866624
3207.000000	10.631059
3206.000000	10.404769
3205.000000	10.193585
3204.000000	10.002893
3203.000000	9.834011
3202.000000	9.688366
3201.000000	9.571177
3200.000000	9.485933
3199.000000	9.431106
3198.000000	9.405267
3197.000000	9.411049
3196.000000	9.450663
3195.000000	9.520513
3194.000000	9.616582
3193.000000	9.738912
3192.000000	9.886949
3191.000000	10.056471
3190.000000	10.243419
3189.000000	10.447967
3188.000000	10.669972
3187.000000	10.904706
3186.000000	11.148037
3185.000000	11.400186
3184.000000	11.661404
3183.000000	11.928225
3182.000000	12.197784
3181.000000	12.471672
3180.000000	12.750796
3179.000000	13.031348
3178.000000	13.309512
3177.000000	13.585772
3176.000000	13.860812
3175.000000	14.131463
3174.000000	14.394660
3173.000000	14.651191
3172.000000	14.902035
3171.000000	15.144829
3170.000000	15.377861
3169.000000	15.603336
3168.000000	15.822988
3167.000000	16.034836
3166.000000	16.236941
3165.000000	16.430529
3164.000000	16.615898
3163.000000	16.789355
3162.000000	16.948240
3161.000000	17.094099
3160.000000	17.228290
3159.000000	17.348640
3158.000000	17.453517
3157.000000	17.545818
3156.000000	17.628987
3155.000000	17.703872
3154.000000	17.772904
3153.000000	17.842652
3152.000000	17.918657
3151.000000	18.001043
3150.000000	18.088613
3149.000000	18.183122
3148.000000	18.286183
3147.000000	18.396094
3146.000000	18.511444
3145.000000	18.633847
3144.000000	18.763659
3143.000000	18.897192
3142.000000	19.031137
3141.000000	19.166096
3140.000000	19.302428
3139.000000	19.436615
3138.000000	19.564958
3137.000000	19.686773
3136.000000	19.800562
3135.000000	19.900624
3134.000000	19.981162
3133.000000	20.039174
3132.000000	20.070976
3131.000000	20.069320
3130.000000	20.026830
3129.000000	19.940368
3128.000000	19.808116
3127.000000	19.628671
3126.000000	19.405741
3125.000000	19.149480
3124.000000	18.871730
3123.000000	18.581832
3122.000000	18.290218
3121.000000	18.009853
3120.000000	17.749529
3119.000000	17.509663
3118.000000	17.287639
3117.000000	17.083277
3116.000000	16.895849
3115.000000	16.721024
3114.000000	16.554315
3113.000000	16.394249
3112.000000	16.239032
3111.000000	16.084863
3110.000000	15.931545
3109.000000	15.784812
3108.000000	15.650262
3107.000000	15.529185
3106.000000	15.422857
3105.000000	15.336732
3104.000000	15.275840
3103.000000	15.241482
3102.000000	15.236164
3101.000000	15.266205
3100.000000	15.337309
3099.000000	15.449744
3098.000000	15.602117
3097.000000	15.795565
3096.000000	16.029501
3095.000000	16.299982
3094.000000	16.603567
3093.000000	16.939697
3092.000000	17.306817
3091.000000	17.699136
3090.000000	18.111555
3089.000000	18.541623
3088.000000	18.984982
3087.000000	19.434225
3086.000000	19.884332
3085.000000	20.335608
3084.000000	20.787786
3083.000000	21.236269
3082.000000	21.677074
3081.000000	22.110722
3080.000000	22.538502
3079.000000	22.958977
3078.000000	23.371087
3077.000000	23.775983
3076.000000	24.173324
3075.000000	24.559410
3074.000000	24.931772
3073.000000	25.291923
3072.000000	25.640953
3071.000000	25.977103
3070.000000	26.299737
3069.000000	26.611959
3068.000000	26.916845
3067.000000	27.214057
3066.000000	27.502896
3065.000000	27.784613
3064.000000	28.059655
3063.000000	28.326599
3062.000000	28.585456
3061.000000	28.838889
3060.000000	29.087859
3059.000000	29.329816
3058.000000	29.563478
3057.000000	29.791376
3056.000000	30.015991
3055.000000	30.236844
3054.000000	30.453532
3053.000000	30.668124
3052.000000	30.882034
3051.000000	31.093944
3050.000000	31.302608
3049.000000	31.508473
3048.000000	31.711090
3047.000000	31.908398
3046.000000	32.100556
3045.000000	32.290945
3044.000000	32.481595
3043.000000	32.671298
3042.000000	32.859587
3041.000000	33.048600
3040.000000	33.238797
3039.000000	33.426592
3038.000000	33.608814
3037.000000	33.786338
3036.000000	33.961745
3035.000000	34.136643
3034.000000	34.312790
3033.000000	34.492217
3032.000000	34.674082
3031.000000	34.854842
3030.000000	35.033081
3029.000000	35.210551
3028.000000	35.387355
3027.000000	35.560468
3026.000000	35.728891
3025.000000	35.895903
3024.000000	36.063465
3023.000000	36.228241
3022.000000	36.385465
3021.000000	36.532801
3020.000000	36.668038
3019.000000	36.785811
3018.000000	36.880018
3017.000000	36.947034
3016.000000	36.985019
3015.000000	36.994295
3014.000000	36.981222
3013.000000	36.960563
3012.000000	36.951267
3011.000000	36.971152
3010.000000	37.034438
3009.000000	37.148627
3008.000000	37.309959
3007.000000	37.503668
3006.000000	37.710496
3005.000000	37.911179
3004.000000	38.084804
3003.000000	38.207146
3002.000000	38.253887
3001.000000	38.203899
3000.000000	38.043436
2999.000000	37.775559
2998.000000	37.433141
2997.000000	37.080759
2996.000000	36.797870
2995.000000	36.654382
2994.000000	36.690015
2993.000000	36.904151
2992.000000	37.255837
2991.000000	37.681326
2990.000000	38.120142
2989.000000	38.532254
2988.000000	38.898507
2987.000000	39.213040
2986.000000	39.479076
2985.000000	39.704188
2984.000000	39.894263
2983.000000	40.050150
2982.000000	40.171433
2981.000000	40.258652
2980.000000	40.310512
2979.000000	40.321779
2978.000000	40.286642
2977.000000	40.204319
2976.000000	40.080393
2975.000000	39.928292
2974.000000	39.770563
2973.000000	39.634527
2972.000000	39.541836
2971.000000	39.499427
2970.000000	39.497698
2969.000000	39.510575
2968.000000	39.496253
2967.000000	39.407432
2966.000000	39.212247
2965.000000	38.910974
2964.000000	38.535646
2963.000000	38.136475
2962.000000	37.767111
2961.000000	37.471589
2960.000000	37.276426
2959.000000	37.190810
2958.000000	37.214972
2957.000000	37.343520
2956.000000	37.561484
2955.000000	37.843513
2954.000000	38.159805
2953.000000	38.481062
2952.000000	38.776130
2951.000000	39.014750
2950.000000	39.178011
2949.000000	39.267565
2948.000000	39.301750
2947.000000	39.301142
2946.000000	39.271564
2945.000000	39.187827
2944.000000	38.992538
2943.000000	38.624289
2942.000000	38.071891
2941.000000	37.414924
2940.000000	36.814531
2939.000000	36.451866
2938.000000	36.448046
2937.000000	36.814515
2936.000000	37.457259
2935.000000	38.231976
2934.000000	39.009378
2933.000000	39.711481
2932.000000	40.309169
2931.000000	40.804785
2930.000000	41.217680
2929.000000	41.571434
2928.000000	41.884588
2927.000000	42.167336
2926.000000	42.426665
2925.000000	42.668654
2924.000000	42.895459
2923.000000	43.104847
2922.000000	43.295540
2921.000000	43.469502
2920.000000	43.627658
2919.000000	43.768447
2918.000000	43.891786
2917.000000	44.000975
2916.000000	44.098907
2915.000000	44.185939
2914.000000	44.263013
2913.000000	44.332795
2912.000000	44.395977
2911.000000	44.449836
2910.000000	44.491572
2909.000000	44.519657
2908.000000	44.530324
2907.000000	44.515203
2906.000000	44.464143
2905.000000	44.366374
2904.000000	44.208091
2903.000000	43.973821
2902.000000	43.655088
2901.000000	43.257609
2900.000000	42.802852
2899.000000	42.328294
2898.000000	41.885333
2897.000000	41.530586
2896.000000	41.307875
2895.000000	41.234972
2894.000000	41.304659
2893.000000	41.492020
2892.000000	41.761901
2891.000000	42.076491
2890.000000	42.404972
2889.000000	42.727249
2888.000000	43.030820
2887.000000	43.307547
2886.000000	43.553998
2885.000000	43.771381
2884.000000	43.961216
2883.000000	44.123936
2882.000000	44.261874
2881.000000	44.380601
2880.000000	44.485862
2879.000000	44.581566
2878.000000	44.671443
2877.000000	44.759205
2876.000000	44.845663
2875.000000	44.928330
2874.000000	45.005585
2873.000000	45.078631
2872.000000	45.149121
2871.000000	45.218719
2870.000000	45.292145
2869.000000	45.376994
2868.000000	45.478111
2867.000000	45.594259
2866.000000	45.721058
2865.000000	45.853779
2864.000000	45.986339
2863.000000	46.111914
2862.000000	46.227075
2861.000000	46.332954
2860.000000	46.431253
2859.000000	46.522014
2858.000000	46.606451
2857.000000	46.688335
2856.000000	46.770608
2855.000000	46.853521
2854.000000	46.937328
2853.000000	47.023308
2852.000000	47.110294
2851.000000	47.193333
2850.000000	47.267916
2849.000000	47.333368
2848.000000	47.391205
2847.000000	47.443195
2846.000000	47.492437
2845.000000	47.543176
2844.000000	47.597633
2843.000000	47.655034
2842.000000	47.714895
2841.000000	47.779064
2840.000000	47.849495
2839.000000	47.926417
2838.000000	48.009561
2837.000000	48.098643
2836.000000	48.191809
2835.000000	48.286151
2834.000000	48.380589
2833.000000	48.476013
2832.000000	48.572183
2831.000000	48.667251
2830.000000	48.760967
2829.000000	48.855354
2828.000000	48.951229
2827.000000	49.046809
2826.000000	49.140490
2825.000000	49.232172
2824.000000	49.321040
2823.000000	49.404964
2822.000000	49.483409
2821.000000	49.558404
2820.000000	49.631614
2819.000000	49.702931
2818.000000	49.772618
2817.000000	49.841962
2816.000000	49.910693
2815.000000	49.976292
2814.000000	50.036974
2813.000000	50.093079
2812.000000	50.144963
2811.000000	50.192427
2810.000000	50.237029
2809.000000	50.282058
2808.000000	50.329011
2807.000000	50.376629
2806.000000	50.424190
2805.000000	50.472852
2804.000000	50.522639
2803.000000	50.571072
2802.000000	50.616211
2801.000000	50.658610
2800.000000	50.699319
2799.000000	50.738637
2798.000000	50.777866
2797.000000	50.819375
2796.000000	50.863400
2795.000000	50.907171
2794.000000	50.948410
2793.000000	50.987295
2792.000000	51.024152
2791.000000	51.058081
2790.000000	51.089222
2789.000000	51.119663
2788.000000	51.150561
2787.000000	51.180715
2786.000000	51.209254
2785.000000	51.237430
2784.000000	51.266565
2783.000000	51.296852
2782.000000	51.329533
2781.000000	51.367657
2780.000000	51.413083
2779.000000	51.464663
2778.000000	51.520505
2777.000000	51.579947
2776.000000	51.642130
2775.000000	51.704940
2774.000000	51.766710
2773.000000	51.827022
2772.000000	51.884978
2771.000000	51.938910
2770.000000	51.988773
2769.000000	52.036714
2768.000000	52.084311
2767.000000	52.131171
2766.000000	52.176911
2765.000000	52.221956
2764.000000	52.265379
2763.000000	52.304497
2762.000000	52.337875
2761.000000	52.366853
2760.000000	52.393244
2759.000000	52.417574
2758.000000	52.440431
2757.000000	52.463015
2756.000000	52.485232
2755.000000	52.505387
2754.000000	52.522836
2753.000000	52.539231
2752.000000	52.556557
2751.000000	52.576046
2750.000000	52.599480
2749.000000	52.628791
2748.000000	52.663098
2747.000000	52.698285
2746.000000	52.730605
2745.000000	52.758951
2744.000000	52.783432
2743.000000	52.804341
2742.000000	52.823170
2741.000000	52.841850
2740.000000	52.859687
2739.000000	52.873336
2738.000000	52.881220
2737.000000	52.886602
2736.000000	52.895873
2735.000000	52.915916
2734.000000	52.952964
2733.000000	53.010010
2732.000000	53.083534
2731.000000	53.164830
2730.000000	53.245803
2729.000000	53.322515
2728.000000	53.393407
2727.000000	53.457449
2726.000000	53.515248
2725.000000	53.568974
2724.000000	53.619422
2723.000000	53.665033
2722.000000	53.704422
2721.000000	53.737608
2720.000000	53.764366
2719.000000	53.783836
2718.000000	53.797114
2717.000000	53.808160
2716.000000	53.820842
2715.000000	53.837057
2714.000000	53.858129
2713.000000	53.885405
2712.000000	53.918478
2711.000000	53.955092
2710.000000	53.993787
2709.000000	54.034635
2708.000000	54.076765
2707.000000	54.117553
2706.000000	54.155167
2705.000000	54.189528
2704.000000	54.219803
2703.000000	54.243456
2702.000000	54.258844
2701.000000	54.266405
2700.000000	54.266719
2699.000000	54.259628
2698.000000	54.246297
2697.000000	54.230057
2696.000000	54.213864
2695.000000	54.198994
2694.000000	54.186689
2693.000000	54.178382
2692.000000	54.173397
2691.000000	54.168883
2690.000000	54.163326
2689.000000	54.158317
2688.000000	54.156208
2687.000000	54.158147
2686.000000	54.165056
2685.000000	54.177715
2684.000000	54.194858
2683.000000	54.213829
2682.000000	54.234095
2681.000000	54.258125
2680.000000	54.287838
2679.000000	54.322360
2678.000000	54.360036
2677.000000	54.399768
2676.000000	54.439433
2675.000000	54.475548
2674.000000	54.505748
2673.000000	54.529633
2672.000000	54.546673
2671.000000	54.555861
2670.000000	54.558662
2669.000000	54.560106
2668.000000	54.565708
2667.000000	54.579121
2666.000000	54.603018
2665.000000	54.639044
2664.000000	54.685210
2663.000000	54.735603
2662.000000	54.783900
2661.000000	54.825650
2660.000000	54.857218
2659.000000	54.875682
2658.000000	54.881323
2657.000000	54.878231
2656.000000	54.871220
2655.000000	54.863852
2654.000000	54.859963
2653.000000	54.864109
2652.000000	54.879005
2651.000000	54.904487
2650.000000	54.939755
2649.000000	54.984221
2648.000000	55.035584
2647.000000	55.089446
2646.000000	55.142092
2645.000000	55.191991
2644.000000	55.237967
2643.000000	55.278792
2642.000000	55.315592
2641.000000	55.352132
2640.000000	55.391391
2639.000000	55.433608
2638.000000	55.478240
2637.000000	55.525239
2636.000000	55.573320
2635.000000	55.619283
2634.000000	55.660502
2633.000000	55.696279
2632.000000	55.726088
2631.000000	55.748879
2630.000000	55.764956
2629.000000	55.776641
2628.000000	55.785919
2627.000000	55.793237
2626.000000	55.799390
2625.000000	55.805998
2624.000000	55.813402
2623.000000	55.820228
2622.000000	55.825854
2621.000000	55.831290
2620.000000	55.836591
2619.000000	55.839807
2618.000000	55.839287
2617.000000	55.834756
2616.000000	55.825419
2615.000000	55.809166
2614.000000	55.785049
2613.000000	55.754578
2612.000000	55.719752
2611.000000	55.682303
2610.000000	55.645621
2609.000000	55.614963
2608.000000	55.594331
2607.000000	55.584920
2606.000000	55.586939
2605.000000	55.600871
2604.000000	55.625865
2603.000000	55.659175
2602.000000	55.698650
2601.000000	55.743155
2600.000000	55.790355
2599.000000	55.836533
2598.000000	55.879457
2597.000000	55.919599
2596.000000	55.957579
2595.000000	55.992968
2594.000000	56.026447
2593.000000	56.060472
2592.000000	56.096417
2591.000000	56.133054
2590.000000	56.168625
2589.000000	56.202235
2588.000000	56.232505
2587.000000	56.257278
2586.000000	56.276088
2585.000000	56.291050
2584.000000	56.304518
2583.000000	56.318088
2582.000000	56.334608
2581.000000	56.358562
2580.000000	56.393089
2579.000000	56.438323
2578.000000	56.493054
2577.000000	56.556091
2576.000000	56.624977
2575.000000	56.695910
2574.000000	56.766316
2573.000000	56.835508
2572.000000	56.902610
2571.000000	56.965926
2570.000000	57.025022
2569.000000	57.081153
2568.000000	57.134746
2567.000000	57.184551
2566.000000	57.230128
2565.000000	57.273091
2564.000000	57.314840
2563.000000	57.355410
2562.000000	57.395194
2561.000000	57.435547
2560.000000	57.476677
2559.000000	57.516816
2558.000000	57.554625
2557.000000	57.590495
2556.000000	57.624885
2555.000000	57.657575
2554.000000	57.689434
2553.000000	57.722897
2552.000000	57.759648
2551.000000	57.799550
2550.000000	57.842348
2549.000000	57.888247
2548.000000	57.935979
2547.000000	57.982495
2546.000000	58.025535
2545.000000	58.064804
2544.000000	58.100020
2543.000000	58.130099
2542.000000	58.154994
2541.000000	58.176089
2540.000000	58.194073
2539.000000	58.207964
2538.000000	58.217108
2537.000000	58.221855
2536.000000	58.221192
2535.000000	58.212499
2534.000000	58.194291
2533.000000	58.167746
2532.000000	58.134836
2531.000000	58.096879
2530.000000	58.056227
2529.000000	58.016740
2528.000000	57.981393
2527.000000	57.951028
2526.000000	57.925932
2525.000000	57.906415
2524.000000	57.890796
2523.000000	57.875042
2522.000000	57.855692
2521.000000	57.831396
2520.000000	57.801185
2519.000000	57.763581
2518.000000	57.718646
2517.000000	57.668812
2516.000000	57.616215
2515.000000	57.561310
2514.000000	57.504829
2513.000000	57.449119
2512.000000	57.396601
2511.000000	57.349012
2510.000000	57.309001
2509.000000	57.280363
2508.000000	57.265642
2507.000000	57.264801
2506.000000	57.277532
2505.000000	57.303889
2504.000000	57.342023
2503.000000	57.387832
2502.000000	57.437266
2501.000000	57.487859
2500.000000	57.537080
2499.000000	57.581751
2498.000000	57.620301
2497.000000	57.653309
2496.000000	57.681075
2495.000000	57.702737
2494.000000	57.718529
2493.000000	57.730533
2492.000000	57.740499
2491.000000	57.748670
2490.000000	57.755659
2489.000000	57.763405
2488.000000	57.773234
2487.000000	57.785073
2486.000000	57.799142
2485.000000	57.816306
2484.000000	57.836011
2483.000000	57.856104
2482.000000	57.875413
2481.000000	57.894536
2480.000000	57.913648
2479.000000	57.931919
2478.000000	57.950098
2477.000000	57.971164
2476.000000	57.997545
2475.000000	58.029676
2474.000000	58.067709
2473.000000	58.112554
2472.000000	58.163965
2471.000000	58.219949
2470.000000	58.278956
2469.000000	58.340446
2468.000000	58.403011
2467.000000	58.463994
2466.000000	58.521865
2465.000000	58.576836
2464.000000	58.628450
2463.000000	58.674777
2462.000000	58.714859
2461.000000	58.749899
2460.000000	58.781068
2459.000000	58.808428
2458.000000	58.832362
2457.000000	58.854075
2456.000000	58.873865
2455.000000	58.890699
2454.000000	58.904534
2453.000000	58.916809
2452.000000	58.928238
2451.000000	58.938278
2450.000000	58.947466
2449.000000	58.958243
2448.000000	58.972920
2447.000000	58.992929
2446.000000	59.020336
2445.000000	59.057568
2444.000000	59.104347
2443.000000	59.157160
2442.000000	59.212341
2441.000000	59.267412
2440.000000	59.319298
2439.000000	59.364125
2438.000000	59.400357
2437.000000	59.430072
2436.000000	59.456233
2435.000000	59.480423
2434.000000	59.503789
2433.000000	59.527375
2432.000000	59.549990
2431.000000	59.568161
2430.000000	59.579024
2429.000000	59.581921
2428.000000	59.576425
2427.000000	59.560945
2426.000000	59.534894
2425.000000	59.499924
2424.000000	59.458636
2423.000000	59.413976
2422.000000	59.370602
2421.000000	59.334503
2420.000000	59.309553
2419.000000	59.295997
2418.000000	59.292715
2417.000000	59.298788
2416.000000	59.311738
2415.000000	59.326891
2414.000000	59.339753
2413.000000	59.347340
2412.000000	59.346602
2411.000000	59.334094
2410.000000	59.308484
2409.000000	59.271644
2408.000000	59.226536
2407.000000	59.175498
2406.000000	59.121484
2405.000000	59.068203
2404.000000	59.017897
2403.000000	58.971041
2402.000000	58.928974
2401.000000	58.894676
2400.000000	58.869942
2399.000000	58.853963
2398.000000	58.845176
2397.000000	58.842266
2396.000000	58.842189
2395.000000	58.839751
2394.000000	58.830539
2393.000000	58.812397
2392.000000	58.783600
2391.000000	58.742776
2390.000000	58.691757
2389.000000	58.635657
2388.000000	58.579746
2387.000000	58.527147
2386.000000	58.480944
2385.000000	58.445491
2384.000000	58.423056
2383.000000	58.413489
2382.000000	58.417190
2381.000000	58.436928
2380.000000	58.475395
2379.000000	58.531246
2378.000000	58.600821
2377.000000	58.681771
2376.000000	58.768351
2375.000000	58.850052
2374.000000	58.914354
2373.000000	58.953008
2372.000000	58.964804
2371.000000	58.951200
2370.000000	58.913251
2369.000000	58.860918
2368.000000	58.812399
2367.000000	58.778057
2366.000000	58.755990
2365.000000	58.758924
2364.000000	58.804113
2363.000000	58.876787
2362.000000	58.969475
2361.000000	59.077097
2360.000000	59.188728
2359.000000	59.305561
2358.000000	59.396282
2357.000000	59.452530
2356.000000	59.461232
2355.000000	59.397757
2354.000000	59.272780
2353.000000	59.153570
2352.000000	59.168498
2351.000000	59.317216
2350.000000	59.483891
2349.000000	59.570658
2348.000000	59.559863
2347.000000	59.565081
2346.000000	59.651415
2345.000000	59.819554
2344.000000	59.978626
2343.000000	60.054708
2342.000000	60.088106
2341.000000	60.096588
2340.000000	60.099356
2339.000000	60.078583
2338.000000	60.044682
2337.000000	60.004185
2336.000000	59.972893
2335.000000	59.935393
2334.000000	59.888799
2333.000000	59.810355
2332.000000	59.724690
2331.000000	59.623782
2330.000000	59.513182
2329.000000	59.414876
2328.000000	59.315114
2327.000000	59.235507
2326.000000	59.149198
2325.000000	59.078414
2324.000000	59.023440
2323.000000	58.978183
2322.000000	58.945128
2321.000000	58.905976
2320.000000	58.876357
2319.000000	58.839896
2318.000000	58.805422
2317.000000	58.757564
2316.000000	58.700660
2315.000000	58.630719
2314.000000	58.555728
2313.000000	58.479534
2312.000000	58.400579
2311.000000	58.318173
2310.000000	58.228513
2309.000000	58.137842
2308.000000	58.044377
2307.000000	57.951217
2306.000000	57.857619
2305.000000	57.767619
2304.000000	57.682836
2303.000000	57.601924
2302.000000	57.525383
2301.000000	57.453203
2300.000000	57.382562
2299.000000	57.310769
2298.000000	57.236470
2297.000000	57.166514
2296.000000	57.102960
2295.000000	57.053321
2294.000000	57.019680
2293.000000	57.010005
2292.000000	57.022531
2291.000000	57.055883
2290.000000	57.105000
2289.000000	57.168929
2288.000000	57.244382
2287.000000	57.328890
2286.000000	57.421347
2285.000000	57.521553
2284.000000	57.626326
2283.000000	57.729794
2282.000000	57.829433
2281.000000	57.924244
2280.000000	58.012774
2279.000000	58.090571
2278.000000	58.157691
2277.000000	58.216931
2276.000000	58.272418
2275.000000	58.326727
2274.000000	58.383267
2273.000000	58.446745
2272.000000	58.518987
2271.000000	58.599486
2270.000000	58.687880
2269.000000	58.785359
2268.000000	58.892322
2267.000000	59.007687
2266.000000	59.131208
2265.000000	59.263953
2264.000000	59.403598
2263.000000	59.546051
2262.000000	59.686578
2261.000000	59.822634
2260.000000	59.951249
2259.000000	60.068451
2258.000000	60.173533
2257.000000	60.267833
2256.000000	60.354434
2255.000000	60.435093
2254.000000	60.513434
2253.000000	60.593218
2252.000000	60.675874
2251.000000	60.760114
2250.000000	60.844369
2249.000000	60.928085
2248.000000	61.009159
2247.000000	61.085007
2246.000000	61.154584
2245.000000	61.219582
2244.000000	61.281052
2243.000000	61.338768
2242.000000	61.392811
2241.000000	61.444033
2240.000000	61.491265
2239.000000	61.531046
2238.000000	61.560861
2237.000000	61.580902
2236.000000	61.592700
2235.000000	61.598112
2234.000000	61.600735
2233.000000	61.605357
2232.000000	61.615072
2231.000000	61.630110
2230.000000	61.649848
2229.000000	61.673497
2228.000000	61.698776
2227.000000	61.722441
2226.000000	61.743234
2225.000000	61.762310
2224.000000	61.780399
2223.000000	61.796774
2222.000000	61.811262
2221.000000	61.824910
2220.000000	61.837903
2219.000000	61.849340
2218.000000	61.859620
2217.000000	61.871207
2216.000000	61.886455
2215.000000	61.906850
2214.000000	61.934480
2213.000000	61.971458
2212.000000	62.017062
2211.000000	62.067462
2210.000000	62.118818
2209.000000	62.168435
2208.000000	62.213056
2207.000000	62.249085
2206.000000	62.275621
2205.000000	62.295215
2204.000000	62.310710
2203.000000	62.323266
2202.000000	62.333550
2201.000000	62.342233
2200.000000	62.348416
2199.000000	62.349906
2198.000000	62.346114
2197.000000	62.338996
2196.000000	62.331066
2195.000000	62.324752
2194.000000	62.324155
2193.000000	62.334549
2192.000000	62.358786
2191.000000	62.395845
2190.000000	62.443000
2189.000000	62.497179
2188.000000	62.554012
2187.000000	62.608678
2186.000000	62.658941
2185.000000	62.705641
2184.000000	62.749888
2183.000000	62.791830
2182.000000	62.832487
2181.000000	62.873904
2180.000000	62.916574
2179.000000	62.958620
2178.000000	62.998047
2177.000000	63.033716
2176.000000	63.063728
2175.000000	63.085598
2174.000000	63.099005
2173.000000	63.106466
2172.000000	63.110575
2171.000000	63.112492
2170.000000	63.113437
2169.000000	63.115048
2168.000000	63.117294
2167.000000	63.118180
2166.000000	63.116516
2165.000000	63.113196
2164.000000	63.109359
2163.000000	63.105646
2162.000000	63.103788
2161.000000	63.106566
2160.000000	63.115227
2159.000000	63.128835
2158.000000	63.146618
2157.000000	63.168627
2156.000000	63.193662
2155.000000	63.219077
2154.000000	63.243568
2153.000000	63.268071
2152.000000	63.293361
2151.000000	63.318930
2150.000000	63.344669
2149.000000	63.371190
2148.000000	63.397586
2147.000000	63.421197
2146.000000	63.440407
2145.000000	63.455765
2144.000000	63.467989
2143.000000	63.477268
2142.000000	63.485165
2141.000000	63.494798
2140.000000	63.507918
2139.000000	63.523428
2138.000000	63.539186
2137.000000	63.553215
2136.000000	63.562812
2135.000000	63.565012
2134.000000	63.559165
2133.000000	63.547356
2132.000000	63.531849
2131.000000	63.513981
2130.000000	63.495777
2129.000000	63.479972
2128.000000	63.467332
2127.000000	63.455894
2126.000000	63.443636
2125.000000	63.430283
2124.000000	63.416347
2123.000000	63.403168
2122.000000	63.394654
2121.000000	63.396542
2120.000000	63.412816
2119.000000	63.443917
2118.000000	63.487918
2117.000000	63.540832
2116.000000	63.595644
2115.000000	63.644192
2114.000000	63.681625
2113.000000	63.707819
2112.000000	63.724807
2111.000000	63.735249
2110.000000	63.743201
2109.000000	63.753142
2108.000000	63.766818
2107.000000	63.782758
2106.000000	63.799373
2105.000000	63.816252
2104.000000	63.832192
2103.000000	63.844776
2102.000000	63.852658
2101.000000	63.856035
2100.000000	63.854175
2099.000000	63.844874
2098.000000	63.827261
2097.000000	63.802868
2096.000000	63.773425
2095.000000	63.740330
2094.000000	63.706976
2093.000000	63.679045
2092.000000	63.661615
2091.000000	63.657780
2090.000000	63.670259
2089.000000	63.701178
2088.000000	63.748876
2087.000000	63.807280
2086.000000	63.869177
2085.000000	63.928109
2084.000000	63.978059
2083.000000	64.014694
2082.000000	64.037667
2081.000000	64.049939
2080.000000	64.054257
2079.000000	64.052004
2078.000000	64.045148
2077.000000	64.035681
2076.000000	64.022428
2075.000000	64.001357
2074.000000	63.969630
2073.000000	63.927403
2072.000000	63.875596
2071.000000	63.814962
2070.000000	63.748546
2069.000000	63.681566
2068.000000	63.616945
2067.000000	63.552965
2066.000000	63.486243
2065.000000	63.414827
2064.000000	63.337606
2063.000000	63.253711
2062.000000	63.163864
2061.000000	63.070318
2060.000000	62.974924
2059.000000	62.879268
2058.000000	62.786746
2057.000000	62.701360
2056.000000	62.623773
2055.000000	62.551268
2054.000000	62.482038
2053.000000	62.416546
2052.000000	62.354627
2051.000000	62.295139
2050.000000	62.239427
2049.000000	62.191941
2048.000000	62.155760
2047.000000	62.130399
2046.000000	62.115090
2045.000000	62.109965
2044.000000	62.112682
2043.000000	62.117839
2042.000000	62.121751
2041.000000	62.125583
2040.000000	62.132484
2039.000000	62.145182
2038.000000	62.167376
2037.000000	62.203228
2036.000000	62.253951
2035.000000	62.317146
2034.000000	62.390260
2033.000000	62.471616
2032.000000	62.557492
2031.000000	62.642371
2030.000000	62.723157
2029.000000	62.800245
2028.000000	62.874238
2027.000000	62.944721
2026.000000	63.012740
2025.000000	63.081049
2024.000000	63.150632
2023.000000	63.219869
2022.000000	63.288088
2021.000000	63.356649
2020.000000	63.425350
2019.000000	63.491302
2018.000000	63.552991
2017.000000	63.612739
2016.000000	63.673945
2015.000000	63.738669
2014.000000	63.808575
2013.000000	63.884785
2012.000000	63.965483
2011.000000	64.046824
2010.000000	64.127353
2009.000000	64.208537
2008.000000	64.290706
2007.000000	64.371926
2006.000000	64.451323
2005.000000	64.530003
2004.000000	64.607678
2003.000000	64.681765
2002.000000	64.750832
2001.000000	64.815815
2000.000000	64.877462
1999.000000	64.935647
1998.000000	64.991535
1997.000000	65.048393
1996.000000	65.108859
1995.000000	65.172005
1994.000000	65.234057
1993.000000	65.291348
1992.000000	65.342941
1991.000000	65.392012
1990.000000	65.444426
1989.000000	65.504723
1988.000000	65.573251
1987.000000	65.647350
1986.000000	65.725028
1985.000000	65.805770
1984.000000	65.887626
1983.000000	65.966650
1982.000000	66.040174
1981.000000	66.108681
1980.000000	66.174168
1979.000000	66.238345
1978.000000	66.302919
1977.000000	66.370261
1976.000000	66.442276
1975.000000	66.518446
1974.000000	66.596156
1973.000000	66.672797
1972.000000	66.746849
1971.000000	66.817128
1970.000000	66.881783
1969.000000	66.938552
1968.000000	66.985501
1967.000000	67.022351
1966.000000	67.051830
1965.000000	67.077822
1964.000000	67.101559
1963.000000	67.119914
1962.000000	67.127901
1961.000000	67.123285
1960.000000	67.108043
1959.000000	67.086591
1958.000000	67.064047
1957.000000	67.045461
1956.000000	67.034831
1955.000000	67.033679
1954.000000	67.041281
1953.000000	67.056405
1952.000000	67.077836
1951.000000	67.103974
1950.000000	67.133391
1949.000000	67.165047
1948.000000	67.197975
1947.000000	67.231880
1946.000000	67.266923
1945.000000	67.301067
1944.000000	67.327893
1943.000000	67.340316
1942.000000	67.338706
1941.000000	67.331995
1940.000000	67.329249
1939.000000	67.333550
1938.000000	67.343179
1937.000000	67.355337
1936.000000	67.368006
1935.000000	67.378986
1934.000000	67.385503
1933.000000	67.385319
1932.000000	67.376934
1931.000000	67.360898
1930.000000	67.341250
1929.000000	67.323760
1928.000000	67.313405
1927.000000	67.314459
1926.000000	67.330202
1925.000000	67.358747
1924.000000	67.390709
1923.000000	67.416638
1922.000000	67.436475
1921.000000	67.455259
1920.000000	67.472881
1919.000000	67.483501
1918.000000	67.484206
1917.000000	67.480095
1916.000000	67.477402
1915.000000	67.478461
1914.000000	67.483765
1913.000000	67.491318
1912.000000	67.495294
1911.000000	67.490317
1910.000000	67.476879
1909.000000	67.459771
1908.000000	67.443204
1907.000000	67.431023
1906.000000	67.429216
1905.000000	67.441934
1904.000000	67.466692
1903.000000	67.499470
1902.000000	67.541278
1901.000000	67.593757
1900.000000	67.653182
1899.000000	67.714116
1898.000000	67.775027
1897.000000	67.835308
1896.000000	67.890360
1895.000000	67.937189
1894.000000	67.981826
1893.000000	68.032577
1892.000000	68.088903
1891.000000	68.142658
1890.000000	68.187841
1889.000000	68.225718
1888.000000	68.260116
1887.000000	68.293380
1886.000000	68.327739
1885.000000	68.363336
1884.000000	68.396860
1883.000000	68.427592
1882.000000	68.461050
1881.000000	68.502194
1880.000000	68.549301
1879.000000	68.598036
1878.000000	68.647783
1877.000000	68.699551
1876.000000	68.750248
1875.000000	68.795770
1874.000000	68.838152
1873.000000	68.883136
1872.000000	68.931736
1871.000000	68.979215
1870.000000	69.020643
1869.000000	69.055337
1868.000000	69.086443
1867.000000	69.118806
1866.000000	69.158613
1865.000000	69.208449
1864.000000	69.262683
1863.000000	69.313526
1862.000000	69.360098
1861.000000	69.406754
1860.000000	69.454533
1859.000000	69.501489
1858.000000	69.548858
1857.000000	69.598747
1856.000000	69.647865
1855.000000	69.691380
1854.000000	69.729530
1853.000000	69.765780
1852.000000	69.802765
1851.000000	69.842705
1850.000000	69.888449
1849.000000	69.940327
1848.000000	69.993985
1847.000000	70.044943
1846.000000	70.091672
1845.000000	70.131240
1844.000000	70.160519
1843.000000	70.183568
1842.000000	70.208632
1841.000000	70.242832
1840.000000	70.289294
1839.000000	70.343298
1838.000000	70.396196
1837.000000	70.442691
1836.000000	70.482641
1835.000000	70.518794
1834.000000	70.553924
1833.000000	70.589694
1832.000000	70.626715
1831.000000	70.661829
1830.000000	70.693412
1829.000000	70.729899
1828.000000	70.780477
1827.000000	70.842971
1826.000000	70.906851
1825.000000	70.961868
1824.000000	71.004941
1823.000000	71.039771
1822.000000	71.073258
1821.000000	71.112820
1820.000000	71.160459
1819.000000	71.210671
1818.000000	71.258579
1817.000000	71.305409
1816.000000	71.351946
1815.000000	71.392987
1814.000000	71.422632
1813.000000	71.439691
1812.000000	71.444658
1811.000000	71.437759
1810.000000	71.426290
1809.000000	71.422806
1808.000000	71.430599
1807.000000	71.443495
1806.000000	71.459207
1805.000000	71.480356
1804.000000	71.503521
1803.000000	71.517244
1802.000000	71.514792
1801.000000	71.505082
1800.000000	71.503263
1799.000000	71.516425
1798.000000	71.545012
1797.000000	71.585654
1796.000000	71.629564
1795.000000	71.668032
1794.000000	71.697358
1793.000000	71.717093
1792.000000	71.727202
1791.000000	71.730061
1790.000000	71.734760
1789.000000	71.752701
1788.000000	71.786252
1787.000000	71.825691
1786.000000	71.859917
1785.000000	71.885671
1784.000000	71.905416
1783.000000	71.919986
1782.000000	71.927812
1781.000000	71.930311
1780.000000	71.933428
1779.000000	71.944909
1778.000000	71.969836
1777.000000	72.008181
1776.000000	72.055439
1775.000000	72.106517
1774.000000	72.156659
1773.000000	72.203917
1772.000000	72.254647
1771.000000	72.311666
1770.000000	72.367915
1769.000000	72.423054
1768.000000	72.484079
1767.000000	72.549585
1766.000000	72.611649
1765.000000	72.668832
1764.000000	72.725237
1763.000000	72.774941
1762.000000	72.804786
1761.000000	72.819204
1760.000000	72.835580
1759.000000	72.860904
1758.000000	72.890188
1757.000000	72.917515
1756.000000	72.947558
1755.000000	72.984776
1754.000000	73.023773
1753.000000	73.062535
1752.000000	73.105384
1751.000000	73.153310
1750.000000	73.199441
1749.000000	73.239073
1748.000000	73.281784
1747.000000	73.338705
1746.000000	73.404036
1745.000000	73.464545
1744.000000	73.516028
1743.000000	73.559633
1742.000000	73.594869
1741.000000	73.624472
1740.000000	73.657497
1739.000000	73.698548
1738.000000	73.738005
1737.000000	73.768104
1736.000000	73.792822
1735.000000	73.809556
1734.000000	73.814757
1733.000000	73.821637
1732.000000	73.832328
1731.000000	73.840842
1730.000000	73.851188
1729.000000	73.862277
1728.000000	73.874098
1727.000000	73.888169
1726.000000	73.903883
1725.000000	73.917186
1724.000000	73.926436
1723.000000	73.936828
1722.000000	73.955370
1721.000000	73.982760
1720.000000	74.014309
1719.000000	74.038503
1718.000000	74.047185
1717.000000	74.056245
1716.000000	74.074165
1715.000000	74.090278
1714.000000	74.110793
1713.000000	74.145917
1712.000000	74.190013
1711.000000	74.235352
1710.000000	74.283425
1709.000000	74.336394
1708.000000	74.389315
1707.000000	74.436252
1706.000000	74.480286
1705.000000	74.529459
1704.000000	74.577338
1703.000000	74.617129
1702.000000	74.660924
1701.000000	74.722684
1700.000000	74.797142
1699.000000	74.858675
1698.000000	74.895012
1697.000000	74.934061
1696.000000	75.003208
1695.000000	75.091308
1694.000000	75.168297
1693.000000	75.220307
1692.000000	75.264151
1691.000000	75.315681
1690.000000	75.369514
1689.000000	75.409337
1688.000000	75.430681
1687.000000	75.446225
1686.000000	75.468333
1685.000000	75.483043
1684.000000	75.483116
1683.000000	75.495853
1682.000000	75.514505
1681.000000	75.515495
1680.000000	75.509335
1679.000000	75.508801
1678.000000	75.512769
1677.000000	75.504681
1676.000000	75.478444
1675.000000	75.450793
1674.000000	75.432620
1673.000000	75.407249
1672.000000	75.368466
1671.000000	75.332530
1670.000000	75.306748
1669.000000	75.280152
1668.000000	75.247970
1667.000000	75.221558
1666.000000	75.205103
1665.000000	75.186487
1664.000000	75.153374
1663.000000	75.112343
1662.000000	75.073796
1661.000000	75.021593
1660.000000	74.939912
1659.000000	74.844944
1658.000000	74.753361
1657.000000	74.652302
1656.000000	74.516110
1655.000000	74.322037
1654.000000	74.002647
1653.000000	73.535089
1652.000000	73.054256
1651.000000	72.613247
1650.000000	72.123464
1649.000000	71.464034
1648.000000	70.439434
1647.000000	68.915102
1646.000000	66.976325
1645.000000	64.800334
1644.000000	62.404377
1643.000000	59.683306
1642.000000	56.565357
1641.000000	53.132309
1640.000000	49.665658
1639.000000	46.477994
1638.000000	43.715112
1637.000000	41.402583
1636.000000	39.707054
1635.000000	38.933514
1634.000000	39.094371
1633.000000	39.905577
1632.000000	41.124565
1631.000000	42.620002
1630.000000	44.321785
1629.000000	46.183636
1628.000000	48.140073
1627.000000	50.069355
1626.000000	51.890417
1625.000000	53.665486
1624.000000	55.498973
1623.000000	57.342177
1622.000000	59.004023
1621.000000	60.387784
1620.000000	61.564924
1619.000000	62.646705
1618.000000	63.703860
1617.000000	64.758481
1616.000000	65.755748
1615.000000	66.588617
1614.000000	67.228415
1613.000000	67.754556
1612.000000	68.244971
1611.000000	68.692001
1610.000000	69.032388
1609.000000	69.243104
1608.000000	69.339506
1607.000000	69.300758
1606.000000	69.070464
1605.000000	68.613281
1604.000000	67.921602
1603.000000	66.971811
1602.000000	65.750461
1601.000000	64.328588
1600.000000	62.852776
1599.000000	61.466427
1598.000000	60.258595
1597.000000	59.275888
1596.000000	58.531469
1595.000000	57.980768
1594.000000	57.523384
1593.000000	57.067695
1592.000000	56.577432
1591.000000	56.040447
1590.000000	55.437166
1589.000000	54.761368
1588.000000	54.032483
1587.000000	53.253809
1586.000000	52.391975
1585.000000	51.424557
1584.000000	50.377324
1583.000000	49.283090
1582.000000	48.140734
1581.000000	46.955145
1580.000000	45.764804
1579.000000	44.554150
1578.000000	43.157578
1577.000000	41.335589
1576.000000	39.136084
1575.000000	37.020386
1574.000000	35.313072
1573.000000	33.920359
1572.000000	32.646310
1571.000000	31.399822
1570.000000	30.216832
1569.000000	29.224194
1568.000000	28.544839
1567.000000	28.211535
1566.000000	28.152971
1565.000000	28.260353
1564.000000	28.492154
1563.000000	28.873700
1562.000000	29.428034
1561.000000	30.160887
1560.000000	31.161926
1559.000000	32.512029
1558.000000	33.938022
1557.000000	35.096187
1556.000000	36.020460
1555.000000	36.885455
1554.000000	37.723161
1553.000000	38.459817
1552.000000	39.069797
1551.000000	39.636492
1550.000000	40.242328
1549.000000	40.901479
1548.000000	41.611548
1547.000000	42.415643
1546.000000	43.353229
1545.000000	44.383162
1544.000000	45.416590
1543.000000	46.420655
1542.000000	47.432067
1541.000000	48.478366
1540.000000	49.533500
1539.000000	50.533555
1538.000000	51.409412
1537.000000	52.149913
1536.000000	52.830304
1535.000000	53.551939
1534.000000	54.353034
1533.000000	55.161988
1532.000000	55.898755
1531.000000	56.574252
1530.000000	57.233906
1529.000000	57.882205
1528.000000	58.501504
1527.000000	59.091611
1526.000000	59.648336
1525.000000	60.147624
1524.000000	60.591127
1523.000000	61.024156
1522.000000	61.470245
1521.000000	61.891632
1520.000000	62.260554
1519.000000	62.604886
1518.000000	62.951300
1517.000000	63.284881
1516.000000	63.589686
1515.000000	63.884288
1514.000000	64.184225
1513.000000	64.483636
1512.000000	64.779340
1511.000000	65.079080
1510.000000	65.379303
1509.000000	65.660999
1508.000000	65.911816
1507.000000	66.150681
1506.000000	66.421043
1505.000000	66.706386
1504.000000	66.965744
1503.000000	67.218809
1502.000000	67.480043
1501.000000	67.732413
1500.000000	67.965883
1499.000000	68.195558
1498.000000	68.424302
1497.000000	68.633988
1496.000000	68.830416
1495.000000	69.037827
1494.000000	69.248678
1493.000000	69.439445
1492.000000	69.616582
1491.000000	69.803063
1490.000000	69.988929
1489.000000	70.145540
1488.000000	70.280382
1487.000000	70.419199
1486.000000	70.545383
1485.000000	70.606796
1484.000000	70.582312
1483.000000	70.476362
1482.000000	70.260008
1481.000000	69.891089
1480.000000	69.370995
1479.000000	68.688448
1478.000000	67.729106
1477.000000	66.359431
1476.000000	64.590124
1475.000000	62.526763
1474.000000	60.179631
1473.000000	57.580366
1472.000000	55.084997
1471.000000	53.138133
1470.000000	51.823617
1469.000000	50.988959
1468.000000	50.548585
1467.000000	50.532938
1466.000000	51.014130
1465.000000	51.983246
1464.000000	53.245929
1463.000000	54.493619
1462.000000	55.498550
1461.000000	56.172485
1460.000000	56.479001
1459.000000	56.354802
1458.000000	55.691091
1457.000000	54.570945
1456.000000	53.454491
1455.000000	52.705207
1454.000000	52.278587
1453.000000	52.019623
1452.000000	51.848421
1451.000000	51.748081
1450.000000	51.727434
1449.000000	51.809749
1448.000000	52.013040
1447.000000	52.313697
1446.000000	52.666108
1445.000000	53.059994
1444.000000	53.526122
1443.000000	54.099379
1442.000000	54.805067
1441.000000	55.661496
1440.000000	56.677874
1439.000000	57.865918
1438.000000	59.249429
1437.000000	60.782037
1436.000000	62.246909
1435.000000	63.419765
1434.000000	64.299264
1433.000000	65.016000
1432.000000	65.647926
1431.000000	66.201144
1430.000000	66.677722
1429.000000	67.102980
1428.000000	67.490126
1427.000000	67.837465
1426.000000	68.153127
1425.000000	68.445191
1424.000000	68.706336
1423.000000	68.930903
1422.000000	69.137457
1421.000000	69.349821
1420.000000	69.563591
1419.000000	69.756296
1418.000000	69.933128
1417.000000	70.120826
1416.000000	70.323013
1415.000000	70.525738
1414.000000	70.720754
1413.000000	70.906346
1412.000000	71.076960
1411.000000	71.229767
1410.000000	71.378463
1409.000000	71.543660
1408.000000	71.728499
1407.000000	71.921389
1406.000000	72.114756
1405.000000	72.301482
1404.000000	72.462795
1403.000000	72.575373
1402.000000	72.618235
1401.000000	72.551366
1400.000000	72.313275
1399.000000	71.903531
1398.000000	71.451280
1397.000000	71.134816
1396.000000	71.060679
1395.000000	71.221797
1394.000000	71.508034
1393.000000	71.789714
1392.000000	72.021412
1391.000000	72.249595
1390.000000	72.547503
1389.000000	72.955342
1388.000000	73.455420
1387.000000	73.984443
1386.000000	74.475946
1385.000000	74.892327
1384.000000	75.222606
1383.000000	75.471805
1382.000000	75.661172
1381.000000	75.817367
1380.000000	75.950705
1379.000000	76.052217
1378.000000	76.102757
1377.000000	76.054064
1376.000000	75.771471
1375.000000	74.994476
1374.000000	73.382104
1373.000000	70.675989
1372.000000	66.883925
1371.000000	62.387973
1370.000000	57.973041
1369.000000	54.669147
1368.000000	53.266501
1367.000000	53.787526
1366.000000	55.515901
1365.000000	57.500224
1364.000000	58.935310
1363.000000	59.324303
1362.000000	58.646046
1361.000000	57.433950
1360.000000	56.522720
1359.000000	56.617005
1358.000000	57.969511
1357.000000	60.293347
1356.000000	62.983464
1355.000000	65.485916
1354.000000	67.528704
1353.000000	69.102500
1352.000000	70.304675
1351.000000	71.233924
1350.000000	71.971091
1349.000000	72.575440
1348.000000	73.083645
1347.000000	73.525100
1346.000000	73.930385
1345.000000	74.315963
1344.000000	74.677600
1343.000000	75.005823
1342.000000	75.301433
1341.000000	75.565642
1340.000000	75.790738
1339.000000	75.978854
1338.000000	76.153817
1337.000000	76.339801
1336.000000	76.537544
1335.000000	76.726805
1334.000000	76.875247
1333.000000	76.922417
1332.000000	76.767379
1331.000000	76.293217
1330.000000	75.415986
1329.000000	74.118246
1328.000000	72.421460
1327.000000	70.335427
1326.000000	67.862368
1325.000000	65.105254
1324.000000	62.413385
1323.000000	60.335877
1322.000000	59.300217
1321.000000	59.306932
1320.000000	59.967195
1319.000000	60.824965
1318.000000	61.639664
1317.000000	62.393348
1316.000000	63.129906
1315.000000	63.866279
1314.000000	64.615203
1313.000000	65.425527
1312.000000	66.363648
1311.000000	67.455461
1310.000000	68.647116
1309.000000	69.815359
1308.000000	70.818910
1307.000000	71.559097
1306.000000	72.005826
1305.000000	72.160698
1304.000000	72.015059
1303.000000	71.542582
1302.000000	70.718409
1301.000000	69.558871
1300.000000	68.171456
1299.000000	66.782936
1298.000000	65.672852
1297.000000	65.026142
1296.000000	64.829104
1295.000000	64.887784
1294.000000	64.930984
1293.000000	64.709318
1292.000000	64.053425
1291.000000	62.893197
1290.000000	61.231405
1289.000000	59.119652
1288.000000	56.704685
1287.000000	54.305925
1286.000000	52.372748
1285.000000	51.285337
1284.000000	51.166599
1283.000000	51.872630
1282.000000	53.158531
1281.000000	54.831345
1280.000000	56.751881
1279.000000	58.726822
1278.000000	60.466223
1277.000000	61.692226
1276.000000	62.279454
1275.000000	62.295054
1274.000000	61.942188
1273.000000	61.490302
1272.000000	61.227355
1271.000000	61.402535
1270.000000	62.138198
1269.000000	63.372442
1268.000000	64.899321
1267.000000	66.483460
1266.000000	67.957952
1265.000000	69.251018
1264.000000	70.356834
1263.000000	71.296718
1262.000000	72.096443
1261.000000	72.775915
1260.000000	73.346428
1259.000000	73.819148
1258.000000	74.218288
1257.000000	74.571795
1256.000000	74.897499
1255.000000	75.205334
1254.000000	75.503529
1253.000000	75.796032
1252.000000	76.075103
1251.000000	76.329328
1250.000000	76.556821
1249.000000	76.762632
1248.000000	76.950285
1247.000000	77.124336
1246.000000	77.296210
1245.000000	77.476564
1244.000000	77.663305
1243.000000	77.845942
1242.000000	78.016622
1241.000000	78.168739
1240.000000	78.291370
1239.000000	78.376017
1238.000000	78.427253
1237.000000	78.456057
1236.000000	78.466796
1235.000000	78.460028
1234.000000	78.439881
1233.000000	78.409205
1232.000000	78.360576
1231.000000	78.281778
1230.000000	78.167812
1229.000000	78.015522
1228.000000	77.814152
1227.000000	77.548282
1226.000000	77.202265
1225.000000	76.755524
1224.000000	76.168622
1223.000000	75.390909
1222.000000	74.375021
1221.000000	73.076893
1220.000000	71.468670
1219.000000	69.556134
1218.000000	67.391656
1217.000000	65.065394
1216.000000	62.690706
1215.000000	60.403132
1214.000000	58.356107
1213.000000	56.701262
1212.000000	55.561318
1211.000000	55.002405
1210.000000	54.989440
1209.000000	55.384551
1208.000000	55.991475
1207.000000	56.607083
1206.000000	57.064967
1205.000000	57.250742
1204.000000	57.104646
1203.000000	56.620288
1202.000000	55.846004
1201.000000	54.891811
1200.000000	53.934055
1199.000000	53.190586
1198.000000	52.853839
1197.000000	53.019084
1196.000000	53.670744
1195.000000	54.712515
1194.000000	56.017948
1193.000000	57.475833
1192.000000	59.003093
1191.000000	60.546487
1190.000000	62.069364
1189.000000	63.542311
1188.000000	64.940729
1187.000000	66.244471
1186.000000	67.439558
1185.000000	68.520555
1184.000000	69.489511
1183.000000	70.350460
1182.000000	71.110772
1181.000000	71.774814
1180.000000	72.342706
1179.000000	72.818829
1178.000000	73.213387
1177.000000	73.538422
1176.000000	73.795395
1175.000000	73.976372
1174.000000	74.072392
1173.000000	74.063405
1172.000000	73.913525
1171.000000	73.570826
1170.000000	72.975960
1169.000000	72.073281
1168.000000	70.819818
1167.000000	69.224345
1166.000000	67.383016
1165.000000	65.483960
1164.000000	63.775716
1163.000000	62.508952
1162.000000	61.855390
1161.000000	61.854370
1160.000000	62.419573
1159.000000	63.379003
1158.000000	64.542252
1157.000000	65.743136
1156.000000	66.861096
1155.000000	67.827350
1154.000000	68.614322
1153.000000	69.218994
1152.000000	69.644955
1151.000000	69.894067
1150.000000	69.960520
1149.000000	69.834240
1148.000000	69.489593
1147.000000	68.889393
1146.000000	67.992199
1145.000000	66.737504
1144.000000	65.054746
1143.000000	62.874974
1142.000000	60.170737
1141.000000	57.006885
1140.000000	53.564390
1139.000000	50.120599
1138.000000	46.946383
1137.000000	44.186384
1136.000000	41.813887
1135.000000	39.698680
1134.000000	37.728870
1133.000000	35.951110
1132.000000	34.632028
1131.000000	34.155642
1130.000000	34.844853
1129.000000	36.771550
1128.000000	39.707586
1127.000000	43.195056
1126.000000	46.669521
1125.000000	49.599506
1124.000000	51.575645
1123.000000	52.346659
1122.000000	51.832025
1121.000000	50.128940
1120.000000	47.447336
1119.000000	44.071961
1118.000000	40.381943
1117.000000	36.904081
1116.000000	34.293048
1115.000000	33.142618
1114.000000	33.708954
1113.000000	35.773636
1112.000000	38.740561
1111.000000	41.827792
1110.000000	44.331046
1109.000000	45.887473
1108.000000	46.618455
1107.000000	47.020566
1106.000000	47.627450
1105.000000	48.691552
1104.000000	50.096285
1103.000000	51.474732
1102.000000	52.361948
1101.000000	52.357227
1100.000000	51.294011
1099.000000	49.402865
1098.000000	47.331376
1097.000000	45.917026
1096.000000	45.802879
1095.000000	47.139890
1094.000000	49.563619
1093.000000	52.449404
1092.000000	55.255630
1091.000000	57.692851
1090.000000	59.703048
1089.000000	61.348514
1088.000000	62.716724
1087.000000	63.883068
1086.000000	64.906611
1085.000000	65.826642
1084.000000	66.659911
1083.000000	67.417982
1082.000000	68.111969
1081.000000	68.750595
1080.000000	69.334360
1079.000000	69.854070
1078.000000	70.299479
1077.000000	70.648360
1076.000000	70.860562
1075.000000	70.885983
1074.000000	70.661863
1073.000000	70.114723
1072.000000	69.129567
1071.000000	67.544226
1070.000000	65.161975
1069.000000	61.747838
1068.000000	57.122197
1067.000000	51.310294
1066.000000	44.711832
1065.000000	38.138055
1064.000000	32.601382
1063.000000	28.877910
1062.000000	27.068093
1061.000000	26.496241
1060.000000	26.093436
1059.000000	25.065397
1058.000000	23.342196
1057.000000	21.588241
1056.000000	20.762892
1055.000000	21.505150
1054.000000	23.825124
1053.000000	27.209220
1052.000000	30.994489
1051.000000	34.679140
1050.000000	37.998665
1049.000000	40.890929
1048.000000	43.412630
1047.000000	45.657406
1046.000000	47.688472
1045.000000	49.527076
1044.000000	51.170837
1043.000000	52.622412
1042.000000	53.896360
1041.000000	55.007871
1040.000000	55.978587
1039.000000	56.831566
1038.000000	57.586076
1037.000000	58.253676
1036.000000	58.837429
1035.000000	59.342547
1034.000000	59.774509
1033.000000	60.137199
1032.000000	60.437254
1031.000000	60.686505
1030.000000	60.902201
1029.000000	61.098880
1028.000000	61.284594
1027.000000	61.462416
1026.000000	61.626295
1025.000000	61.759464
1024.000000	61.836897
1023.000000	61.833366
1022.000000	61.731129
1021.000000	61.513782
1020.000000	61.166083
1019.000000	60.670790
1018.000000	60.000241
1017.000000	59.114795
1016.000000	57.962302
1015.000000	56.508718
1014.000000	54.776655
1013.000000	52.878044
1012.000000	51.018645
1011.000000	49.437441
1010.000000	48.286826
1009.000000	47.527531
1008.000000	46.946791
1007.000000	46.316661
1006.000000	45.612722
1005.000000	45.100837
1004.000000	45.196553
1003.000000	46.179815
1002.000000	47.974744
1001.000000	50.197678
1000.000000	52.377042
999.000000	54.152421
998.000000	55.342921
997.000000	55.917684
996.000000	55.957935
995.000000	55.640198
994.000000	55.219719
993.000000	54.980296
992.000000	55.156835
991.000000	55.848057
990.000000	56.974194
989.000000	58.328975
988.000000	59.699730
987.000000	60.952214
986.000000	62.043030
985.000000	62.982691
984.000000	63.797828
983.000000	64.513366
982.000000	65.147081
981.000000	65.707013
980.000000	66.196506
979.000000	66.626686
978.000000	67.014096
977.000000	67.373904
976.000000	67.716004
975.000000	68.046871
974.000000	68.370845
973.000000	68.684391
972.000000	68.977969
971.000000	69.244943
970.000000	69.486136
969.000000	69.706904
968.000000	69.914097
967.000000	70.118365
966.000000	70.332164
965.000000	70.560302
964.000000	70.796164
963.000000	71.027817
962.000000	71.244932
961.000000	71.439268
960.000000	71.605376
959.000000	71.747070
958.000000	71.879050
957.000000	72.018186
956.000000	72.174765
955.000000	72.352472
954.000000	72.550276
953.000000	72.759156
952.000000	72.962099
951.000000	73.143725
950.000000	73.298948
949.000000	73.431403
948.000000	73.549373
947.000000	73.666803
946.000000	73.801188
945.000000	73.962048
944.000000	74.143361
943.000000	74.329931
942.000000	74.507895
941.000000	74.666737
940.000000	74.798470
939.000000	74.903946
938.000000	74.997198
937.000000	75.096701
936.000000	75.213640
935.000000	75.350805
934.000000	75.505969
933.000000	75.669134
932.000000	75.821525
931.000000	75.947027
930.000000	76.044074
929.000000	76.123198
928.000000	76.197536
927.000000	76.280898
926.000000	76.387922
925.000000	76.524668
924.000000	76.679692
923.000000	76.830913
922.000000	76.960400
921.000000	77.059243
920.000000	77.125388
919.000000	77.167645
918.000000	77.208998
917.000000	77.275248
916.000000	77.379065
915.000000	77.517508
914.000000	77.678227
913.000000	77.840449
912.000000	77.974184
911.000000	78.052843
910.000000	78.065816
909.000000	78.010408
908.000000	77.874880
907.000000	77.630480
906.000000	77.239781
905.000000	76.655542
904.000000	75.828323
903.000000	74.758388
902.000000	73.566200
901.000000	72.504455
900.000000	71.865515
899.000000	71.830007
898.000000	72.365761
897.000000	73.270368
896.000000	74.299244
895.000000	75.278656
894.000000	76.137167
893.000000	76.859672
892.000000	77.444640
891.000000	77.893162
890.000000	78.218082
889.000000	78.440625
888.000000	78.584655
887.000000	78.668543
886.000000	78.693123
885.000000	78.625122
884.000000	78.405071
883.000000	78.007273
882.000000	77.485462
881.000000	76.940848
880.000000	76.428679
879.000000	75.909979
878.000000	75.320345
877.000000	74.690655
876.000000	74.195483
875.000000	74.057621
874.000000	74.392293
873.000000	75.121186
872.000000	76.028712
871.000000	76.895981
870.000000	77.597773
869.000000	78.111708
868.000000	78.471407
867.000000	78.730179
866.000000	78.942472
865.000000	79.149503
864.000000	79.366277
863.000000	79.587092
862.000000	79.798240
861.000000	79.982690
860.000000	80.123069
859.000000	80.211407
858.000000	80.259420
857.000000	80.292321
856.000000	80.333680
855.000000	80.400129
854.000000	80.501376
853.000000	80.634347
852.000000	80.778640
851.000000	80.906828
850.000000	81.000719
849.000000	81.055175
848.000000	81.074343
847.000000	81.073793
846.000000	81.081675
845.000000	81.125771
844.000000	81.217092
843.000000	81.347726
842.000000	81.498783
841.000000	81.644011
840.000000	81.753845
839.000000	81.809913
838.000000	81.818291
837.000000	81.803290
836.000000	81.791617
835.000000	81.807073
834.000000	81.870274
833.000000	81.988268
832.000000	82.144243
831.000000	82.306113
830.000000	82.445605
829.000000	82.545618
828.000000	82.598094
827.000000	82.609072
826.000000	82.605219
825.000000	82.622834
824.000000	82.687493
823.000000	82.806880
822.000000	82.974831
821.000000	83.169553
820.000000	83.352876
819.000000	83.486616
818.000000	83.553667
817.000000	83.559782
816.000000	83.521847
815.000000	83.464342
814.000000	83.418519
813.000000	83.406518
812.000000	83.423798
811.000000	83.440775
810.000000	83.418678
809.000000	83.317770
808.000000	83.096531
807.000000	82.723981
806.000000	82.190747
805.000000	81.499992
804.000000	80.649099
803.000000	79.617854
802.000000	78.374568
801.000000	76.873218
800.000000	75.058026
799.000000	72.892939
798.000000	70.386068
797.000000	67.599664
796.000000	64.638188
795.000000	61.638191
794.000000	58.751995
793.000000	56.126543
792.000000	53.888433
791.000000	52.137854
790.000000	50.944890
789.000000	50.333170
788.000000	50.278821
787.000000	50.708425
786.000000	51.513432
785.000000	52.573557
784.000000	53.767810
783.000000	54.985510
782.000000	56.126413
781.000000	57.103768
780.000000	57.845867
779.000000	58.307829
778.000000	58.485461
777.000000	58.413390
776.000000	58.142501
775.000000	57.718059
774.000000	57.186618
773.000000	56.618935
772.000000	56.129357
771.000000	55.863337
770.000000	55.957045
769.000000	56.483656
768.000000	57.423978
767.000000	58.679505
766.000000	60.119659
765.000000	61.631737
764.000000	63.138802
763.000000	64.599478
762.000000	65.998575
761.000000	67.332475
760.000000	68.591802
759.000000	69.758898
758.000000	70.821010
757.000000	71.776791
756.000000	72.631268
755.000000	73.393566
754.000000	74.083982
753.000000	74.729850
752.000000	75.349570
751.000000	75.946302
750.000000	76.514717
749.000000	77.045634
748.000000	77.523464
747.000000	77.933456
746.000000	78.276831
745.000000	78.570553
744.000000	78.832481
743.000000	79.074948
742.000000	79.310151
741.000000	79.547394
740.000000	79.780500
739.000000	79.989335
738.000000	80.156574
737.000000	80.274285
736.000000	80.336140
735.000000	80.336897
734.000000	80.283260
733.000000	80.193555
732.000000	80.084157
731.000000	79.965199
730.000000	79.847442
729.000000	79.739376
728.000000	79.633596
727.000000	79.506285
726.000000	79.333346
725.000000	79.096824
724.000000	78.771420
723.000000	78.313488
722.000000	77.663530
721.000000	76.756162
720.000000	75.536115
719.000000	73.990616
718.000000	72.184116
717.000000	70.267193
716.000000	68.449951
715.000000	66.951959
714.000000	65.952216
713.000000	65.545068
712.000000	65.713638
711.000000	66.344441
710.000000	67.285460
709.000000	68.400448
708.000000	69.583587
707.000000	70.757082
706.000000	71.879793
705.000000	72.948453
704.000000	73.971545
703.000000	74.950062
702.000000	75.883703
701.000000	76.773937
700.000000	77.609356
699.000000	78.363243
698.000000	79.016994
697.000000	79.574236
696.000000	80.046860
695.000000	80.447281
694.000000	80.800804
693.000000	81.143647
692.000000	81.495714
691.000000	81.848214
690.000000	82.185938
689.000000	82.502398
688.000000	82.784937
687.000000	83.011302
686.000000	83.177077
685.000000	83.306435
684.000000	83.423809
683.000000	83.535562
682.000000	83.649756
681.000000	83.784618
680.000000	83.939406
679.000000	84.086772
678.000000	84.205527
677.000000	84.290914
676.000000	84.347363
675.000000	84.375000
674.000000	84.394583
673.000000	84.489324
672.000000	84.819885
671.000000	85.539598
670.000000	86.611682
669.000000	87.620702
668.000000	87.925235
667.000000	87.297241
666.000000	86.236253
665.000000	85.386860
664.000000	84.954206
663.000000	84.832056
662.000000	84.855061
661.000000	84.923244
660.000000	84.998896
659.000000	85.068560
658.000000	85.124102
657.000000	85.151096
656.000000	85.140728
655.000000	85.102248
654.000000	85.057425
653.000000	85.018666
652.000000	84.992614
651.000000	84.990492
650.000000	85.012337
649.000000	85.033457
648.000000	85.022931
647.000000	84.968077
646.000000	84.871810
645.000000	84.740035
644.000000	84.585478
643.000000	84.434737
642.000000	84.315051
641.000000	84.234667
640.000000	84.186481
639.000000	84.160230
638.000000	84.136870
637.000000	84.082332
636.000000	83.965994
635.000000	83.784464
634.000000	83.558661
633.000000	83.314969
632.000000	83.079913
631.000000	82.882871
630.000000	82.741040
629.000000	82.640769
628.000000	82.546211
627.000000	82.421898
626.000000	82.239528
625.000000	81.976896
624.000000	81.630076
623.000000	81.226776
622.000000	80.813074
621.000000	80.424864
620.000000	80.076723
619.000000	79.763486
618.000000	79.455237
617.000000	79.098987
616.000000	78.648040
615.000000	78.086329
614.000000	77.415346
613.000000	76.636821
612.000000	75.765853
611.000000	74.844338
610.000000	73.908876
609.000000	72.951466
608.000000	71.934946
607.000000	70.827740
606.000000	69.600738
605.000000	68.215266
604.000000	66.652741
603.000000	64.945594
602.000000	63.140916
601.000000	61.259230
600.000000	59.322316
599.000000	57.385780
598.000000	55.491967
597.000000	53.624911
596.000000	51.766361
595.000000	49.953607
594.000000	48.232258
593.000000	46.595360
592.000000	45.039089
591.000000	43.619570
590.000000	42.384014
589.000000	41.299069
588.000000	40.304741
587.000000	39.379578
586.000000	38.486084
585.000000	37.525203
584.000000	36.426923
583.000000	35.236021
582.000000	34.050766
581.000000	32.945758
580.000000	32.011650
579.000000	31.397228
578.000000	31.209162
577.000000	31.433200
576.000000	31.995870
575.000000	32.813867
574.000000	33.750388
573.000000	34.617521
572.000000	35.311967
571.000000	35.905045
570.000000	36.562155
569.000000	37.412585
568.000000	38.508129
567.000000	39.821269
566.000000	41.223210
565.000000	42.534203
564.000000	43.650017
563.000000	44.585182
562.000000	45.389936
561.000000	46.086905
560.000000	46.708237
559.000000	47.319431
558.000000	47.960777
557.000000	48.612702
556.000000	49.250242
555.000000	49.888696
554.000000	50.540390
553.000000	51.181280
552.000000	51.795588
551.000000	52.408427
550.000000	53.041435
549.000000	53.677313
548.000000	54.300549
547.000000	54.929709
546.000000	55.577344
545.000000	56.216324
544.000000	56.818853
543.000000	57.391442
542.000000	57.945636
541.000000	58.467503
540.000000	58.946716
539.000000	59.404578
538.000000	59.865772
537.000000	60.328365
536.000000	60.782873
535.000000	61.237506
534.000000	61.695710
533.000000	62.135124
532.000000	62.525170
531.000000	62.848301
530.000000	63.092177
529.000000	63.239517
528.000000	63.279928
527.000000	63.224550
526.000000	63.079204
525.000000	62.820858
524.000000	62.427514
523.000000	61.916974
522.000000	61.346756
521.000000	60.776369
520.000000	60.235714
519.000000	59.691281
518.000000	58.995642
517.000000	57.915275
516.000000	56.269646
515.000000	54.079013
514.000000	51.572696
513.000000	49.089563
512.000000	46.984422
511.000000	45.559925
510.000000	44.970211
509.000000	45.183280
508.000000	46.080293
507.000000	47.512711
506.000000	49.281032
505.000000	51.173365
504.000000	53.061209
503.000000	54.909150
502.000000	56.668122
501.000000	58.251233
500.000000	59.619727
499.000000	60.818319
498.000000	61.899851
497.000000	62.880151
496.000000	63.769487
495.000000	64.598124
494.000000	65.396099
493.000000	66.161704
492.000000	66.876836
491.000000	67.535885
490.000000	68.142479
489.000000	68.706064
488.000000	69.244014
487.000000	69.778682
486.000000	70.318271
485.000000	70.845050
484.000000	71.333535
483.000000	71.769108
482.000000	72.145945
481.000000	72.460771
480.000000	72.721662
479.000000	72.954325
478.000000	73.176042
477.000000	73.377339
476.000000	73.532356
475.000000	73.595203
474.000000	73.473468
473.000000	73.027015
472.000000	72.162039
471.000000	70.955436
470.000000	69.631343
469.000000	68.446168
468.000000	67.620892
467.000000	67.254829
466.000000	67.193659
465.000000	67.058933
464.000000	66.486260
463.000000	65.366543
462.000000	63.954561
461.000000	62.743447
460.000000	62.231196
459.000000	62.739357
458.000000	64.240420
457.000000	66.277855
456.000000	68.286979
455.000000	70.015821
454.000000	71.467921
453.000000	72.654503
452.000000	73.538881
451.000000	74.127889
450.000000	74.458447
449.000000	74.512876
448.000000	74.218413
447.000000	73.530032
446.000000	72.500651
445.000000	71.278251
444.000000	70.103776
443.000000	69.286043
442.000000	69.052833
441.000000	69.390274
440.000000	70.111973
439.000000	71.019719
438.000000	71.952505
437.000000	72.781040
436.000000	73.425199
435.000000	73.879141
434.000000	74.179777
433.000000	74.357840
432.000000	74.433959
431.000000	74.447225
430.000000	74.446094
429.000000	74.443739
428.000000	74.419980
427.000000	74.356426
426.000000	74.241005
425.000000	74.048762
424.000000	73.770504
423.000000	73.465355
422.000000	73.212795
421.000000	73.025453
420.000000	72.871029
419.000000	72.769854
418.000000	72.774326
417.000000	72.836539
416.000000	72.874601
415.000000	72.877591
414.000000	72.863064
413.000000	72.827994
412.000000	72.780135
411.000000	72.770072
410.000000	72.848863
409.000000	72.998960
408.000000	73.174879
407.000000	73.377387
406.000000	73.617383
405.000000	73.854001
404.000000	74.044872
403.000000	74.214501
402.000000	74.407397
401.000000	74.616013
400.000000	74.801171
