PE IR       SUBTECH     SPECTRUM    ASCII       PEDS        4.00        
   -1
23ms146 trans.asc
24/09/23
16:09:00.00
24/09/23
16:09:00.00
Administrator
Sample 1185 By Administrator Date Monday, September 23 2024
400.000000
#HDR
-1
-1
#GR
cm-1
%T
1.0
0.0
4000.000000
-1.000000
3601
8
68.668864
10.504678
#DATA
4000.000000	35.384208
3999.000000	35.368477
3998.000000	35.352585
3997.000000	35.337244
3996.000000	35.323193
3995.000000	35.310333
3994.000000	35.297361
3993.000000	35.282647
3992.000000	35.265506
3991.000000	35.246338
3990.000000	35.225882
3989.000000	35.204625
3988.000000	35.182967
3987.000000	35.161818
3986.000000	35.142613
3985.000000	35.126695
3984.000000	35.114698
3983.000000	35.106647
3982.000000	35.102396
3981.000000	35.101619
3980.000000	35.103765
3979.000000	35.108407
3978.000000	35.115728
3977.000000	35.126569
3976.000000	35.141952
3975.000000	35.162407
3974.000000	35.187476
3973.000000	35.215916
3972.000000	35.246689
3971.000000	35.279716
3970.000000	35.315810
3969.000000	35.355877
3968.000000	35.399611
3967.000000	35.445130
3966.000000	35.489986
3965.000000	35.532621
3964.000000	35.572945
3963.000000	35.611764
3962.000000	35.649386
3961.000000	35.684983
3960.000000	35.717959
3959.000000	35.748790
3958.000000	35.778498
3957.000000	35.808072
3956.000000	35.837491
3955.000000	35.865965
3954.000000	35.892560
3953.000000	35.916705
3952.000000	35.938438
3951.000000	35.958123
3950.000000	35.977229
3949.000000	35.997843
3948.000000	36.019886
3947.000000	36.040350
3946.000000	36.057249
3945.000000	36.073471
3944.000000	36.094627
3943.000000	36.123596
3942.000000	36.156857
3941.000000	36.186836
3940.000000	36.210378
3939.000000	36.231569
3938.000000	36.255317
3937.000000	36.281703
3936.000000	36.305610
3935.000000	36.322500
3934.000000	36.332547
3933.000000	36.340155
3932.000000	36.350515
3931.000000	36.364812
3930.000000	36.380785
3929.000000	36.394973
3928.000000	36.405360
3927.000000	36.415109
3926.000000	36.429962
3925.000000	36.451785
3924.000000	36.475609
3923.000000	36.493884
3922.000000	36.504841
3921.000000	36.512407
3920.000000	36.520037
3919.000000	36.529242
3918.000000	36.541373
3917.000000	36.557794
3916.000000	36.577269
3915.000000	36.596871
3914.000000	36.616260
3913.000000	36.637161
3912.000000	36.661509
3911.000000	36.689766
3910.000000	36.718625
3909.000000	36.743964
3908.000000	36.762139
3907.000000	36.772934
3906.000000	36.779813
3905.000000	36.785740
3904.000000	36.789474
3903.000000	36.784428
3902.000000	36.767727
3901.000000	36.750903
3900.000000	36.751077
3899.000000	36.774573
3898.000000	36.812928
3897.000000	36.851880
3896.000000	36.884218
3895.000000	36.909634
3894.000000	36.928781
3893.000000	36.945352
3892.000000	36.968364
3891.000000	37.001885
3890.000000	37.029785
3889.000000	37.034495
3888.000000	37.019767
3887.000000	37.004184
3886.000000	37.008654
3885.000000	37.036055
3884.000000	37.061463
3883.000000	37.064446
3882.000000	37.055312
3881.000000	37.060788
3880.000000	37.093851
3879.000000	37.136029
3878.000000	37.158872
3877.000000	37.159404
3876.000000	37.158553
3875.000000	37.176502
3874.000000	37.209818
3873.000000	37.232774
3872.000000	37.228640
3871.000000	37.210834
3870.000000	37.208591
3869.000000	37.226703
3868.000000	37.238983
3867.000000	37.234527
3866.000000	37.228998
3865.000000	37.238841
3864.000000	37.269888
3863.000000	37.309853
3862.000000	37.340307
3861.000000	37.359574
3860.000000	37.378328
3859.000000	37.406981
3858.000000	37.445578
3857.000000	37.483559
3856.000000	37.500740
3855.000000	37.477886
3854.000000	37.438975
3853.000000	37.437520
3852.000000	37.455668
3851.000000	37.444383
3850.000000	37.419065
3849.000000	37.413218
3848.000000	37.435875
3847.000000	37.477713
3846.000000	37.522389
3845.000000	37.559867
3844.000000	37.591003
3843.000000	37.615405
3842.000000	37.627687
3841.000000	37.626299
3840.000000	37.613796
3839.000000	37.598923
3838.000000	37.592371
3837.000000	37.597211
3836.000000	37.605529
3835.000000	37.609685
3834.000000	37.614377
3833.000000	37.631048
3832.000000	37.664737
3831.000000	37.708867
3830.000000	37.748442
3829.000000	37.774721
3828.000000	37.797494
3827.000000	37.831563
3826.000000	37.874738
3825.000000	37.908418
3824.000000	37.916552
3823.000000	37.900944
3822.000000	37.886865
3821.000000	37.904401
3820.000000	37.935694
3819.000000	37.936059
3818.000000	37.905359
3817.000000	37.880743
3816.000000	37.895404
3815.000000	37.944743
3814.000000	37.991761
3813.000000	38.018423
3812.000000	38.038852
3811.000000	38.066889
3810.000000	38.098240
3809.000000	38.122431
3808.000000	38.142490
3807.000000	38.171419
3806.000000	38.203928
3805.000000	38.213161
3804.000000	38.191746
3803.000000	38.160676
3802.000000	38.150785
3801.000000	38.177592
3800.000000	38.209835
3799.000000	38.211250
3798.000000	38.193387
3797.000000	38.189625
3796.000000	38.214648
3795.000000	38.255253
3794.000000	38.291164
3793.000000	38.316735
3792.000000	38.339634
3791.000000	38.367540
3790.000000	38.399600
3789.000000	38.429389
3788.000000	38.452226
3787.000000	38.468531
3786.000000	38.483922
3785.000000	38.502615
3784.000000	38.520512
3783.000000	38.528659
3782.000000	38.524500
3781.000000	38.516809
3780.000000	38.519507
3779.000000	38.537253
3778.000000	38.558129
3777.000000	38.570791
3776.000000	38.579578
3775.000000	38.594094
3774.000000	38.613581
3773.000000	38.629487
3772.000000	38.637362
3771.000000	38.640899
3770.000000	38.646403
3769.000000	38.652057
3768.000000	38.647348
3767.000000	38.633148
3766.000000	38.625253
3765.000000	38.633971
3764.000000	38.650902
3763.000000	38.659550
3762.000000	38.657052
3761.000000	38.653291
3760.000000	38.658816
3759.000000	38.678238
3758.000000	38.703231
3757.000000	38.723004
3756.000000	38.736019
3755.000000	38.747612
3754.000000	38.760724
3753.000000	38.768058
3752.000000	38.763155
3751.000000	38.757591
3750.000000	38.764719
3749.000000	38.771506
3748.000000	38.756061
3747.000000	38.721282
3746.000000	38.683135
3745.000000	38.667682
3744.000000	38.708731
3743.000000	38.772829
3742.000000	38.799151
3741.000000	38.794932
3740.000000	38.792975
3739.000000	38.804584
3738.000000	38.820035
3737.000000	38.829157
3736.000000	38.834165
3735.000000	38.838058
3734.000000	38.839050
3733.000000	38.839210
3732.000000	38.848987
3731.000000	38.870805
3730.000000	38.892624
3729.000000	38.906503
3728.000000	38.916292
3727.000000	38.930396
3726.000000	38.951427
3725.000000	38.970920
3724.000000	38.980951
3723.000000	38.984037
3722.000000	38.991542
3721.000000	39.007991
3720.000000	39.027154
3719.000000	39.047474
3718.000000	39.071787
3717.000000	39.099564
3716.000000	39.125146
3715.000000	39.140579
3714.000000	39.139091
3713.000000	39.119811
3712.000000	39.094115
3711.000000	39.076148
3710.000000	39.064055
3709.000000	39.051787
3708.000000	39.043105
3707.000000	39.043080
3706.000000	39.050472
3705.000000	39.058272
3704.000000	39.062230
3703.000000	39.064711
3702.000000	39.072399
3701.000000	39.085151
3700.000000	39.091388
3699.000000	39.085345
3698.000000	39.076279
3697.000000	39.074016
3696.000000	39.078806
3695.000000	39.083800
3694.000000	39.082054
3693.000000	39.071439
3692.000000	39.051741
3691.000000	39.022116
3690.000000	38.983189
3689.000000	38.945732
3688.000000	38.919347
3687.000000	38.896989
3686.000000	38.871715
3685.000000	38.850061
3684.000000	38.839409
3683.000000	38.837920
3682.000000	38.839513
3681.000000	38.841804
3680.000000	38.842168
3679.000000	38.827974
3678.000000	38.785005
3677.000000	38.710171
3676.000000	38.634033
3675.000000	38.593069
3674.000000	38.560106
3673.000000	38.493729
3672.000000	38.405141
3671.000000	38.326860
3670.000000	38.285730
3669.000000	38.278349
3668.000000	38.264785
3667.000000	38.224057
3666.000000	38.173877
3665.000000	38.133058
3664.000000	38.101568
3663.000000	38.070758
3662.000000	38.034624
3661.000000	37.991863
3660.000000	37.938358
3659.000000	37.866362
3658.000000	37.775929
3657.000000	37.681263
3656.000000	37.599904
3655.000000	37.526408
3654.000000	37.442118
3653.000000	37.342983
3652.000000	37.232125
3651.000000	37.106964
3650.000000	36.969683
3649.000000	36.831676
3648.000000	36.700469
3647.000000	36.577749
3646.000000	36.466450
3645.000000	36.367847
3644.000000	36.279634
3643.000000	36.198388
3642.000000	36.118594
3641.000000	36.033420
3640.000000	35.936896
3639.000000	35.828398
3638.000000	35.710835
3637.000000	35.584806
3636.000000	35.451536
3635.000000	35.317792
3634.000000	35.192348
3633.000000	35.072286
3632.000000	34.940197
3631.000000	34.775008
3630.000000	34.574328
3629.000000	34.376716
3628.000000	34.216151
3627.000000	34.073074
3626.000000	33.927012
3625.000000	33.789055
3624.000000	33.669387
3623.000000	33.560558
3622.000000	33.444667
3621.000000	33.307164
3620.000000	33.149399
3619.000000	32.987622
3618.000000	32.830476
3617.000000	32.672254
3616.000000	32.510828
3615.000000	32.352201
3614.000000	32.202416
3613.000000	32.060492
3612.000000	31.915674
3611.000000	31.755876
3610.000000	31.580551
3609.000000	31.402828
3608.000000	31.238355
3607.000000	31.090156
3606.000000	30.949291
3605.000000	30.809609
3604.000000	30.670951
3603.000000	30.532920
3602.000000	30.393689
3601.000000	30.251303
3600.000000	30.105234
3599.000000	29.956664
3598.000000	29.805755
3597.000000	29.651758
3596.000000	29.496565
3595.000000	29.343753
3594.000000	29.196888
3593.000000	29.056761
3592.000000	28.919930
3591.000000	28.780309
3590.000000	28.630636
3589.000000	28.467473
3588.000000	28.298240
3587.000000	28.135343
3586.000000	27.982594
3585.000000	27.838021
3584.000000	27.702339
3583.000000	27.575815
3582.000000	27.455179
3581.000000	27.335619
3580.000000	27.214042
3579.000000	27.089175
3578.000000	26.961292
3577.000000	26.831730
3576.000000	26.702570
3575.000000	26.575322
3574.000000	26.450208
3573.000000	26.327933
3572.000000	26.208207
3571.000000	26.088047
3570.000000	25.962689
3569.000000	25.829705
3568.000000	25.693200
3567.000000	25.561525
3566.000000	25.437439
3565.000000	25.317544
3564.000000	25.200967
3563.000000	25.089864
3562.000000	24.985313
3561.000000	24.886504
3560.000000	24.791233
3559.000000	24.696627
3558.000000	24.600886
3557.000000	24.504028
3556.000000	24.405992
3555.000000	24.305588
3554.000000	24.202131
3553.000000	24.097924
3552.000000	23.996126
3551.000000	23.896189
3550.000000	23.794322
3549.000000	23.687503
3548.000000	23.575480
3547.000000	23.460750
3546.000000	23.348082
3545.000000	23.242316
3544.000000	23.145631
3543.000000	23.056848
3542.000000	22.973463
3541.000000	22.893099
3540.000000	22.812450
3539.000000	22.727763
3538.000000	22.637910
3537.000000	22.546645
3536.000000	22.459127
3535.000000	22.376431
3534.000000	22.295820
3533.000000	22.214756
3532.000000	22.132670
3531.000000	22.049291
3530.000000	21.964205
3529.000000	21.877581
3528.000000	21.789236
3527.000000	21.697567
3526.000000	21.601972
3525.000000	21.506026
3524.000000	21.415878
3523.000000	21.334968
3522.000000	21.261436
3521.000000	21.190874
3520.000000	21.119710
3519.000000	21.046028
3518.000000	20.969097
3517.000000	20.889129
3516.000000	20.807126
3515.000000	20.724578
3514.000000	20.643576
3513.000000	20.565934
3512.000000	20.491182
3511.000000	20.416415
3510.000000	20.339437
3509.000000	20.260771
3508.000000	20.181327
3507.000000	20.099706
3506.000000	20.013892
3505.000000	19.924725
3504.000000	19.836297
3503.000000	19.752914
3502.000000	19.676405
3501.000000	19.605644
3500.000000	19.537463
3499.000000	19.468716
3498.000000	19.398931
3497.000000	19.330481
3496.000000	19.265157
3495.000000	19.201842
3494.000000	19.138608
3493.000000	19.075365
3492.000000	19.012589
3491.000000	18.949035
3490.000000	18.883244
3489.000000	18.816208
3488.000000	18.750673
3487.000000	18.688567
3486.000000	18.630373
3485.000000	18.575675
3484.000000	18.522295
3483.000000	18.466469
3482.000000	18.406519
3481.000000	18.345621
3480.000000	18.289067
3479.000000	18.239226
3478.000000	18.194705
3477.000000	18.152871
3476.000000	18.111099
3475.000000	18.066808
3474.000000	18.018175
3473.000000	17.964718
3472.000000	17.906486
3471.000000	17.844044
3470.000000	17.780604
3469.000000	17.722358
3468.000000	17.674437
3467.000000	17.637102
3466.000000	17.606795
3465.000000	17.579320
3464.000000	17.550718
3463.000000	17.517583
3462.000000	17.479391
3461.000000	17.439515
3460.000000	17.401907
3459.000000	17.367476
3458.000000	17.334870
3457.000000	17.303191
3456.000000	17.271828
3455.000000	17.239371
3454.000000	17.205152
3453.000000	17.170509
3452.000000	17.136787
3451.000000	17.103139
3450.000000	17.068377
3449.000000	17.033608
3448.000000	17.000980
3447.000000	16.970979
3446.000000	16.942766
3445.000000	16.916183
3444.000000	16.891383
3443.000000	16.867346
3442.000000	16.842503
3441.000000	16.815714
3440.000000	16.785587
3439.000000	16.750803
3438.000000	16.712916
3437.000000	16.677272
3436.000000	16.648938
3435.000000	16.628610
3434.000000	16.613475
3433.000000	16.600029
3432.000000	16.585385
3431.000000	16.568253
3430.000000	16.550772
3429.000000	16.537301
3428.000000	16.529519
3427.000000	16.524626
3426.000000	16.519213
3425.000000	16.512463
3424.000000	16.504377
3423.000000	16.493991
3422.000000	16.481560
3421.000000	16.469888
3420.000000	16.461120
3419.000000	16.454109
3418.000000	16.446684
3417.000000	16.438082
3416.000000	16.427767
3415.000000	16.414905
3414.000000	16.401019
3413.000000	16.390345
3412.000000	16.385361
3411.000000	16.384367
3410.000000	16.385295
3409.000000	16.389023
3408.000000	16.396443
3407.000000	16.404946
3406.000000	16.410249
3405.000000	16.409874
3404.000000	16.403346
3403.000000	16.391928
3402.000000	16.380568
3401.000000	16.377154
3400.000000	16.386557
3399.000000	16.406326
3398.000000	16.429664
3397.000000	16.450647
3396.000000	16.465383
3395.000000	16.471813
3394.000000	16.471996
3393.000000	16.472942
3392.000000	16.482007
3391.000000	16.501702
3390.000000	16.529753
3389.000000	16.562140
3388.000000	16.594489
3387.000000	16.623200
3386.000000	16.647739
3385.000000	16.670455
3384.000000	16.692856
3383.000000	16.713952
3382.000000	16.733312
3381.000000	16.753048
3380.000000	16.775122
3379.000000	16.799047
3378.000000	16.824071
3377.000000	16.851259
3376.000000	16.881334
3375.000000	16.912319
3374.000000	16.941210
3373.000000	16.966631
3372.000000	16.988821
3371.000000	17.009373
3370.000000	17.032338
3369.000000	17.063198
3368.000000	17.104561
3367.000000	17.154063
3366.000000	17.207398
3365.000000	17.261200
3364.000000	17.312523
3363.000000	17.358920
3362.000000	17.401035
3361.000000	17.442852
3360.000000	17.487393
3359.000000	17.534003
3358.000000	17.581145
3357.000000	17.629070
3356.000000	17.677878
3355.000000	17.725498
3354.000000	17.769979
3353.000000	17.812398
3352.000000	17.856112
3351.000000	17.904597
3350.000000	17.960438
3349.000000	18.023891
3348.000000	18.090984
3347.000000	18.155327
3346.000000	18.213571
3345.000000	18.267554
3344.000000	18.320579
3343.000000	18.373819
3342.000000	18.427170
3341.000000	18.481011
3340.000000	18.535849
3339.000000	18.592333
3338.000000	18.652495
3337.000000	18.718491
3336.000000	18.789054
3335.000000	18.859647
3334.000000	18.927128
3333.000000	18.991955
3332.000000	19.055198
3331.000000	19.116122
3330.000000	19.173672
3329.000000	19.227578
3328.000000	19.276833
3327.000000	19.319985
3326.000000	19.357889
3325.000000	19.393353
3324.000000	19.427087
3323.000000	19.456460
3322.000000	19.479572
3321.000000	19.497845
3320.000000	19.513568
3319.000000	19.527933
3318.000000	19.542413
3317.000000	19.559015
3316.000000	19.577363
3315.000000	19.593681
3314.000000	19.603885
3313.000000	19.605053
3312.000000	19.593530
3311.000000	19.565014
3310.000000	19.518193
3309.000000	19.456288
3308.000000	19.383409
3307.000000	19.302419
3306.000000	19.217304
3305.000000	19.133827
3304.000000	19.056048
3303.000000	18.984378
3302.000000	18.918671
3301.000000	18.860554
3300.000000	18.811316
3299.000000	18.770290
3298.000000	18.737196
3297.000000	18.713210
3296.000000	18.697757
3295.000000	18.687051
3294.000000	18.677100
3293.000000	18.665772
3292.000000	18.650417
3291.000000	18.626158
3290.000000	18.588445
3289.000000	18.535389
3288.000000	18.465947
3287.000000	18.378559
3286.000000	18.273218
3285.000000	18.151486
3284.000000	18.013759
3283.000000	17.858135
3282.000000	17.683252
3281.000000	17.490465
3280.000000	17.281173
3279.000000	17.055884
3278.000000	16.817254
3277.000000	16.571258
3276.000000	16.324047
3275.000000	16.079246
3274.000000	15.840059
3273.000000	15.611677
3272.000000	15.400304
3271.000000	15.211805
3270.000000	15.053163
3269.000000	14.931939
3268.000000	14.852467
3267.000000	14.816055
3266.000000	14.823322
3265.000000	14.874481
3264.000000	14.964841
3263.000000	15.082275
3262.000000	15.211860
3261.000000	15.338413
3260.000000	15.444910
3259.000000	15.512992
3258.000000	15.528194
3257.000000	15.481818
3256.000000	15.368587
3255.000000	15.183913
3254.000000	14.925538
3253.000000	14.596504
3252.000000	14.201240
3251.000000	13.746306
3250.000000	13.244784
3249.000000	12.717988
3248.000000	12.192323
3247.000000	11.694403
3246.000000	11.250886
3245.000000	10.888762
3244.000000	10.633371
3243.000000	10.504678
3242.000000	10.518340
3241.000000	10.679682
3240.000000	10.974318
3239.000000	11.370180
3238.000000	11.825842
3237.000000	12.303132
3236.000000	12.771678
3235.000000	13.210743
3234.000000	13.612664
3233.000000	13.978108
3232.000000	14.307821
3231.000000	14.599621
3230.000000	14.853342
3229.000000	15.073186
3228.000000	15.264504
3227.000000	15.430910
3226.000000	15.576160
3225.000000	15.705820
3224.000000	15.823472
3223.000000	15.929670
3222.000000	16.024722
3221.000000	16.109891
3220.000000	16.185045
3219.000000	16.247269
3218.000000	16.294378
3217.000000	16.326386
3216.000000	16.343090
3215.000000	16.343699
3214.000000	16.329223
3213.000000	16.303303
3212.000000	16.269001
3211.000000	16.227753
3210.000000	16.182481
3209.000000	16.137695
3208.000000	16.096073
3207.000000	16.057753
3206.000000	16.023874
3205.000000	15.997483
3204.000000	15.979829
3203.000000	15.969126
3202.000000	15.964022
3201.000000	15.965173
3200.000000	15.972117
3199.000000	15.982373
3198.000000	15.994626
3197.000000	16.009731
3196.000000	16.027655
3195.000000	16.046438
3194.000000	16.065461
3193.000000	16.086117
3192.000000	16.108266
3191.000000	16.129549
3190.000000	16.149301
3189.000000	16.170140
3188.000000	16.194706
3187.000000	16.224031
3186.000000	16.260028
3185.000000	16.305583
3184.000000	16.360710
3183.000000	16.421620
3182.000000	16.484608
3181.000000	16.547997
3180.000000	16.609318
3179.000000	16.664409
3178.000000	16.710857
3177.000000	16.749401
3176.000000	16.781181
3175.000000	16.806976
3174.000000	16.830109
3173.000000	16.856697
3172.000000	16.891609
3171.000000	16.937379
3170.000000	16.997616
3169.000000	17.077868
3168.000000	17.181985
3167.000000	17.309847
3166.000000	17.460600
3165.000000	17.634304
3164.000000	17.830012
3163.000000	18.046190
3162.000000	18.282934
3161.000000	18.541797
3160.000000	18.821015
3159.000000	19.113878
3158.000000	19.412619
3157.000000	19.709878
3156.000000	19.997132
3155.000000	20.265434
3154.000000	20.509489
3153.000000	20.728187
3152.000000	20.921126
3151.000000	21.087060
3150.000000	21.226361
3149.000000	21.342015
3148.000000	21.435882
3147.000000	21.507939
3146.000000	21.558017
3145.000000	21.585397
3144.000000	21.586557
3143.000000	21.554629
3142.000000	21.484475
3141.000000	21.374736
3140.000000	21.225322
3139.000000	21.037342
3138.000000	20.814381
3137.000000	20.563122
3136.000000	20.290459
3135.000000	20.002937
3134.000000	19.710400
3133.000000	19.425694
3132.000000	19.160466
3131.000000	18.923207
3130.000000	18.721737
3129.000000	18.562892
3128.000000	18.448724
3127.000000	18.375295
3126.000000	18.336782
3125.000000	18.328643
3124.000000	18.345020
3123.000000	18.379324
3122.000000	18.427998
3121.000000	18.490941
3120.000000	18.567754
3119.000000	18.655375
3118.000000	18.751458
3117.000000	18.855375
3116.000000	18.964577
3115.000000	19.072945
3114.000000	19.173552
3113.000000	19.260411
3112.000000	19.326892
3111.000000	19.366763
3110.000000	19.377371
3109.000000	19.359904
3108.000000	19.314390
3107.000000	19.237524
3106.000000	19.127022
3105.000000	18.983882
3104.000000	18.811474
3103.000000	18.615152
3102.000000	18.404937
3101.000000	18.195411
3100.000000	18.000483
3099.000000	17.830517
3098.000000	17.694209
3097.000000	17.599624
3096.000000	17.550476
3095.000000	17.545649
3094.000000	17.582477
3093.000000	17.658391
3092.000000	17.769528
3091.000000	17.909789
3090.000000	18.074246
3089.000000	18.258647
3088.000000	18.455932
3087.000000	18.657625
3086.000000	18.858773
3085.000000	19.059319
3084.000000	19.258881
3083.000000	19.454143
3082.000000	19.642368
3081.000000	19.823829
3080.000000	19.999897
3079.000000	20.171720
3078.000000	20.341541
3077.000000	20.511736
3076.000000	20.681649
3075.000000	20.848143
3074.000000	21.010082
3073.000000	21.169270
3072.000000	21.326544
3071.000000	21.480570
3070.000000	21.631280
3069.000000	21.781353
3068.000000	21.933175
3067.000000	22.086916
3066.000000	22.242129
3065.000000	22.398180
3064.000000	22.552544
3063.000000	22.701822
3062.000000	22.844964
3061.000000	22.983090
3060.000000	23.116136
3059.000000	23.242843
3058.000000	23.364200
3057.000000	23.483287
3056.000000	23.601324
3055.000000	23.716707
3054.000000	23.828431
3053.000000	23.937641
3052.000000	24.045438
3051.000000	24.152214
3050.000000	24.259058
3049.000000	24.366590
3048.000000	24.472294
3047.000000	24.572013
3046.000000	24.664554
3045.000000	24.752035
3044.000000	24.835955
3043.000000	24.916369
3042.000000	24.994559
3041.000000	25.072834
3040.000000	25.150860
3039.000000	25.225419
3038.000000	25.294709
3037.000000	25.360122
3036.000000	25.423862
3035.000000	25.487745
3034.000000	25.554449
3033.000000	25.626597
3032.000000	25.703668
3031.000000	25.782520
3030.000000	25.861312
3029.000000	25.940440
3028.000000	26.019720
3027.000000	26.097828
3026.000000	26.174955
3025.000000	26.252966
3024.000000	26.332369
3023.000000	26.411678
3022.000000	26.490186
3021.000000	26.568706
3020.000000	26.647300
3019.000000	26.724948
3018.000000	26.801800
3017.000000	26.879255
3016.000000	26.957810
3015.000000	27.037377
3014.000000	27.119873
3013.000000	27.208752
3012.000000	27.305745
3011.000000	27.410351
3010.000000	27.522059
3009.000000	27.640396
3008.000000	27.762657
3007.000000	27.884268
3006.000000	28.001072
3005.000000	28.108974
3004.000000	28.201016
3003.000000	28.267340
3002.000000	28.298968
3001.000000	28.289685
3000.000000	28.235669
2999.000000	28.134578
2998.000000	27.986750
2997.000000	27.799557
2996.000000	27.595851
2995.000000	27.420133
2994.000000	27.327514
2993.000000	27.355451
2992.000000	27.499561
2991.000000	27.718976
2990.000000	27.963795
2989.000000	28.197876
2988.000000	28.403677
2987.000000	28.576970
2986.000000	28.721737
2985.000000	28.843781
2984.000000	28.945376
2983.000000	29.025447
2982.000000	29.084767
2981.000000	29.127360
2980.000000	29.156399
2979.000000	29.171140
2978.000000	29.169137
2977.000000	29.151554
2976.000000	29.128199
2975.000000	29.120644
2974.000000	29.156759
2973.000000	29.255985
2972.000000	29.416608
2971.000000	29.618406
2970.000000	29.836420
2969.000000	30.050905
2968.000000	30.248531
2967.000000	30.421552
2966.000000	30.567985
2965.000000	30.687633
2964.000000	30.776371
2963.000000	30.823497
2962.000000	30.814865
2961.000000	30.736059
2960.000000	30.574097
2959.000000	30.320277
2958.000000	29.972487
2957.000000	29.540775
2956.000000	29.058793
2955.000000	28.596738
2954.000000	28.250306
2953.000000	28.096428
2952.000000	28.145911
2951.000000	28.337639
2950.000000	28.580648
2949.000000	28.802685
2948.000000	28.974517
2947.000000	29.106321
2946.000000	29.230423
2945.000000	29.378641
2944.000000	29.564420
2943.000000	29.781160
2942.000000	30.013234
2941.000000	30.246934
2940.000000	30.473594
2939.000000	30.690162
2938.000000	30.899861
2937.000000	31.108713
2936.000000	31.319614
2935.000000	31.531172
2934.000000	31.741553
2933.000000	31.949635
2932.000000	32.152703
2931.000000	32.347565
2930.000000	32.534273
2929.000000	32.715175
2928.000000	32.889887
2927.000000	33.055034
2926.000000	33.209075
2925.000000	33.353225
2924.000000	33.487733
2923.000000	33.611028
2922.000000	33.722696
2921.000000	33.823401
2920.000000	33.911437
2919.000000	33.983205
2918.000000	34.036976
2917.000000	34.073143
2916.000000	34.091781
2915.000000	34.094065
2914.000000	34.086070
2913.000000	34.076860
2912.000000	34.072207
2911.000000	34.072922
2910.000000	34.078543
2909.000000	34.088895
2908.000000	34.102067
2907.000000	34.115077
2906.000000	34.127398
2905.000000	34.140971
2904.000000	34.156700
2903.000000	34.173829
2902.000000	34.192666
2901.000000	34.214335
2900.000000	34.237952
2899.000000	34.260606
2898.000000	34.280660
2897.000000	34.298152
2896.000000	34.312114
2895.000000	34.321109
2894.000000	34.326477
2893.000000	34.331979
2892.000000	34.340012
2891.000000	34.351034
2890.000000	34.366348
2889.000000	34.388144
2888.000000	34.416569
2887.000000	34.449993
2886.000000	34.488372
2885.000000	34.533369
2884.000000	34.585054
2883.000000	34.641489
2882.000000	34.701561
2881.000000	34.765145
2880.000000	34.830381
2879.000000	34.893526
2878.000000	34.951703
2877.000000	35.003031
2876.000000	35.044668
2875.000000	35.074518
2874.000000	35.095214
2873.000000	35.113055
2872.000000	35.132294
2871.000000	35.153371
2870.000000	35.177298
2869.000000	35.209266
2868.000000	35.257359
2867.000000	35.330067
2866.000000	35.434554
2865.000000	35.573062
2864.000000	35.739682
2863.000000	35.923026
2862.000000	36.112773
2861.000000	36.302373
2860.000000	36.487269
2859.000000	36.664308
2858.000000	36.833269
2857.000000	36.995769
2856.000000	37.151751
2855.000000	37.299515
2854.000000	37.438176
2853.000000	37.566729
2852.000000	37.680773
2851.000000	37.773264
2850.000000	37.839625
2849.000000	37.880663
2848.000000	37.901407
2847.000000	37.909765
2846.000000	37.915643
2845.000000	37.927401
2844.000000	37.947981
2843.000000	37.975726
2842.000000	38.008544
2841.000000	38.045672
2840.000000	38.086320
2839.000000	38.129794
2838.000000	38.176914
2837.000000	38.228724
2836.000000	38.283867
2835.000000	38.339471
2834.000000	38.394252
2833.000000	38.448512
2832.000000	38.501673
2831.000000	38.552510
2830.000000	38.601681
2829.000000	38.651398
2828.000000	38.702530
2827.000000	38.754305
2826.000000	38.806563
2825.000000	38.859822
2824.000000	38.913325
2823.000000	38.965430
2822.000000	39.015951
2821.000000	39.065877
2820.000000	39.115029
2819.000000	39.162335
2818.000000	39.208165
2817.000000	39.253949
2816.000000	39.299539
2815.000000	39.343230
2814.000000	39.384325
2813.000000	39.423536
2812.000000	39.461128
2811.000000	39.497035
2810.000000	39.532630
2809.000000	39.569947
2808.000000	39.609127
2807.000000	39.648678
2806.000000	39.688021
2805.000000	39.727607
2804.000000	39.766837
2803.000000	39.804355
2802.000000	39.840396
2801.000000	39.876692
2800.000000	39.914266
2799.000000	39.953338
2798.000000	39.995013
2797.000000	40.040592
2796.000000	40.089300
2795.000000	40.139048
2794.000000	40.189323
2793.000000	40.241220
2792.000000	40.294987
2791.000000	40.349853
2790.000000	40.406112
2789.000000	40.464875
2788.000000	40.525656
2787.000000	40.586471
2786.000000	40.646325
2785.000000	40.705553
2784.000000	40.763872
2783.000000	40.820317
2782.000000	40.875174
2781.000000	40.929869
2780.000000	40.984763
2779.000000	41.038802
2778.000000	41.091154
2777.000000	41.141374
2776.000000	41.188382
2775.000000	41.231314
2774.000000	41.271239
2773.000000	41.310203
2772.000000	41.348776
2771.000000	41.386418
2770.000000	41.423673
2769.000000	41.461748
2768.000000	41.500215
2767.000000	41.537161
2766.000000	41.571517
2765.000000	41.603346
2764.000000	41.632271
2763.000000	41.657895
2762.000000	41.681587
2761.000000	41.705753
2760.000000	41.731349
2759.000000	41.757878
2758.000000	41.785499
2757.000000	41.815060
2756.000000	41.846288
2755.000000	41.878077
2754.000000	41.910524
2753.000000	41.944751
2752.000000	41.980928
2751.000000	42.018292
2750.000000	42.056800
2749.000000	42.096783
2748.000000	42.137150
2747.000000	42.175895
2746.000000	42.212308
2745.000000	42.246946
2744.000000	42.279782
2743.000000	42.310243
2742.000000	42.338681
2741.000000	42.365879
2740.000000	42.391416
2739.000000	42.414316
2738.000000	42.435042
2737.000000	42.455230
2736.000000	42.476002
2735.000000	42.498546
2734.000000	42.525725
2733.000000	42.560631
2732.000000	42.603607
2731.000000	42.652345
2730.000000	42.704285
2729.000000	42.757089
2728.000000	42.807517
2727.000000	42.852595
2726.000000	42.892165
2725.000000	42.928394
2724.000000	42.962922
2723.000000	42.996282
2722.000000	43.029507
2721.000000	43.063892
2720.000000	43.099184
2719.000000	43.133965
2718.000000	43.167881
2717.000000	43.201877
2716.000000	43.236546
2715.000000	43.272106
2714.000000	43.309618
2713.000000	43.350108
2712.000000	43.392484
2711.000000	43.434088
2710.000000	43.473133
2709.000000	43.508929
2708.000000	43.540346
2707.000000	43.566298
2706.000000	43.587679
2705.000000	43.607081
2704.000000	43.626560
2703.000000	43.647123
2702.000000	43.669811
2701.000000	43.695181
2700.000000	43.721972
2699.000000	43.748220
2698.000000	43.773596
2697.000000	43.799119
2696.000000	43.825129
2695.000000	43.851426
2694.000000	43.879041
2693.000000	43.909751
2692.000000	43.943800
2691.000000	43.979813
2690.000000	44.016610
2689.000000	44.053362
2688.000000	44.088460
2687.000000	44.120369
2686.000000	44.149619
2685.000000	44.178253
2684.000000	44.207345
2683.000000	44.236517
2682.000000	44.265374
2681.000000	44.293449
2680.000000	44.319154
2679.000000	44.340882
2678.000000	44.359252
2677.000000	44.376815
2676.000000	44.395826
2675.000000	44.417777
2674.000000	44.444502
2673.000000	44.477567
2672.000000	44.516418
2671.000000	44.558798
2670.000000	44.602910
2669.000000	44.647750
2668.000000	44.692063
2667.000000	44.734779
2666.000000	44.776371
2665.000000	44.818102
2664.000000	44.860040
2663.000000	44.901260
2662.000000	44.941526
2661.000000	44.981092
2660.000000	45.019276
2659.000000	45.055012
2658.000000	45.088573
2657.000000	45.121276
2656.000000	45.153780
2655.000000	45.186018
2654.000000	45.218251
2653.000000	45.250350
2652.000000	45.280594
2651.000000	45.306894
2650.000000	45.328985
2649.000000	45.348190
2648.000000	45.365631
2647.000000	45.382357
2646.000000	45.400595
2645.000000	45.422773
2644.000000	45.449374
2643.000000	45.479178
2642.000000	45.511114
2641.000000	45.544388
2640.000000	45.577553
2639.000000	45.609328
2638.000000	45.640079
2637.000000	45.670771
2636.000000	45.700814
2635.000000	45.728501
2634.000000	45.753090
2633.000000	45.774681
2632.000000	45.792612
2631.000000	45.806119
2630.000000	45.816547
2629.000000	45.827411
2628.000000	45.842304
2627.000000	45.863706
2626.000000	45.892939
2625.000000	45.929324
2624.000000	45.969544
2623.000000	46.009541
2622.000000	46.047062
2621.000000	46.081446
2620.000000	46.112044
2619.000000	46.138593
2618.000000	46.162360
2617.000000	46.184968
2616.000000	46.206398
2615.000000	46.225492
2614.000000	46.241889
2613.000000	46.255859
2612.000000	46.266942
2611.000000	46.274890
2610.000000	46.281413
2609.000000	46.289156
2608.000000	46.299147
2607.000000	46.310652
2606.000000	46.322961
2605.000000	46.335473
2604.000000	46.346640
2603.000000	46.354939
2602.000000	46.360850
2601.000000	46.366341
2600.000000	46.372892
2599.000000	46.381518
2598.000000	46.393930
2597.000000	46.411496
2596.000000	46.433134
2595.000000	46.456070
2594.000000	46.478585
2593.000000	46.500523
2592.000000	46.521927
2591.000000	46.543061
2590.000000	46.565478
2589.000000	46.591089
2588.000000	46.619989
2587.000000	46.650712
2586.000000	46.682072
2585.000000	46.713187
2584.000000	46.742362
2583.000000	46.768070
2582.000000	46.791031
2581.000000	46.813733
2580.000000	46.838087
2579.000000	46.864890
2578.000000	46.894779
2577.000000	46.927646
2576.000000	46.961372
2575.000000	46.993124
2574.000000	47.022021
2573.000000	47.049227
2572.000000	47.075962
2571.000000	47.103043
2570.000000	47.131735
2569.000000	47.162991
2568.000000	47.195784
2567.000000	47.227765
2566.000000	47.257450
2565.000000	47.284500
2564.000000	47.308525
2563.000000	47.329615
2562.000000	47.349775
2561.000000	47.371933
2560.000000	47.397393
2559.000000	47.425476
2558.000000	47.455180
2557.000000	47.485520
2556.000000	47.514728
2555.000000	47.541144
2554.000000	47.565078
2553.000000	47.588413
2552.000000	47.612544
2551.000000	47.637966
2550.000000	47.665262
2549.000000	47.694589
2548.000000	47.724309
2547.000000	47.751716
2546.000000	47.775165
2545.000000	47.794481
2544.000000	47.809899
2543.000000	47.822404
2542.000000	47.834699
2541.000000	47.849871
2540.000000	47.868852
2539.000000	47.890122
2538.000000	47.911527
2537.000000	47.931109
2536.000000	47.946936
2535.000000	47.958256
2534.000000	47.966916
2533.000000	47.976288
2532.000000	47.988777
2531.000000	48.005311
2530.000000	48.026300
2529.000000	48.051194
2528.000000	48.077490
2527.000000	48.102079
2526.000000	48.123719
2525.000000	48.143001
2524.000000	48.160449
2523.000000	48.176252
2522.000000	48.191352
2521.000000	48.206768
2520.000000	48.221829
2519.000000	48.234413
2518.000000	48.242828
2517.000000	48.246376
2516.000000	48.244537
2515.000000	48.237715
2514.000000	48.228581
2513.000000	48.220917
2512.000000	48.216962
2511.000000	48.216779
2510.000000	48.219721
2509.000000	48.224865
2508.000000	48.230474
2507.000000	48.234963
2506.000000	48.238785
2505.000000	48.244006
2504.000000	48.252251
2503.000000	48.264306
2502.000000	48.280910
2501.000000	48.302158
2500.000000	48.326063
2499.000000	48.349444
2498.000000	48.370547
2497.000000	48.389549
2496.000000	48.407207
2495.000000	48.424643
2494.000000	48.444170
2493.000000	48.468459
2492.000000	48.498308
2491.000000	48.532395
2490.000000	48.568851
2489.000000	48.605806
2488.000000	48.641034
2487.000000	48.672956
2486.000000	48.702349
2485.000000	48.731839
2484.000000	48.763620
2483.000000	48.798712
2482.000000	48.837598
2481.000000	48.879820
2480.000000	48.923016
2479.000000	48.963984
2478.000000	49.000964
2477.000000	49.033971
2476.000000	49.063516
2475.000000	49.090438
2474.000000	49.116726
2473.000000	49.144637
2472.000000	49.174756
2471.000000	49.205883
2470.000000	49.236560
2469.000000	49.265660
2468.000000	49.291902
2467.000000	49.314588
2466.000000	49.334887
2465.000000	49.355061
2464.000000	49.376334
2463.000000	49.398257
2462.000000	49.419679
2461.000000	49.439020
2460.000000	49.453960
2459.000000	49.462850
2458.000000	49.466638
2457.000000	49.468570
2456.000000	49.471985
2455.000000	49.479240
2454.000000	49.492129
2453.000000	49.511491
2452.000000	49.536185
2451.000000	49.563577
2450.000000	49.591425
2449.000000	49.618563
2448.000000	49.644510
2447.000000	49.669729
2446.000000	49.695909
2445.000000	49.724702
2444.000000	49.755898
2443.000000	49.787649
2442.000000	49.817967
2441.000000	49.845093
2440.000000	49.867056
2439.000000	49.882695
2438.000000	49.893195
2437.000000	49.901498
2436.000000	49.910273
2435.000000	49.921056
2434.000000	49.934714
2433.000000	49.951107
2432.000000	49.968237
2431.000000	49.983059
2430.000000	49.993298
2429.000000	49.998188
2428.000000	49.998211
2427.000000	49.995253
2426.000000	49.992483
2425.000000	49.992411
2424.000000	49.995022
2423.000000	49.998541
2422.000000	50.001439
2421.000000	50.002809
2420.000000	50.001712
2419.000000	49.998148
2418.000000	49.994509
2417.000000	49.994611
2416.000000	50.000975
2415.000000	50.014017
2414.000000	50.033068
2413.000000	50.056455
2412.000000	50.080951
2411.000000	50.102934
2410.000000	50.120785
2409.000000	50.135354
2408.000000	50.148345
2407.000000	50.161390
2406.000000	50.176114
2405.000000	50.193304
2404.000000	50.211490
2403.000000	50.227562
2402.000000	50.238826
2401.000000	50.244001
2400.000000	50.242773
2399.000000	50.235802
2398.000000	50.225252
2397.000000	50.213500
2396.000000	50.201055
2395.000000	50.186307
2394.000000	50.166774
2393.000000	50.140145
2392.000000	50.104131
2391.000000	50.057332
2390.000000	50.000729
2389.000000	49.936836
2388.000000	49.867771
2387.000000	49.794225
2386.000000	49.716281
2385.000000	49.633770
2384.000000	49.545270
2383.000000	49.449514
2382.000000	49.347813
2381.000000	49.245556
2380.000000	49.151384
2379.000000	49.075507
2378.000000	49.028761
2377.000000	49.018677
2376.000000	49.047025
2375.000000	49.107966
2374.000000	49.190796
2373.000000	49.282060
2372.000000	49.366097
2371.000000	49.430656
2370.000000	49.470983
2369.000000	49.487925
2368.000000	49.484356
2367.000000	49.466511
2366.000000	49.441830
2365.000000	49.410699
2364.000000	49.375633
2363.000000	49.346119
2362.000000	49.319083
2361.000000	49.297683
2360.000000	49.292453
2359.000000	49.306478
2358.000000	49.351574
2357.000000	49.415230
2356.000000	49.483009
2355.000000	49.545578
2354.000000	49.584385
2353.000000	49.595512
2352.000000	49.587907
2351.000000	49.609094
2350.000000	49.662626
2349.000000	49.682318
2348.000000	49.621353
2347.000000	49.483354
2346.000000	49.365940
2345.000000	49.354456
2344.000000	49.460902
2343.000000	49.616218
2342.000000	49.725284
2341.000000	49.787286
2340.000000	49.816049
2339.000000	49.832484
2338.000000	49.841867
2337.000000	49.854365
2336.000000	49.875094
2335.000000	49.904853
2334.000000	49.931883
2333.000000	49.950398
2332.000000	49.955043
2331.000000	49.966580
2330.000000	50.004687
2329.000000	50.060551
2328.000000	50.136242
2327.000000	50.195470
2326.000000	50.240234
2325.000000	50.254097
2324.000000	50.250308
2323.000000	50.246970
2322.000000	50.249762
2321.000000	50.270342
2320.000000	50.295039
2319.000000	50.326667
2318.000000	50.352608
2317.000000	50.364002
2316.000000	50.344540
2315.000000	50.287422
2314.000000	50.204346
2313.000000	50.109639
2312.000000	50.021684
2311.000000	49.941463
2310.000000	49.875612
2309.000000	49.818974
2308.000000	49.775231
2307.000000	49.738956
2306.000000	49.713094
2305.000000	49.694270
2304.000000	49.683106
2303.000000	49.678967
2302.000000	49.687607
2301.000000	49.713477
2300.000000	49.760231
2299.000000	49.822112
2298.000000	49.894302
2297.000000	49.965884
2296.000000	50.031052
2295.000000	50.080963
2294.000000	50.117571
2293.000000	50.141912
2292.000000	50.159836
2291.000000	50.173324
2290.000000	50.186500
2289.000000	50.200109
2288.000000	50.212084
2287.000000	50.217471
2286.000000	50.211976
2285.000000	50.193316
2284.000000	50.160326
2283.000000	50.115543
2282.000000	50.066008
2281.000000	50.023280
2280.000000	49.996488
2279.000000	49.990397
2278.000000	50.003819
2277.000000	50.032865
2276.000000	50.071487
2275.000000	50.116109
2274.000000	50.168082
2273.000000	50.231046
2272.000000	50.307150
2271.000000	50.394479
2270.000000	50.489598
2269.000000	50.587753
2268.000000	50.683455
2267.000000	50.772384
2266.000000	50.853553
2265.000000	50.928345
2264.000000	50.998920
2263.000000	51.066825
2262.000000	51.134586
2261.000000	51.203345
2260.000000	51.271327
2259.000000	51.335330
2258.000000	51.392594
2257.000000	51.443111
2256.000000	51.487710
2255.000000	51.529696
2254.000000	51.574186
2253.000000	51.626368
2252.000000	51.688258
2251.000000	51.758255
2250.000000	51.833661
2249.000000	51.910881
2248.000000	51.986230
2247.000000	52.056810
2246.000000	52.122959
2245.000000	52.186970
2244.000000	52.250984
2243.000000	52.315906
2242.000000	52.381824
2241.000000	52.447253
2240.000000	52.508449
2239.000000	52.561044
2238.000000	52.602771
2237.000000	52.634112
2236.000000	52.657190
2235.000000	52.675312
2234.000000	52.692785
2233.000000	52.713356
2232.000000	52.738001
2231.000000	52.765201
2230.000000	52.792686
2229.000000	52.818375
2228.000000	52.840272
2227.000000	52.857359
2226.000000	52.870749
2225.000000	52.882968
2224.000000	52.895963
2223.000000	52.910234
2222.000000	52.925094
2221.000000	52.938496
2220.000000	52.947181
2219.000000	52.948502
2218.000000	52.942612
2217.000000	52.932293
2216.000000	52.921232
2215.000000	52.913020
2214.000000	52.910785
2213.000000	52.915760
2212.000000	52.925926
2211.000000	52.937235
2210.000000	52.946435
2209.000000	52.952567
2208.000000	52.956579
2207.000000	52.960732
2206.000000	52.967620
2205.000000	52.978190
2204.000000	52.990178
2203.000000	52.999210
2202.000000	53.001308
2201.000000	52.994572
2200.000000	52.980107
2199.000000	52.963354
2198.000000	52.953663
2197.000000	52.960396
2196.000000	52.988346
2195.000000	53.036690
2194.000000	53.100972
2193.000000	53.174512
2192.000000	53.249211
2191.000000	53.317638
2190.000000	53.375480
2189.000000	53.421782
2188.000000	53.457521
2187.000000	53.485115
2186.000000	53.508191
2185.000000	53.529992
2184.000000	53.551108
2183.000000	53.569459
2182.000000	53.582218
2181.000000	53.587272
2180.000000	53.583773
2179.000000	53.573080
2178.000000	53.559555
2177.000000	53.549181
2176.000000	53.546866
2175.000000	53.554900
2174.000000	53.573040
2173.000000	53.598820
2172.000000	53.628095
2171.000000	53.656953
2170.000000	53.683662
2169.000000	53.708833
2168.000000	53.734232
2167.000000	53.762010
2166.000000	53.793797
2165.000000	53.829085
2164.000000	53.864559
2163.000000	53.895969
2162.000000	53.920622
2161.000000	53.937943
2160.000000	53.949018
2159.000000	53.957014
2158.000000	53.967428
2157.000000	53.985882
2156.000000	54.015068
2155.000000	54.053935
2154.000000	54.099027
2153.000000	54.145512
2152.000000	54.187902
2151.000000	54.221895
2150.000000	54.246227
2149.000000	54.262390
2148.000000	54.272633
2147.000000	54.278816
2146.000000	54.282031
2145.000000	54.281764
2144.000000	54.275393
2143.000000	54.259725
2142.000000	54.233629
2141.000000	54.199098
2140.000000	54.160433
2139.000000	54.123271
2138.000000	54.093915
2137.000000	54.077528
2136.000000	54.076114
2135.000000	54.088610
2134.000000	54.112546
2133.000000	54.145045
2132.000000	54.183007
2131.000000	54.224035
2130.000000	54.267355
2129.000000	54.313015
2128.000000	54.360069
2127.000000	54.406150
2126.000000	54.448185
2125.000000	54.482454
2124.000000	54.504826
2123.000000	54.512472
2122.000000	54.506035
2121.000000	54.489766
2120.000000	54.469715
2119.000000	54.452015
2118.000000	54.441940
2117.000000	54.442468
2116.000000	54.452826
2115.000000	54.468937
2114.000000	54.485356
2113.000000	54.497151
2112.000000	54.501365
2111.000000	54.498334
2110.000000	54.491481
2109.000000	54.484722
2108.000000	54.479689
2107.000000	54.475623
2106.000000	54.471203
2105.000000	54.465584
2104.000000	54.458623
2103.000000	54.451960
2102.000000	54.449897
2101.000000	54.457813
2100.000000	54.479427
2099.000000	54.515795
2098.000000	54.565725
2097.000000	54.625251
2096.000000	54.687190
2095.000000	54.742763
2094.000000	54.784549
2093.000000	54.808398
2092.000000	54.813757
2091.000000	54.803860
2090.000000	54.785346
2089.000000	54.765911
2088.000000	54.751365
2087.000000	54.744879
2086.000000	54.747966
2085.000000	54.760998
2084.000000	54.783171
2083.000000	54.813664
2082.000000	54.853317
2081.000000	54.903838
2080.000000	54.965419
2079.000000	55.035966
2078.000000	55.111976
2077.000000	55.188583
2076.000000	55.259749
2075.000000	55.320070
2074.000000	55.367299
2073.000000	55.403015
2072.000000	55.430666
2071.000000	55.454157
2070.000000	55.477055
2069.000000	55.500637
2068.000000	55.522592
2067.000000	55.539080
2066.000000	55.548539
2065.000000	55.552945
2064.000000	55.555541
2063.000000	55.559181
2062.000000	55.567557
2061.000000	55.585442
2060.000000	55.615758
2059.000000	55.656870
2058.000000	55.703371
2057.000000	55.748881
2056.000000	55.788166
2055.000000	55.818327
2054.000000	55.839776
2053.000000	55.856167
2052.000000	55.872258
2051.000000	55.891631
2050.000000	55.915682
2049.000000	55.943131
2048.000000	55.970224
2047.000000	55.992639
2046.000000	56.007789
2045.000000	56.015886
2044.000000	56.019928
2043.000000	56.025422
2042.000000	56.039235
2041.000000	56.066447
2040.000000	56.106762
2039.000000	56.154232
2038.000000	56.200815
2037.000000	56.240051
2036.000000	56.268670
2035.000000	56.286802
2034.000000	56.297887
2033.000000	56.307723
2032.000000	56.321949
2031.000000	56.343098
2030.000000	56.369761
2029.000000	56.397899
2028.000000	56.422516
2027.000000	56.439759
2026.000000	56.448555
2025.000000	56.451629
2024.000000	56.454317
2023.000000	56.462375
2022.000000	56.479439
2021.000000	56.504791
2020.000000	56.533651
2019.000000	56.560154
2018.000000	56.580832
2017.000000	56.595799
2016.000000	56.607074
2015.000000	56.616650
2014.000000	56.626796
2013.000000	56.640756
2012.000000	56.661053
2011.000000	56.686861
2010.000000	56.713895
2009.000000	56.737369
2008.000000	56.754747
2007.000000	56.766221
2006.000000	56.774140
2005.000000	56.783383
2004.000000	56.800093
2003.000000	56.828709
2002.000000	56.869372
2001.000000	56.917646
2000.000000	56.966980
1999.000000	57.010123
1998.000000	57.042118
1997.000000	57.062077
1996.000000	57.071185
1995.000000	57.070889
1994.000000	57.064506
1993.000000	57.058746
1992.000000	57.060185
1991.000000	57.068233
1990.000000	57.073781
1989.000000	57.068101
1988.000000	57.050796
1987.000000	57.028097
1986.000000	57.006835
1985.000000	56.992629
1984.000000	56.991336
1983.000000	57.007636
1982.000000	57.040589
1981.000000	57.082443
1980.000000	57.123415
1979.000000	57.155550
1978.000000	57.175024
1977.000000	57.182758
1976.000000	57.184371
1975.000000	57.188856
1974.000000	57.204443
1973.000000	57.234239
1972.000000	57.274759
1971.000000	57.317815
1970.000000	57.353967
1969.000000	57.376879
1968.000000	57.387470
1967.000000	57.394061
1966.000000	57.405440
1965.000000	57.423353
1964.000000	57.444248
1963.000000	57.465620
1962.000000	57.486240
1961.000000	57.502186
1960.000000	57.506745
1959.000000	57.495910
1958.000000	57.472161
1957.000000	57.442042
1956.000000	57.412650
1955.000000	57.389994
1954.000000	57.377150
1953.000000	57.372484
1952.000000	57.371043
1951.000000	57.369586
1950.000000	57.367370
1949.000000	57.365142
1948.000000	57.366737
1947.000000	57.378594
1946.000000	57.404793
1945.000000	57.444143
1944.000000	57.494317
1943.000000	57.556712
1942.000000	57.632739
1941.000000	57.714432
1940.000000	57.787019
1939.000000	57.843551
1938.000000	57.889451
1937.000000	57.933420
1936.000000	57.979451
1935.000000	58.027346
1934.000000	58.076086
1933.000000	58.122962
1932.000000	58.161516
1931.000000	58.185891
1930.000000	58.193986
1929.000000	58.188945
1928.000000	58.178225
1927.000000	58.167587
1926.000000	58.159248
1925.000000	58.151933
1924.000000	58.147906
1923.000000	58.153713
1922.000000	58.169238
1921.000000	58.182077
1920.000000	58.179088
1919.000000	58.160636
1918.000000	58.141301
1917.000000	58.135702
1916.000000	58.142418
1915.000000	58.151118
1914.000000	58.158955
1913.000000	58.166708
1912.000000	58.169781
1911.000000	58.162520
1910.000000	58.147460
1909.000000	58.137017
1908.000000	58.142141
1907.000000	58.163520
1906.000000	58.197739
1905.000000	58.240441
1904.000000	58.286539
1903.000000	58.328035
1902.000000	58.355897
1901.000000	58.368415
1900.000000	58.371394
1899.000000	58.371052
1898.000000	58.372874
1897.000000	58.382837
1896.000000	58.407812
1895.000000	58.450819
1894.000000	58.505101
1893.000000	58.556675
1892.000000	58.593775
1891.000000	58.614717
1890.000000	58.630019
1889.000000	58.656687
1888.000000	58.701602
1887.000000	58.755828
1886.000000	58.810303
1885.000000	58.864775
1884.000000	58.920038
1883.000000	58.969942
1882.000000	59.005419
1881.000000	59.026418
1880.000000	59.041859
1879.000000	59.058654
1878.000000	59.079151
1877.000000	59.103935
1876.000000	59.131521
1875.000000	59.157532
1874.000000	59.174593
1873.000000	59.176401
1872.000000	59.161203
1871.000000	59.129208
1870.000000	59.084973
1869.000000	59.048474
1868.000000	59.046885
1867.000000	59.081186
1866.000000	59.127158
1865.000000	59.166355
1864.000000	59.192953
1863.000000	59.203548
1862.000000	59.195686
1861.000000	59.176288
1860.000000	59.161702
1859.000000	59.165255
1858.000000	59.189722
1857.000000	59.231901
1856.000000	59.286301
1855.000000	59.343569
1854.000000	59.392858
1853.000000	59.430223
1852.000000	59.459707
1851.000000	59.482853
1850.000000	59.503663
1849.000000	59.532956
1848.000000	59.579896
1847.000000	59.642059
1846.000000	59.706222
1845.000000	59.759054
1844.000000	59.799946
1843.000000	59.832210
1842.000000	59.841679
1841.000000	59.824828
1840.000000	59.804742
1839.000000	59.801082
1838.000000	59.815891
1837.000000	59.840832
1836.000000	59.870298
1835.000000	59.901374
1834.000000	59.928116
1833.000000	59.943779
1832.000000	59.945839
1831.000000	59.940153
1830.000000	59.948892
1829.000000	59.990451
1828.000000	60.048553
1827.000000	60.097014
1826.000000	60.132611
1825.000000	60.165974
1824.000000	60.204158
1823.000000	60.242030
1822.000000	60.272589
1821.000000	60.300878
1820.000000	60.336730
1819.000000	60.384347
1818.000000	60.440046
1817.000000	60.496088
1816.000000	60.548130
1815.000000	60.590468
1814.000000	60.613113
1813.000000	60.614114
1812.000000	60.606974
1811.000000	60.613838
1810.000000	60.643306
1809.000000	60.687144
1808.000000	60.738920
1807.000000	60.794099
1806.000000	60.839938
1805.000000	60.862577
1804.000000	60.861886
1803.000000	60.848376
1802.000000	60.832104
1801.000000	60.825196
1800.000000	60.836557
1799.000000	60.862518
1798.000000	60.887372
1797.000000	60.901794
1796.000000	60.911486
1795.000000	60.919058
1794.000000	60.911186
1793.000000	60.878759
1792.000000	60.848973
1791.000000	60.859325
1790.000000	60.900500
1789.000000	60.944997
1788.000000	60.988031
1787.000000	61.031213
1786.000000	61.066463
1785.000000	61.088134
1784.000000	61.101867
1783.000000	61.109474
1782.000000	61.107919
1781.000000	61.108932
1780.000000	61.126646
1779.000000	61.160701
1778.000000	61.193731
1777.000000	61.215164
1776.000000	61.234905
1775.000000	61.263777
1774.000000	61.298132
1773.000000	61.324755
1772.000000	61.351291
1771.000000	61.392587
1770.000000	61.435628
1769.000000	61.473086
1768.000000	61.518357
1767.000000	61.575410
1766.000000	61.623186
1765.000000	61.641396
1764.000000	61.637009
1763.000000	61.632116
1762.000000	61.644574
1761.000000	61.676346
1760.000000	61.704929
1759.000000	61.715086
1758.000000	61.712507
1757.000000	61.709885
1756.000000	61.716331
1755.000000	61.729495
1754.000000	61.745450
1753.000000	61.766668
1752.000000	61.789704
1751.000000	61.811871
1750.000000	61.836538
1749.000000	61.852714
1748.000000	61.855211
1747.000000	61.849877
1746.000000	61.834763
1745.000000	61.802711
1744.000000	61.757807
1743.000000	61.722066
1742.000000	61.702016
1741.000000	61.674433
1740.000000	61.626900
1739.000000	61.585644
1738.000000	61.566909
1737.000000	61.559937
1736.000000	61.558279
1735.000000	61.536761
1734.000000	61.497981
1733.000000	61.484803
1732.000000	61.455516
1731.000000	61.383825
1730.000000	61.324020
1729.000000	61.302430
1728.000000	61.297083
1727.000000	61.279281
1726.000000	61.241637
1725.000000	61.190617
1724.000000	61.139366
1723.000000	61.109746
1722.000000	61.104225
1721.000000	61.104595
1720.000000	61.098087
1719.000000	61.071803
1718.000000	61.012310
1717.000000	60.937676
1716.000000	60.871546
1715.000000	60.809602
1714.000000	60.753886
1713.000000	60.712337
1712.000000	60.687405
1711.000000	60.674604
1710.000000	60.658412
1709.000000	60.622889
1708.000000	60.560626
1707.000000	60.472723
1706.000000	60.373173
1705.000000	60.295351
1704.000000	60.267237
1703.000000	60.285705
1702.000000	60.317223
1701.000000	60.279680
1700.000000	60.174982
1699.000000	60.086608
1698.000000	59.981700
1697.000000	59.844501
1696.000000	59.724211
1695.000000	59.647403
1694.000000	59.562819
1693.000000	59.411343
1692.000000	59.230304
1691.000000	59.068362
1690.000000	58.922463
1689.000000	58.786162
1688.000000	58.676644
1687.000000	58.607514
1686.000000	58.545410
1685.000000	58.399110
1684.000000	58.186010
1683.000000	58.015539
1682.000000	57.845186
1681.000000	57.636981
1680.000000	57.440457
1679.000000	57.282528
1678.000000	57.152154
1677.000000	57.013592
1676.000000	56.834441
1675.000000	56.632717
1674.000000	56.451734
1673.000000	56.278816
1672.000000	56.086291
1671.000000	55.875881
1670.000000	55.652847
1669.000000	55.436444
1668.000000	55.241546
1667.000000	55.060258
1666.000000	54.887500
1665.000000	54.714537
1664.000000	54.520295
1663.000000	54.303179
1662.000000	54.089335
1661.000000	53.886650
1660.000000	53.675471
1659.000000	53.460125
1658.000000	53.269722
1657.000000	53.128049
1656.000000	53.038726
1655.000000	52.975886
1654.000000	52.838388
1653.000000	52.613888
1652.000000	52.431187
1651.000000	52.202827
1650.000000	51.864978
1649.000000	51.514831
1648.000000	51.180550
1647.000000	50.852366
1646.000000	50.562831
1645.000000	50.298947
1644.000000	50.001226
1643.000000	49.664880
1642.000000	49.321625
1641.000000	48.993484
1640.000000	48.693849
1639.000000	48.441129
1638.000000	48.248769
1637.000000	48.104432
1636.000000	48.005022
1635.000000	47.986641
1634.000000	48.027086
1633.000000	48.048227
1632.000000	48.049011
1631.000000	48.074216
1630.000000	48.139489
1629.000000	48.235194
1628.000000	48.355539
1627.000000	48.500903
1626.000000	48.663906
1625.000000	48.837470
1624.000000	49.024654
1623.000000	49.237275
1622.000000	49.468374
1621.000000	49.687789
1620.000000	49.892904
1619.000000	50.128655
1618.000000	50.439139
1617.000000	50.822753
1616.000000	51.219887
1615.000000	51.536578
1614.000000	51.738260
1613.000000	51.876846
1612.000000	51.998947
1611.000000	52.098757
1610.000000	52.150466
1609.000000	52.140317
1608.000000	52.057613
1607.000000	51.881073
1606.000000	51.581643
1605.000000	51.115084
1604.000000	50.421563
1603.000000	49.452535
1602.000000	48.196326
1601.000000	46.671077
1600.000000	44.902741
1599.000000	42.921177
1598.000000	40.733079
1597.000000	38.330887
1596.000000	35.814364
1595.000000	33.512092
1594.000000	31.857238
1593.000000	31.078368
1592.000000	31.089702
1591.000000	31.655325
1590.000000	32.567775
1589.000000	33.667987
1588.000000	34.815302
1587.000000	35.894074
1586.000000	36.836809
1585.000000	37.652728
1584.000000	38.405335
1583.000000	39.146096
1582.000000	39.862269
1581.000000	40.496888
1580.000000	41.026680
1579.000000	41.501105
1578.000000	41.990104
1577.000000	42.499275
1576.000000	42.974999
1575.000000	43.373155
1574.000000	43.685437
1573.000000	43.961007
1572.000000	44.297800
1571.000000	44.785407
1570.000000	45.443158
1569.000000	46.172578
1568.000000	46.829192
1567.000000	47.377219
1566.000000	47.887420
1565.000000	48.402947
1564.000000	48.895097
1563.000000	49.339477
1562.000000	49.775743
1561.000000	50.271431
1560.000000	50.856615
1559.000000	51.569056
1558.000000	52.339842
1557.000000	52.908270
1556.000000	53.250489
1555.000000	53.558332
1554.000000	53.913742
1553.000000	54.265600
1552.000000	54.548532
1551.000000	54.789357
1550.000000	55.055268
1549.000000	55.352157
1548.000000	55.628080
1547.000000	55.849591
1546.000000	56.036196
1545.000000	56.217756
1544.000000	56.402353
1543.000000	56.585324
1542.000000	56.770732
1541.000000	56.970018
1540.000000	57.210169
1539.000000	57.475982
1538.000000	57.652314
1537.000000	57.684592
1536.000000	57.660930
1535.000000	57.667291
1534.000000	57.722929
1533.000000	57.828044
1532.000000	57.955487
1531.000000	58.064777
1530.000000	58.155658
1529.000000	58.244768
1528.000000	58.335516
1527.000000	58.421634
1526.000000	58.497062
1525.000000	58.556061
1524.000000	58.591348
1523.000000	58.605541
1522.000000	58.607490
1521.000000	58.611007
1520.000000	58.586497
1519.000000	58.462009
1518.000000	58.228019
1517.000000	57.933999
1516.000000	57.643311
1515.000000	57.399182
1514.000000	57.216048
1513.000000	57.116907
1512.000000	57.122776
1511.000000	57.227112
1510.000000	57.401199
1509.000000	57.633535
1508.000000	57.931678
1507.000000	58.314745
1506.000000	58.752173
1505.000000	59.082281
1504.000000	59.204748
1503.000000	59.216976
1502.000000	59.250722
1501.000000	59.348341
1500.000000	59.483399
1499.000000	59.623104
1498.000000	59.758594
1497.000000	59.888301
1496.000000	60.005987
1495.000000	60.093926
1494.000000	60.139213
1493.000000	60.167949
1492.000000	60.219208
1491.000000	60.309636
1490.000000	60.443280
1489.000000	60.614119
1488.000000	60.796507
1487.000000	60.968564
1486.000000	61.121208
1485.000000	61.257337
1484.000000	61.386684
1483.000000	61.519937
1482.000000	61.672404
1481.000000	61.843839
1480.000000	62.012380
1479.000000	62.153840
1478.000000	62.263207
1477.000000	62.352069
1476.000000	62.442998
1475.000000	62.558853
1474.000000	62.715336
1473.000000	62.929038
1472.000000	63.192108
1471.000000	63.439746
1470.000000	63.603686
1469.000000	63.686952
1468.000000	63.730175
1467.000000	63.751836
1466.000000	63.733192
1465.000000	63.643986
1464.000000	63.465399
1463.000000	63.188894
1462.000000	62.816019
1461.000000	62.372946
1460.000000	61.905877
1459.000000	61.446948
1458.000000	60.987563
1457.000000	60.544294
1456.000000	60.164541
1455.000000	59.771255
1454.000000	59.246232
1453.000000	58.552755
1452.000000	57.697362
1451.000000	56.708039
1450.000000	55.573898
1449.000000	54.214327
1448.000000	52.607791
1447.000000	50.945259
1446.000000	49.570221
1445.000000	48.803759
1444.000000	48.838205
1443.000000	49.669470
1442.000000	51.046188
1441.000000	52.578314
1440.000000	53.952519
1439.000000	55.047013
1438.000000	55.874313
1437.000000	56.490066
1436.000000	56.976352
1435.000000	57.402728
1434.000000	57.816797
1433.000000	58.273140
1432.000000	58.791416
1431.000000	59.325248
1430.000000	59.812871
1429.000000	60.220523
1428.000000	60.539381
1427.000000	60.775574
1426.000000	60.961205
1425.000000	61.142296
1424.000000	61.335455
1423.000000	61.529490
1422.000000	61.715980
1421.000000	61.896600
1420.000000	62.058582
1419.000000	62.197984
1418.000000	62.336248
1417.000000	62.472518
1416.000000	62.606799
1415.000000	62.758464
1414.000000	62.931123
1413.000000	63.103324
1412.000000	63.245873
1411.000000	63.347038
1410.000000	63.415154
1409.000000	63.455858
1408.000000	63.468174
1407.000000	63.458035
1406.000000	63.443226
1405.000000	63.439102
1404.000000	63.433426
1403.000000	63.401992
1402.000000	63.340881
1401.000000	63.266098
1400.000000	63.196245
1399.000000	63.151657
1398.000000	63.148205
1397.000000	63.185606
1396.000000	63.260731
1395.000000	63.365253
1394.000000	63.458487
1393.000000	63.462060
1392.000000	63.313870
1391.000000	63.025324
1390.000000	62.659559
1389.000000	62.276391
1388.000000	61.922697
1387.000000	61.660912
1386.000000	61.554098
1385.000000	61.623122
1384.000000	61.854387
1383.000000	62.222168
1382.000000	62.681110
1381.000000	63.168735
1380.000000	63.633389
1379.000000	64.051193
1378.000000	64.418832
1377.000000	64.733923
1376.000000	64.982349
1375.000000	65.139178
1374.000000	65.165864
1373.000000	64.988442
1372.000000	64.486348
1371.000000	63.516451
1370.000000	61.965729
1369.000000	59.841658
1368.000000	57.376381
1367.000000	55.019941
1366.000000	53.250639
1365.000000	52.377885
1364.000000	52.479285
1363.000000	53.394351
1362.000000	54.762256
1361.000000	56.200806
1360.000000	57.493472
1359.000000	58.595547
1358.000000	59.537545
1357.000000	60.354437
1356.000000	61.060286
1355.000000	61.651224
1354.000000	62.123611
1353.000000	62.487265
1352.000000	62.764541
1351.000000	62.981754
1350.000000	63.168734
1349.000000	63.356566
1348.000000	63.556558
1347.000000	63.757508
1346.000000	63.944945
1345.000000	64.112324
1344.000000	64.253383
1343.000000	64.359976
1342.000000	64.438048
1341.000000	64.516031
1340.000000	64.627639
1339.000000	64.786455
1338.000000	64.978334
1337.000000	65.174524
1336.000000	65.345513
1335.000000	65.470162
1334.000000	65.546306
1333.000000	65.590317
1332.000000	65.621719
1331.000000	65.653619
1330.000000	65.697521
1329.000000	65.764077
1328.000000	65.850528
1327.000000	65.935716
1326.000000	65.992632
1325.000000	65.998296
1324.000000	65.929914
1323.000000	65.760475
1322.000000	65.461412
1321.000000	64.994160
1320.000000	64.291442
1319.000000	63.278236
1318.000000	61.947553
1317.000000	60.431578
1316.000000	58.992466
1315.000000	57.917554
1314.000000	57.376183
1313.000000	57.354498
1312.000000	57.722016
1311.000000	58.350183
1310.000000	59.168477
1309.000000	60.118688
1308.000000	61.110023
1307.000000	62.044531
1306.000000	62.866157
1305.000000	63.569272
1304.000000	64.164485
1303.000000	64.663860
1302.000000	65.091821
1301.000000	65.479333
1300.000000	65.835652
1299.000000	66.144812
1298.000000	66.380311
1297.000000	66.495238
1296.000000	66.408666
1295.000000	66.036091
1294.000000	65.359264
1293.000000	64.451512
1292.000000	63.439121
1291.000000	62.472157
1290.000000	61.727386
1289.000000	61.376236
1288.000000	61.482757
1287.000000	61.919430
1286.000000	62.423972
1285.000000	62.783365
1284.000000	62.957845
1283.000000	63.046145
1282.000000	63.170656
1281.000000	63.391417
1280.000000	63.681984
1279.000000	63.936676
1278.000000	63.987255
1277.000000	63.628467
1276.000000	62.669128
1275.000000	61.013747
1274.000000	58.780729
1273.000000	56.401554
1272.000000	54.562916
1271.000000	53.892136
1270.000000	54.571257
1269.000000	56.231694
1268.000000	58.227830
1267.000000	60.037318
1266.000000	61.448236
1265.000000	62.486540
1264.000000	63.263263
1263.000000	63.880644
1262.000000	64.409275
1261.000000	64.883808
1260.000000	65.302491
1259.000000	65.644873
1258.000000	65.900158
1257.000000	66.070260
1256.000000	66.165486
1255.000000	66.211840
1254.000000	66.249991
1253.000000	66.316561
1252.000000	66.425445
1251.000000	66.572057
1250.000000	66.745015
1249.000000	66.927065
1248.000000	67.096947
1247.000000	67.244738
1246.000000	67.382669
1245.000000	67.532969
1244.000000	67.709209
1243.000000	67.912551
1242.000000	68.134902
1241.000000	68.354457
1240.000000	68.535051
1239.000000	68.643150
1238.000000	68.668864
1237.000000	68.625824
1236.000000	68.538983
1235.000000	68.440979
1234.000000	68.366163
1233.000000	68.333014
1232.000000	68.331327
1231.000000	68.331816
1230.000000	68.305342
1229.000000	68.228011
1228.000000	68.082020
1227.000000	67.863305
1226.000000	67.582315
1225.000000	67.248288
1224.000000	66.848590
1223.000000	66.353481
1222.000000	65.732752
1221.000000	64.961627
1220.000000	64.030884
1219.000000	62.957469
1218.000000	61.785525
1217.000000	60.567905
1216.000000	59.346043
1215.000000	58.147246
1214.000000	56.981989
1213.000000	55.841566
1212.000000	54.711330
1211.000000	53.596935
1210.000000	52.535508
1209.000000	51.591998
1208.000000	50.844463
1207.000000	50.351518
1206.000000	50.117991
1205.000000	50.083174
1204.000000	50.169493
1203.000000	50.343913
1202.000000	50.626776
1201.000000	51.057808
1200.000000	51.644285
1199.000000	52.344626
1198.000000	53.092487
1197.000000	53.832821
1196.000000	54.549278
1195.000000	55.257897
1194.000000	55.981449
1193.000000	56.727676
1192.000000	57.484013
1191.000000	58.226984
1190.000000	58.934709
1189.000000	59.594201
1188.000000	60.203019
1187.000000	60.770476
1186.000000	61.310852
1185.000000	61.831379
1184.000000	62.322908
1183.000000	62.759985
1182.000000	63.113535
1181.000000	63.362057
1180.000000	63.504363
1179.000000	63.568729
1178.000000	63.602640
1177.000000	63.649956
1176.000000	63.733744
1175.000000	63.858132
1174.000000	64.015363
1173.000000	64.186744
1172.000000	64.348423
1171.000000	64.486569
1170.000000	64.607208
1169.000000	64.728432
1168.000000	64.866748
1167.000000	65.031552
1166.000000	65.222244
1165.000000	65.421519
1164.000000	65.596151
1163.000000	65.713870
1162.000000	65.762960
1161.000000	65.755171
1160.000000	65.717441
1159.000000	65.686363
1158.000000	65.699837
1157.000000	65.780945
1156.000000	65.927538
1155.000000	66.118338
1154.000000	66.324565
1153.000000	66.515458
1152.000000	66.663984
1151.000000	66.760231
1150.000000	66.818524
1149.000000	66.864873
1148.000000	66.917111
1147.000000	66.978668
1146.000000	67.040624
1145.000000	67.079679
1144.000000	67.063692
1143.000000	66.968485
1142.000000	66.793286
1141.000000	66.558431
1140.000000	66.290750
1139.000000	66.016137
1138.000000	65.748577
1137.000000	65.476668
1136.000000	65.163455
1135.000000	64.759788
1134.000000	64.224179
1133.000000	63.528465
1132.000000	62.663088
1131.000000	61.650101
1130.000000	60.536652
1129.000000	59.375277
1128.000000	58.201596
1127.000000	57.020522
1126.000000	55.800471
1125.000000	54.473558
1124.000000	52.975685
1123.000000	51.293544
1122.000000	49.471469
1121.000000	47.561180
1120.000000	45.542621
1119.000000	43.290774
1118.000000	40.661335
1117.000000	37.706795
1116.000000	34.856426
1115.000000	32.852046
1114.000000	32.355855
1113.000000	33.535099
1112.000000	35.975309
1111.000000	38.918928
1110.000000	41.645376
1109.000000	43.723233
1108.000000	45.009174
1107.000000	45.468869
1106.000000	45.028229
1105.000000	43.635150
1104.000000	41.513662
1103.000000	39.326582
1102.000000	37.953643
1101.000000	37.992343
1100.000000	39.424998
1099.000000	41.716728
1098.000000	44.210137
1097.000000	46.471521
1096.000000	48.351467
1095.000000	49.870947
1094.000000	51.109031
1093.000000	52.150222
1092.000000	53.065326
1091.000000	53.905461
1090.000000	54.703273
1089.000000	55.472513
1088.000000	56.209549
1087.000000	56.894510
1086.000000	57.509784
1085.000000	58.051521
1084.000000	58.525603
1083.000000	58.948276
1082.000000	59.346541
1081.000000	59.750218
1080.000000	60.174580
1079.000000	60.614611
1078.000000	61.056780
1077.000000	61.485452
1076.000000	61.882955
1075.000000	62.238226
1074.000000	62.557898
1073.000000	62.861694
1072.000000	63.158344
1071.000000	63.432966
1070.000000	63.651391
1069.000000	63.756538
1068.000000	63.673432
1067.000000	63.321630
1066.000000	62.643688
1065.000000	61.626386
1064.000000	60.289571
1063.000000	58.687798
1062.000000	56.885322
1061.000000	54.915776
1060.000000	52.761113
1059.000000	50.359574
1058.000000	47.659100
1057.000000	44.676833
1056.000000	41.551614
1055.000000	38.554510
1054.000000	36.049019
1053.000000	34.387108
1052.000000	33.807285
1051.000000	34.353090
1050.000000	35.822786
1049.000000	37.857805
1048.000000	40.073179
1047.000000	42.171809
1046.000000	44.001264
1045.000000	45.531194
1044.000000	46.806054
1043.000000	47.886657
1042.000000	48.812928
1041.000000	49.595579
1040.000000	50.235412
1039.000000	50.739777
1038.000000	51.134856
1037.000000	51.469057
1036.000000	51.801769
1035.000000	52.191543
1034.000000	52.679083
1033.000000	53.275523
1032.000000	53.961274
1031.000000	54.695605
1030.000000	55.429841
1029.000000	56.119027
1028.000000	56.732540
1027.000000	57.265567
1026.000000	57.743967
1025.000000	58.211958
1024.000000	58.709977
1023.000000	59.259326
1022.000000	59.859496
1021.000000	60.487644
1020.000000	61.103921
1019.000000	61.664160
1018.000000	62.131379
1017.000000	62.478729
1016.000000	62.669940
1015.000000	62.657318
1014.000000	62.378734
1013.000000	61.748952
1012.000000	60.675049
1011.000000	59.067421
1010.000000	56.867591
1009.000000	54.069277
1008.000000	50.769490
1007.000000	47.267521
1006.000000	44.102984
1005.000000	41.918277
1004.000000	41.173753
1003.000000	41.898433
1002.000000	43.656936
1001.000000	45.786827
1000.000000	47.672010
999.000000	48.865298
998.000000	49.106922
997.000000	48.374150
996.000000	46.988192
995.000000	45.590824
994.000000	44.858636
993.000000	45.127243
992.000000	46.252528
991.000000	47.799571
990.000000	49.354161
989.000000	50.706928
988.000000	51.835307
987.000000	52.792703
986.000000	53.636747
985.000000	54.406277
984.000000	55.116545
983.000000	55.762961
982.000000	56.336917
981.000000	56.835369
980.000000	57.259012
979.000000	57.618444
978.000000	57.938528
977.000000	58.253707
976.000000	58.589392
975.000000	58.950226
974.000000	59.325453
973.000000	59.692865
972.000000	60.021382
971.000000	60.282255
970.000000	60.466587
969.000000	60.590871
968.000000	60.683592
967.000000	60.773923
966.000000	60.887116
965.000000	61.036159
964.000000	61.213944
963.000000	61.398599
962.000000	61.570473
961.000000	61.722127
960.000000	61.856548
959.000000	61.986327
958.000000	62.134324
957.000000	62.322389
956.000000	62.552892
955.000000	62.804835
954.000000	63.047267
953.000000	63.249485
952.000000	63.384420
951.000000	63.439183
950.000000	63.427190
949.000000	63.383552
948.000000	63.344278
947.000000	63.333404
946.000000	63.363668
945.000000	63.434438
944.000000	63.527572
943.000000	63.617253
942.000000	63.690967
941.000000	63.756818
940.000000	63.832943
939.000000	63.937438
938.000000	64.085455
937.000000	64.280548
936.000000	64.502594
935.000000	64.712065
934.000000	64.870773
933.000000	64.955715
932.000000	64.958549
931.000000	64.888708
930.000000	64.778480
929.000000	64.672683
928.000000	64.604891
927.000000	64.586008
926.000000	64.612069
925.000000	64.670850
924.000000	64.742371
923.000000	64.808619
922.000000	64.870404
921.000000	64.946113
920.000000	65.053688
919.000000	65.199428
918.000000	65.380557
917.000000	65.583859
916.000000	65.778051
915.000000	65.921161
914.000000	65.984726
913.000000	65.966958
912.000000	65.883429
911.000000	65.760775
910.000000	65.638034
909.000000	65.555817
908.000000	65.533769
907.000000	65.562820
906.000000	65.618345
905.000000	65.671450
904.000000	65.694354
903.000000	65.677471
902.000000	65.648173
901.000000	65.655169
900.000000	65.724100
899.000000	65.833068
898.000000	65.931285
897.000000	65.961333
896.000000	65.872808
895.000000	65.645728
894.000000	65.304025
893.000000	64.867169
892.000000	64.268900
891.000000	63.386218
890.000000	62.216870
889.000000	61.020647
888.000000	60.206626
887.000000	60.042070
886.000000	60.462410
885.000000	61.165627
884.000000	61.871934
883.000000	62.465898
882.000000	62.959418
881.000000	63.392781
880.000000	63.785864
879.000000	64.144009
878.000000	64.463296
877.000000	64.725317
876.000000	64.903346
875.000000	64.982874
874.000000	64.972546
873.000000	64.901864
872.000000	64.811400
871.000000	64.742323
870.000000	64.724104
869.000000	64.763490
868.000000	64.846412
867.000000	64.950392
866.000000	65.056776
865.000000	65.155709
864.000000	65.247941
863.000000	65.344485
862.000000	65.459537
861.000000	65.596485
860.000000	65.739719
859.000000	65.859961
858.000000	65.926721
857.000000	65.917131
856.000000	65.822021
855.000000	65.654387
854.000000	65.449928
853.000000	65.253951
852.000000	65.103863
851.000000	65.021054
850.000000	65.010411
849.000000	65.060642
848.000000	65.147989
847.000000	65.248299
846.000000	65.349954
845.000000	65.453429
844.000000	65.562691
843.000000	65.679433
842.000000	65.801136
841.000000	65.915961
840.000000	65.999358
839.000000	66.021472
838.000000	65.961925
837.000000	65.818269
836.000000	65.604729
835.000000	65.352445
834.000000	65.106828
833.000000	64.913659
832.000000	64.800760
831.000000	64.771573
830.000000	64.811272
829.000000	64.895804
828.000000	64.999927
827.000000	65.105988
826.000000	65.211253
825.000000	65.322359
824.000000	65.441786
823.000000	65.560771
822.000000	65.662743
821.000000	65.725501
820.000000	65.721868
819.000000	65.628522
818.000000	65.438278
817.000000	65.164250
816.000000	64.826653
815.000000	64.438261
814.000000	63.989989
813.000000	63.434917
812.000000	62.692261
811.000000	61.685562
810.000000	60.414623
809.000000	59.011638
808.000000	57.726684
807.000000	56.825663
806.000000	56.461106
805.000000	56.607665
804.000000	57.106067
803.000000	57.766953
802.000000	58.440225
801.000000	59.030729
800.000000	59.485520
799.000000	59.786245
798.000000	59.948659
797.000000	60.011454
796.000000	60.020115
795.000000	60.016962
794.000000	60.035853
793.000000	60.093028
792.000000	60.183488
791.000000	60.290585
790.000000	60.400505
789.000000	60.507149
788.000000	60.608646
787.000000	60.707024
786.000000	60.808864
785.000000	60.917644
784.000000	61.023405
783.000000	61.103384
782.000000	61.133539
781.000000	61.097467
780.000000	60.990397
779.000000	60.825654
778.000000	60.638675
777.000000	60.477973
776.000000	60.386769
775.000000	60.391175
774.000000	60.497990
773.000000	60.695484
772.000000	60.954779
771.000000	61.238301
770.000000	61.513769
769.000000	61.761473
768.000000	61.972673
767.000000	62.146213
766.000000	62.285780
765.000000	62.391441
764.000000	62.452071
763.000000	62.450007
762.000000	62.374669
761.000000	62.229592
760.000000	62.030497
759.000000	61.806158
758.000000	61.598757
757.000000	61.453035
756.000000	61.398379
755.000000	61.440942
754.000000	61.567891
753.000000	61.752264
752.000000	61.956173
751.000000	62.141668
750.000000	62.287205
749.000000	62.391696
748.000000	62.462894
747.000000	62.506092
746.000000	62.522073
745.000000	62.505270
744.000000	62.441489
743.000000	62.315329
742.000000	62.124778
741.000000	61.886753
740.000000	61.630547
739.000000	61.392754
738.000000	61.214277
737.000000	61.127961
736.000000	61.139440
735.000000	61.220365
734.000000	61.319968
733.000000	61.379580
732.000000	61.341407
731.000000	61.162886
730.000000	60.835990
729.000000	60.391750
728.000000	59.883523
727.000000	59.368263
726.000000	58.899438
725.000000	58.519154
724.000000	58.244773
723.000000	58.067844
722.000000	57.975077
721.000000	57.966586
720.000000	58.048013
719.000000	58.212571
718.000000	58.441914
717.000000	58.719845
716.000000	59.032924
715.000000	59.360421
714.000000	59.673092
713.000000	59.942486
712.000000	60.148004
711.000000	60.281629
710.000000	60.352493
709.000000	60.381286
708.000000	60.384002
707.000000	60.361520
706.000000	60.306058
705.000000	60.210580
704.000000	60.069711
703.000000	59.884426
702.000000	59.675001
701.000000	59.482156
700.000000	59.348299
699.000000	59.299378
698.000000	59.344284
697.000000	59.477237
696.000000	59.669287
695.000000	59.870993
694.000000	60.037695
693.000000	60.149583
692.000000	60.205433
691.000000	60.210052
690.000000	60.178283
689.000000	60.134491
688.000000	60.089122
687.000000	60.025217
686.000000	59.921249
685.000000	59.775931
684.000000	59.600716
683.000000	59.407235
682.000000	59.221615
681.000000	59.093306
680.000000	59.064342
679.000000	59.137670
678.000000	59.293507
677.000000	59.508582
676.000000	59.738213
675.000000	59.929351
674.000000	60.054467
673.000000	60.104096
672.000000	60.079145
671.000000	60.015760
670.000000	59.989308
669.000000	60.086840
668.000000	60.403036
667.000000	60.734518
666.000000	60.625506
665.000000	60.140939
664.000000	59.653404
663.000000	59.331277
662.000000	59.179931
661.000000	59.150449
660.000000	59.222625
659.000000	59.390096
658.000000	59.620484
657.000000	59.856423
656.000000	60.045348
655.000000	60.165882
654.000000	60.222899
653.000000	60.224790
652.000000	60.187055
651.000000	60.139281
650.000000	60.101695
649.000000	60.065942
648.000000	60.011473
647.000000	59.927494
646.000000	59.813162
645.000000	59.675620
644.000000	59.542337
643.000000	59.461385
642.000000	59.472783
641.000000	59.583508
640.000000	59.775338
639.000000	60.017983
638.000000	60.266422
637.000000	60.467763
636.000000	60.588141
635.000000	60.629671
634.000000	60.616907
633.000000	60.575386
632.000000	60.526913
631.000000	60.489684
630.000000	60.464278
629.000000	60.427041
628.000000	60.351404
627.000000	60.234955
626.000000	60.102407
625.000000	59.988992
624.000000	59.930168
623.000000	59.957279
622.000000	60.083044
621.000000	60.286072
620.000000	60.520033
619.000000	60.739561
618.000000	60.916447
617.000000	61.037988
616.000000	61.100231
615.000000	61.109965
614.000000	61.088843
613.000000	61.066006
612.000000	61.061225
611.000000	61.073204
610.000000	61.081490
609.000000	61.061519
608.000000	61.003359
607.000000	60.922381
606.000000	60.855422
605.000000	60.845210
604.000000	60.922371
603.000000	61.092384
602.000000	61.330776
601.000000	61.587642
600.000000	61.797201
599.000000	61.893493
598.000000	61.833036
597.000000	61.598425
596.000000	61.182349
595.000000	60.559870
594.000000	59.647461
593.000000	58.276030
592.000000	56.232704
591.000000	53.444651
590.000000	50.199930
589.000000	47.173047
588.000000	45.154179
587.000000	44.635730
586.000000	45.522027
585.000000	47.225534
584.000000	49.110471
583.000000	50.819547
582.000000	52.257080
581.000000	53.426109
580.000000	54.343828
579.000000	55.043177
578.000000	55.568765
577.000000	55.960398
576.000000	56.259291
575.000000	56.514842
574.000000	56.754085
573.000000	56.965807
572.000000	57.127178
571.000000	57.231123
570.000000	57.284909
569.000000	57.301099
568.000000	57.310113
567.000000	57.362549
566.000000	57.493811
565.000000	57.693697
564.000000	57.920288
563.000000	58.128485
562.000000	58.276661
561.000000	58.331266
560.000000	58.287103
559.000000	58.174784
558.000000	58.036569
557.000000	57.902277
556.000000	57.796669
555.000000	57.751271
554.000000	57.784262
553.000000	57.878848
552.000000	57.999283
551.000000	58.120725
550.000000	58.235946
549.000000	58.353383
548.000000	58.501795
547.000000	58.720462
546.000000	59.024053
545.000000	59.379520
544.000000	59.727132
543.000000	60.013135
542.000000	60.201977
541.000000	60.280062
540.000000	60.265528
539.000000	60.207096
538.000000	60.157696
537.000000	60.145452
536.000000	60.166435
535.000000	60.197549
534.000000	60.206073
533.000000	60.165167
532.000000	60.076626
531.000000	59.977321
530.000000	59.916422
529.000000	59.928574
528.000000	60.028779
527.000000	60.212554
526.000000	60.436308
525.000000	60.608999
524.000000	60.632485
523.000000	60.448316
522.000000	60.046343
521.000000	59.441427
520.000000	58.658314
519.000000	57.725918
518.000000	56.669522
517.000000	55.522818
516.000000	54.357381
515.000000	53.289527
514.000000	52.439033
513.000000	51.895595
512.000000	51.713403
511.000000	51.906595
510.000000	52.425693
509.000000	53.171005
508.000000	54.046656
507.000000	54.962791
506.000000	55.813031
505.000000	56.504062
504.000000	57.010749
503.000000	57.377030
502.000000	57.667404
501.000000	57.929833
500.000000	58.192701
499.000000	58.471837
498.000000	58.756631
497.000000	59.007725
496.000000	59.185339
495.000000	59.278900
494.000000	59.312718
493.000000	59.338065
492.000000	59.420032
491.000000	59.610240
490.000000	59.909553
489.000000	60.263901
488.000000	60.594566
487.000000	60.823797
486.000000	60.884881
485.000000	60.735251
484.000000	60.378100
483.000000	59.847320
482.000000	59.165827
481.000000	58.321019
480.000000	57.267377
479.000000	55.949236
478.000000	54.325886
477.000000	52.439294
476.000000	50.481209
475.000000	48.765266
474.000000	47.588871
473.000000	47.122902
472.000000	47.375269
471.000000	48.194283
470.000000	49.345947
469.000000	50.611278
468.000000	51.835056
467.000000	52.917090
466.000000	53.800039
465.000000	54.486822
464.000000	55.040991
463.000000	55.549253
462.000000	56.063048
461.000000	56.570761
460.000000	57.030929
459.000000	57.422683
458.000000	57.745749
457.000000	57.998167
456.000000	58.189014
455.000000	58.372039
454.000000	58.634009
453.000000	59.034450
452.000000	59.550871
451.000000	60.084661
450.000000	60.524911
449.000000	60.803027
448.000000	60.903192
447.000000	60.868524
446.000000	60.790469
445.000000	60.761735
444.000000	60.837762
443.000000	61.026438
442.000000	61.284208
441.000000	61.531058
440.000000	61.694294
439.000000	61.747575
438.000000	61.721786
437.000000	61.695794
436.000000	61.766620
435.000000	61.997686
434.000000	62.375249
433.000000	62.819185
432.000000	63.220118
431.000000	63.472250
430.000000	63.518316
429.000000	63.379977
428.000000	63.138529
427.000000	62.909602
426.000000	62.811593
425.000000	62.905374
424.000000	63.151131
423.000000	63.433294
422.000000	63.636992
421.000000	63.703010
420.000000	63.630931
419.000000	63.544478
418.000000	63.644143
417.000000	63.948344
416.000000	64.345483
415.000000	64.779806
414.000000	65.213306
413.000000	65.567171
412.000000	65.738128
411.000000	65.670392
410.000000	65.424083
409.000000	65.125544
408.000000	64.838093
407.000000	64.563761
406.000000	64.348229
405.000000	64.310722
404.000000	64.466685
403.000000	64.680468
402.000000	64.788611
401.000000	64.741631
400.000000	64.621472
