PE IR       SUBTECH     SPECTRUM    ASCII       PEDS        4.00        
   -1
23ms030-cis.asc
24/10/21
15:06:01.00
24/10/21
15:06:01.00
Administrator
Sample 1312 By Administrator Date Monday, October 21 2024
400.000000
#HDR
-1
-1
#GR
cm-1
%T
1.0
0.0
4000.000000
-1.000000
3601
8
82.592015
7.064170
#DATA
4000.000000	54.655734
3999.000000	54.643014
3998.000000	54.632614
3997.000000	54.624085
3996.000000	54.617504
3995.000000	54.612979
3994.000000	54.610362
3993.000000	54.609523
3992.000000	54.610472
3991.000000	54.613201
3990.000000	54.617766
3989.000000	54.624722
3988.000000	54.635256
3987.000000	54.650343
3986.000000	54.670008
3985.000000	54.693717
3984.000000	54.721117
3983.000000	54.752243
3982.000000	54.787005
3981.000000	54.824920
3980.000000	54.865301
3979.000000	54.907433
3978.000000	54.950484
3977.000000	54.993405
3976.000000	55.035324
3975.000000	55.076127
3974.000000	55.116044
3973.000000	55.154777
3972.000000	55.191617
3971.000000	55.226309
3970.000000	55.259472
3969.000000	55.292243
3968.000000	55.326195
3967.000000	55.363083
3966.000000	55.404241
3965.000000	55.449843
3964.000000	55.498789
3963.000000	55.549845
3962.000000	55.602437
3961.000000	55.656529
3960.000000	55.712389
3959.000000	55.770059
3958.000000	55.828830
3957.000000	55.887253
3956.000000	55.944464
3955.000000	56.000726
3954.000000	56.056647
3953.000000	56.112188
3952.000000	56.166210
3951.000000	56.216916
3950.000000	56.262773
3949.000000	56.304165
3948.000000	56.343228
3947.000000	56.381599
3946.000000	56.419516
3945.000000	56.456760
3944.000000	56.492725
3943.000000	56.526242
3942.000000	56.557167
3941.000000	56.588553
3940.000000	56.625529
3939.000000	56.670795
3938.000000	56.722248
3937.000000	56.774918
3936.000000	56.825415
3935.000000	56.872984
3934.000000	56.916170
3933.000000	56.951318
3932.000000	56.976051
3931.000000	56.994055
3930.000000	57.012778
3929.000000	57.035950
3928.000000	57.061089
3927.000000	57.084495
3926.000000	57.105831
3925.000000	57.125132
3924.000000	57.140917
3923.000000	57.154486
3922.000000	57.170673
3921.000000	57.190934
3920.000000	57.209302
3919.000000	57.218956
3918.000000	57.220809
3917.000000	57.221200
3916.000000	57.224301
3915.000000	57.231972
3914.000000	57.246721
3913.000000	57.269384
3912.000000	57.297196
3911.000000	57.326072
3910.000000	57.355876
3909.000000	57.387851
3908.000000	57.421204
3907.000000	57.453213
3906.000000	57.482774
3905.000000	57.509552
3904.000000	57.529709
3903.000000	57.539925
3902.000000	57.544578
3901.000000	57.553951
3900.000000	57.574317
3899.000000	57.604203
3898.000000	57.641763
3897.000000	57.689920
3896.000000	57.749776
3895.000000	57.814506
3894.000000	57.874614
3893.000000	57.926325
3892.000000	57.974650
3891.000000	58.022973
3890.000000	58.069495
3889.000000	58.112650
3888.000000	58.156258
3887.000000	58.204754
3886.000000	58.251997
3885.000000	58.285736
3884.000000	58.307131
3883.000000	58.329234
3882.000000	58.359375
3881.000000	58.390975
3880.000000	58.412540
3879.000000	58.422791
3878.000000	58.430622
3877.000000	58.443469
3876.000000	58.463744
3875.000000	58.487966
3874.000000	58.506199
3873.000000	58.511557
3872.000000	58.512187
3871.000000	58.525006
3870.000000	58.550416
3869.000000	58.572029
3868.000000	58.587149
3867.000000	58.611800
3866.000000	58.654894
3865.000000	58.699970
3864.000000	58.726163
3863.000000	58.739146
3862.000000	58.760027
3861.000000	58.795026
3860.000000	58.837967
3859.000000	58.882591
3858.000000	58.925336
3857.000000	58.959604
3856.000000	58.982348
3855.000000	59.001138
3854.000000	59.009275
3853.000000	58.991021
3852.000000	58.967786
3851.000000	58.976531
3850.000000	59.025127
3849.000000	59.094311
3848.000000	59.161577
3847.000000	59.218459
3846.000000	59.268402
3845.000000	59.314569
3844.000000	59.356906
3843.000000	59.393543
3842.000000	59.422357
3841.000000	59.444248
3840.000000	59.464929
3839.000000	59.485981
3838.000000	59.504746
3837.000000	59.521893
3836.000000	59.542926
3835.000000	59.570759
3834.000000	59.603225
3833.000000	59.638563
3832.000000	59.676043
3831.000000	59.713557
3830.000000	59.749259
3829.000000	59.784100
3828.000000	59.823252
3827.000000	59.869941
3826.000000	59.917505
3825.000000	59.953926
3824.000000	59.978315
3823.000000	60.004669
3822.000000	60.043520
3821.000000	60.082250
3820.000000	60.105002
3819.000000	60.116752
3818.000000	60.134803
3817.000000	60.169343
3816.000000	60.206122
3815.000000	60.226129
3814.000000	60.237505
3813.000000	60.262929
3812.000000	60.307097
3811.000000	60.353078
3810.000000	60.385582
3809.000000	60.411359
3808.000000	60.449136
3807.000000	60.499740
3806.000000	60.544654
3805.000000	60.573421
3804.000000	60.595142
3803.000000	60.625640
3802.000000	60.664962
3801.000000	60.691623
3800.000000	60.700042
3799.000000	60.710184
3798.000000	60.737263
3797.000000	60.776621
3796.000000	60.812167
3795.000000	60.837983
3794.000000	60.863007
3793.000000	60.896647
3792.000000	60.936465
3791.000000	60.974515
3790.000000	61.008230
3789.000000	61.040222
3788.000000	61.071570
3787.000000	61.101396
3786.000000	61.130438
3785.000000	61.160155
3784.000000	61.188224
3783.000000	61.210778
3782.000000	61.229111
3781.000000	61.248677
3780.000000	61.271203
3779.000000	61.291525
3778.000000	61.306763
3777.000000	61.322718
3776.000000	61.349090
3775.000000	61.387346
3774.000000	61.427957
3773.000000	61.462680
3772.000000	61.496369
3771.000000	61.537899
3770.000000	61.583494
3769.000000	61.622384
3768.000000	61.654730
3767.000000	61.691234
3766.000000	61.738460
3765.000000	61.790518
3764.000000	61.837309
3763.000000	61.878876
3762.000000	61.924751
3761.000000	61.978148
3760.000000	62.029754
3759.000000	62.072811
3758.000000	62.114726
3757.000000	62.160982
3756.000000	62.206461
3755.000000	62.247269
3754.000000	62.288197
3753.000000	62.333189
3752.000000	62.375106
3751.000000	62.410816
3750.000000	62.452315
3749.000000	62.502951
3748.000000	62.546594
3747.000000	62.574677
3746.000000	62.610570
3745.000000	62.673457
3744.000000	62.736926
3743.000000	62.782467
3742.000000	62.832798
3741.000000	62.905243
3740.000000	62.986763
3739.000000	63.053577
3738.000000	63.104174
3737.000000	63.152803
3736.000000	63.196429
3735.000000	63.220174
3734.000000	63.229810
3733.000000	63.249385
3732.000000	63.287306
3731.000000	63.331168
3730.000000	63.370111
3729.000000	63.405887
3728.000000	63.445325
3727.000000	63.486750
3726.000000	63.518930
3725.000000	63.538514
3724.000000	63.554667
3723.000000	63.574615
3722.000000	63.596502
3721.000000	63.617568
3720.000000	63.641188
3719.000000	63.673717
3718.000000	63.718033
3717.000000	63.767721
3716.000000	63.814276
3715.000000	63.859742
3714.000000	63.913625
3713.000000	63.978263
3712.000000	64.043512
3711.000000	64.101820
3710.000000	64.157887
3709.000000	64.216974
3708.000000	64.278844
3707.000000	64.339265
3706.000000	64.394107
3705.000000	64.442584
3704.000000	64.488147
3703.000000	64.535387
3702.000000	64.584496
3701.000000	64.630800
3700.000000	64.670589
3699.000000	64.707043
3698.000000	64.748078
3697.000000	64.795567
3696.000000	64.840736
3695.000000	64.877945
3694.000000	64.911599
3693.000000	64.946143
3692.000000	64.979428
3691.000000	65.010874
3690.000000	65.048208
3689.000000	65.094706
3688.000000	65.141294
3687.000000	65.179334
3686.000000	65.212768
3685.000000	65.250237
3684.000000	65.292763
3683.000000	65.333135
3682.000000	65.369016
3681.000000	65.406971
3680.000000	65.445497
3679.000000	65.470746
3678.000000	65.480819
3677.000000	65.504846
3676.000000	65.561159
3675.000000	65.621046
3674.000000	65.653519
3673.000000	65.662864
3672.000000	65.675522
3671.000000	65.710497
3670.000000	65.755968
3669.000000	65.792501
3668.000000	65.823104
3667.000000	65.857947
3666.000000	65.897250
3665.000000	65.935325
3664.000000	65.969699
3663.000000	66.003343
3662.000000	66.040077
3661.000000	66.077037
3660.000000	66.105564
3659.000000	66.123893
3658.000000	66.144502
3657.000000	66.182316
3656.000000	66.231642
3655.000000	66.271824
3654.000000	66.292838
3653.000000	66.305234
3652.000000	66.329269
3651.000000	66.373511
3650.000000	66.424875
3649.000000	66.471107
3648.000000	66.516380
3647.000000	66.564175
3646.000000	66.609991
3645.000000	66.651393
3644.000000	66.692643
3643.000000	66.738128
3642.000000	66.786611
3641.000000	66.833235
3640.000000	66.877451
3639.000000	66.922159
3638.000000	66.965477
3637.000000	67.002383
3636.000000	67.034294
3635.000000	67.068258
3634.000000	67.100286
3633.000000	67.113180
3632.000000	67.099615
3631.000000	67.082450
3630.000000	67.096222
3629.000000	67.136945
3628.000000	67.166889
3627.000000	67.168964
3626.000000	67.153426
3625.000000	67.129496
3624.000000	67.094574
3623.000000	67.043448
3622.000000	66.981706
3621.000000	66.923758
3620.000000	66.876541
3619.000000	66.832463
3618.000000	66.779631
3617.000000	66.711221
3616.000000	66.628176
3615.000000	66.539476
3614.000000	66.453742
3613.000000	66.370580
3612.000000	66.284515
3611.000000	66.194910
3610.000000	66.107148
3609.000000	66.023256
3608.000000	65.937621
3607.000000	65.844018
3606.000000	65.741887
3605.000000	65.633457
3604.000000	65.521047
3603.000000	65.409333
3602.000000	65.306189
3601.000000	65.216997
3600.000000	65.138217
3599.000000	65.062427
3598.000000	64.985055
3597.000000	64.905077
3596.000000	64.822746
3595.000000	64.738973
3594.000000	64.651788
3593.000000	64.556880
3592.000000	64.452377
3591.000000	64.344921
3590.000000	64.252791
3589.000000	64.197102
3588.000000	64.184451
3587.000000	64.199635
3586.000000	64.218508
3585.000000	64.223576
3584.000000	64.208933
3583.000000	64.177165
3582.000000	64.134105
3581.000000	64.085431
3580.000000	64.034204
3579.000000	63.981397
3578.000000	63.926542
3577.000000	63.868547
3576.000000	63.806476
3575.000000	63.740541
3574.000000	63.670988
3573.000000	63.596041
3572.000000	63.512243
3571.000000	63.417077
3570.000000	63.313637
3569.000000	63.210728
3568.000000	63.114395
3567.000000	63.020985
3566.000000	62.921466
3565.000000	62.809482
3564.000000	62.683965
3563.000000	62.547506
3562.000000	62.403244
3561.000000	62.253442
3560.000000	62.099588
3559.000000	61.942312
3558.000000	61.781266
3557.000000	61.614992
3556.000000	61.441562
3555.000000	61.260112
3554.000000	61.072126
3553.000000	60.879989
3552.000000	60.684218
3551.000000	60.482431
3550.000000	60.271686
3549.000000	60.051462
3548.000000	59.823430
3547.000000	59.589147
3546.000000	59.348843
3545.000000	59.101546
3544.000000	58.845442
3543.000000	58.578595
3542.000000	58.300074
3541.000000	58.010056
3540.000000	57.708924
3539.000000	57.396244
3538.000000	57.071182
3537.000000	56.733596
3536.000000	56.383847
3535.000000	56.021588
3534.000000	55.645190
3533.000000	55.253166
3532.000000	54.845050
3531.000000	54.420732
3530.000000	53.979916
3529.000000	53.522871
3528.000000	53.050069
3527.000000	52.560492
3526.000000	52.051602
3525.000000	51.522143
3524.000000	50.974106
3523.000000	50.410625
3522.000000	49.833095
3521.000000	49.240826
3520.000000	48.632805
3519.000000	48.008446
3518.000000	47.367226
3517.000000	46.709546
3516.000000	46.037471
3515.000000	45.353330
3514.000000	44.657801
3513.000000	43.949907
3512.000000	43.227951
3511.000000	42.490382
3510.000000	41.738106
3509.000000	40.976850
3508.000000	40.213516
3507.000000	39.448693
3506.000000	38.675521
3505.000000	37.887421
3504.000000	37.085734
3503.000000	36.278929
3502.000000	35.476216
3501.000000	34.682512
3500.000000	33.896822
3499.000000	33.113792
3498.000000	32.328818
3497.000000	31.543083
3496.000000	30.762631
3495.000000	29.992540
3494.000000	29.234562
3493.000000	28.490431
3492.000000	27.762668
3491.000000	27.051092
3490.000000	26.353162
3489.000000	25.669580
3488.000000	25.006461
3487.000000	24.370038
3486.000000	23.761799
3485.000000	23.179354
3484.000000	22.617693
3483.000000	22.070201
3482.000000	21.533541
3481.000000	21.012561
3480.000000	20.516152
3479.000000	20.046363
3478.000000	19.595904
3477.000000	19.156297
3476.000000	18.723655
3475.000000	18.296990
3474.000000	17.875856
3473.000000	17.461862
3472.000000	17.059088
3471.000000	16.672108
3470.000000	16.307706
3469.000000	15.977225
3468.000000	15.692274
3467.000000	15.457201
3466.000000	15.268928
3465.000000	15.124319
3464.000000	15.022746
3463.000000	14.963432
3462.000000	14.946764
3461.000000	14.977016
3460.000000	15.058818
3459.000000	15.189490
3458.000000	15.359078
3457.000000	15.557873
3456.000000	15.778139
3455.000000	16.010204
3454.000000	16.242641
3453.000000	16.465984
3452.000000	16.672152
3451.000000	16.850656
3450.000000	16.989554
3449.000000	17.081043
3448.000000	17.122139
3447.000000	17.110634
3446.000000	17.045963
3445.000000	16.931509
3444.000000	16.772827
3443.000000	16.574957
3442.000000	16.343908
3441.000000	16.090546
3440.000000	15.827820
3439.000000	15.565634
3438.000000	15.313213
3437.000000	15.083598
3436.000000	14.890070
3435.000000	14.738522
3434.000000	14.627264
3433.000000	14.553481
3432.000000	14.517451
3431.000000	14.521252
3430.000000	14.569229
3429.000000	14.669014
3428.000000	14.826028
3427.000000	15.040035
3426.000000	15.308202
3425.000000	15.630426
3424.000000	16.009158
3423.000000	16.443959
3422.000000	16.933366
3421.000000	17.477533
3420.000000	18.074873
3419.000000	18.718997
3418.000000	19.400507
3417.000000	20.112650
3416.000000	20.850487
3415.000000	21.607312
3414.000000	22.377033
3413.000000	23.156233
3412.000000	23.941211
3411.000000	24.725015
3410.000000	25.500913
3409.000000	26.266882
3408.000000	27.022369
3407.000000	27.762619
3406.000000	28.480405
3405.000000	29.171401
3404.000000	29.834729
3403.000000	30.471504
3402.000000	31.086236
3401.000000	31.687226
3400.000000	32.280800
3399.000000	32.864852
3398.000000	33.431791
3397.000000	33.976526
3396.000000	34.498611
3395.000000	34.999649
3394.000000	35.482377
3393.000000	35.952264
3392.000000	36.415709
3391.000000	36.875203
3390.000000	37.329079
3389.000000	37.774813
3388.000000	38.211171
3387.000000	38.638166
3386.000000	39.057042
3385.000000	39.470267
3384.000000	39.879267
3383.000000	40.283302
3382.000000	40.681862
3381.000000	41.076687
3380.000000	41.469970
3379.000000	41.861907
3378.000000	42.251976
3377.000000	42.641177
3376.000000	43.030628
3375.000000	43.418979
3374.000000	43.803190
3373.000000	44.181314
3372.000000	44.553292
3371.000000	44.920087
3370.000000	45.283952
3369.000000	45.648271
3368.000000	46.015104
3367.000000	46.383262
3366.000000	46.749847
3365.000000	47.112841
3364.000000	47.471085
3363.000000	47.823408
3362.000000	48.169713
3361.000000	48.511760
3360.000000	48.851343
3359.000000	49.188429
3358.000000	49.522367
3357.000000	49.853791
3356.000000	50.183285
3355.000000	50.509421
3354.000000	50.829922
3353.000000	51.144221
3352.000000	51.453611
3351.000000	51.759174
3350.000000	52.060987
3349.000000	52.358791
3348.000000	52.652081
3347.000000	52.940168
3346.000000	53.223033
3345.000000	53.501737
3344.000000	53.776925
3343.000000	54.047272
3342.000000	54.310628
3341.000000	54.565996
3340.000000	54.813863
3339.000000	55.055170
3338.000000	55.290510
3337.000000	55.520094
3336.000000	55.743089
3335.000000	55.957416
3334.000000	56.160942
3333.000000	56.351913
3332.000000	56.528510
3331.000000	56.688237
3330.000000	56.828769
3329.000000	56.949097
3328.000000	57.048239
3327.000000	57.124586
3326.000000	57.176228
3325.000000	57.200825
3324.000000	57.195192
3323.000000	57.154052
3322.000000	57.072234
3321.000000	56.946423
3320.000000	56.773571
3319.000000	56.550129
3318.000000	56.270858
3317.000000	55.930560
3316.000000	55.523864
3315.000000	55.042892
3314.000000	54.479557
3313.000000	53.825657
3312.000000	53.073258
3311.000000	52.215195
3310.000000	51.244335
3309.000000	50.158637
3308.000000	48.958431
3307.000000	47.643900
3306.000000	46.216270
3305.000000	44.675910
3304.000000	43.024633
3303.000000	41.262664
3302.000000	39.391622
3301.000000	37.420733
3300.000000	35.365650
3299.000000	33.249369
3298.000000	31.104709
3297.000000	28.975980
3296.000000	26.912245
3295.000000	24.957651
3294.000000	23.147571
3293.000000	21.510899
3292.000000	20.066061
3291.000000	18.810675
3290.000000	17.726380
3289.000000	16.785154
3288.000000	15.955370
3287.000000	15.206391
3286.000000	14.511428
3285.000000	13.856154
3284.000000	13.234742
3283.000000	12.645750
3282.000000	12.095305
3281.000000	11.597246
3280.000000	11.169373
3279.000000	10.825825
3278.000000	10.577956
3277.000000	10.438712
3276.000000	10.416259
3275.000000	10.508950
3274.000000	10.706400
3273.000000	10.992373
3272.000000	11.344379
3271.000000	11.729734
3270.000000	12.110556
3269.000000	12.450892
3268.000000	12.717748
3267.000000	12.882255
3266.000000	12.927289
3265.000000	12.852375
3264.000000	12.670276
3263.000000	12.402313
3262.000000	12.076196
3261.000000	11.726518
3260.000000	11.387542
3259.000000	11.085992
3258.000000	10.843206
3257.000000	10.678042
3256.000000	10.602284
3255.000000	10.616520
3254.000000	10.714042
3253.000000	10.884758
3252.000000	11.115392
3251.000000	11.386619
3250.000000	11.677949
3249.000000	11.973948
3248.000000	12.261353
3247.000000	12.526604
3246.000000	12.758362
3245.000000	12.950704
3244.000000	13.100807
3243.000000	13.207088
3242.000000	13.271747
3241.000000	13.302800
3240.000000	13.309348
3239.000000	13.296083
3238.000000	13.266684
3237.000000	13.226817
3236.000000	13.182085
3235.000000	13.136336
3234.000000	13.093660
3233.000000	13.058840
3232.000000	13.030731
3231.000000	12.999427
3230.000000	12.953921
3229.000000	12.888775
3228.000000	12.801504
3227.000000	12.687706
3226.000000	12.543748
3225.000000	12.371066
3224.000000	12.172686
3223.000000	11.949834
3222.000000	11.704991
3221.000000	11.445433
3220.000000	11.180058
3219.000000	10.914384
3218.000000	10.652333
3217.000000	10.398516
3216.000000	10.155051
3215.000000	9.919482
3214.000000	9.689253
3213.000000	9.464967
3212.000000	9.246202
3211.000000	9.028606
3210.000000	8.808982
3209.000000	8.590023
3208.000000	8.376123
3207.000000	8.168670
3206.000000	7.969295
3205.000000	7.783012
3204.000000	7.614647
3203.000000	7.465197
3202.000000	7.335461
3201.000000	7.229635
3200.000000	7.150574
3199.000000	7.096848
3198.000000	7.067206
3197.000000	7.064170
3196.000000	7.090072
3195.000000	7.142092
3194.000000	7.216909
3193.000000	7.314722
3192.000000	7.435235
3191.000000	7.575100
3190.000000	7.731184
3189.000000	7.903859
3188.000000	8.092753
3187.000000	8.293146
3186.000000	8.501129
3185.000000	8.717107
3184.000000	8.941679
3183.000000	9.171852
3182.000000	9.404718
3181.000000	9.641135
3180.000000	9.881506
3179.000000	10.122406
3178.000000	10.360676
3177.000000	10.596890
3176.000000	10.831501
3175.000000	11.061502
3174.000000	11.284358
3173.000000	11.501297
3172.000000	11.713577
3171.000000	11.919104
3170.000000	12.116251
3169.000000	12.307029
3168.000000	12.493085
3167.000000	12.672629
3166.000000	12.843897
3165.000000	13.008217
3164.000000	13.166327
3163.000000	13.315216
3162.000000	13.452268
3161.000000	13.578226
3160.000000	13.693702
3159.000000	13.796564
3158.000000	13.885609
3157.000000	13.963826
3156.000000	14.034466
3155.000000	14.098129
3154.000000	14.156745
3153.000000	14.216091
3152.000000	14.281169
3151.000000	14.352114
3150.000000	14.427790
3149.000000	14.509686
3148.000000	14.599229
3147.000000	14.694906
3146.000000	14.795383
3145.000000	14.901894
3144.000000	15.014518
3143.000000	15.129916
3142.000000	15.245309
3141.000000	15.361346
3140.000000	15.478168
3139.000000	15.592406
3138.000000	15.700792
3137.000000	15.802930
3136.000000	15.897511
3135.000000	15.979169
3134.000000	16.042523
3133.000000	16.085057
3132.000000	16.103951
3131.000000	16.093073
3130.000000	16.045779
3129.000000	15.959099
3128.000000	15.831453
3127.000000	15.661927
3126.000000	15.454388
3125.000000	15.218674
3124.000000	14.966235
3123.000000	14.706022
3122.000000	14.447256
3121.000000	14.200647
3120.000000	13.972841
3119.000000	13.763397
3118.000000	13.569865
3117.000000	13.392316
3116.000000	13.230163
3115.000000	13.079339
3114.000000	12.935617
3113.000000	12.797577
3112.000000	12.663506
3111.000000	12.529701
3110.000000	12.395509
3109.000000	12.265508
3108.000000	12.144201
3107.000000	12.032474
3106.000000	11.931639
3105.000000	11.847075
3104.000000	11.783677
3103.000000	11.742733
3102.000000	11.726573
3101.000000	11.740935
3100.000000	11.790769
3099.000000	11.876006
3098.000000	11.995464
3097.000000	12.150767
3096.000000	12.342006
3095.000000	12.565882
3094.000000	12.819431
3093.000000	13.102573
3092.000000	13.414539
3091.000000	13.750456
3090.000000	14.105771
3089.000000	14.478316
3088.000000	14.864348
3087.000000	15.257496
3086.000000	15.653518
3085.000000	16.053019
3084.000000	16.456030
3083.000000	16.858386
3082.000000	17.256147
3081.000000	17.649178
3080.000000	18.038188
3079.000000	18.421997
3078.000000	18.800176
3077.000000	19.174057
3076.000000	19.542817
3075.000000	19.902240
3074.000000	20.249759
3073.000000	20.587163
3072.000000	20.915865
3071.000000	21.234170
3070.000000	21.541260
3069.000000	21.839983
3068.000000	22.133078
3067.000000	22.419661
3066.000000	22.698388
3065.000000	22.970293
3064.000000	23.236232
3063.000000	23.495225
3062.000000	23.747176
3061.000000	23.994359
3060.000000	24.237839
3059.000000	24.475659
3058.000000	24.706742
3057.000000	24.933045
3056.000000	25.156337
3055.000000	25.375940
3054.000000	25.591494
3053.000000	25.804819
3052.000000	26.016915
3051.000000	26.226438
3050.000000	26.432675
3049.000000	26.636777
3048.000000	26.838752
3047.000000	27.036483
3046.000000	27.229505
3045.000000	27.420398
3044.000000	27.610939
3043.000000	27.800387
3042.000000	27.988733
3041.000000	28.177929
3040.000000	28.368037
3039.000000	28.555712
3038.000000	28.738679
3037.000000	28.918550
3036.000000	29.097760
3035.000000	29.276914
3034.000000	29.456460
3033.000000	29.637564
3032.000000	29.819527
3031.000000	29.999694
3030.000000	30.177447
3029.000000	30.354966
3028.000000	30.532773
3027.000000	30.708196
3026.000000	30.879693
3025.000000	31.048992
3024.000000	31.216720
3023.000000	31.379644
3022.000000	31.534263
3021.000000	31.679329
3020.000000	31.812817
3019.000000	31.928992
3018.000000	32.021570
3017.000000	32.087234
3016.000000	32.124879
3015.000000	32.135669
3014.000000	32.126478
3013.000000	32.111829
3012.000000	32.109702
3011.000000	32.136583
3010.000000	32.205434
3009.000000	32.322878
3008.000000	32.484752
3007.000000	32.676252
3006.000000	32.878174
3005.000000	33.071421
3004.000000	33.235378
3003.000000	33.346250
3002.000000	33.380399
3001.000000	33.318067
3000.000000	33.147807
2999.000000	32.875064
2998.000000	32.533897
2997.000000	32.188178
2996.000000	31.915508
2995.000000	31.783541
2994.000000	31.829737
2993.000000	32.051322
2992.000000	32.405801
2991.000000	32.828738
2990.000000	33.259737
2989.000000	33.659598
2988.000000	34.011018
2987.000000	34.310649
2986.000000	34.563522
2985.000000	34.777530
2984.000000	34.957982
2983.000000	35.105331
2982.000000	35.218870
2981.000000	35.298426
2980.000000	35.341716
2979.000000	35.343129
2978.000000	35.297524
2977.000000	35.205573
2976.000000	35.074576
2975.000000	34.919476
2974.000000	34.763512
2973.000000	34.633383
2972.000000	34.548777
2971.000000	34.513773
2970.000000	34.515713
2969.000000	34.526494
2968.000000	34.504578
2967.000000	34.405526
2966.000000	34.201344
2965.000000	33.895349
2964.000000	33.520892
2963.000000	33.128183
2962.000000	32.769727
2961.000000	32.487371
2960.000000	32.304619
2959.000000	32.227599
2958.000000	32.254229
2957.000000	32.378238
2956.000000	32.585460
2955.000000	32.852417
2954.000000	33.151212
2953.000000	33.454006
2952.000000	33.731270
2951.000000	33.954989
2950.000000	34.108735
2949.000000	34.195903
2948.000000	34.235298
2947.000000	34.246856
2946.000000	34.235611
2945.000000	34.177054
2944.000000	34.016618
2943.000000	33.695916
2942.000000	33.202672
2941.000000	32.608505
2940.000000	32.061988
2939.000000	31.733346
2938.000000	31.740277
2937.000000	32.099164
2936.000000	32.725487
2935.000000	33.483401
2934.000000	34.247987
2933.000000	34.942038
2932.000000	35.535921
2931.000000	36.031355
2930.000000	36.446798
2929.000000	36.804736
2928.000000	37.122851
2927.000000	37.410712
2926.000000	37.674304
2925.000000	37.918732
2924.000000	38.146283
2923.000000	38.356067
2922.000000	38.547819
2921.000000	38.723260
2920.000000	38.882536
2919.000000	39.023764
2918.000000	39.146727
2917.000000	39.254221
2916.000000	39.348624
2915.000000	39.430328
2914.000000	39.500612
2913.000000	39.562221
2912.000000	39.615718
2911.000000	39.658499
2910.000000	39.688162
2909.000000	39.703574
2908.000000	39.701232
2907.000000	39.672867
2906.000000	39.608072
2905.000000	39.495725
2904.000000	39.322204
2903.000000	39.073197
2902.000000	38.741503
2901.000000	38.334177
2900.000000	37.874082
2899.000000	37.399414
2898.000000	36.960646
2897.000000	36.611567
2896.000000	36.393047
2895.000000	36.321783
2894.000000	36.391440
2893.000000	36.578427
2892.000000	36.848301
2891.000000	37.163670
2890.000000	37.494317
2889.000000	37.820637
2888.000000	38.129937
2887.000000	38.413319
2886.000000	38.666704
2885.000000	38.891186
2884.000000	39.088274
2883.000000	39.257786
2882.000000	39.400847
2881.000000	39.522161
2880.000000	39.627816
2879.000000	39.722983
2878.000000	39.812598
2877.000000	39.901018
2876.000000	39.989289
2875.000000	40.074808
2874.000000	40.155343
2873.000000	40.231266
2872.000000	40.303834
2871.000000	40.374925
2870.000000	40.449592
2869.000000	40.535675
2868.000000	40.638544
2867.000000	40.757873
2866.000000	40.889997
2865.000000	41.030188
2864.000000	41.171712
2863.000000	41.306684
2862.000000	41.430316
2861.000000	41.542418
2860.000000	41.644009
2859.000000	41.735257
2858.000000	41.818027
2857.000000	41.897329
2856.000000	41.978269
2855.000000	42.063554
2854.000000	42.154499
2853.000000	42.251033
2852.000000	42.349076
2851.000000	42.440862
2850.000000	42.520022
2849.000000	42.585061
2848.000000	42.637933
2847.000000	42.682323
2846.000000	42.724210
2845.000000	42.770566
2844.000000	42.825320
2843.000000	42.888086
2842.000000	42.957430
2841.000000	43.033098
2840.000000	43.114331
2839.000000	43.199043
2838.000000	43.286077
2837.000000	43.376034
2836.000000	43.469042
2835.000000	43.564138
2834.000000	43.661535
2833.000000	43.762944
2832.000000	43.868578
2831.000000	43.975987
2830.000000	44.082710
2829.000000	44.187723
2828.000000	44.289689
2827.000000	44.386636
2826.000000	44.478491
2825.000000	44.567615
2824.000000	44.655803
2823.000000	44.742716
2822.000000	44.827896
2821.000000	44.911693
2820.000000	44.993263
2819.000000	45.070264
2818.000000	45.141635
2817.000000	45.208533
2816.000000	45.271769
2815.000000	45.330750
2814.000000	45.385916
2813.000000	45.439658
2812.000000	45.493612
2811.000000	45.547197
2810.000000	45.599709
2809.000000	45.651488
2808.000000	45.702044
2807.000000	45.749506
2806.000000	45.793295
2805.000000	45.835333
2804.000000	45.877523
2803.000000	45.920111
2802.000000	45.963316
2801.000000	46.008196
2800.000000	46.054762
2799.000000	46.101288
2798.000000	46.146413
2797.000000	46.189948
2796.000000	46.231066
2795.000000	46.268280
2794.000000	46.302176
2793.000000	46.335727
2792.000000	46.370776
2791.000000	46.406412
2790.000000	46.441618
2789.000000	46.476812
2788.000000	46.511531
2787.000000	46.543219
2786.000000	46.570118
2785.000000	46.593633
2784.000000	46.616758
2783.000000	46.642300
2782.000000	46.673585
2781.000000	46.714194
2780.000000	46.765152
2779.000000	46.823867
2778.000000	46.886851
2777.000000	46.951875
2776.000000	47.016865
2775.000000	47.079267
2774.000000	47.138058
2773.000000	47.194489
2772.000000	47.249727
2771.000000	47.303515
2770.000000	47.355847
2769.000000	47.407782
2768.000000	47.459436
2767.000000	47.509026
2766.000000	47.555026
2765.000000	47.597382
2764.000000	47.635797
2763.000000	47.669098
2762.000000	47.697394
2761.000000	47.722931
2760.000000	47.747629
2759.000000	47.771413
2758.000000	47.793847
2757.000000	47.815137
2756.000000	47.834524
2755.000000	47.849950
2754.000000	47.860826
2753.000000	47.869799
2752.000000	47.880851
2751.000000	47.897173
2750.000000	47.921206
2749.000000	47.954022
2748.000000	47.993039
2747.000000	48.032245
2746.000000	48.066271
2745.000000	48.093341
2744.000000	48.114246
2743.000000	48.130808
2742.000000	48.145900
2741.000000	48.162176
2740.000000	48.178954
2739.000000	48.192173
2738.000000	48.199204
2737.000000	48.202939
2736.000000	48.210633
2735.000000	48.230496
2734.000000	48.269465
2733.000000	48.330585
2732.000000	48.410280
2731.000000	48.499505
2730.000000	48.589080
2729.000000	48.673730
2728.000000	48.751270
2727.000000	48.820677
2726.000000	48.882378
2725.000000	48.938146
2724.000000	48.988845
2723.000000	49.033434
2722.000000	49.070784
2721.000000	49.100825
2720.000000	49.123593
2719.000000	49.138876
2718.000000	49.148052
2717.000000	49.154863
2716.000000	49.163190
2715.000000	49.175482
2714.000000	49.193589
2713.000000	49.219008
2712.000000	49.251407
2711.000000	49.288622
2710.000000	49.328859
2709.000000	49.371387
2708.000000	49.414647
2707.000000	49.455723
2706.000000	49.492558
2705.000000	49.524829
2704.000000	49.551821
2703.000000	49.571528
2702.000000	49.582750
2701.000000	49.586026
2700.000000	49.581916
2699.000000	49.570149
2698.000000	49.551402
2697.000000	49.528392
2696.000000	49.504086
2695.000000	49.480641
2694.000000	49.460443
2693.000000	49.445737
2692.000000	49.436240
2691.000000	49.429182
2690.000000	49.422823
2689.000000	49.418295
2688.000000	49.417293
2687.000000	49.419946
2686.000000	49.425930
2685.000000	49.435443
2684.000000	49.448034
2683.000000	49.462745
2682.000000	49.480373
2681.000000	49.503815
2680.000000	49.534870
2679.000000	49.572235
2678.000000	49.613460
2677.000000	49.656451
2676.000000	49.698162
2675.000000	49.734204
2674.000000	49.761393
2673.000000	49.779377
2672.000000	49.789092
2671.000000	49.791623
2670.000000	49.789817
2669.000000	49.789211
2668.000000	49.795625
2667.000000	49.812715
2666.000000	49.842060
2665.000000	49.883259
2664.000000	49.932575
2663.000000	49.983457
2662.000000	50.029815
2661.000000	50.067967
2660.000000	50.095502
2659.000000	50.110648
2658.000000	50.113890
2657.000000	50.108570
2656.000000	50.098685
2655.000000	50.087435
2654.000000	50.078679
2653.000000	50.077516
2652.000000	50.088050
2651.000000	50.111895
2650.000000	50.149329
2649.000000	50.199646
2648.000000	50.259631
2647.000000	50.323475
2646.000000	50.385515
2645.000000	50.442293
2644.000000	50.491670
2643.000000	50.532625
2642.000000	50.567108
2641.000000	50.600126
2640.000000	50.636459
2639.000000	50.678126
2638.000000	50.725152
2637.000000	50.776582
2636.000000	50.829656
2635.000000	50.879835
2634.000000	50.923238
2633.000000	50.958147
2632.000000	50.983898
2631.000000	51.000391
2630.000000	51.009347
2629.000000	51.014500
2628.000000	51.019100
2627.000000	51.024212
2626.000000	51.030025
2625.000000	51.036681
2624.000000	51.043319
2623.000000	51.048032
2622.000000	51.049808
2621.000000	51.049289
2620.000000	51.046848
2619.000000	51.041673
2618.000000	51.033228
2617.000000	51.021675
2616.000000	51.006191
2615.000000	50.984384
2614.000000	50.954591
2613.000000	50.917345
2612.000000	50.874127
2611.000000	50.826967
2610.000000	50.780080
2609.000000	50.739878
2608.000000	50.711939
2607.000000	50.699086
2606.000000	50.702300
2605.000000	50.721658
2604.000000	50.755168
2603.000000	50.798479
2602.000000	50.847467
2601.000000	50.899176
2600.000000	50.950486
2599.000000	50.997969
2598.000000	51.040059
2597.000000	51.078112
2596.000000	51.114273
2595.000000	51.149874
2594.000000	51.186270
2593.000000	51.225085
2592.000000	51.266319
2591.000000	51.307677
2590.000000	51.346459
2589.000000	51.380834
2588.000000	51.409230
2587.000000	51.430444
2586.000000	51.445457
2585.000000	51.457593
2584.000000	51.470280
2583.000000	51.486121
2582.000000	51.508255
2581.000000	51.540206
2580.000000	51.583425
2579.000000	51.636597
2578.000000	51.697676
2577.000000	51.765263
2576.000000	51.837429
2575.000000	51.911542
2574.000000	51.986254
2573.000000	52.061532
2572.000000	52.136342
2571.000000	52.207955
2570.000000	52.274221
2569.000000	52.334774
2568.000000	52.389594
2567.000000	52.438340
2566.000000	52.482043
2565.000000	52.523705
2564.000000	52.565985
2563.000000	52.609784
2562.000000	52.655173
2561.000000	52.701818
2560.000000	52.747844
2559.000000	52.790126
2558.000000	52.826990
2557.000000	52.859312
2556.000000	52.888811
2555.000000	52.917107
2554.000000	52.946871
2553.000000	52.981573
2552.000000	53.022825
2551.000000	53.069305
2550.000000	53.118761
2549.000000	53.169381
2548.000000	53.218706
2547.000000	53.263529
2546.000000	53.302178
2545.000000	53.335583
2544.000000	53.365308
2543.000000	53.392079
2542.000000	53.416583
2541.000000	53.439480
2540.000000	53.459800
2539.000000	53.474523
2538.000000	53.480944
2537.000000	53.478062
2536.000000	53.465003
2535.000000	53.440816
2534.000000	53.406396
2533.000000	53.365272
2532.000000	53.321315
2531.000000	53.276613
2530.000000	53.232621
2529.000000	53.191028
2528.000000	53.152513
2527.000000	53.116157
2526.000000	53.081130
2525.000000	53.047797
2524.000000	53.016435
2523.000000	52.986302
2522.000000	52.956515
2521.000000	52.926219
2520.000000	52.893288
2519.000000	52.854573
2518.000000	52.808218
2517.000000	52.754398
2516.000000	52.693290
2515.000000	52.624876
2514.000000	52.551453
2513.000000	52.478483
2512.000000	52.411912
2511.000000	52.356191
2510.000000	52.315036
2509.000000	52.291484
2508.000000	52.286006
2507.000000	52.295730
2506.000000	52.317459
2505.000000	52.349151
2504.000000	52.388404
2503.000000	52.432148
2502.000000	52.478214
2501.000000	52.526120
2500.000000	52.574833
2499.000000	52.621691
2498.000000	52.664313
2497.000000	52.701483
2496.000000	52.731516
2495.000000	52.752019
2494.000000	52.762590
2493.000000	52.765928
2492.000000	52.765710
2491.000000	52.764606
2490.000000	52.765083
2489.000000	52.769912
2488.000000	52.780368
2487.000000	52.795514
2486.000000	52.813973
2485.000000	52.834905
2484.000000	52.856752
2483.000000	52.877290
2482.000000	52.895846
2481.000000	52.913947
2480.000000	52.933077
2479.000000	52.953473
2478.000000	52.975891
2477.000000	53.002258
2476.000000	53.033741
2475.000000	53.070061
2474.000000	53.111377
2473.000000	53.159225
2472.000000	53.214277
2471.000000	53.275057
2470.000000	53.339720
2469.000000	53.407059
2468.000000	53.475151
2467.000000	53.540720
2466.000000	53.601124
2465.000000	53.655615
2464.000000	53.704096
2463.000000	53.746251
2462.000000	53.782748
2461.000000	53.815670
2460.000000	53.846513
2459.000000	53.875329
2458.000000	53.901912
2457.000000	53.926337
2456.000000	53.947699
2455.000000	53.963871
2454.000000	53.973874
2453.000000	53.979042
2452.000000	53.981718
2451.000000	53.984342
2450.000000	53.990117
2449.000000	54.002454
2448.000000	54.022777
2447.000000	54.050297
2446.000000	54.084289
2445.000000	54.125087
2444.000000	54.171993
2443.000000	54.222447
2442.000000	54.273953
2441.000000	54.325038
2440.000000	54.373997
2439.000000	54.418509
2438.000000	54.457587
2437.000000	54.492162
2436.000000	54.523091
2435.000000	54.549886
2434.000000	54.572118
2433.000000	54.590177
2432.000000	54.603771
2431.000000	54.611680
2430.000000	54.613214
2429.000000	54.608557
2428.000000	54.596903
2427.000000	54.575860
2426.000000	54.544204
2425.000000	54.503167
2424.000000	54.455019
2423.000000	54.402253
2422.000000	54.349139
2421.000000	54.302189
2420.000000	54.267204
2419.000000	54.246787
2418.000000	54.240727
2417.000000	54.246995
2416.000000	54.260959
2415.000000	54.275905
2414.000000	54.285800
2413.000000	54.287011
2412.000000	54.277178
2411.000000	54.254426
2410.000000	54.218625
2409.000000	54.171782
2408.000000	54.116514
2407.000000	54.054724
2406.000000	53.988808
2405.000000	53.922066
2404.000000	53.857372
2403.000000	53.796872
2402.000000	53.743473
2401.000000	53.700903
2400.000000	53.671271
2399.000000	53.653899
2398.000000	53.646384
2397.000000	53.645331
2396.000000	53.645289
2395.000000	53.639676
2394.000000	53.623904
2393.000000	53.597120
2392.000000	53.561148
2391.000000	53.520111
2390.000000	53.481540
2389.000000	53.454987
2388.000000	53.448605
2387.000000	53.467084
2386.000000	53.512949
2385.000000	53.586922
2384.000000	53.685798
2383.000000	53.802059
2382.000000	53.926350
2381.000000	54.049397
2380.000000	54.161139
2379.000000	54.252130
2378.000000	54.317470
2377.000000	54.357933
2376.000000	54.377478
2375.000000	54.380099
2374.000000	54.371878
2373.000000	54.360681
2372.000000	54.351699
2371.000000	54.346223
2370.000000	54.347816
2369.000000	54.364195
2368.000000	54.398795
2367.000000	54.448640
2366.000000	54.514764
2365.000000	54.598776
2364.000000	54.697532
2363.000000	54.807083
2362.000000	54.916336
2361.000000	55.012225
2360.000000	55.083389
2359.000000	55.118615
2358.000000	55.120789
2357.000000	55.094105
2356.000000	55.047555
2355.000000	54.991371
2354.000000	54.936961
2353.000000	54.893361
2352.000000	54.847021
2351.000000	54.796963
2350.000000	54.773770
2349.000000	54.826752
2348.000000	54.980200
2347.000000	55.178962
2346.000000	55.345050
2345.000000	55.432875
2344.000000	55.461227
2343.000000	55.465567
2342.000000	55.459826
2341.000000	55.452560
2340.000000	55.443940
2339.000000	55.435413
2338.000000	55.423551
2337.000000	55.417750
2336.000000	55.423315
2335.000000	55.442040
2334.000000	55.451965
2333.000000	55.436614
2332.000000	55.368920
2331.000000	55.252520
2330.000000	55.105306
2329.000000	54.962059
2328.000000	54.853817
2327.000000	54.787196
2326.000000	54.757926
2325.000000	54.743632
2324.000000	54.721769
2323.000000	54.677118
2322.000000	54.605607
2321.000000	54.521866
2320.000000	54.436279
2319.000000	54.366943
2318.000000	54.320768
2317.000000	54.305232
2316.000000	54.303732
2315.000000	54.295377
2314.000000	54.255870
2313.000000	54.181160
2312.000000	54.073394
2311.000000	53.941880
2310.000000	53.792821
2309.000000	53.635058
2308.000000	53.472966
2307.000000	53.311237
2306.000000	53.153576
2305.000000	53.006623
2304.000000	52.869684
2303.000000	52.739354
2302.000000	52.609655
2301.000000	52.481359
2300.000000	52.354348
2299.000000	52.229947
2298.000000	52.109695
2297.000000	51.999177
2296.000000	51.903430
2295.000000	51.825671
2294.000000	51.769376
2293.000000	51.738003
2292.000000	51.732712
2291.000000	51.749932
2290.000000	51.786701
2289.000000	51.840868
2288.000000	51.910453
2287.000000	51.991611
2286.000000	52.082347
2285.000000	52.182095
2284.000000	52.288478
2283.000000	52.396146
2282.000000	52.500262
2281.000000	52.598670
2280.000000	52.689320
2279.000000	52.770137
2278.000000	52.841065
2277.000000	52.905622
2276.000000	52.966999
2275.000000	53.026892
2274.000000	53.087878
2273.000000	53.154346
2272.000000	53.229559
2271.000000	53.314284
2270.000000	53.409869
2269.000000	53.519246
2268.000000	53.643366
2267.000000	53.779409
2266.000000	53.923443
2265.000000	54.072577
2264.000000	54.223651
2263.000000	54.372048
2262.000000	54.514688
2261.000000	54.650744
2260.000000	54.779531
2259.000000	54.899406
2258.000000	55.009960
2257.000000	55.113227
2256.000000	55.210583
2255.000000	55.301722
2254.000000	55.386798
2253.000000	55.468325
2252.000000	55.548668
2251.000000	55.628613
2250.000000	55.708920
2249.000000	55.791206
2248.000000	55.875522
2247.000000	55.958974
2246.000000	56.038354
2245.000000	56.112063
2244.000000	56.178853
2243.000000	56.236927
2242.000000	56.285883
2241.000000	56.327562
2240.000000	56.363501
2239.000000	56.393326
2238.000000	56.416749
2237.000000	56.434778
2236.000000	56.448057
2235.000000	56.456042
2234.000000	56.459654
2233.000000	56.462519
2232.000000	56.468148
2231.000000	56.477775
2230.000000	56.491845
2229.000000	56.511324
2228.000000	56.535743
2227.000000	56.562331
2226.000000	56.588541
2225.000000	56.613714
2224.000000	56.636987
2223.000000	56.656064
2222.000000	56.669644
2221.000000	56.679162
2220.000000	56.686692
2219.000000	56.693299
2218.000000	56.700903
2217.000000	56.713422
2216.000000	56.734117
2215.000000	56.763321
2214.000000	56.800095
2213.000000	56.843750
2212.000000	56.892361
2211.000000	56.941863
2210.000000	56.988714
2209.000000	57.031886
2208.000000	57.071196
2207.000000	57.105702
2206.000000	57.135057
2205.000000	57.160414
2204.000000	57.182040
2203.000000	57.197967
2202.000000	57.206377
2201.000000	57.207724
2200.000000	57.203150
2199.000000	57.192970
2198.000000	57.178555
2197.000000	57.163836
2196.000000	57.153386
2195.000000	57.150280
2194.000000	57.157043
2193.000000	57.176182
2192.000000	57.207852
2191.000000	57.248695
2190.000000	57.294543
2189.000000	57.343070
2188.000000	57.392920
2187.000000	57.442685
2186.000000	57.492254
2185.000000	57.543278
2184.000000	57.596564
2183.000000	57.650302
2182.000000	57.702045
2181.000000	57.750510
2180.000000	57.794525
2179.000000	57.832293
2178.000000	57.863239
2177.000000	57.888843
2176.000000	57.910257
2175.000000	57.927039
2174.000000	57.939313
2173.000000	57.949024
2172.000000	57.957332
2171.000000	57.962769
2170.000000	57.963610
2169.000000	57.960277
2168.000000	57.954017
2167.000000	57.945230
2166.000000	57.934874
2165.000000	57.925565
2164.000000	57.919475
2163.000000	57.916866
2162.000000	57.917990
2161.000000	57.924417
2160.000000	57.936763
2159.000000	57.953099
2158.000000	57.971373
2157.000000	57.991525
2156.000000	58.013723
2155.000000	58.036594
2154.000000	58.059102
2153.000000	58.082324
2152.000000	58.107540
2151.000000	58.134136
2150.000000	58.160813
2149.000000	58.187111
2148.000000	58.212035
2147.000000	58.233165
2146.000000	58.248925
2145.000000	58.260332
2144.000000	58.269087
2143.000000	58.275849
2142.000000	58.281686
2141.000000	58.289096
2140.000000	58.299511
2139.000000	58.311342
2138.000000	58.321982
2137.000000	58.330005
2136.000000	58.334107
2135.000000	58.332043
2134.000000	58.322709
2133.000000	58.307597
2132.000000	58.288622
2131.000000	58.266173
2130.000000	58.240898
2129.000000	58.215348
2128.000000	58.191941
2127.000000	58.170844
2126.000000	58.151527
2125.000000	58.134889
2124.000000	58.122228
2123.000000	58.114325
2122.000000	58.113202
2121.000000	58.122792
2120.000000	58.145952
2119.000000	58.182009
2118.000000	58.228084
2117.000000	58.280668
2116.000000	58.334670
2115.000000	58.383456
2114.000000	58.422291
2113.000000	58.450570
2112.000000	58.469801
2111.000000	58.481517
2110.000000	58.488313
2109.000000	58.494293
2108.000000	58.502349
2107.000000	58.512502
2106.000000	58.524285
2105.000000	58.538413
2104.000000	58.554388
2103.000000	58.568784
2102.000000	58.577935
2101.000000	58.580405
2100.000000	58.575209
2099.000000	58.559979
2098.000000	58.533200
2097.000000	58.496873
2096.000000	58.454994
2095.000000	58.411485
2094.000000	58.371142
2093.000000	58.340197
2092.000000	58.323567
2091.000000	58.322895
2090.000000	58.338693
2089.000000	58.371899
2088.000000	58.421103
2087.000000	58.480606
2086.000000	58.543323
2085.000000	58.603761
2084.000000	58.657171
2083.000000	58.698518
2082.000000	58.724788
2081.000000	58.736949
2080.000000	58.737558
2079.000000	58.728010
2078.000000	58.709830
2077.000000	58.686276
2076.000000	58.659623
2075.000000	58.628796
2074.000000	58.591474
2073.000000	58.546776
2072.000000	58.494327
2071.000000	58.432698
2070.000000	58.361755
2069.000000	58.284580
2068.000000	58.204647
2067.000000	58.122664
2066.000000	58.038104
2065.000000	57.952133
2064.000000	57.866362
2063.000000	57.780245
2062.000000	57.692058
2061.000000	57.600897
2060.000000	57.506232
2059.000000	57.407555
2058.000000	57.306431
2057.000000	57.207037
2056.000000	57.112908
2055.000000	57.025153
2054.000000	56.945106
2053.000000	56.875246
2052.000000	56.815890
2051.000000	56.764034
2050.000000	56.717249
2049.000000	56.676384
2048.000000	56.642791
2047.000000	56.615621
2046.000000	56.594253
2045.000000	56.580218
2044.000000	56.574539
2043.000000	56.575777
2042.000000	56.582571
2041.000000	56.596055
2040.000000	56.617473
2039.000000	56.646244
2038.000000	56.682398
2037.000000	56.727994
2036.000000	56.784652
2035.000000	56.851611
2034.000000	56.927901
2033.000000	57.013704
2032.000000	57.107287
2031.000000	57.203734
2030.000000	57.298383
2029.000000	57.389354
2028.000000	57.475826
2027.000000	57.556262
2026.000000	57.630645
2025.000000	57.701410
2024.000000	57.771100
2023.000000	57.840424
2022.000000	57.910027
2021.000000	57.981494
2020.000000	58.054790
2019.000000	58.127010
2018.000000	58.195697
2017.000000	58.262009
2016.000000	58.329055
2015.000000	58.398879
2014.000000	58.472608
2013.000000	58.551416
2012.000000	58.635187
2011.000000	58.721841
2010.000000	58.809550
2009.000000	58.898069
2008.000000	58.986678
2007.000000	59.072711
2006.000000	59.154269
2005.000000	59.231947
2004.000000	59.307255
2003.000000	59.380205
2002.000000	59.450510
2001.000000	59.519475
2000.000000	59.587602
1999.000000	59.653861
1998.000000	59.717354
1997.000000	59.778579
1996.000000	59.837910
1995.000000	59.894525
1994.000000	59.947703
1993.000000	59.998376
1992.000000	60.049222
1991.000000	60.104471
1990.000000	60.168843
1989.000000	60.244268
1988.000000	60.327495
1987.000000	60.412332
1986.000000	60.494695
1985.000000	60.573912
1984.000000	60.649818
1983.000000	60.721645
1982.000000	60.790574
1981.000000	60.860391
1980.000000	60.933414
1979.000000	61.009636
1978.000000	61.088795
1977.000000	61.170918
1976.000000	61.254006
1975.000000	61.334424
1974.000000	61.410242
1973.000000	61.481945
1972.000000	61.549817
1971.000000	61.613384
1970.000000	61.673069
1969.000000	61.729584
1968.000000	61.781335
1967.000000	61.825240
1966.000000	61.860765
1965.000000	61.889211
1964.000000	61.909199
1963.000000	61.916338
1962.000000	61.908332
1961.000000	61.887734
1960.000000	61.859033
1959.000000	61.826872
1958.000000	61.797320
1957.000000	61.776790
1956.000000	61.767746
1955.000000	61.768367
1954.000000	61.776833
1953.000000	61.792631
1952.000000	61.814561
1951.000000	61.839081
1950.000000	61.864288
1949.000000	61.891887
1948.000000	61.922774
1947.000000	61.954698
1946.000000	61.985341
1945.000000	62.013411
1944.000000	62.035052
1943.000000	62.044147
1942.000000	62.040602
1941.000000	62.033757
1940.000000	62.032500
1939.000000	62.037036
1938.000000	62.043427
1937.000000	62.050052
1936.000000	62.056665
1935.000000	62.061173
1934.000000	62.060633
1933.000000	62.053811
1932.000000	62.041176
1931.000000	62.022113
1930.000000	61.998719
1929.000000	61.977902
1928.000000	61.965959
1927.000000	61.965457
1926.000000	61.975230
1925.000000	61.994718
1924.000000	62.021230
1923.000000	62.048518
1922.000000	62.073736
1921.000000	62.099723
1920.000000	62.125717
1919.000000	62.142343
1918.000000	62.141137
1917.000000	62.129028
1916.000000	62.120967
1915.000000	62.121301
1914.000000	62.123309
1913.000000	62.121303
1912.000000	62.114476
1911.000000	62.101403
1910.000000	62.081017
1909.000000	62.057413
1908.000000	62.037894
1907.000000	62.027910
1906.000000	62.028391
1905.000000	62.041684
1904.000000	62.070074
1903.000000	62.110492
1902.000000	62.158646
1901.000000	62.214028
1900.000000	62.276015
1899.000000	62.340453
1898.000000	62.401644
1897.000000	62.459058
1896.000000	62.515599
1895.000000	62.571519
1894.000000	62.626477
1893.000000	62.683679
1892.000000	62.744805
1891.000000	62.803287
1890.000000	62.849165
1889.000000	62.881427
1888.000000	62.909306
1887.000000	62.939373
1886.000000	62.970569
1885.000000	63.002044
1884.000000	63.036759
1883.000000	63.076558
1882.000000	63.121285
1881.000000	63.171205
1880.000000	63.225204
1879.000000	63.279350
1878.000000	63.328879
1877.000000	63.372859
1876.000000	63.414844
1875.000000	63.456982
1874.000000	63.499171
1873.000000	63.543981
1872.000000	63.594802
1871.000000	63.648505
1870.000000	63.695568
1869.000000	63.730155
1868.000000	63.758524
1867.000000	63.791123
1866.000000	63.831039
1865.000000	63.876579
1864.000000	63.926696
1863.000000	63.979835
1862.000000	64.033506
1861.000000	64.087863
1860.000000	64.145017
1859.000000	64.203817
1858.000000	64.259472
1857.000000	64.309315
1856.000000	64.354897
1855.000000	64.396629
1854.000000	64.433492
1853.000000	64.469042
1852.000000	64.508075
1851.000000	64.554369
1850.000000	64.607653
1849.000000	64.665563
1848.000000	64.725614
1847.000000	64.784020
1846.000000	64.835050
1845.000000	64.871016
1844.000000	64.888238
1843.000000	64.899407
1842.000000	64.924943
1841.000000	64.971412
1840.000000	65.031044
1839.000000	65.092435
1838.000000	65.146974
1837.000000	65.194652
1836.000000	65.238907
1835.000000	65.279343
1834.000000	65.315049
1833.000000	65.348185
1832.000000	65.380907
1831.000000	65.414871
1830.000000	65.449255
1829.000000	65.488106
1828.000000	65.540634
1827.000000	65.607254
1826.000000	65.675817
1825.000000	65.731660
1824.000000	65.773503
1823.000000	65.812314
1822.000000	65.855058
1821.000000	65.900172
1820.000000	65.946483
1819.000000	65.996118
1818.000000	66.047178
1817.000000	66.096309
1816.000000	66.142770
1815.000000	66.185272
1814.000000	66.218338
1813.000000	66.234114
1812.000000	66.232990
1811.000000	66.221334
1810.000000	66.204181
1809.000000	66.188949
1808.000000	66.185258
1807.000000	66.196405
1806.000000	66.216087
1805.000000	66.237133
1804.000000	66.256173
1803.000000	66.268611
1802.000000	66.269920
1801.000000	66.260526
1800.000000	66.253069
1799.000000	66.260156
1798.000000	66.283846
1797.000000	66.321398
1796.000000	66.370391
1795.000000	66.424401
1794.000000	66.471300
1793.000000	66.495695
1792.000000	66.494456
1791.000000	66.483898
1790.000000	66.482648
1789.000000	66.497108
1788.000000	66.525554
1787.000000	66.561631
1786.000000	66.595458
1785.000000	66.622275
1784.000000	66.644888
1783.000000	66.664835
1782.000000	66.680639
1781.000000	66.685947
1780.000000	66.683249
1779.000000	66.685111
1778.000000	66.703615
1777.000000	66.742082
1776.000000	66.794869
1775.000000	66.857237
1774.000000	66.929909
1773.000000	67.006311
1772.000000	67.071048
1771.000000	67.124998
1770.000000	67.177986
1769.000000	67.230777
1768.000000	67.281511
1767.000000	67.333809
1766.000000	67.394166
1765.000000	67.460875
1764.000000	67.525666
1763.000000	67.579419
1762.000000	67.615233
1761.000000	67.633263
1760.000000	67.646703
1759.000000	67.664188
1758.000000	67.687502
1757.000000	67.714567
1756.000000	67.745248
1755.000000	67.788791
1754.000000	67.849828
1753.000000	67.919014
1752.000000	67.979516
1751.000000	68.021716
1750.000000	68.051625
1749.000000	68.084070
1748.000000	68.123264
1747.000000	68.168318
1746.000000	68.221930
1745.000000	68.281992
1744.000000	68.343426
1743.000000	68.402483
1742.000000	68.456818
1741.000000	68.504703
1740.000000	68.544778
1739.000000	68.575547
1738.000000	68.601777
1737.000000	68.624448
1736.000000	68.644075
1735.000000	68.659094
1734.000000	68.652899
1733.000000	68.636767
1732.000000	68.643997
1731.000000	68.671983
1730.000000	68.700115
1729.000000	68.716811
1728.000000	68.721659
1727.000000	68.722422
1726.000000	68.725265
1725.000000	68.729506
1724.000000	68.739929
1723.000000	68.761816
1722.000000	68.792238
1721.000000	68.822864
1720.000000	68.850631
1719.000000	68.879075
1718.000000	68.897813
1717.000000	68.898378
1716.000000	68.903171
1715.000000	68.929099
1714.000000	68.967091
1713.000000	69.009490
1712.000000	69.060505
1711.000000	69.122021
1710.000000	69.187338
1709.000000	69.248535
1708.000000	69.304976
1707.000000	69.365319
1706.000000	69.430134
1705.000000	69.489576
1704.000000	69.539765
1703.000000	69.583581
1702.000000	69.636758
1701.000000	69.710980
1700.000000	69.781299
1699.000000	69.839146
1698.000000	69.897435
1697.000000	69.966996
1696.000000	70.054131
1695.000000	70.143520
1694.000000	70.226397
1693.000000	70.301012
1692.000000	70.368492
1691.000000	70.434682
1690.000000	70.500086
1689.000000	70.556103
1688.000000	70.592669
1687.000000	70.615290
1686.000000	70.643853
1685.000000	70.691475
1684.000000	70.728916
1683.000000	70.745114
1682.000000	70.766336
1681.000000	70.793699
1680.000000	70.814909
1679.000000	70.825848
1678.000000	70.829914
1677.000000	70.830290
1676.000000	70.827588
1675.000000	70.822163
1674.000000	70.820708
1673.000000	70.817059
1672.000000	70.801165
1671.000000	70.779442
1670.000000	70.763523
1669.000000	70.749971
1668.000000	70.734215
1667.000000	70.724960
1666.000000	70.724771
1665.000000	70.721613
1664.000000	70.705629
1663.000000	70.673832
1662.000000	70.628718
1661.000000	70.564696
1660.000000	70.473371
1659.000000	70.365327
1658.000000	70.253999
1657.000000	70.125436
1656.000000	69.944531
1655.000000	69.701173
1654.000000	69.387227
1653.000000	68.943810
1652.000000	68.427526
1651.000000	67.948969
1650.000000	67.440715
1649.000000	66.736041
1648.000000	65.641757
1647.000000	64.028654
1646.000000	61.963724
1645.000000	59.627082
1644.000000	57.077493
1643.000000	54.225152
1642.000000	51.000954
1641.000000	47.493084
1640.000000	43.989414
1639.000000	40.803593
1638.000000	38.078352
1637.000000	35.849320
1636.000000	34.275412
1635.000000	33.619858
1634.000000	33.879392
1633.000000	34.796798
1632.000000	36.143370
1631.000000	37.783896
1630.000000	39.634082
1629.000000	41.630328
1628.000000	43.689902
1627.000000	45.675698
1626.000000	47.499570
1625.000000	49.222909
1624.000000	50.959015
1623.000000	52.680996
1622.000000	54.231395
1621.000000	55.536532
1620.000000	56.658960
1619.000000	57.689456
1618.000000	58.691950
1617.000000	59.692227
1616.000000	60.636559
1615.000000	61.425514
1614.000000	62.036680
1613.000000	62.543501
1612.000000	63.016040
1611.000000	63.440923
1610.000000	63.755363
1609.000000	63.937824
1608.000000	63.994853
1607.000000	63.888977
1606.000000	63.559393
1605.000000	62.975522
1604.000000	62.132955
1603.000000	61.016116
1602.000000	59.628870
1601.000000	58.059094
1600.000000	56.460175
1599.000000	54.977618
1598.000000	53.702678
1597.000000	52.679998
1596.000000	51.915723
1595.000000	51.359976
1594.000000	50.912043
1593.000000	50.481099
1592.000000	50.028648
1591.000000	49.538025
1590.000000	48.986572
1589.000000	48.364278
1588.000000	47.684009
1587.000000	46.941600
1586.000000	46.101761
1585.000000	45.146675
1584.000000	44.103663
1583.000000	43.007489
1582.000000	41.865971
1581.000000	40.691925
1580.000000	39.519823
1579.000000	38.331171
1578.000000	36.976291
1577.000000	35.249158
1576.000000	33.191129
1575.000000	31.204605
1574.000000	29.589922
1573.000000	28.272301
1572.000000	27.075898
1571.000000	25.934915
1570.000000	24.902285
1569.000000	24.084665
1568.000000	23.560904
1567.000000	23.343879
1566.000000	23.371563
1565.000000	23.549968
1564.000000	23.831108
1563.000000	24.225394
1562.000000	24.749558
1561.000000	25.420587
1560.000000	26.341585
1559.000000	27.587074
1558.000000	28.892323
1557.000000	29.954674
1556.000000	30.799697
1555.000000	31.562162
1554.000000	32.275444
1553.000000	32.885495
1552.000000	33.378638
1551.000000	33.834174
1550.000000	34.338743
1549.000000	34.921791
1548.000000	35.585921
1547.000000	36.361197
1546.000000	37.274364
1545.000000	38.285412
1544.000000	39.309971
1543.000000	40.308558
1542.000000	41.298760
1541.000000	42.296291
1540.000000	43.277999
1539.000000	44.199497
1538.000000	45.034771
1537.000000	45.788757
1536.000000	46.505562
1535.000000	47.256204
1534.000000	48.068009
1533.000000	48.869075
1532.000000	49.588713
1531.000000	50.247671
1530.000000	50.884308
1529.000000	51.499079
1528.000000	52.088662
1527.000000	52.671496
1526.000000	53.250415
1525.000000	53.791744
1524.000000	54.279637
1523.000000	54.744177
1522.000000	55.197238
1521.000000	55.594345
1520.000000	55.923818
1519.000000	56.239522
1518.000000	56.572099
1517.000000	56.903860
1516.000000	57.224138
1515.000000	57.555729
1514.000000	57.908634
1513.000000	58.255534
1512.000000	58.577244
1511.000000	58.880499
1510.000000	59.165735
1509.000000	59.413230
1508.000000	59.632627
1507.000000	59.872676
1506.000000	60.148942
1505.000000	60.441531
1504.000000	60.747351
1503.000000	61.074131
1502.000000	61.405590
1501.000000	61.701244
1500.000000	61.940342
1499.000000	62.145729
1498.000000	62.337460
1497.000000	62.506783
1496.000000	62.671939
1495.000000	62.879628
1494.000000	63.129709
1493.000000	63.378680
1492.000000	63.611302
1491.000000	63.842281
1490.000000	64.053636
1489.000000	64.202349
1488.000000	64.302738
1487.000000	64.402212
1486.000000	64.495224
1485.000000	64.542335
1484.000000	64.530171
1483.000000	64.461593
1482.000000	64.295581
1481.000000	63.967737
1480.000000	63.457830
1479.000000	62.743075
1478.000000	61.709129
1477.000000	60.234163
1476.000000	58.354068
1475.000000	56.201968
1474.000000	53.820337
1473.000000	51.258687
1472.000000	48.837390
1471.000000	46.950793
1470.000000	45.670831
1469.000000	44.848314
1468.000000	44.397252
1467.000000	44.345350
1466.000000	44.760053
1465.000000	45.633502
1464.000000	46.790386
1463.000000	47.953465
1462.000000	48.903159
1461.000000	49.533855
1460.000000	49.793432
1459.000000	49.624156
1458.000000	48.947448
1457.000000	47.847786
1456.000000	46.739815
1455.000000	45.980632
1454.000000	45.547911
1453.000000	45.281520
1452.000000	45.097668
1451.000000	44.987074
1450.000000	44.966341
1449.000000	45.054801
1448.000000	45.263358
1447.000000	45.564862
1446.000000	45.916266
1445.000000	46.305066
1444.000000	46.757737
1443.000000	47.316290
1442.000000	48.018507
1441.000000	48.887343
1440.000000	49.925137
1439.000000	51.136224
1438.000000	52.539961
1437.000000	54.086024
1436.000000	55.558529
1435.000000	56.749845
1434.000000	57.668931
1433.000000	58.433533
1432.000000	59.110829
1431.000000	59.712717
1430.000000	60.248794
1429.000000	60.734848
1428.000000	61.167072
1427.000000	61.536453
1426.000000	61.861375
1425.000000	62.162721
1424.000000	62.432499
1423.000000	62.663514
1422.000000	62.879812
1421.000000	63.111095
1420.000000	63.355169
1419.000000	63.591434
1418.000000	63.821330
1417.000000	64.057654
1416.000000	64.291021
1415.000000	64.508208
1414.000000	64.716611
1413.000000	64.925272
1412.000000	65.125906
1411.000000	65.313663
1410.000000	65.505716
1409.000000	65.716862
1408.000000	65.936693
1407.000000	66.146352
1406.000000	66.347275
1405.000000	66.542598
1404.000000	66.707850
1403.000000	66.813262
1402.000000	66.840820
1401.000000	66.752305
1400.000000	66.480657
1399.000000	66.022400
1398.000000	65.515356
1397.000000	65.153611
1396.000000	65.054369
1395.000000	65.210478
1394.000000	65.510078
1393.000000	65.818664
1392.000000	66.079988
1391.000000	66.333042
1390.000000	66.651387
1389.000000	67.078276
1388.000000	67.596972
1387.000000	68.142702
1386.000000	68.652007
1385.000000	69.096630
1384.000000	69.472387
1383.000000	69.786166
1382.000000	70.052987
1381.000000	70.285767
1380.000000	70.481280
1379.000000	70.620962
1378.000000	70.679844
1377.000000	70.606498
1376.000000	70.263047
1375.000000	69.385054
1374.000000	67.632750
1373.000000	64.759329
1372.000000	60.803292
1371.000000	56.189544
1370.000000	51.729734
1369.000000	48.433639
1368.000000	47.029631
1367.000000	47.492351
1366.000000	49.103896
1365.000000	50.941480
1364.000000	52.242100
1363.000000	52.550504
1362.000000	51.853956
1361.000000	50.650451
1360.000000	49.735455
1359.000000	49.805820
1358.000000	51.132141
1357.000000	53.447853
1356.000000	56.156560
1355.000000	58.704175
1354.000000	60.818151
1353.000000	62.490103
1352.000000	63.818148
1351.000000	64.893893
1350.000000	65.781692
1349.000000	66.520174
1348.000000	67.126067
1347.000000	67.618269
1346.000000	68.032227
1345.000000	68.403214
1344.000000	68.750018
1343.000000	69.082805
1342.000000	69.416578
1341.000000	69.760735
1340.000000	70.102368
1339.000000	70.418964
1338.000000	70.700802
1337.000000	70.948056
1336.000000	71.154815
1335.000000	71.310127
1334.000000	71.402175
1333.000000	71.391731
1332.000000	71.188038
1331.000000	70.668111
1330.000000	69.730790
1329.000000	68.340760
1328.000000	66.507860
1327.000000	64.238682
1326.000000	61.545423
1325.000000	58.558892
1324.000000	55.670632
1323.000000	53.475739
1322.000000	52.431484
1321.000000	52.533642
1320.000000	53.351427
1319.000000	54.367952
1318.000000	55.293070
1317.000000	56.089645
1316.000000	56.808846
1315.000000	57.487537
1314.000000	58.163333
1313.000000	58.912701
1312.000000	59.827075
1311.000000	60.947008
1310.000000	62.218618
1309.000000	63.504030
1308.000000	64.636162
1307.000000	65.484227
1306.000000	65.989358
1305.000000	66.138190
1304.000000	65.924921
1303.000000	65.343035
1302.000000	64.398577
1301.000000	63.140641
1300.000000	61.702230
1299.000000	60.322938
1298.000000	59.278010
1297.000000	58.727815
1296.000000	58.618658
1295.000000	58.717130
1294.000000	58.732912
1293.000000	58.426380
1292.000000	57.660205
1291.000000	56.403638
1290.000000	54.691633
1289.000000	52.591949
1288.000000	50.248044
1287.000000	47.956767
1286.000000	46.129798
1285.000000	45.104736
1284.000000	44.971464
1283.000000	45.577195
1282.000000	46.696888
1281.000000	48.176909
1280.000000	49.920615
1279.000000	51.768165
1278.000000	53.444491
1277.000000	54.661877
1276.000000	55.264961
1275.000000	55.287225
1274.000000	54.912165
1273.000000	54.410830
1272.000000	54.091076
1271.000000	54.229700
1270.000000	54.972199
1269.000000	56.266321
1268.000000	57.900249
1267.000000	59.622577
1266.000000	61.246395
1265.000000	62.678231
1264.000000	63.891035
1263.000000	64.892223
1262.000000	65.708091
1261.000000	66.373806
1260.000000	66.923816
1259.000000	67.392769
1258.000000	67.822045
1257.000000	68.243616
1256.000000	68.664316
1255.000000	69.073642
1254.000000	69.457936
1253.000000	69.804152
1252.000000	70.096813
1251.000000	70.329977
1250.000000	70.520316
1249.000000	70.696607
1248.000000	70.881165
1247.000000	71.087806
1246.000000	71.327370
1245.000000	71.598980
1244.000000	71.879091
1243.000000	72.133865
1242.000000	72.340608
1241.000000	72.490510
1240.000000	72.581328
1239.000000	72.621590
1238.000000	72.637435
1237.000000	72.658185
1236.000000	72.696016
1235.000000	72.747166
1234.000000	72.801456
1233.000000	72.840900
1232.000000	72.836485
1231.000000	72.762360
1230.000000	72.614097
1229.000000	72.400413
1228.000000	72.127295
1227.000000	71.796854
1226.000000	71.407169
1225.000000	70.940782
1224.000000	70.346139
1223.000000	69.550817
1222.000000	68.485904
1221.000000	67.093033
1220.000000	65.342582
1219.000000	63.255184
1218.000000	60.912324
1217.000000	58.436304
1216.000000	55.964039
1215.000000	53.640425
1214.000000	51.614311
1213.000000	50.020024
1212.000000	48.955386
1211.000000	48.463264
1210.000000	48.493148
1209.000000	48.898908
1208.000000	49.480650
1207.000000	50.037326
1206.000000	50.413227
1205.000000	50.511041
1204.000000	50.287832
1203.000000	49.749300
1202.000000	48.948486
1201.000000	47.992104
1200.000000	47.046057
1199.000000	46.315134
1198.000000	45.980315
1197.000000	46.129553
1196.000000	46.746717
1195.000000	47.742967
1194.000000	49.005236
1193.000000	50.435414
1192.000000	51.957337
1191.000000	53.516847
1190.000000	55.069825
1189.000000	56.574506
1188.000000	57.993725
1187.000000	59.300619
1186.000000	60.484374
1185.000000	61.550116
1184.000000	62.513318
1183.000000	63.391701
1182.000000	64.203065
1181.000000	64.952908
1180.000000	65.629342
1179.000000	66.215701
1178.000000	66.701072
1177.000000	67.084211
1176.000000	67.364354
1175.000000	67.542811
1174.000000	67.627805
1173.000000	67.615772
1172.000000	67.480343
1171.000000	67.169688
1170.000000	66.615813
1169.000000	65.747464
1168.000000	64.505414
1167.000000	62.892307
1166.000000	61.014687
1165.000000	59.081552
1164.000000	57.360834
1163.000000	56.112589
1162.000000	55.505148
1161.000000	55.565269
1160.000000	56.191622
1159.000000	57.201017
1158.000000	58.397048
1157.000000	59.609782
1156.000000	60.715170
1155.000000	61.644698
1154.000000	62.378296
1153.000000	62.925871
1152.000000	63.305406
1151.000000	63.530962
1150.000000	63.601675
1149.000000	63.500480
1148.000000	63.182623
1147.000000	62.588126
1146.000000	61.658444
1145.000000	60.325935
1144.000000	58.526263
1143.000000	56.212511
1142.000000	53.391241
1141.000000	50.160698
1140.000000	46.721883
1139.000000	43.353446
1138.000000	40.312444
1137.000000	37.722848
1136.000000	35.540667
1135.000000	33.631731
1134.000000	31.888758
1133.000000	30.357793
1132.000000	29.283415
1131.000000	29.005336
1130.000000	29.794721
1129.000000	31.689651
1128.000000	34.462210
1127.000000	37.688669
1126.000000	40.855227
1125.000000	43.472542
1124.000000	45.157259
1123.000000	45.676818
1122.000000	44.976578
1121.000000	43.185214
1120.000000	40.541373
1119.000000	37.339023
1118.000000	33.934631
1117.000000	30.796391
1116.000000	28.499951
1115.000000	27.569092
1114.000000	28.221819
1113.000000	30.236136
1112.000000	33.035593
1111.000000	35.875847
1110.000000	38.105268
1109.000000	39.417252
1108.000000	39.969997
1107.000000	40.261697
1106.000000	40.799802
1105.000000	41.804918
1104.000000	43.144614
1103.000000	44.454231
1102.000000	45.282899
1101.000000	45.246350
1100.000000	44.195199
1099.000000	42.368637
1098.000000	40.396739
1097.000000	39.068116
1096.000000	38.972022
1095.000000	40.240063
1094.000000	42.536383
1093.000000	45.287504
1092.000000	47.989034
1091.000000	50.360315
1090.000000	52.333478
1089.000000	53.960033
1088.000000	55.325179
1087.000000	56.512466
1086.000000	57.592659
1085.000000	58.609630
1084.000000	59.571544
1083.000000	60.470552
1082.000000	61.296523
1081.000000	62.041955
1080.000000	62.701239
1079.000000	63.270859
1078.000000	63.757453
1077.000000	64.158097
1076.000000	64.445852
1075.000000	64.572090
1074.000000	64.459076
1073.000000	64.004317
1072.000000	63.055174
1071.000000	61.421233
1070.000000	58.905405
1069.000000	55.313956
1068.000000	50.548932
1067.000000	44.736517
1066.000000	38.344045
1065.000000	32.163733
1064.000000	27.093447
1063.000000	23.756484
1062.000000	22.153427
1061.000000	21.622964
1060.000000	21.209834
1059.000000	20.247147
1058.000000	18.707057
1057.000000	17.169543
1056.000000	16.438414
1055.000000	17.037222
1054.000000	18.976347
1053.000000	21.843868
1052.000000	25.106295
1051.000000	28.352166
1050.000000	31.348493
1049.000000	34.019845
1048.000000	36.390878
1047.000000	38.524511
1046.000000	40.468650
1045.000000	42.241457
1044.000000	43.843341
1043.000000	45.277475
1042.000000	46.555565
1041.000000	47.686908
1040.000000	48.684254
1039.000000	49.560384
1038.000000	50.326671
1037.000000	50.992060
1036.000000	51.562369
1035.000000	52.050275
1034.000000	52.471268
1033.000000	52.837724
1032.000000	53.159768
1031.000000	53.446942
1030.000000	53.710126
1029.000000	53.954402
1028.000000	54.177090
1027.000000	54.373778
1026.000000	54.537696
1025.000000	54.657983
1024.000000	54.718976
1023.000000	54.705830
1022.000000	54.609953
1021.000000	54.417755
1020.000000	54.108273
1019.000000	53.651815
1018.000000	53.007386
1017.000000	52.125698
1016.000000	50.952055
1015.000000	49.459908
1014.000000	47.688837
1013.000000	45.768893
1012.000000	43.915323
1011.000000	42.364386
1010.000000	41.256885
1009.000000	40.539851
1008.000000	39.990494
1007.000000	39.377128
1006.000000	38.675351
1005.000000	38.147361
1004.000000	38.198228
1003.000000	39.097327
1002.000000	40.770874
1001.000000	42.853974
1000.000000	44.903123
999.000000	46.581373
998.000000	47.717835
997.000000	48.275899
996.000000	48.320715
995.000000	48.011526
994.000000	47.592038
993.000000	47.343102
992.000000	47.502092
991.000000	48.173849
990.000000	49.284674
989.000000	50.631895
988.000000	52.001629
987.000000	53.255264
986.000000	54.344716
985.000000	55.279156
984.000000	56.088159
983.000000	56.803590
982.000000	57.451112
981.000000	58.043461
980.000000	58.582772
979.000000	59.072852
978.000000	59.518673
977.000000	59.922422
976.000000	60.284420
975.000000	60.609928
974.000000	60.912339
973.000000	61.203422
972.000000	61.489304
971.000000	61.774305
970.000000	62.061097
969.000000	62.345386
968.000000	62.615056
967.000000	62.860687
966.000000	63.082809
965.000000	63.286545
964.000000	63.476626
963.000000	63.660282
962.000000	63.848866
961.000000	64.049986
960.000000	64.260755
959.000000	64.472825
958.000000	64.678721
957.000000	64.871165
956.000000	65.043329
955.000000	65.196080
954.000000	65.341595
953.000000	65.494601
952.000000	65.663050
951.000000	65.849204
950.000000	66.052343
949.000000	66.264794
948.000000	66.470683
947.000000	66.655884
946.000000	66.817319
945.000000	66.959338
944.000000	67.088081
943.000000	67.214407
942.000000	67.354581
941.000000	67.519057
940.000000	67.703188
939.000000	67.893809
938.000000	68.079303
937.000000	68.248637
936.000000	68.389367
935.000000	68.497173
934.000000	68.584775
933.000000	68.673826
932.000000	68.780536
931.000000	68.913722
930.000000	69.077551
929.000000	69.265406
928.000000	69.455072
927.000000	69.620625
926.000000	69.749267
925.000000	69.842322
924.000000	69.907805
923.000000	69.961507
922.000000	70.028776
921.000000	70.132051
920.000000	70.275622
919.000000	70.447211
918.000000	70.629325
917.000000	70.801702
916.000000	70.940872
915.000000	71.032294
914.000000	71.083664
913.000000	71.118939
912.000000	71.159490
911.000000	71.218971
910.000000	71.300981
909.000000	71.382913
908.000000	71.402401
907.000000	71.266051
906.000000	70.881577
905.000000	70.177184
904.000000	69.120166
903.000000	67.768422
902.000000	66.324597
901.000000	65.116135
900.000000	64.472531
899.000000	64.562298
898.000000	65.301907
897.000000	66.419317
896.000000	67.602675
895.000000	68.634000
894.000000	69.436719
893.000000	70.031730
892.000000	70.480058
891.000000	70.849105
890.000000	71.196476
889.000000	71.551116
888.000000	71.904992
887.000000	72.214299
886.000000	72.404894
885.000000	72.381242
884.000000	72.060613
883.000000	71.449327
882.000000	70.678750
881.000000	69.936924
880.000000	69.333780
879.000000	68.834988
878.000000	68.341338
877.000000	67.834909
876.000000	67.448529
875.000000	67.377546
874.000000	67.720326
873.000000	68.393240
872.000000	69.197253
871.000000	69.958216
870.000000	70.608334
869.000000	71.166124
868.000000	71.669072
867.000000	72.135515
866.000000	72.560122
865.000000	72.920475
864.000000	73.187170
863.000000	73.347026
862.000000	73.420426
861.000000	73.451209
860.000000	73.485812
859.000000	73.562131
858.000000	73.705786
857.000000	73.917621
856.000000	74.165352
855.000000	74.398824
854.000000	74.575086
853.000000	74.670975
852.000000	74.685442
851.000000	74.644464
850.000000	74.598879
849.000000	74.601841
848.000000	74.683190
847.000000	74.843773
846.000000	75.063020
845.000000	75.301889
844.000000	75.507752
843.000000	75.636304
842.000000	75.676008
841.000000	75.648756
840.000000	75.593952
839.000000	75.558811
838.000000	75.590090
837.000000	75.713659
836.000000	75.917249
835.000000	76.158276
834.000000	76.386685
833.000000	76.559438
832.000000	76.647833
831.000000	76.651585
830.000000	76.607965
829.000000	76.575509
828.000000	76.604856
827.000000	76.725045
826.000000	76.942534
825.000000	77.233764
824.000000	77.541709
823.000000	77.799202
822.000000	77.964073
821.000000	78.030703
820.000000	78.020689
819.000000	77.977851
818.000000	77.961712
817.000000	78.022498
816.000000	78.173243
815.000000	78.387387
814.000000	78.615911
813.000000	78.798761
812.000000	78.874664
811.000000	78.802643
810.000000	78.582752
809.000000	78.248995
808.000000	77.839487
807.000000	77.380985
806.000000	76.878687
805.000000	76.299424
804.000000	75.564416
803.000000	74.565334
802.000000	73.205043
801.000000	71.417834
800.000000	69.180332
799.000000	66.530639
798.000000	63.568782
797.000000	60.434779
796.000000	57.271859
795.000000	54.208370
794.000000	51.352871
793.000000	48.796244
792.000000	46.616738
791.000000	44.886494
790.000000	43.671511
789.000000	43.012674
788.000000	42.916910
787.000000	43.344740
786.000000	44.213429
785.000000	45.409847
784.000000	46.794460
783.000000	48.212323
782.000000	49.505234
781.000000	50.534905
780.000000	51.206333
779.000000	51.490660
778.000000	51.433179
777.000000	51.131105
776.000000	50.688065
775.000000	50.177433
774.000000	49.644137
773.000000	49.132187
772.000000	48.714425
771.000000	48.495309
770.000000	48.584275
769.000000	49.050621
768.000000	49.894867
767.000000	51.055948
766.000000	52.446008
765.000000	53.983355
764.000000	55.596002
763.000000	57.216838
762.000000	58.783397
761.000000	60.240667
760.000000	61.541914
759.000000	62.658311
758.000000	63.596928
757.000000	64.402949
756.000000	65.140732
755.000000	65.870634
754.000000	66.636126
753.000000	67.451113
752.000000	68.289481
751.000000	69.093989
750.000000	69.802983
749.000000	70.374852
748.000000	70.797516
747.000000	71.093739
746.000000	71.321971
745.000000	71.557211
744.000000	71.858181
743.000000	72.245200
742.000000	72.698814
741.000000	73.167947
740.000000	73.582157
739.000000	73.876527
738.000000	74.020150
737.000000	74.025046
736.000000	73.934296
735.000000	73.806542
734.000000	73.701880
733.000000	73.661699
732.000000	73.690461
731.000000	73.757563
730.000000	73.815683
729.000000	73.816833
728.000000	73.722253
727.000000	73.511991
726.000000	73.194587
725.000000	72.804968
724.000000	72.379910
723.000000	71.918737
722.000000	71.349805
721.000000	70.536102
720.000000	69.337901
719.000000	67.701387
718.000000	65.703770
717.000000	63.534907
716.000000	61.450771
715.000000	59.719497
714.000000	58.563160
713.000000	58.101412
712.000000	58.319959
711.000000	59.087736
710.000000	60.218196
709.000000	61.528495
708.000000	62.868179
707.000000	64.134946
706.000000	65.290594
705.000000	66.356894
704.000000	67.379057
703.000000	68.393977
702.000000	69.422553
701.000000	70.461613
700.000000	71.471672
699.000000	72.387534
698.000000	73.154289
697.000000	73.755069
696.000000	74.209432
695.000000	74.564323
694.000000	74.888587
693.000000	75.251052
692.000000	75.687766
691.000000	76.187827
690.000000	76.706945
689.000000	77.186768
688.000000	77.568773
687.000000	77.818190
686.000000	77.946062
685.000000	78.002339
684.000000	78.050043
683.000000	78.145372
682.000000	78.327355
681.000000	78.601522
680.000000	78.927170
679.000000	79.236116
678.000000	79.459609
677.000000	79.563675
676.000000	79.555765
675.000000	79.468063
674.000000	79.393122
673.000000	79.493407
672.000000	79.931715
671.000000	80.755724
670.000000	81.825428
669.000000	82.592015
668.000000	82.383220
667.000000	81.489760
666.000000	80.704700
665.000000	80.240654
664.000000	80.021904
663.000000	79.956161
662.000000	80.019415
661.000000	80.196600
660.000000	80.450173
659.000000	80.718087
658.000000	80.929192
657.000000	81.031896
656.000000	81.012463
655.000000	80.886370
654.000000	80.712532
653.000000	80.576667
652.000000	80.543624
651.000000	80.627749
650.000000	80.794343
649.000000	80.973512
648.000000	81.083117
647.000000	81.064224
646.000000	80.912596
645.000000	80.672008
644.000000	80.399192
643.000000	80.150650
642.000000	79.983760
641.000000	79.932931
640.000000	79.980746
639.000000	80.066225
638.000000	80.119839
637.000000	80.087219
636.000000	79.933445
635.000000	79.656062
634.000000	79.304268
633.000000	78.960327
632.000000	78.691917
631.000000	78.527427
630.000000	78.458321
629.000000	78.442437
628.000000	78.409749
627.000000	78.285098
626.000000	78.024639
625.000000	77.633644
624.000000	77.152135
623.000000	76.641928
622.000000	76.179618
621.000000	75.828291
620.000000	75.593868
619.000000	75.407015
618.000000	75.151382
617.000000	74.723425
616.000000	74.085579
615.000000	73.271267
614.000000	72.345516
613.000000	71.365187
612.000000	70.371638
611.000000	69.400135
610.000000	68.460009
609.000000	67.506532
608.000000	66.460010
607.000000	65.249518
606.000000	63.832057
605.000000	62.191194
604.000000	60.353705
603.000000	58.403325
602.000000	56.431598
601.000000	54.480187
600.000000	52.558464
599.000000	50.684401
598.000000	48.860123
597.000000	47.041119
596.000000	45.191594
595.000000	43.346074
594.000000	41.568832
593.000000	39.886536
592.000000	38.324698
591.000000	36.951887
590.000000	35.811308
589.000000	34.854330
588.000000	33.995488
587.000000	33.181572
586.000000	32.350730
585.000000	31.399434
584.000000	30.275512
583.000000	29.054069
582.000000	27.863975
581.000000	26.797902
580.000000	25.946817
579.000000	25.444495
578.000000	25.376890
577.000000	25.707270
576.000000	26.337437
575.000000	27.162774
574.000000	28.037736
573.000000	28.783288
572.000000	29.317904
571.000000	29.741777
570.000000	30.249980
569.000000	30.993773
568.000000	32.031642
567.000000	33.326605
566.000000	34.728644
565.000000	36.032761
564.000000	37.115874
563.000000	37.989376
562.000000	38.721640
561.000000	39.366835
560.000000	39.982742
559.000000	40.643378
558.000000	41.383142
557.000000	42.164557
556.000000	42.930269
555.000000	43.653090
554.000000	44.313771
553.000000	44.886260
552.000000	45.381091
551.000000	45.866735
550.000000	46.414572
549.000000	47.045546
548.000000	47.748014
547.000000	48.503900
546.000000	49.268301
545.000000	49.965331
544.000000	50.540534
543.000000	50.999759
542.000000	51.385255
541.000000	51.738691
540.000000	52.104533
539.000000	52.537037
538.000000	53.069187
537.000000	53.681831
536.000000	54.314721
535.000000	54.897016
534.000000	55.364244
533.000000	55.677030
532.000000	55.848234
531.000000	55.941099
530.000000	56.027136
529.000000	56.141661
528.000000	56.275789
527.000000	56.389355
526.000000	56.405303
525.000000	56.223791
524.000000	55.780008
523.000000	55.094361
522.000000	54.271052
521.000000	53.445458
520.000000	52.723541
519.000000	52.118113
518.000000	51.487285
517.000000	50.567803
516.000000	49.129365
515.000000	47.140512
514.000000	44.796119
513.000000	42.422951
512.000000	40.378702
511.000000	38.974652
510.000000	38.374183
509.000000	38.555385
508.000000	39.414441
507.000000	40.821036
506.000000	42.584118
505.000000	44.477416
504.000000	46.339048
503.000000	48.099468
502.000000	49.699038
501.000000	51.072643
500.000000	52.223626
499.000000	53.240232
498.000000	54.214542
497.000000	55.185242
496.000000	56.152384
495.000000	57.103313
494.000000	58.012669
493.000000	58.839609
492.000000	59.556289
491.000000	60.168453
490.000000	60.702349
489.000000	61.190290
488.000000	61.669412
487.000000	62.177994
486.000000	62.735732
485.000000	63.328719
484.000000	63.920951
483.000000	64.471526
482.000000	64.945635
481.000000	65.325227
480.000000	65.614915
479.000000	65.840334
478.000000	66.030792
477.000000	66.199743
476.000000	66.334723
475.000000	66.384565
474.000000	66.252268
473.000000	65.803171
472.000000	64.937240
471.000000	63.701529
470.000000	62.310922
469.000000	61.051986
468.000000	60.174941
467.000000	59.779681
466.000000	59.697691
465.000000	59.536140
464.000000	58.922356
463.000000	57.754943
462.000000	56.313351
461.000000	55.115642
460.000000	54.655004
459.000000	55.215604
458.000000	56.730384
457.000000	58.736179
456.000000	60.689634
455.000000	62.361411
454.000000	63.790033
453.000000	65.031158
452.000000	66.055462
451.000000	66.806759
450.000000	67.245113
449.000000	67.319158
448.000000	66.955093
447.000000	66.118098
446.000000	64.895637
445.000000	63.494712
444.000000	62.211941
443.000000	61.385179
442.000000	61.234212
441.000000	61.702088
440.000000	62.535292
439.000000	63.480792
438.000000	64.374233
437.000000	65.134712
436.000000	65.732989
435.000000	66.179348
434.000000	66.511119
433.000000	66.767436
432.000000	66.964828
431.000000	67.101385
430.000000	67.166227
429.000000	67.141207
428.000000	67.010854
427.000000	66.778693
426.000000	66.475958
425.000000	66.146671
424.000000	65.841611
423.000000	65.619742
422.000000	65.508801
421.000000	65.471893
420.000000	65.436807
419.000000	65.354959
418.000000	65.234221
417.000000	65.102957
416.000000	64.970876
415.000000	64.856391
414.000000	64.798910
413.000000	64.825588
412.000000	64.938860
411.000000	65.131554
410.000000	65.377778
409.000000	65.622758
408.000000	65.816048
407.000000	65.949109
406.000000	66.037723
405.000000	66.098476
404.000000	66.164134
403.000000	66.302945
402.000000	66.574555
401.000000	66.959428
400.000000	67.374512
