PE IR       SUBTECH     SPECTRUM    ASCII       PEDS        4.00        
   -1
23ms095-cis.asc
24/10/22
15:36:00.00
24/10/22
15:36:00.00
Administrator
Sample 1332 By Administrator Date Tuesday, October 22 2024
400.000000
#HDR
-1
-1
#GR
cm-1
%T
1.0
0.0
4000.000000
-1.000000
3601
8
86.249157
2.453089
#DATA
4000.000000	47.697841
3999.000000	47.679033
3998.000000	47.664642
3997.000000	47.653302
3996.000000	47.643600
3995.000000	47.635545
3994.000000	47.630214
3993.000000	47.627851
3992.000000	47.626895
3991.000000	47.625652
3990.000000	47.624410
3989.000000	47.625120
3988.000000	47.629475
3987.000000	47.638041
3986.000000	47.651119
3985.000000	47.669309
3984.000000	47.692918
3983.000000	47.721650
3982.000000	47.755180
3981.000000	47.793755
3980.000000	47.837906
3979.000000	47.887436
3978.000000	47.941171
3977.000000	47.997557
3976.000000	48.055401
3975.000000	48.113523
3974.000000	48.170543
3973.000000	48.225586
3972.000000	48.278565
3971.000000	48.329974
3970.000000	48.380445
3969.000000	48.431019
3968.000000	48.482689
3967.000000	48.536135
3966.000000	48.591667
3965.000000	48.649275
3964.000000	48.708770
3963.000000	48.769739
3962.000000	48.832280
3961.000000	48.897074
3960.000000	48.964146
3959.000000	49.032440
3958.000000	49.100710
3957.000000	49.169258
3956.000000	49.238578
3955.000000	49.308271
3954.000000	49.377283
3953.000000	49.443934
3952.000000	49.506262
3951.000000	49.562537
3950.000000	49.613425
3949.000000	49.662150
3948.000000	49.712775
3947.000000	49.768268
3946.000000	49.827420
3945.000000	49.883339
3944.000000	49.928906
3943.000000	49.965394
3942.000000	50.003155
3941.000000	50.050363
3940.000000	50.105349
3939.000000	50.162386
3938.000000	50.218790
3937.000000	50.276915
3936.000000	50.338025
3935.000000	50.397667
3934.000000	50.449812
3933.000000	50.492924
3932.000000	50.531830
3931.000000	50.570111
3930.000000	50.606366
3929.000000	50.640331
3928.000000	50.674792
3927.000000	50.709473
3926.000000	50.736852
3925.000000	50.753701
3924.000000	50.768986
3923.000000	50.790534
3922.000000	50.813654
3921.000000	50.830555
3920.000000	50.842989
3919.000000	50.859009
3918.000000	50.880217
3917.000000	50.902946
3916.000000	50.927324
3915.000000	50.955227
3914.000000	50.984585
3913.000000	51.012914
3912.000000	51.041682
3911.000000	51.075974
3910.000000	51.115185
3909.000000	51.156995
3908.000000	51.199949
3907.000000	51.240776
3906.000000	51.269967
3905.000000	51.279534
3904.000000	51.280985
3903.000000	51.296422
3902.000000	51.332751
3901.000000	51.377737
3900.000000	51.419634
3899.000000	51.461806
3898.000000	51.512492
3897.000000	51.569996
3896.000000	51.629049
3895.000000	51.691941
3894.000000	51.761356
3893.000000	51.833022
3892.000000	51.894962
3891.000000	51.945387
3890.000000	51.992818
3889.000000	52.047961
3888.000000	52.112040
3887.000000	52.171802
3886.000000	52.220952
3885.000000	52.273174
3884.000000	52.332562
3883.000000	52.383169
3882.000000	52.408067
3881.000000	52.410119
3880.000000	52.414347
3879.000000	52.438328
3878.000000	52.476343
3877.000000	52.515508
3876.000000	52.541484
3875.000000	52.546254
3874.000000	52.545150
3873.000000	52.566112
3872.000000	52.611281
3871.000000	52.649729
3870.000000	52.669402
3869.000000	52.698234
3868.000000	52.750115
3867.000000	52.804871
3866.000000	52.837535
3865.000000	52.853135
3864.000000	52.879340
3863.000000	52.922431
3862.000000	52.965369
3861.000000	53.005030
3860.000000	53.046148
3859.000000	53.094181
3858.000000	53.158917
3857.000000	53.255765
3856.000000	53.373598
3855.000000	53.452303
3854.000000	53.476481
3853.000000	53.511946
3852.000000	53.562288
3851.000000	53.571281
3850.000000	53.534686
3849.000000	53.495824
3848.000000	53.491331
3847.000000	53.526071
3846.000000	53.581769
3845.000000	53.640491
3844.000000	53.691139
3843.000000	53.731913
3842.000000	53.772695
3841.000000	53.823465
3840.000000	53.876203
3839.000000	53.925880
3838.000000	53.978209
3837.000000	54.030500
3836.000000	54.068177
3835.000000	54.087691
3834.000000	54.103690
3833.000000	54.128136
3832.000000	54.161840
3831.000000	54.204565
3830.000000	54.256589
3829.000000	54.314413
3828.000000	54.366333
3827.000000	54.401914
3826.000000	54.428057
3825.000000	54.468904
3824.000000	54.535485
3823.000000	54.606032
3822.000000	54.649538
3821.000000	54.676043
3820.000000	54.717464
3819.000000	54.780589
3818.000000	54.850197
3817.000000	54.902451
3816.000000	54.940217
3815.000000	54.986214
3814.000000	55.034655
3813.000000	55.058835
3812.000000	55.056962
3811.000000	55.060771
3810.000000	55.102679
3809.000000	55.177872
3808.000000	55.250216
3807.000000	55.300623
3806.000000	55.343398
3805.000000	55.397781
3804.000000	55.464537
3803.000000	55.523403
3802.000000	55.558757
3801.000000	55.594252
3800.000000	55.639944
3799.000000	55.670738
3798.000000	55.675025
3797.000000	55.667904
3796.000000	55.678784
3795.000000	55.720234
3794.000000	55.778054
3793.000000	55.830610
3792.000000	55.873946
3791.000000	55.918350
3790.000000	55.969010
3789.000000	56.020395
3788.000000	56.066910
3787.000000	56.108008
3786.000000	56.143952
3785.000000	56.173684
3784.000000	56.201216
3783.000000	56.235386
3782.000000	56.277109
3781.000000	56.315570
3780.000000	56.342824
3779.000000	56.369078
3778.000000	56.407214
3777.000000	56.454424
3776.000000	56.495687
3775.000000	56.526104
3774.000000	56.558653
3773.000000	56.606231
3772.000000	56.661179
3771.000000	56.707910
3770.000000	56.750296
3769.000000	56.802866
3768.000000	56.863882
3767.000000	56.920684
3766.000000	56.967412
3765.000000	57.010910
3764.000000	57.064587
3763.000000	57.133314
3762.000000	57.205418
3761.000000	57.266347
3760.000000	57.318545
3759.000000	57.376312
3758.000000	57.436883
3757.000000	57.492686
3756.000000	57.552247
3755.000000	57.628327
3754.000000	57.716888
3753.000000	57.799099
3752.000000	57.873864
3751.000000	57.958612
3750.000000	58.044817
3749.000000	58.105926
3748.000000	58.152782
3747.000000	58.223337
3746.000000	58.307588
3745.000000	58.379765
3744.000000	58.470877
3743.000000	58.579244
3742.000000	58.647520
3741.000000	58.666200
3740.000000	58.682969
3739.000000	58.748815
3738.000000	58.858088
3737.000000	58.957556
3736.000000	59.019006
3735.000000	59.063612
3734.000000	59.120346
3733.000000	59.190086
3732.000000	59.260581
3731.000000	59.321764
3730.000000	59.370141
3729.000000	59.409650
3728.000000	59.440742
3727.000000	59.462147
3726.000000	59.483900
3725.000000	59.512374
3724.000000	59.538418
3723.000000	59.552364
3722.000000	59.559667
3721.000000	59.574118
3720.000000	59.604330
3719.000000	59.651268
3718.000000	59.706985
3717.000000	59.767653
3716.000000	59.839303
3715.000000	59.923398
3714.000000	60.013461
3713.000000	60.101288
3712.000000	60.187679
3711.000000	60.277846
3710.000000	60.368331
3709.000000	60.456825
3708.000000	60.538667
3707.000000	60.612196
3706.000000	60.682071
3705.000000	60.753748
3704.000000	60.824298
3703.000000	60.885121
3702.000000	60.936849
3701.000000	60.989103
3700.000000	61.046383
3699.000000	61.103757
3698.000000	61.154597
3697.000000	61.197203
3696.000000	61.241450
3695.000000	61.291894
3694.000000	61.342101
3693.000000	61.386675
3692.000000	61.427316
3691.000000	61.467071
3690.000000	61.509434
3689.000000	61.569008
3688.000000	61.644786
3687.000000	61.708730
3686.000000	61.740096
3685.000000	61.747439
3684.000000	61.752744
3683.000000	61.777908
3682.000000	61.827686
3681.000000	61.881397
3680.000000	61.923723
3679.000000	61.967784
3678.000000	62.033425
3677.000000	62.095458
3676.000000	62.130016
3675.000000	62.167630
3674.000000	62.222746
3673.000000	62.278951
3672.000000	62.323631
3671.000000	62.347644
3670.000000	62.370825
3669.000000	62.419631
3668.000000	62.477931
3667.000000	62.520524
3666.000000	62.548441
3665.000000	62.577007
3664.000000	62.616763
3663.000000	62.667525
3662.000000	62.717773
3661.000000	62.757630
3660.000000	62.792938
3659.000000	62.834055
3658.000000	62.879919
3657.000000	62.920557
3656.000000	62.959758
3655.000000	63.004993
3654.000000	63.052396
3653.000000	63.095710
3652.000000	63.126957
3651.000000	63.140444
3650.000000	63.154660
3649.000000	63.195478
3648.000000	63.258856
3647.000000	63.324748
3646.000000	63.383506
3645.000000	63.437704
3644.000000	63.492294
3643.000000	63.549847
3642.000000	63.609259
3641.000000	63.671409
3640.000000	63.734900
3639.000000	63.793823
3638.000000	63.846362
3637.000000	63.897036
3636.000000	63.948064
3635.000000	63.990187
3634.000000	64.017055
3633.000000	64.037925
3632.000000	64.064547
3631.000000	64.083195
3630.000000	64.064841
3629.000000	64.034618
3628.000000	64.041251
3627.000000	64.062090
3626.000000	64.048079
3625.000000	63.995228
3624.000000	63.929347
3623.000000	63.870440
3622.000000	63.813239
3621.000000	63.734544
3620.000000	63.623060
3619.000000	63.496463
3618.000000	63.377101
3617.000000	63.269378
3616.000000	63.165793
3615.000000	63.052557
3614.000000	62.923486
3613.000000	62.792057
3612.000000	62.676479
3611.000000	62.576912
3610.000000	62.476549
3609.000000	62.364534
3608.000000	62.244943
3607.000000	62.124388
3606.000000	61.999433
3605.000000	61.865314
3604.000000	61.723732
3603.000000	61.577900
3602.000000	61.431638
3601.000000	61.290608
3600.000000	61.162436
3599.000000	61.044748
3598.000000	60.926735
3597.000000	60.800005
3596.000000	60.665347
3595.000000	60.523566
3594.000000	60.377000
3593.000000	60.228884
3592.000000	60.082134
3591.000000	59.941747
3590.000000	59.812794
3589.000000	59.702292
3588.000000	59.623617
3587.000000	59.589291
3586.000000	59.589017
3585.000000	59.594538
3584.000000	59.582909
3583.000000	59.546566
3582.000000	59.490217
3581.000000	59.421251
3580.000000	59.345558
3579.000000	59.263443
3578.000000	59.174786
3577.000000	59.081710
3576.000000	58.987862
3575.000000	58.894176
3574.000000	58.798845
3573.000000	58.699708
3572.000000	58.593579
3571.000000	58.476855
3570.000000	58.344974
3569.000000	58.193256
3568.000000	58.025622
3567.000000	57.859837
3566.000000	57.710215
3565.000000	57.571748
3564.000000	57.430378
3563.000000	57.276668
3562.000000	57.108691
3561.000000	56.929068
3560.000000	56.741291
3559.000000	56.547327
3558.000000	56.347504
3557.000000	56.142288
3556.000000	55.931676
3555.000000	55.713107
3554.000000	55.482277
3553.000000	55.239454
3552.000000	54.991071
3551.000000	54.741055
3550.000000	54.484549
3549.000000	54.213372
3548.000000	53.924704
3547.000000	53.623398
3546.000000	53.316507
3545.000000	53.008317
3544.000000	52.698709
3543.000000	52.383656
3542.000000	52.057602
3541.000000	51.717120
3540.000000	51.360999
3539.000000	50.987164
3538.000000	50.592730
3537.000000	50.178994
3536.000000	49.752355
3535.000000	49.316739
3534.000000	48.869764
3533.000000	48.406375
3532.000000	47.924099
3531.000000	47.421469
3530.000000	46.895712
3529.000000	46.346043
3528.000000	45.776489
3527.000000	45.191697
3526.000000	44.591318
3525.000000	43.972590
3524.000000	43.336367
3523.000000	42.686558
3522.000000	42.024615
3521.000000	41.348151
3520.000000	40.653831
3519.000000	39.939640
3518.000000	39.205900
3517.000000	38.455693
3516.000000	37.692990
3515.000000	36.919769
3514.000000	36.136992
3513.000000	35.345695
3512.000000	34.544808
3511.000000	33.730275
3510.000000	32.900854
3509.000000	32.063904
3508.000000	31.229742
3507.000000	30.399820
3506.000000	29.565780
3505.000000	28.721357
3504.000000	27.871075
3503.000000	27.025695
3502.000000	26.192927
3501.000000	25.374790
3500.000000	24.569377
3499.000000	23.772228
3498.000000	22.980217
3497.000000	22.196205
3496.000000	21.427130
3495.000000	20.676923
3494.000000	19.945141
3493.000000	19.232596
3492.000000	18.542114
3491.000000	17.873505
3490.000000	17.223926
3489.000000	16.594116
3488.000000	15.989927
3487.000000	15.416022
3486.000000	14.871902
3485.000000	14.354772
3484.000000	13.860792
3483.000000	13.384316
3482.000000	12.921978
3481.000000	12.477871
3480.000000	12.059594
3479.000000	11.667843
3478.000000	11.295162
3477.000000	10.934569
3476.000000	10.583668
3475.000000	10.241167
3474.000000	9.904984
3473.000000	9.575324
3472.000000	9.255265
3471.000000	8.948153
3470.000000	8.659689
3469.000000	8.400749
3468.000000	8.182099
3467.000000	8.005960
3466.000000	7.866686
3465.000000	7.759312
3464.000000	7.682094
3463.000000	7.633261
3462.000000	7.612611
3461.000000	7.624885
3460.000000	7.675642
3459.000000	7.762968
3458.000000	7.878152
3457.000000	8.013992
3456.000000	8.166267
3455.000000	8.328803
3454.000000	8.493274
3453.000000	8.653133
3452.000000	8.802995
3451.000000	8.934564
3450.000000	9.038057
3449.000000	9.108015
3448.000000	9.143278
3447.000000	9.142095
3446.000000	9.102846
3445.000000	9.027593
3444.000000	8.920861
3443.000000	8.786000
3442.000000	8.625939
3441.000000	8.447350
3440.000000	8.259121
3439.000000	8.068475
3438.000000	7.883395
3437.000000	7.716018
3436.000000	7.577986
3435.000000	7.472826
3434.000000	7.396719
3433.000000	7.345611
3432.000000	7.319021
3431.000000	7.318479
3430.000000	7.347879
3429.000000	7.414188
3428.000000	7.521917
3427.000000	7.669816
3426.000000	7.855047
3425.000000	8.079099
3424.000000	8.346452
3423.000000	8.658395
3422.000000	9.014956
3421.000000	9.418273
3420.000000	9.869026
3419.000000	10.362378
3418.000000	10.890292
3417.000000	11.448295
3416.000000	12.034701
3415.000000	12.646032
3414.000000	13.278756
3413.000000	13.931501
3412.000000	14.602171
3411.000000	15.284319
3410.000000	15.970476
3409.000000	16.657592
3408.000000	17.344177
3407.000000	18.024538
3406.000000	18.690577
3405.000000	19.337712
3404.000000	19.965670
3403.000000	20.576248
3402.000000	21.174372
3401.000000	21.768404
3400.000000	22.363514
3399.000000	22.954946
3398.000000	23.532412
3397.000000	24.089608
3396.000000	24.625799
3395.000000	25.141991
3394.000000	25.641174
3393.000000	26.131396
3392.000000	26.622035
3391.000000	27.115611
3390.000000	27.607441
3389.000000	28.092300
3388.000000	28.568275
3387.000000	29.035310
3386.000000	29.494309
3385.000000	29.948027
3384.000000	30.399111
3383.000000	30.847620
3382.000000	31.293065
3381.000000	31.737480
3380.000000	32.183626
3379.000000	32.631371
3378.000000	33.079114
3377.000000	33.527290
3376.000000	33.976830
3375.000000	34.425465
3374.000000	34.869136
3373.000000	35.306628
3372.000000	35.740090
3371.000000	36.172203
3370.000000	36.605656
3369.000000	37.043759
3368.000000	37.488015
3367.000000	37.935711
3366.000000	38.382344
3365.000000	38.825430
3364.000000	39.264144
3363.000000	39.697398
3362.000000	40.125262
3361.000000	40.550638
3360.000000	40.976422
3359.000000	41.401921
3358.000000	41.824663
3357.000000	42.244257
3356.000000	42.661314
3355.000000	43.074181
3354.000000	43.480236
3353.000000	43.879959
3352.000000	44.276840
3351.000000	44.673256
3350.000000	45.068636
3349.000000	45.461088
3348.000000	45.848459
3347.000000	46.228660
3346.000000	46.601034
3345.000000	46.967211
3344.000000	47.328779
3343.000000	47.684377
3342.000000	48.031470
3341.000000	48.369854
3340.000000	48.701558
3339.000000	49.027954
3338.000000	49.348418
3337.000000	49.661613
3336.000000	49.965568
3335.000000	50.257170
3334.000000	50.533579
3333.000000	50.793208
3332.000000	51.034858
3331.000000	51.255726
3330.000000	51.452042
3329.000000	51.621552
3328.000000	51.762673
3327.000000	51.872991
3326.000000	51.948861
3325.000000	51.985914
3324.000000	51.980010
3323.000000	51.925954
3322.000000	51.819441
3321.000000	51.657810
3320.000000	51.436883
3319.000000	51.150501
3318.000000	50.790637
3317.000000	50.350586
3316.000000	49.823913
3315.000000	49.200514
3314.000000	48.470275
3313.000000	47.624530
3312.000000	46.656339
3311.000000	45.559960
3310.000000	44.330078
3309.000000	42.968872
3308.000000	41.483208
3307.000000	39.880297
3306.000000	38.168047
3305.000000	36.353327
3304.000000	34.444454
3303.000000	32.448600
3302.000000	30.375495
3301.000000	28.243526
3300.000000	26.077424
3299.000000	23.906622
3298.000000	21.767290
3297.000000	19.703816
3296.000000	17.760167
3295.000000	15.971297
3294.000000	14.360543
3293.000000	12.943641
3292.000000	11.726077
3291.000000	10.693473
3290.000000	9.819689
3289.000000	9.074158
3288.000000	8.426525
3287.000000	7.849298
3286.000000	7.319232
3285.000000	6.825207
3284.000000	6.363308
3283.000000	5.931835
3282.000000	5.534092
3281.000000	5.178799
3280.000000	4.876313
3279.000000	4.632404
3278.000000	4.451057
3277.000000	4.339608
3276.000000	4.303226
3275.000000	4.340020
3274.000000	4.443184
3273.000000	4.604556
3272.000000	4.812814
3271.000000	5.048523
3270.000000	5.287883
3269.000000	5.508437
3268.000000	5.688513
3267.000000	5.807207
3266.000000	5.851279
3265.000000	5.820136
3264.000000	5.721989
3263.000000	5.568894
3262.000000	5.376885
3261.000000	5.167917
3260.000000	4.963392
3259.000000	4.777546
3258.000000	4.620579
3257.000000	4.502712
3256.000000	4.430604
3255.000000	4.402961
3254.000000	4.413786
3253.000000	4.456626
3252.000000	4.524033
3251.000000	4.605911
3250.000000	4.695147
3249.000000	4.792495
3248.000000	4.900858
3247.000000	5.018908
3246.000000	5.141622
3245.000000	5.263618
3244.000000	5.378400
3243.000000	5.478052
3242.000000	5.558184
3241.000000	5.620663
3240.000000	5.668527
3239.000000	5.701159
3238.000000	5.717942
3237.000000	5.721959
3236.000000	5.717625
3235.000000	5.708491
3234.000000	5.699282
3233.000000	5.695683
3232.000000	5.697191
3231.000000	5.694595
3230.000000	5.678641
3229.000000	5.646863
3228.000000	5.599818
3227.000000	5.535430
3226.000000	5.451720
3225.000000	5.351030
3224.000000	5.236306
3223.000000	5.107611
3222.000000	4.965872
3221.000000	4.816580
3220.000000	4.665911
3219.000000	4.516008
3218.000000	4.367948
3217.000000	4.224922
3216.000000	4.088797
3215.000000	3.957431
3214.000000	3.828888
3213.000000	3.704429
3212.000000	3.584230
3211.000000	3.464747
3210.000000	3.343973
3209.000000	3.225311
3208.000000	3.112487
3207.000000	3.005112
3206.000000	2.902817
3205.000000	2.808738
3204.000000	2.725465
3203.000000	2.651704
3202.000000	2.586796
3201.000000	2.534238
3200.000000	2.496393
3199.000000	2.470942
3198.000000	2.455802
3197.000000	2.453089
3196.000000	2.464718
3195.000000	2.488040
3194.000000	2.520832
3193.000000	2.565340
3192.000000	2.623428
3191.000000	2.692631
3190.000000	2.769964
3189.000000	2.856156
3188.000000	2.951956
3187.000000	3.054436
3186.000000	3.161301
3185.000000	3.274034
3184.000000	3.393638
3183.000000	3.517337
3182.000000	3.642879
3181.000000	3.772079
3180.000000	3.906111
3179.000000	4.041966
3178.000000	4.176952
3177.000000	4.312312
3176.000000	4.449026
3175.000000	4.584309
3174.000000	4.715927
3173.000000	4.845683
3172.000000	4.975265
3171.000000	5.102820
3170.000000	5.227042
3169.000000	5.350275
3168.000000	5.474107
3167.000000	5.596200
3166.000000	5.714564
3165.000000	5.830747
3164.000000	5.945445
3163.000000	6.055282
3162.000000	6.157526
3161.000000	6.253394
3160.000000	6.343731
3159.000000	6.425697
3158.000000	6.496923
3157.000000	6.559287
3156.000000	6.615117
3155.000000	6.664251
3154.000000	6.708028
3153.000000	6.751516
3152.000000	6.798503
3151.000000	6.847838
3150.000000	6.897836
3149.000000	6.950162
3148.000000	7.006348
3147.000000	7.064979
3146.000000	7.125423
3145.000000	7.189900
3144.000000	7.258629
3143.000000	7.327301
3142.000000	7.392514
3141.000000	7.455665
3140.000000	7.518357
3139.000000	7.578345
3138.000000	7.633028
3137.000000	7.682707
3136.000000	7.727092
3135.000000	7.762584
3134.000000	7.786339
3133.000000	7.798272
3132.000000	7.796723
3131.000000	7.776170
3130.000000	7.732023
3129.000000	7.664323
3128.000000	7.573289
3127.000000	7.457142
3126.000000	7.317223
3125.000000	7.160660
3124.000000	6.995667
3123.000000	6.827427
3122.000000	6.661543
3121.000000	6.505843
3120.000000	6.364831
3119.000000	6.236692
3118.000000	6.118946
3117.000000	6.012666
3116.000000	5.918031
3115.000000	5.830836
3114.000000	5.746595
3113.000000	5.664198
3112.000000	5.582601
3111.000000	5.498901
3110.000000	5.413207
3109.000000	5.330469
3108.000000	5.254444
3107.000000	5.184111
3106.000000	5.118609
3105.000000	5.061268
3104.000000	5.015270
3103.000000	4.980643
3102.000000	4.958840
3101.000000	4.954945
3100.000000	4.972788
3099.000000	5.011326
3098.000000	5.069448
3097.000000	5.149676
3096.000000	5.253168
3095.000000	5.377097
3094.000000	5.519043
3093.000000	5.680119
3092.000000	5.861099
3091.000000	6.059058
3090.000000	6.271585
3089.000000	6.498550
3088.000000	6.737609
3087.000000	6.983269
3086.000000	7.232551
3085.000000	7.487668
3084.000000	7.749777
3083.000000	8.015236
3082.000000	8.281028
3081.000000	8.548621
3080.000000	8.819978
3079.000000	9.094105
3078.000000	9.370222
3077.000000	9.649465
3076.000000	9.930505
3075.000000	10.208375
3074.000000	10.480386
3073.000000	10.748806
3072.000000	11.015246
3071.000000	11.277270
3070.000000	11.533307
3069.000000	11.786126
3068.000000	12.038378
3067.000000	12.288730
3066.000000	12.535379
3065.000000	12.779065
3064.000000	13.019863
3063.000000	13.255356
3062.000000	13.484508
3061.000000	13.709704
3060.000000	13.932408
3059.000000	14.150844
3058.000000	14.364378
3057.000000	14.575762
3056.000000	14.786716
3055.000000	14.995218
3054.000000	15.199719
3053.000000	15.402302
3052.000000	15.605108
3051.000000	15.807424
3050.000000	16.008276
3049.000000	16.208046
3048.000000	16.405634
3047.000000	16.598005
3046.000000	16.784891
3045.000000	16.970115
3044.000000	17.156405
3043.000000	17.342925
3042.000000	17.529401
3041.000000	17.718047
3040.000000	17.908934
3039.000000	18.097947
3038.000000	18.282137
3037.000000	18.463414
3036.000000	18.644913
3035.000000	18.827420
3034.000000	19.011371
3033.000000	19.198223
3032.000000	19.387393
3031.000000	19.575671
3030.000000	19.761694
3029.000000	19.947254
3028.000000	20.132741
3027.000000	20.315614
3026.000000	20.495118
3025.000000	20.674033
3024.000000	20.853236
3023.000000	21.028763
3022.000000	21.196368
3021.000000	21.354652
3020.000000	21.501684
3019.000000	21.632000
3018.000000	21.740076
3017.000000	21.823348
3016.000000	21.880322
3015.000000	21.910765
3014.000000	21.920631
3013.000000	21.924414
3012.000000	21.939634
3011.000000	21.981213
3010.000000	22.060776
3009.000000	22.185055
3008.000000	22.350901
3007.000000	22.544402
3006.000000	22.746784
3005.000000	22.938511
3004.000000	23.096600
3003.000000	23.193131
3002.000000	23.201350
3001.000000	23.103081
3000.000000	22.894649
2999.000000	22.592949
2998.000000	22.241691
2997.000000	21.907023
2996.000000	21.659863
2995.000000	21.556506
2994.000000	21.625108
2993.000000	21.859016
2992.000000	22.216172
2991.000000	22.634727
2990.000000	23.058063
2989.000000	23.450821
2988.000000	23.797511
2987.000000	24.093851
2986.000000	24.342634
2985.000000	24.549549
2984.000000	24.717661
2983.000000	24.845959
2982.000000	24.935600
2981.000000	24.992661
2980.000000	25.022700
2979.000000	25.025213
2978.000000	24.995560
2977.000000	24.931195
2976.000000	24.834452
2975.000000	24.715392
2974.000000	24.593783
2973.000000	24.494326
2972.000000	24.435435
2971.000000	24.420714
2970.000000	24.438374
2969.000000	24.461970
2968.000000	24.450597
2967.000000	24.358951
2966.000000	24.157956
2965.000000	23.849891
2964.000000	23.465341
2963.000000	23.048758
2962.000000	22.646251
2961.000000	22.297223
2960.000000	22.030618
2959.000000	21.866240
2958.000000	21.819089
2957.000000	21.894883
2956.000000	22.079866
2955.000000	22.341291
2954.000000	22.640476
2953.000000	22.943929
2952.000000	23.221913
2951.000000	23.448701
2950.000000	23.610401
2949.000000	23.711534
2948.000000	23.769488
2947.000000	23.801073
2946.000000	23.809439
2945.000000	23.771193
2944.000000	23.634876
2943.000000	23.345561
2942.000000	22.893489
2941.000000	22.349507
2940.000000	21.855325
2939.000000	21.569265
2938.000000	21.598373
2937.000000	21.955958
2936.000000	22.563176
2935.000000	23.294800
2934.000000	24.036469
2933.000000	24.717700
2932.000000	25.310321
2931.000000	25.813624
2930.000000	26.242707
2929.000000	26.617510
2928.000000	26.953753
2927.000000	27.259840
2926.000000	27.542356
2925.000000	27.808256
2924.000000	28.060671
2923.000000	28.297734
2922.000000	28.518190
2921.000000	28.724118
2920.000000	28.916426
2919.000000	29.093131
2918.000000	29.253378
2917.000000	29.399341
2916.000000	29.532440
2915.000000	29.651699
2914.000000	29.757397
2913.000000	29.852026
2912.000000	29.936093
2911.000000	30.006897
2910.000000	30.062166
2909.000000	30.100833
2908.000000	30.118675
2907.000000	30.106277
2906.000000	30.052918
2905.000000	29.947961
2904.000000	29.777418
2903.000000	29.525711
2902.000000	29.184896
2901.000000	28.762473
2900.000000	28.282733
2899.000000	27.785717
2898.000000	27.324634
2897.000000	26.956484
2896.000000	26.724281
2895.000000	26.645166
2894.000000	26.712714
2893.000000	26.903567
2892.000000	27.183251
2891.000000	27.513295
2890.000000	27.861640
2889.000000	28.206754
2888.000000	28.534316
2887.000000	28.834356
2886.000000	29.102273
2885.000000	29.338621
2884.000000	29.544100
2883.000000	29.718528
2882.000000	29.864694
2881.000000	29.989303
2880.000000	30.098641
2879.000000	30.196467
2878.000000	30.286905
2877.000000	30.375016
2876.000000	30.462919
2875.000000	30.548659
2874.000000	30.630804
2873.000000	30.710663
2872.000000	30.789514
2871.000000	30.868326
2870.000000	30.951798
2869.000000	31.048564
2868.000000	31.164677
2867.000000	31.299328
2866.000000	31.447658
2865.000000	31.603738
2864.000000	31.759781
2863.000000	31.907474
2862.000000	32.042780
2861.000000	32.166680
2860.000000	32.280360
2859.000000	32.383373
2858.000000	32.477721
2857.000000	32.569335
2856.000000	32.663383
2855.000000	32.761417
2854.000000	32.864205
2853.000000	32.973034
2852.000000	33.086347
2851.000000	33.199005
2850.000000	33.306874
2849.000000	33.409203
2848.000000	33.505733
2847.000000	33.595528
2846.000000	33.680173
2845.000000	33.764262
2844.000000	33.850819
2843.000000	33.939228
2842.000000	34.028967
2841.000000	34.122138
2840.000000	34.220693
2839.000000	34.324204
2838.000000	34.431686
2837.000000	34.542832
2836.000000	34.656428
2835.000000	34.770557
2834.000000	34.885414
2833.000000	35.003138
2832.000000	35.123974
2831.000000	35.245440
2830.000000	35.365973
2829.000000	35.486217
2828.000000	35.605848
2827.000000	35.722440
2826.000000	35.834544
2825.000000	35.942896
2824.000000	36.047751
2823.000000	36.148047
2822.000000	36.244227
2821.000000	36.338728
2820.000000	36.432437
2819.000000	36.523538
2818.000000	36.610702
2817.000000	36.694548
2816.000000	36.775126
2815.000000	36.850990
2814.000000	36.921867
2813.000000	36.989455
2812.000000	37.054716
2811.000000	37.117236
2810.000000	37.177836
2809.000000	37.238647
2808.000000	37.299735
2807.000000	37.358777
2806.000000	37.415076
2805.000000	37.470821
2804.000000	37.527361
2803.000000	37.583453
2802.000000	37.638294
2801.000000	37.693178
2800.000000	37.748924
2799.000000	37.804485
2798.000000	37.859305
2797.000000	37.914214
2796.000000	37.968859
2795.000000	38.021005
2794.000000	38.069579
2793.000000	38.115903
2792.000000	38.161085
2791.000000	38.204837
2790.000000	38.247560
2789.000000	38.290650
2788.000000	38.333693
2787.000000	38.374097
2786.000000	38.410554
2785.000000	38.444593
2784.000000	38.478292
2783.000000	38.513408
2782.000000	38.553219
2781.000000	38.601682
2780.000000	38.659502
2779.000000	38.723599
2778.000000	38.791223
2777.000000	38.861966
2776.000000	38.935130
2775.000000	39.008382
2774.000000	39.080208
2773.000000	39.150876
2772.000000	39.220066
2771.000000	39.286237
2770.000000	39.349089
2769.000000	39.409932
2768.000000	39.468864
2767.000000	39.524238
2766.000000	39.575694
2765.000000	39.624810
2764.000000	39.671974
2763.000000	39.715546
2762.000000	39.754921
2761.000000	39.791674
2760.000000	39.826813
2759.000000	39.859552
2758.000000	39.889724
2757.000000	39.918517
2756.000000	39.945982
2755.000000	39.970563
2754.000000	39.992026
2753.000000	40.012601
2752.000000	40.034640
2751.000000	40.059625
2750.000000	40.089714
2749.000000	40.126907
2748.000000	40.169490
2747.000000	40.211980
2746.000000	40.249682
2745.000000	40.281375
2744.000000	40.307743
2743.000000	40.330290
2742.000000	40.352036
2741.000000	40.375750
2740.000000	40.400236
2739.000000	40.421109
2738.000000	40.436487
2737.000000	40.450211
2736.000000	40.469433
2735.000000	40.501764
2734.000000	40.554269
2733.000000	40.630257
2732.000000	40.725237
2731.000000	40.828707
2730.000000	40.931201
2729.000000	41.028270
2728.000000	41.118143
2727.000000	41.199547
2726.000000	41.273020
2725.000000	41.340828
2724.000000	41.403711
2723.000000	41.459984
2722.000000	41.508295
2721.000000	41.548655
2720.000000	41.580726
2719.000000	41.603967
2718.000000	41.620583
2717.000000	41.635718
2716.000000	41.653573
2715.000000	41.675821
2714.000000	41.703939
2713.000000	41.739761
2712.000000	41.782847
2711.000000	41.830176
2710.000000	41.879389
2709.000000	41.929920
2708.000000	41.980421
2707.000000	42.027988
2706.000000	42.070838
2705.000000	42.109111
2704.000000	42.142216
2703.000000	42.168095
2702.000000	42.185818
2701.000000	42.195985
2700.000000	42.198329
2699.000000	42.191611
2698.000000	42.176686
2697.000000	42.157340
2696.000000	42.137173
2695.000000	42.118340
2694.000000	42.103384
2693.000000	42.094831
2692.000000	42.092115
2691.000000	42.091794
2690.000000	42.091733
2689.000000	42.092718
2688.000000	42.095770
2687.000000	42.100902
2686.000000	42.109189
2685.000000	42.122657
2684.000000	42.141218
2683.000000	42.162890
2682.000000	42.187682
2681.000000	42.218494
2680.000000	42.257153
2679.000000	42.302222
2678.000000	42.351434
2677.000000	42.402916
2676.000000	42.453353
2675.000000	42.498182
2674.000000	42.534851
2673.000000	42.563589
2672.000000	42.584698
2671.000000	42.598107
2670.000000	42.606410
2669.000000	42.615346
2668.000000	42.630046
2667.000000	42.653155
2666.000000	42.686756
2665.000000	42.732431
2664.000000	42.788073
2663.000000	42.847641
2662.000000	42.905152
2661.000000	42.956652
2660.000000	42.998217
2659.000000	43.025654
2658.000000	43.037715
2657.000000	43.037410
2656.000000	43.029265
2655.000000	43.017636
2654.000000	43.008332
2653.000000	43.008351
2652.000000	43.022442
2651.000000	43.051875
2650.000000	43.096728
2649.000000	43.156154
2648.000000	43.225981
2647.000000	43.299035
2646.000000	43.369293
2645.000000	43.434178
2644.000000	43.492575
2643.000000	43.544143
2642.000000	43.591332
2641.000000	43.639017
2640.000000	43.690700
2639.000000	43.746770
2638.000000	43.806426
2637.000000	43.868421
2636.000000	43.929515
2635.000000	43.985204
2634.000000	44.033205
2633.000000	44.074013
2632.000000	44.107927
2631.000000	44.134552
2630.000000	44.155338
2629.000000	44.173652
2628.000000	44.191232
2627.000000	44.207126
2626.000000	44.220909
2625.000000	44.233735
2624.000000	44.245825
2623.000000	44.255804
2622.000000	44.263415
2621.000000	44.270268
2620.000000	44.276730
2619.000000	44.280765
2618.000000	44.280402
2617.000000	44.274643
2616.000000	44.261582
2615.000000	44.238286
2614.000000	44.203924
2613.000000	44.160812
2612.000000	44.111842
2611.000000	44.059933
2610.000000	44.010227
2609.000000	43.969625
2608.000000	43.942794
2607.000000	43.930880
2606.000000	43.934070
2605.000000	43.952800
2604.000000	43.985638
2603.000000	44.028869
2602.000000	44.079766
2601.000000	44.136929
2600.000000	44.197612
2599.000000	44.257627
2598.000000	44.314473
2597.000000	44.368254
2596.000000	44.418793
2595.000000	44.465076
2594.000000	44.508183
2593.000000	44.551566
2592.000000	44.597214
2591.000000	44.644048
2590.000000	44.690482
2589.000000	44.735636
2588.000000	44.777429
2587.000000	44.812492
2586.000000	44.839484
2585.000000	44.860386
2584.000000	44.878170
2583.000000	44.895938
2582.000000	44.918700
2581.000000	44.952569
2580.000000	45.000833
2579.000000	45.062888
2578.000000	45.136894
2577.000000	45.221007
2576.000000	45.311375
2575.000000	45.402480
2574.000000	45.491016
2573.000000	45.576807
2572.000000	45.659862
2571.000000	45.739074
2570.000000	45.814323
2569.000000	45.886854
2568.000000	45.956641
2567.000000	46.021896
2566.000000	46.082079
2565.000000	46.139048
2564.000000	46.194272
2563.000000	46.247664
2562.000000	46.299599
2561.000000	46.351597
2560.000000	46.404204
2559.000000	46.456280
2558.000000	46.507102
2557.000000	46.556775
2556.000000	46.604461
2555.000000	46.648983
2554.000000	46.691820
2553.000000	46.736907
2552.000000	46.786753
2551.000000	46.840935
2550.000000	46.898518
2549.000000	46.959028
2548.000000	47.020398
2547.000000	47.078857
2546.000000	47.131926
2545.000000	47.179532
2544.000000	47.221727
2543.000000	47.258016
2542.000000	47.289357
2541.000000	47.317871
2540.000000	47.343834
2539.000000	47.364721
2538.000000	47.378143
2537.000000	47.383374
2536.000000	47.379338
2535.000000	47.364516
2534.000000	47.339276
2533.000000	47.306439
2532.000000	47.268707
2531.000000	47.227261
2530.000000	47.183800
2529.000000	47.140979
2528.000000	47.100299
2527.000000	47.061734
2526.000000	47.025800
2525.000000	46.993708
2524.000000	46.964794
2523.000000	46.936187
2522.000000	46.905551
2521.000000	46.871767
2520.000000	46.832817
2519.000000	46.785669
2518.000000	46.729058
2517.000000	46.664274
2516.000000	46.592563
2515.000000	46.514781
2514.000000	46.433854
2513.000000	46.355039
2512.000000	46.283081
2511.000000	46.221455
2510.000000	46.174236
2509.000000	46.145564
2508.000000	46.136628
2507.000000	46.145013
2506.000000	46.168354
2505.000000	46.205099
2504.000000	46.252049
2503.000000	46.304823
2502.000000	46.360645
2501.000000	46.418772
2500.000000	46.477093
2499.000000	46.531463
2498.000000	46.579150
2497.000000	46.619894
2496.000000	46.653299
2495.000000	46.678121
2494.000000	46.694907
2493.000000	46.706344
2492.000000	46.714674
2491.000000	46.721010
2490.000000	46.727721
2489.000000	46.738489
2488.000000	46.755052
2487.000000	46.776462
2486.000000	46.801818
2485.000000	46.830955
2484.000000	46.862079
2483.000000	46.891975
2482.000000	46.919364
2481.000000	46.945761
2480.000000	46.972660
2479.000000	47.000393
2478.000000	47.030207
2477.000000	47.064332
2476.000000	47.103562
2475.000000	47.147391
2474.000000	47.196626
2473.000000	47.253397
2472.000000	47.317994
2471.000000	47.388600
2470.000000	47.464235
2469.000000	47.544518
2468.000000	47.626617
2467.000000	47.705519
2466.000000	47.778164
2465.000000	47.844572
2464.000000	47.904740
2463.000000	47.957687
2462.000000	48.004260
2461.000000	48.047756
2460.000000	48.090416
2459.000000	48.132016
2458.000000	48.171850
2457.000000	48.209355
2456.000000	48.242296
2455.000000	48.267254
2454.000000	48.283490
2453.000000	48.293864
2452.000000	48.301798
2451.000000	48.309870
2450.000000	48.321489
2449.000000	48.340619
2448.000000	48.368780
2447.000000	48.404878
2446.000000	48.448378
2445.000000	48.500165
2444.000000	48.559379
2443.000000	48.622599
2442.000000	48.686826
2441.000000	48.750592
2440.000000	48.811935
2439.000000	48.868021
2438.000000	48.917786
2437.000000	48.962291
2436.000000	49.002036
2435.000000	49.036130
2434.000000	49.064664
2433.000000	49.088924
2432.000000	49.108445
2431.000000	49.120992
2430.000000	49.125523
2429.000000	49.122946
2428.000000	49.113183
2427.000000	49.093960
2426.000000	49.063932
2425.000000	49.023991
2424.000000	48.975771
2423.000000	48.921622
2422.000000	48.866738
2421.000000	48.818563
2420.000000	48.782604
2419.000000	48.760878
2418.000000	48.753980
2417.000000	48.761540
2416.000000	48.779445
2415.000000	48.800245
2414.000000	48.817439
2413.000000	48.827230
2412.000000	48.825911
2411.000000	48.809078
2410.000000	48.774697
2409.000000	48.724336
2408.000000	48.660926
2407.000000	48.587327
2406.000000	48.508359
2405.000000	48.430461
2404.000000	48.358064
2403.000000	48.292538
2402.000000	48.235141
2401.000000	48.188167
2400.000000	48.152208
2399.000000	48.125302
2398.000000	48.105276
2397.000000	48.090462
2396.000000	48.076852
2395.000000	48.058234
2394.000000	48.030444
2393.000000	47.993334
2392.000000	47.948428
2391.000000	47.898238
2390.000000	47.849537
2389.000000	47.813690
2388.000000	47.803439
2387.000000	47.829878
2386.000000	47.903241
2385.000000	48.032031
2384.000000	48.217227
2383.000000	48.450744
2382.000000	48.717534
2381.000000	48.997848
2380.000000	49.266649
2379.000000	49.495310
2378.000000	49.663948
2377.000000	49.769129
2376.000000	49.819707
2375.000000	49.831130
2374.000000	49.821550
2373.000000	49.813923
2372.000000	49.826594
2371.000000	49.863816
2370.000000	49.920146
2369.000000	50.000771
2368.000000	50.112498
2367.000000	50.243742
2366.000000	50.381669
2365.000000	50.538945
2364.000000	50.714572
2363.000000	50.892819
2362.000000	51.068251
2361.000000	51.218215
2360.000000	51.330039
2359.000000	51.385264
2358.000000	51.361480
2357.000000	51.277804
2356.000000	51.137344
2355.000000	50.974474
2354.000000	50.835455
2353.000000	50.817045
2352.000000	50.968202
2351.000000	51.163487
2350.000000	51.257928
2349.000000	51.204485
2348.000000	51.125442
2347.000000	51.154186
2346.000000	51.253759
2345.000000	51.344923
2344.000000	51.337878
2343.000000	51.283196
2342.000000	51.228459
2341.000000	51.190143
2340.000000	51.169265
2339.000000	51.144020
2338.000000	51.123325
2337.000000	51.103251
2336.000000	51.111682
2335.000000	51.135455
2334.000000	51.173864
2333.000000	51.168329
2332.000000	51.122299
2331.000000	50.978999
2330.000000	50.812414
2329.000000	50.632830
2328.000000	50.500553
2327.000000	50.413438
2326.000000	50.366993
2325.000000	50.357441
2324.000000	50.340827
2323.000000	50.290442
2322.000000	50.185314
2321.000000	50.034898
2320.000000	49.878518
2319.000000	49.730114
2318.000000	49.633895
2317.000000	49.574012
2316.000000	49.562265
2315.000000	49.539566
2314.000000	49.498941
2313.000000	49.394404
2312.000000	49.249096
2311.000000	49.053059
2310.000000	48.843009
2309.000000	48.614616
2308.000000	48.388918
2307.000000	48.156215
2306.000000	47.934605
2305.000000	47.720800
2304.000000	47.527351
2303.000000	47.338923
2302.000000	47.161996
2301.000000	46.983827
2300.000000	46.813404
2299.000000	46.639978
2298.000000	46.474843
2297.000000	46.314837
2296.000000	46.170256
2295.000000	46.040517
2294.000000	45.935892
2293.000000	45.862519
2292.000000	45.824891
2291.000000	45.821210
2290.000000	45.847196
2289.000000	45.899133
2288.000000	45.969315
2287.000000	46.053380
2286.000000	46.148557
2285.000000	46.257035
2284.000000	46.375330
2283.000000	46.500041
2282.000000	46.627608
2281.000000	46.756770
2280.000000	46.882152
2279.000000	46.997093
2278.000000	47.099321
2277.000000	47.190218
2276.000000	47.273680
2275.000000	47.351908
2274.000000	47.430993
2273.000000	47.517340
2272.000000	47.615581
2271.000000	47.726577
2270.000000	47.851184
2269.000000	47.989710
2268.000000	48.140274
2267.000000	48.298990
2266.000000	48.464623
2265.000000	48.637011
2264.000000	48.813825
2263.000000	48.991542
2262.000000	49.166821
2261.000000	49.338675
2260.000000	49.502576
2259.000000	49.654181
2258.000000	49.791870
2257.000000	49.917574
2256.000000	50.033589
2255.000000	50.140874
2254.000000	50.243770
2253.000000	50.346906
2252.000000	50.453658
2251.000000	50.563076
2250.000000	50.674711
2249.000000	50.787313
2248.000000	50.898456
2247.000000	51.004046
2246.000000	51.102293
2245.000000	51.193672
2244.000000	51.278228
2243.000000	51.355244
2242.000000	51.425152
2241.000000	51.489546
2240.000000	51.548067
2239.000000	51.598535
2238.000000	51.639345
2237.000000	51.670307
2236.000000	51.691257
2235.000000	51.702945
2234.000000	51.709145
2233.000000	51.715472
2232.000000	51.725746
2231.000000	51.741491
2230.000000	51.764083
2229.000000	51.794289
2228.000000	51.830018
2227.000000	51.867058
2226.000000	51.902521
2225.000000	51.935042
2224.000000	51.962738
2223.000000	51.983671
2222.000000	51.998582
2221.000000	52.010293
2220.000000	52.020788
2219.000000	52.031313
2218.000000	52.044859
2217.000000	52.065385
2216.000000	52.094329
2215.000000	52.130357
2214.000000	52.172412
2213.000000	52.220240
2212.000000	52.272394
2211.000000	52.326611
2210.000000	52.382298
2209.000000	52.439830
2208.000000	52.497477
2207.000000	52.551508
2206.000000	52.599057
2205.000000	52.638496
2204.000000	52.667322
2203.000000	52.682995
2202.000000	52.686141
2201.000000	52.680805
2200.000000	52.671497
2199.000000	52.662159
2198.000000	52.657289
2197.000000	52.660676
2196.000000	52.672706
2195.000000	52.691091
2194.000000	52.714512
2193.000000	52.743379
2192.000000	52.777739
2191.000000	52.817430
2190.000000	52.863977
2189.000000	52.919640
2188.000000	52.984147
2187.000000	53.054610
2186.000000	53.127995
2185.000000	53.201416
2184.000000	53.270822
2183.000000	53.332488
2182.000000	53.386118
2181.000000	53.434260
2180.000000	53.479254
2179.000000	53.522624
2178.000000	53.566250
2177.000000	53.610911
2176.000000	53.653723
2175.000000	53.689830
2174.000000	53.716503
2173.000000	53.733734
2172.000000	53.741874
2171.000000	53.741932
2170.000000	53.737805
2169.000000	53.734903
2168.000000	53.736049
2167.000000	53.740744
2166.000000	53.747920
2165.000000	53.756721
2164.000000	53.765139
2163.000000	53.771240
2162.000000	53.775999
2161.000000	53.782665
2160.000000	53.793473
2159.000000	53.809262
2158.000000	53.831587
2157.000000	53.862019
2156.000000	53.899257
2155.000000	53.939482
2154.000000	53.979574
2153.000000	54.017788
2152.000000	54.052202
2151.000000	54.081512
2150.000000	54.107214
2149.000000	54.132297
2148.000000	54.157684
2147.000000	54.182271
2146.000000	54.205593
2145.000000	54.227881
2144.000000	54.247865
2143.000000	54.263424
2142.000000	54.274419
2141.000000	54.282644
2140.000000	54.289214
2139.000000	54.294410
2138.000000	54.299539
2137.000000	54.306137
2136.000000	54.313421
2135.000000	54.318873
2134.000000	54.321159
2133.000000	54.320006
2132.000000	54.313873
2131.000000	54.300489
2130.000000	54.279653
2129.000000	54.253210
2128.000000	54.223002
2127.000000	54.191379
2126.000000	54.163002
2125.000000	54.143061
2124.000000	54.133473
2123.000000	54.133304
2122.000000	54.142357
2121.000000	54.161661
2120.000000	54.190988
2119.000000	54.228651
2118.000000	54.273362
2117.000000	54.323689
2116.000000	54.376167
2115.000000	54.426572
2114.000000	54.472821
2113.000000	54.514135
2112.000000	54.548246
2111.000000	54.572355
2110.000000	54.586457
2109.000000	54.593292
2108.000000	54.595774
2107.000000	54.596982
2106.000000	54.601816
2105.000000	54.615114
2104.000000	54.637620
2103.000000	54.665643
2102.000000	54.693766
2101.000000	54.715751
2100.000000	54.724246
2099.000000	54.713692
2098.000000	54.684344
2097.000000	54.641522
2096.000000	54.591962
2095.000000	54.542892
2094.000000	54.502365
2093.000000	54.476525
2092.000000	54.466836
2091.000000	54.472419
2090.000000	54.494135
2089.000000	54.533405
2088.000000	54.588094
2087.000000	54.653280
2086.000000	54.725013
2085.000000	54.799682
2084.000000	54.871342
2083.000000	54.933069
2082.000000	54.980423
2081.000000	55.011419
2080.000000	55.024448
2079.000000	55.019596
2078.000000	55.001208
2077.000000	54.975340
2076.000000	54.945163
2075.000000	54.911014
2074.000000	54.872875
2073.000000	54.829692
2072.000000	54.777318
2071.000000	54.711508
2070.000000	54.633088
2069.000000	54.546164
2068.000000	54.452253
2067.000000	54.350686
2066.000000	54.244189
2065.000000	54.138981
2064.000000	54.037972
2063.000000	53.937967
2062.000000	53.834402
2061.000000	53.724978
2060.000000	53.608875
2059.000000	53.486651
2058.000000	53.362198
2057.000000	53.241464
2056.000000	53.128337
2055.000000	53.023862
2054.000000	52.929198
2053.000000	52.845709
2052.000000	52.772080
2051.000000	52.705504
2050.000000	52.646023
2049.000000	52.596138
2048.000000	52.556315
2047.000000	52.525185
2046.000000	52.503654
2045.000000	52.493242
2044.000000	52.491170
2043.000000	52.492581
2042.000000	52.497459
2041.000000	52.510790
2040.000000	52.535577
2039.000000	52.571307
2038.000000	52.618915
2037.000000	52.681164
2036.000000	52.758236
2035.000000	52.847377
2034.000000	52.947003
2033.000000	53.056674
2032.000000	53.173033
2031.000000	53.290639
2030.000000	53.406725
2029.000000	53.520716
2028.000000	53.630198
2027.000000	53.731914
2026.000000	53.826398
2025.000000	53.917462
2024.000000	54.006992
2023.000000	54.094938
2022.000000	54.183401
2021.000000	54.274649
2020.000000	54.365576
2019.000000	54.450462
2018.000000	54.529919
2017.000000	54.611496
2016.000000	54.700501
2015.000000	54.795956
2014.000000	54.895934
2013.000000	55.000856
2012.000000	55.110277
2011.000000	55.221709
2010.000000	55.333844
2009.000000	55.446532
2008.000000	55.557536
2007.000000	55.663399
2006.000000	55.763951
2005.000000	55.862359
2004.000000	55.960087
2003.000000	56.056332
2002.000000	56.151467
2001.000000	56.246668
2000.000000	56.340307
1999.000000	56.427744
1998.000000	56.506955
1997.000000	56.581412
1996.000000	56.653972
1995.000000	56.721079
1994.000000	56.778189
1993.000000	56.829877
1992.000000	56.889336
1991.000000	56.965713
1990.000000	57.056557
1989.000000	57.153727
1988.000000	57.251554
1987.000000	57.347852
1986.000000	57.441484
1985.000000	57.532304
1984.000000	57.622339
1983.000000	57.715525
1982.000000	57.814834
1981.000000	57.920496
1980.000000	58.030663
1979.000000	58.141299
1978.000000	58.247339
1977.000000	58.346094
1976.000000	58.439048
1975.000000	58.529307
1974.000000	58.619474
1973.000000	58.712807
1972.000000	58.812684
1971.000000	58.917151
1970.000000	59.015673
1969.000000	59.095704
1968.000000	59.152911
1967.000000	59.193120
1966.000000	59.224133
1965.000000	59.247923
1964.000000	59.262238
1963.000000	59.265661
1962.000000	59.259464
1961.000000	59.247280
1960.000000	59.232690
1959.000000	59.216740
1958.000000	59.197852
1957.000000	59.175341
1956.000000	59.153607
1955.000000	59.140652
1954.000000	59.142850
1953.000000	59.162142
1952.000000	59.197379
1951.000000	59.246494
1950.000000	59.304444
1949.000000	59.362443
1948.000000	59.414673
1947.000000	59.462325
1946.000000	59.505756
1945.000000	59.536863
1944.000000	59.547154
1943.000000	59.544239
1942.000000	59.549430
1941.000000	59.574069
1940.000000	59.609951
1939.000000	59.643605
1938.000000	59.668460
1937.000000	59.683768
1936.000000	59.689256
1935.000000	59.684308
1934.000000	59.671227
1933.000000	59.654203
1932.000000	59.635521
1931.000000	59.617988
1930.000000	59.604445
1929.000000	59.596069
1928.000000	59.594482
1927.000000	59.602557
1926.000000	59.619072
1925.000000	59.632268
1924.000000	59.633208
1923.000000	59.634892
1922.000000	59.658625
1921.000000	59.702790
1920.000000	59.743082
1919.000000	59.763424
1918.000000	59.775796
1917.000000	59.795237
1916.000000	59.812867
1915.000000	59.815117
1914.000000	59.804325
1913.000000	59.787601
1912.000000	59.763448
1911.000000	59.730444
1910.000000	59.697984
1909.000000	59.678778
1908.000000	59.674985
1907.000000	59.681827
1906.000000	59.699887
1905.000000	59.728661
1904.000000	59.761508
1903.000000	59.796623
1902.000000	59.841600
1901.000000	59.902745
1900.000000	59.977699
1899.000000	60.062590
1898.000000	60.157004
1897.000000	60.254686
1896.000000	60.343480
1895.000000	60.422439
1894.000000	60.502758
1893.000000	60.584974
1892.000000	60.651741
1891.000000	60.692004
1890.000000	60.722662
1889.000000	60.770795
1888.000000	60.839341
1887.000000	60.912315
1886.000000	60.980415
1885.000000	61.042020
1884.000000	61.094780
1883.000000	61.139419
1882.000000	61.182563
1881.000000	61.229678
1880.000000	61.281062
1879.000000	61.337683
1878.000000	61.405538
1877.000000	61.485603
1876.000000	61.565254
1875.000000	61.633180
1874.000000	61.692529
1873.000000	61.748559
1872.000000	61.793712
1871.000000	61.816104
1870.000000	61.821858
1869.000000	61.841538
1868.000000	61.897775
1867.000000	61.983641
1866.000000	62.084484
1865.000000	62.188252
1864.000000	62.279869
1863.000000	62.350319
1862.000000	62.406706
1861.000000	62.461458
1860.000000	62.518537
1859.000000	62.579356
1858.000000	62.651078
1857.000000	62.736568
1856.000000	62.823768
1855.000000	62.899470
1854.000000	62.962738
1853.000000	63.018651
1852.000000	63.070038
1851.000000	63.116323
1850.000000	63.161121
1849.000000	63.213839
1848.000000	63.281894
1847.000000	63.364606
1846.000000	63.448774
1845.000000	63.518386
1844.000000	63.580338
1843.000000	63.644271
1842.000000	63.700042
1841.000000	63.744812
1840.000000	63.787441
1839.000000	63.834680
1838.000000	63.891055
1837.000000	63.955828
1836.000000	64.023592
1835.000000	64.092163
1834.000000	64.160904
1833.000000	64.223402
1832.000000	64.266338
1831.000000	64.284491
1830.000000	64.309488
1829.000000	64.377644
1828.000000	64.476759
1827.000000	64.568929
1826.000000	64.638137
1825.000000	64.704843
1824.000000	64.788383
1823.000000	64.877049
1822.000000	64.955268
1821.000000	65.026016
1820.000000	65.092868
1819.000000	65.149231
1818.000000	65.196515
1817.000000	65.249001
1816.000000	65.314073
1815.000000	65.379144
1814.000000	65.427274
1813.000000	65.453271
1812.000000	65.458174
1811.000000	65.448549
1810.000000	65.439096
1809.000000	65.438450
1808.000000	65.441594
1807.000000	65.447142
1806.000000	65.467594
1805.000000	65.506650
1804.000000	65.542752
1803.000000	65.549774
1802.000000	65.530699
1801.000000	65.518860
1800.000000	65.533412
1799.000000	65.563003
1798.000000	65.594122
1797.000000	65.627600
1796.000000	65.671186
1795.000000	65.728655
1794.000000	65.789118
1793.000000	65.837430
1792.000000	65.873227
1791.000000	65.901697
1790.000000	65.927189
1789.000000	65.958228
1788.000000	65.992765
1787.000000	66.017226
1786.000000	66.032317
1785.000000	66.058143
1784.000000	66.105767
1783.000000	66.156954
1782.000000	66.184895
1781.000000	66.190758
1780.000000	66.196656
1779.000000	66.214535
1778.000000	66.236587
1777.000000	66.259895
1776.000000	66.302487
1775.000000	66.381227
1774.000000	66.484256
1773.000000	66.600670
1772.000000	66.743166
1771.000000	66.882821
1770.000000	66.968727
1769.000000	67.003201
1768.000000	67.033115
1767.000000	67.094688
1766.000000	67.183197
1765.000000	67.280634
1764.000000	67.372291
1763.000000	67.438452
1762.000000	67.480422
1761.000000	67.522531
1760.000000	67.563377
1759.000000	67.582053
1758.000000	67.568268
1757.000000	67.552181
1756.000000	67.587498
1755.000000	67.674914
1754.000000	67.771031
1753.000000	67.846929
1752.000000	67.898545
1751.000000	67.938839
1750.000000	67.972297
1749.000000	67.995199
1748.000000	68.031711
1747.000000	68.102411
1746.000000	68.186868
1745.000000	68.259893
1744.000000	68.327716
1743.000000	68.407499
1742.000000	68.494088
1741.000000	68.563245
1740.000000	68.609181
1739.000000	68.650885
1738.000000	68.690265
1737.000000	68.731310
1736.000000	68.770584
1735.000000	68.778666
1734.000000	68.818139
1733.000000	68.922015
1732.000000	68.982420
1731.000000	68.961577
1730.000000	68.915151
1729.000000	68.888650
1728.000000	68.891541
1727.000000	68.908175
1726.000000	68.921830
1725.000000	68.930386
1724.000000	68.940895
1723.000000	68.966965
1722.000000	69.014997
1721.000000	69.074426
1720.000000	69.118091
1719.000000	69.115822
1718.000000	69.104740
1717.000000	69.151318
1716.000000	69.214464
1715.000000	69.239868
1714.000000	69.265740
1713.000000	69.328752
1712.000000	69.404253
1711.000000	69.464789
1710.000000	69.522742
1709.000000	69.594552
1708.000000	69.661218
1707.000000	69.694043
1706.000000	69.713852
1705.000000	69.772068
1704.000000	69.865763
1703.000000	69.981088
1702.000000	70.094338
1701.000000	70.170449
1700.000000	70.283696
1699.000000	70.419392
1698.000000	70.496538
1697.000000	70.546815
1696.000000	70.626970
1695.000000	70.754195
1694.000000	70.858897
1693.000000	70.898159
1692.000000	70.917685
1691.000000	70.949972
1690.000000	70.980317
1689.000000	70.994300
1688.000000	71.012146
1687.000000	71.069300
1686.000000	71.132721
1685.000000	71.112806
1684.000000	71.091362
1683.000000	71.147511
1682.000000	71.175377
1681.000000	71.132572
1680.000000	71.081554
1679.000000	71.069957
1678.000000	71.077938
1677.000000	71.040386
1676.000000	70.933292
1675.000000	70.830213
1674.000000	70.772914
1673.000000	70.714416
1672.000000	70.639386
1671.000000	70.576306
1670.000000	70.544768
1669.000000	70.537133
1668.000000	70.522897
1667.000000	70.486024
1666.000000	70.429872
1665.000000	70.345274
1664.000000	70.222052
1663.000000	70.102303
1662.000000	70.026957
1661.000000	69.954722
1660.000000	69.839934
1659.000000	69.691346
1658.000000	69.517937
1657.000000	69.310902
1656.000000	69.076567
1655.000000	68.765455
1654.000000	68.236269
1653.000000	67.613996
1652.000000	67.058196
1651.000000	66.409484
1650.000000	65.576312
1649.000000	64.500000
1648.000000	62.981602
1647.000000	60.887187
1646.000000	58.321767
1645.000000	55.434133
1644.000000	52.236673
1643.000000	48.668543
1642.000000	44.714898
1641.000000	40.516165
1640.000000	36.411070
1639.000000	32.748837
1638.000000	29.689178
1637.000000	27.274762
1636.000000	25.682775
1635.000000	25.143196
1634.000000	25.546774
1633.000000	26.586661
1632.000000	28.073108
1631.000000	29.919121
1630.000000	32.049939
1629.000000	34.377063
1628.000000	36.788741
1627.000000	39.125596
1626.000000	41.279411
1625.000000	43.306021
1624.000000	45.333974
1623.000000	47.359918
1622.000000	49.206119
1621.000000	50.749349
1620.000000	52.063569
1619.000000	53.304674
1618.000000	54.573529
1617.000000	55.889652
1616.000000	57.161536
1615.000000	58.207715
1614.000000	58.963956
1613.000000	59.538180
1612.000000	60.049227
1611.000000	60.508711
1610.000000	60.841342
1609.000000	60.997251
1608.000000	60.973548
1607.000000	60.732740
1606.000000	60.179485
1605.000000	59.228117
1604.000000	57.844023
1603.000000	56.003423
1602.000000	53.714589
1601.000000	51.111743
1600.000000	48.469365
1599.000000	46.092899
1598.000000	44.175634
1597.000000	42.751631
1596.000000	41.743882
1595.000000	41.024516
1594.000000	40.449216
1593.000000	39.912998
1592.000000	39.391731
1591.000000	38.899860
1590.000000	38.433347
1589.000000	37.965658
1588.000000	37.468444
1587.000000	36.891378
1586.000000	36.154533
1585.000000	35.214889
1584.000000	34.126158
1583.000000	32.978833
1582.000000	31.807958
1581.000000	30.613919
1580.000000	29.420148
1579.000000	28.222132
1578.000000	26.892141
1577.000000	25.241180
1576.000000	23.317426
1575.000000	21.471523
1574.000000	19.934893
1573.000000	18.647913
1572.000000	17.500841
1571.000000	16.476875
1570.000000	15.629499
1569.000000	15.009343
1568.000000	14.638548
1567.000000	14.524217
1566.000000	14.627242
1565.000000	14.865391
1564.000000	15.189442
1563.000000	15.606407
1562.000000	16.142847
1561.000000	16.832874
1560.000000	17.792252
1559.000000	19.141584
1558.000000	20.591027
1557.000000	21.713064
1556.000000	22.532492
1555.000000	23.271086
1554.000000	23.994109
1553.000000	24.624808
1552.000000	25.126873
1551.000000	25.591147
1550.000000	26.128096
1549.000000	26.767692
1548.000000	27.497618
1547.000000	28.345140
1546.000000	29.342241
1545.000000	30.449768
1544.000000	31.586120
1543.000000	32.718296
1542.000000	33.884790
1541.000000	35.133856
1540.000000	36.472423
1539.000000	37.790191
1538.000000	38.898983
1537.000000	39.756979
1536.000000	40.511102
1535.000000	41.333372
1534.000000	42.290693
1533.000000	43.305619
1532.000000	44.246374
1531.000000	45.084775
1530.000000	45.877649
1529.000000	46.650259
1528.000000	47.398152
1527.000000	48.133496
1526.000000	48.855479
1525.000000	49.522802
1524.000000	50.119639
1523.000000	50.692603
1522.000000	51.282119
1521.000000	51.866663
1520.000000	52.380444
1519.000000	52.806138
1518.000000	53.195761
1517.000000	53.594436
1516.000000	54.018521
1515.000000	54.458584
1514.000000	54.891950
1513.000000	55.305306
1512.000000	55.692196
1511.000000	56.051828
1510.000000	56.379194
1509.000000	56.671251
1508.000000	56.951476
1507.000000	57.343856
1506.000000	57.923111
1505.000000	58.491477
1504.000000	58.886873
1503.000000	59.180095
1502.000000	59.462746
1501.000000	59.745454
1500.000000	60.015639
1499.000000	60.285846
1498.000000	60.575575
1497.000000	60.893152
1496.000000	61.241464
1495.000000	61.603298
1494.000000	61.937753
1493.000000	62.221706
1492.000000	62.461458
1491.000000	62.674202
1490.000000	62.877832
1489.000000	63.076423
1488.000000	63.267342
1487.000000	63.461878
1486.000000	63.639140
1485.000000	63.731655
1484.000000	63.701240
1483.000000	63.538487
1482.000000	63.208855
1481.000000	62.670551
1480.000000	61.918658
1479.000000	60.917444
1478.000000	59.518738
1477.000000	57.581334
1476.000000	55.157538
1475.000000	52.416032
1474.000000	49.416473
1473.000000	46.249427
1472.000000	43.316051
1471.000000	41.042913
1470.000000	39.482436
1469.000000	38.474711
1468.000000	37.937679
1467.000000	37.908058
1466.000000	38.455691
1465.000000	39.555035
1464.000000	40.974189
1463.000000	42.342736
1462.000000	43.379809
1461.000000	43.980796
1460.000000	44.127558
1459.000000	43.784733
1458.000000	42.887752
1457.000000	41.597854
1456.000000	40.377090
1455.000000	39.506805
1454.000000	38.921731
1453.000000	38.497942
1452.000000	38.179747
1451.000000	37.945890
1450.000000	37.784257
1449.000000	37.708833
1448.000000	37.760038
1447.000000	37.960049
1446.000000	38.299211
1445.000000	38.790224
1444.000000	39.473508
1443.000000	40.365426
1442.000000	41.449334
1441.000000	42.706106
1440.000000	44.127133
1439.000000	45.719508
1438.000000	47.505684
1437.000000	49.450963
1436.000000	51.348097
1435.000000	52.924065
1434.000000	54.136405
1433.000000	55.146419
1432.000000	56.069318
1431.000000	56.905325
1430.000000	57.633972
1429.000000	58.273560
1428.000000	58.836358
1427.000000	59.315686
1426.000000	59.720464
1425.000000	60.089071
1424.000000	60.460076
1423.000000	60.836746
1422.000000	61.213506
1421.000000	61.591517
1420.000000	61.945812
1419.000000	62.249828
1418.000000	62.515124
1417.000000	62.767548
1416.000000	63.027325
1415.000000	63.302134
1414.000000	63.590953
1413.000000	63.895403
1412.000000	64.209140
1411.000000	64.511872
1410.000000	64.795045
1409.000000	65.067863
1408.000000	65.325455
1407.000000	65.550203
1406.000000	65.741848
1405.000000	65.927083
1404.000000	66.120530
1403.000000	66.288836
1402.000000	66.368350
1401.000000	66.274625
1400.000000	65.919063
1399.000000	65.310439
1398.000000	64.623293
1397.000000	64.093970
1396.000000	63.880269
1395.000000	64.002281
1394.000000	64.334358
1393.000000	64.697819
1392.000000	65.005992
1391.000000	65.295494
1390.000000	65.639229
1389.000000	66.064730
1388.000000	66.545265
1387.000000	67.045737
1386.000000	67.553581
1385.000000	68.073503
1384.000000	68.611865
1383.000000	69.159402
1382.000000	69.691333
1381.000000	70.171660
1380.000000	70.559999
1379.000000	70.823268
1378.000000	70.935587
1377.000000	70.834849
1376.000000	70.341513
1375.000000	69.121699
1374.000000	66.765927
1373.000000	62.992061
1372.000000	57.865723
1371.000000	51.933596
1370.000000	46.220896
1369.000000	41.986225
1368.000000	40.129000
1367.000000	40.618017
1366.000000	42.576744
1365.000000	44.872720
1364.000000	46.563476
1363.000000	47.092112
1362.000000	46.444648
1361.000000	45.208542
1360.000000	44.319597
1359.000000	44.603470
1358.000000	46.384143
1357.000000	49.347306
1356.000000	52.783513
1355.000000	56.024377
1354.000000	58.729011
1353.000000	60.874116
1352.000000	62.569928
1351.000000	63.930635
1350.000000	65.044869
1349.000000	65.976092
1348.000000	66.761660
1347.000000	67.428696
1346.000000	68.010149
1345.000000	68.535764
1344.000000	69.019550
1343.000000	69.462575
1342.000000	69.868106
1341.000000	70.242952
1340.000000	70.592842
1339.000000	70.926758
1338.000000	71.252635
1337.000000	71.565529
1336.000000	71.842463
1335.000000	72.051420
1334.000000	72.158212
1333.000000	72.100296
1332.000000	71.764107
1331.000000	71.007278
1330.000000	69.718194
1329.000000	67.867932
1328.000000	65.483821
1327.000000	62.587109
1326.000000	59.200215
1325.000000	55.489033
1324.000000	51.935489
1323.000000	49.254839
1322.000000	47.976382
1321.000000	48.057873
1320.000000	48.937795
1319.000000	49.965561
1318.000000	50.807326
1317.000000	51.485485
1316.000000	52.145162
1315.000000	52.877048
1314.000000	53.715285
1313.000000	54.715832
1312.000000	55.966351
1311.000000	57.506569
1310.000000	59.253448
1309.000000	61.009081
1308.000000	62.544036
1307.000000	63.691236
1306.000000	64.386111
1305.000000	64.627720
1304.000000	64.426095
1303.000000	63.781332
1302.000000	62.694530
1301.000000	61.212870
1300.000000	59.488182
1299.000000	57.804552
1298.000000	56.489982
1297.000000	55.732660
1296.000000	55.460847
1295.000000	55.390466
1294.000000	55.190119
1293.000000	54.619500
1292.000000	53.567559
1291.000000	52.013950
1290.000000	49.966907
1289.000000	47.460369
1288.000000	44.645657
1287.000000	41.886037
1286.000000	39.686658
1285.000000	38.457915
1284.000000	38.314417
1283.000000	39.083757
1282.000000	40.501615
1281.000000	42.373138
1280.000000	44.553976
1279.000000	46.810976
1278.000000	48.768238
1277.000000	50.047612
1276.000000	50.469955
1275.000000	50.141747
1274.000000	49.396883
1273.000000	48.675986
1272.000000	48.405954
1271.000000	48.883599
1270.000000	50.179796
1269.000000	52.123273
1268.000000	54.392762
1267.000000	56.666714
1266.000000	58.732980
1265.000000	60.513634
1264.000000	62.022628
1263.000000	63.306746
1262.000000	64.409286
1261.000000	65.360486
1260.000000	66.177626
1259.000000	66.870523
1258.000000	67.457654
1257.000000	67.964034
1256.000000	68.411343
1255.000000	68.816802
1254.000000	69.194284
1253.000000	69.552901
1252.000000	69.890388
1251.000000	70.199690
1250.000000	70.481888
1249.000000	70.745344
1248.000000	70.997462
1247.000000	71.243085
1246.000000	71.488511
1245.000000	71.736838
1244.000000	71.978277
1243.000000	72.195240
1242.000000	72.375827
1241.000000	72.516543
1240.000000	72.616924
1239.000000	72.680311
1238.000000	72.719025
1237.000000	72.745198
1236.000000	72.755924
1235.000000	72.735822
1234.000000	72.669119
1233.000000	72.545598
1232.000000	72.358421
1231.000000	72.107596
1230.000000	71.806721
1229.000000	71.468837
1228.000000	71.088408
1227.000000	70.636903
1226.000000	70.066850
1225.000000	69.319491
1224.000000	68.322205
1223.000000	67.005998
1222.000000	65.325523
1221.000000	63.259779
1220.000000	60.822696
1219.000000	58.068386
1218.000000	55.091470
1217.000000	52.014073
1216.000000	48.973729
1215.000000	46.121317
1214.000000	43.615896
1213.000000	41.606425
1212.000000	40.209188
1211.000000	39.485412
1210.000000	39.393589
1209.000000	39.787848
1208.000000	40.460512
1207.000000	41.184326
1206.000000	41.754132
1205.000000	42.012353
1204.000000	41.870478
1203.000000	41.319326
1202.000000	40.428930
1201.000000	39.350723
1200.000000	38.310559
1199.000000	37.567077
1198.000000	37.329842
1197.000000	37.685297
1196.000000	38.594029
1195.000000	39.930015
1194.000000	41.538778
1193.000000	43.292077
1192.000000	45.105619
1191.000000	46.937164
1190.000000	48.762503
1189.000000	50.558732
1188.000000	52.300596
1187.000000	53.957367
1186.000000	55.493744
1185.000000	56.880153
1184.000000	58.103757
1183.000000	59.167264
1182.000000	60.088072
1181.000000	60.886748
1180.000000	61.581543
1179.000000	62.190967
1178.000000	62.727439
1177.000000	63.194047
1176.000000	63.576053
1175.000000	63.846982
1174.000000	63.982395
1173.000000	63.952315
1172.000000	63.719272
1171.000000	63.232656
1170.000000	62.432181
1169.000000	61.260122
1168.000000	59.674586
1167.000000	57.696359
1166.000000	55.450364
1165.000000	53.169811
1164.000000	51.154243
1163.000000	49.692894
1162.000000	48.966902
1161.000000	48.997564
1160.000000	49.668055
1159.000000	50.774879
1158.000000	52.102622
1157.000000	53.468570
1156.000000	54.743145
1155.000000	55.851720
1154.000000	56.757999
1153.000000	57.447140
1152.000000	57.912130
1151.000000	58.146995
1150.000000	58.139443
1149.000000	57.878567
1148.000000	57.342988
1147.000000	56.500699
1146.000000	55.309549
1145.000000	53.698840
1144.000000	51.587493
1143.000000	48.905400
1142.000000	45.643966
1141.000000	41.914843
1140.000000	37.967829
1139.000000	34.144851
1138.000000	30.748194
1137.000000	27.912918
1136.000000	25.579803
1135.000000	23.590729
1134.000000	21.813581
1133.000000	20.268410
1132.000000	19.168667
1131.000000	18.816882
1130.000000	19.451085
1129.000000	21.098070
1128.000000	23.549149
1127.000000	26.417224
1126.000000	29.213410
1125.000000	31.443719
1124.000000	32.706773
1123.000000	32.777491
1122.000000	31.663522
1121.000000	29.602640
1120.000000	26.944379
1119.000000	24.027747
1118.000000	21.150889
1117.000000	18.644929
1116.000000	16.928858
1115.000000	16.409256
1114.000000	17.260935
1113.000000	19.294271
1112.000000	22.008848
1111.000000	24.735586
1110.000000	26.865172
1109.000000	28.101461
1108.000000	28.595190
1107.000000	28.814521
1106.000000	29.212109
1105.000000	29.961279
1104.000000	30.947250
1103.000000	31.911067
1102.000000	32.544811
1101.000000	32.554187
1100.000000	31.776581
1099.000000	30.357111
1098.000000	28.818667
1097.000000	27.888390
1096.000000	28.146186
1095.000000	29.741464
1094.000000	32.360509
1093.000000	35.445662
1092.000000	38.497958
1091.000000	41.228200
1090.000000	43.551128
1089.000000	45.506325
1088.000000	47.180127
1087.000000	48.660906
1086.000000	50.018169
1085.000000	51.290921
1084.000000	52.485002
1083.000000	53.593167
1082.000000	54.605828
1081.000000	55.519325
1080.000000	56.336471
1079.000000	57.057978
1078.000000	57.684012
1077.000000	58.194813
1076.000000	58.542594
1075.000000	58.657606
1074.000000	58.444341
1073.000000	57.796966
1072.000000	56.573042
1071.000000	54.592016
1070.000000	51.654333
1069.000000	47.561395
1068.000000	42.242405
1067.000000	35.907050
1066.000000	29.142244
1065.000000	22.824839
1064.000000	17.829521
1063.000000	14.646470
1062.000000	13.130198
1061.000000	12.579737
1060.000000	12.133100
1059.000000	11.254010
1058.000000	9.946912
1057.000000	8.670150
1056.000000	8.025735
1055.000000	8.401920
1054.000000	9.840168
1053.000000	12.104679
1052.000000	14.868545
1051.000000	17.845109
1050.000000	20.812977
1049.000000	23.642889
1048.000000	26.296424
1047.000000	28.786095
1046.000000	31.121909
1045.000000	33.293228
1044.000000	35.281826
1043.000000	37.076078
1042.000000	38.675918
1041.000000	40.091498
1040.000000	41.350605
1039.000000	42.482860
1038.000000	43.506453
1037.000000	44.427840
1036.000000	45.244236
1035.000000	45.954285
1034.000000	46.557854
1033.000000	47.061951
1032.000000	47.487526
1031.000000	47.862254
1030.000000	48.213473
1029.000000	48.559066
1028.000000	48.903629
1027.000000	49.238162
1026.000000	49.538042
1025.000000	49.772512
1024.000000	49.912938
1023.000000	49.937248
1022.000000	49.833982
1021.000000	49.592533
1020.000000	49.200522
1019.000000	48.631750
1018.000000	47.835898
1017.000000	46.749081
1016.000000	45.304508
1015.000000	43.471239
1014.000000	41.295819
1013.000000	38.932142
1012.000000	36.632164
1011.000000	34.659718
1010.000000	33.156793
1009.000000	32.056514
1008.000000	31.141961
1007.000000	30.227510
1006.000000	29.363278
1005.000000	28.873797
1004.000000	29.175286
1003.000000	30.487512
1002.000000	32.646753
1001.000000	35.194444
1000.000000	37.610701
999.000000	39.501417
998.000000	40.663821
997.000000	41.075954
996.000000	40.878432
995.000000	40.347622
994.000000	39.837142
993.000000	39.685942
992.000000	40.123693
991.000000	41.199866
990.000000	42.771701
989.000000	44.583471
988.000000	46.395858
987.000000	48.063309
986.000000	49.539373
985.000000	50.838798
984.000000	51.995320
983.000000	53.037002
982.000000	53.978808
981.000000	54.824117
980.000000	55.572378
979.000000	56.231779
978.000000	56.817268
977.000000	57.348073
976.000000	57.843733
975.000000	58.319648
974.000000	58.785757
973.000000	59.241263
972.000000	59.677227
971.000000	60.083432
970.000000	60.453476
969.000000	60.787547
968.000000	61.091932
967.000000	61.380128
966.000000	61.669761
965.000000	61.972921
964.000000	62.289812
963.000000	62.610110
962.000000	62.919619
961.000000	63.205275
960.000000	63.458463
959.000000	63.680828
958.000000	63.886407
957.000000	64.095031
956.000000	64.322042
955.000000	64.573314
954.000000	64.845872
953.000000	65.127799
952.000000	65.400440
951.000000	65.647737
950.000000	65.865428
949.000000	66.060855
948.000000	66.246627
947.000000	66.437431
946.000000	66.647865
945.000000	66.884525
944.000000	67.139399
943.000000	67.394580
942.000000	67.633970
941.000000	67.848952
940.000000	68.037046
939.000000	68.203717
938.000000	68.364376
937.000000	68.536552
936.000000	68.728046
935.000000	68.934884
934.000000	69.148105
933.000000	69.356969
932.000000	69.549136
931.000000	69.717459
930.000000	69.867342
929.000000	70.012163
928.000000	70.161615
927.000000	70.319185
926.000000	70.487454
925.000000	70.665933
924.000000	70.844974
923.000000	71.011147
922.000000	71.160011
921.000000	71.297413
920.000000	71.429629
919.000000	71.560452
918.000000	71.696183
917.000000	71.842574
916.000000	71.995940
915.000000	72.145301
914.000000	72.283468
913.000000	72.409823
912.000000	72.520848
911.000000	72.610440
910.000000	72.671490
909.000000	72.681999
908.000000	72.587365
907.000000	72.299655
906.000000	71.726534
905.000000	70.792934
904.000000	69.464979
903.000000	67.812194
902.000000	66.075723
901.000000	64.647769
900.000000	63.918514
899.000000	64.071880
898.000000	64.983986
897.000000	66.321152
896.000000	67.728388
895.000000	68.975028
894.000000	69.985375
893.000000	70.768726
892.000000	71.349943
891.000000	71.751161
890.000000	72.015953
889.000000	72.218118
888.000000	72.430194
887.000000	72.665261
886.000000	72.846021
885.000000	72.834004
884.000000	72.510929
883.000000	71.878418
882.000000	71.082098
881.000000	70.318781
880.000000	69.683705
879.000000	69.109024
878.000000	68.475567
877.000000	67.796687
876.000000	67.288183
875.000000	67.230824
874.000000	67.758161
873.000000	68.757702
872.000000	69.960773
871.000000	71.113861
870.000000	72.082861
869.000000	72.846925
868.000000	73.434900
867.000000	73.883972
866.000000	74.230226
865.000000	74.508879
864.000000	74.748198
863.000000	74.969593
862.000000	75.189049
861.000000	75.410965
860.000000	75.625631
859.000000	75.816228
858.000000	75.972901
857.000000	76.096547
856.000000	76.194357
855.000000	76.280199
854.000000	76.374419
853.000000	76.493386
852.000000	76.636336
851.000000	76.786945
850.000000	76.926728
849.000000	77.042058
848.000000	77.124876
847.000000	77.177879
846.000000	77.218802
845.000000	77.271475
844.000000	77.351076
843.000000	77.460557
842.000000	77.594766
841.000000	77.738635
840.000000	77.866054
839.000000	77.953880
838.000000	78.000836
837.000000	78.026887
836.000000	78.055877
835.000000	78.105951
834.000000	78.190677
833.000000	78.314494
832.000000	78.463919
831.000000	78.612454
830.000000	78.737853
829.000000	78.831649
828.000000	78.896995
827.000000	78.948548
826.000000	79.013410
825.000000	79.118241
824.000000	79.269585
823.000000	79.450973
822.000000	79.636890
821.000000	79.800621
820.000000	79.915091
819.000000	79.963265
818.000000	79.950977
817.000000	79.901695
816.000000	79.835285
815.000000	79.756292
814.000000	79.652973
813.000000	79.492798
812.000000	79.228026
811.000000	78.823694
810.000000	78.291069
809.000000	77.684767
808.000000	77.057816
807.000000	76.425482
806.000000	75.755594
805.000000	74.977191
804.000000	73.997180
803.000000	72.715863
802.000000	71.050885
801.000000	68.943300
800.000000	66.362899
799.000000	63.328931
798.000000	59.920166
797.000000	56.269229
796.000000	52.534428
795.000000	48.878366
794.000000	45.455313
793.000000	42.407423
792.000000	39.859388
791.000000	37.911183
790.000000	36.631999
789.000000	36.046019
788.000000	36.132921
787.000000	36.817420
786.000000	37.975685
785.000000	39.456632
784.000000	41.093065
783.000000	42.717143
782.000000	44.173748
781.000000	45.341419
780.000000	46.144071
779.000000	46.558327
778.000000	46.615541
777.000000	46.388496
776.000000	45.958291
775.000000	45.385739
774.000000	44.721661
773.000000	44.042632
772.000000	43.479016
771.000000	43.200593
770.000000	43.368964
769.000000	44.077796
768.000000	45.317753
767.000000	46.983289
766.000000	48.918280
765.000000	50.971560
764.000000	53.021818
763.000000	54.985110
762.000000	56.816099
761.000000	58.502498
760.000000	60.047586
759.000000	61.457585
758.000000	62.744523
757.000000	63.927165
756.000000	65.022888
755.000000	66.042085
754.000000	66.995732
753.000000	67.896831
752.000000	68.750928
751.000000	69.553850
750.000000	70.299989
749.000000	70.986283
748.000000	71.604604
747.000000	72.143271
746.000000	72.603333
745.000000	73.003780
744.000000	73.367623
743.000000	73.710181
742.000000	74.041512
741.000000	74.367166
740.000000	74.678415
739.000000	74.950773
738.000000	75.157171
737.000000	75.277144
736.000000	75.295892
735.000000	75.208285
734.000000	75.029673
733.000000	74.792738
732.000000	74.529702
731.000000	74.264278
730.000000	74.015846
729.000000	73.795205
728.000000	73.592735
727.000000	73.375016
726.000000	73.100683
725.000000	72.743074
724.000000	72.289069
723.000000	71.706978
722.000000	70.909852
721.000000	69.762524
720.000000	68.153705
719.000000	66.085799
718.000000	63.698621
717.000000	61.223399
716.000000	58.926974
715.000000	57.069394
714.000000	55.863794
713.000000	55.426599
712.000000	55.741083
711.000000	56.673234
710.000000	58.040236
709.000000	59.668517
708.000000	61.407575
707.000000	63.133808
706.000000	64.768620
705.000000	66.286613
704.000000	67.688456
703.000000	68.978182
702.000000	70.172001
701.000000	71.296103
700.000000	72.358703
699.000000	73.342216
698.000000	74.228273
697.000000	75.017881
696.000000	75.716461
695.000000	76.322423
694.000000	76.850507
693.000000	77.337414
692.000000	77.809757
691.000000	78.264730
690.000000	78.690882
689.000000	79.091969
688.000000	79.472415
687.000000	79.821094
686.000000	80.129944
685.000000	80.403922
684.000000	80.639585
683.000000	80.822130
682.000000	80.955404
681.000000	81.071482
680.000000	81.187548
679.000000	81.302175
678.000000	81.400426
677.000000	81.485338
676.000000	81.579842
675.000000	81.641740
674.000000	81.699086
673.000000	81.959852
672.000000	82.683324
671.000000	83.907401
670.000000	85.390679
669.000000	86.249157
668.000000	85.263323
667.000000	83.328970
666.000000	82.241455
665.000000	81.914444
664.000000	81.827156
663.000000	81.783340
662.000000	81.774009
661.000000	81.768182
660.000000	81.742598
659.000000	81.749874
658.000000	81.833754
657.000000	81.962271
656.000000	82.101738
655.000000	82.214772
654.000000	82.261486
653.000000	82.213416
652.000000	82.085858
651.000000	81.933434
650.000000	81.796837
649.000000	81.673374
648.000000	81.555893
647.000000	81.459950
646.000000	81.387853
645.000000	81.301892
644.000000	81.151715
643.000000	80.916246
642.000000	80.612063
641.000000	80.275338
640.000000	79.956016
639.000000	79.709477
638.000000	79.559228
637.000000	79.473534
636.000000	79.391630
635.000000	79.258303
634.000000	79.035279
633.000000	78.706471
632.000000	78.293062
631.000000	77.856073
630.000000	77.462043
629.000000	77.142357
628.000000	76.891609
627.000000	76.680373
626.000000	76.456485
625.000000	76.160905
624.000000	75.757401
623.000000	75.253470
622.000000	74.694248
621.000000	74.139211
620.000000	73.631422
619.000000	73.162238
618.000000	72.661495
617.000000	72.048440
616.000000	71.305322
615.000000	70.471562
614.000000	69.566529
613.000000	68.561502
612.000000	67.435055
611.000000	66.215530
610.000000	64.938754
609.000000	63.596087
608.000000	62.160009
607.000000	60.620294
606.000000	58.961884
605.000000	57.148094
604.000000	55.164010
603.000000	53.052440
602.000000	50.863719
601.000000	48.607560
600.000000	46.297839
599.000000	43.999002
598.000000	41.769073
597.000000	39.602932
596.000000	37.488766
595.000000	35.466083
594.000000	33.568104
593.000000	31.759739
592.000000	30.012291
591.000000	28.379463
590.000000	26.932092
589.000000	25.681054
588.000000	24.615261
587.000000	23.738494
586.000000	22.992501
585.000000	22.226434
584.000000	21.333183
583.000000	20.352143
582.000000	19.386096
581.000000	18.502604
580.000000	17.779141
579.000000	17.355049
578.000000	17.330524
577.000000	17.685313
576.000000	18.345612
575.000000	19.234992
574.000000	20.217004
573.000000	21.093180
572.000000	21.756299
571.000000	22.295050
570.000000	22.899466
569.000000	23.711220
568.000000	24.786949
567.000000	26.108972
566.000000	27.557414
565.000000	28.948256
564.000000	30.168040
563.000000	31.229011
562.000000	32.177961
561.000000	33.023166
560.000000	33.780704
559.000000	34.511542
558.000000	35.260222
557.000000	36.012709
556.000000	36.753113
555.000000	37.509283
554.000000	38.297400
553.000000	39.081455
552.000000	39.830390
551.000000	40.564265
550.000000	41.306738
549.000000	42.040597
548.000000	42.748923
547.000000	43.451474
546.000000	44.162292
545.000000	44.854407
544.000000	45.501629
543.000000	46.114893
542.000000	46.709802
541.000000	47.277465
540.000000	47.818231
539.000000	48.362030
538.000000	48.924389
537.000000	49.475927
536.000000	49.980843
535.000000	50.435574
534.000000	50.844310
533.000000	51.195009
532.000000	51.482088
531.000000	51.724597
530.000000	51.936003
529.000000	52.093434
528.000000	52.153396
527.000000	52.082672
526.000000	51.843032
525.000000	51.384281
524.000000	50.689520
523.000000	49.812805
522.000000	48.865376
521.000000	47.960051
520.000000	47.161214
519.000000	46.427230
518.000000	45.553620
517.000000	44.239370
516.000000	42.288623
515.000000	39.775099
514.000000	37.009900
513.000000	34.394044
512.000000	32.304168
511.000000	31.026661
510.000000	30.673039
509.000000	31.165128
508.000000	32.356976
507.000000	34.090585
506.000000	36.154587
505.000000	38.313405
504.000000	40.418525
503.000000	42.434780
502.000000	44.333535
501.000000	46.053774
500.000000	47.578104
499.000000	48.963875
498.000000	50.260568
497.000000	51.459645
496.000000	52.537737
495.000000	53.498780
494.000000	54.361546
493.000000	55.134273
492.000000	55.839174
491.000000	56.526614
490.000000	57.231281
489.000000	57.943812
488.000000	58.628803
487.000000	59.255579
486.000000	59.797300
485.000000	60.228236
484.000000	60.550149
483.000000	60.799476
482.000000	61.014499
481.000000	61.210737
480.000000	61.393067
479.000000	61.559646
478.000000	61.664775
477.000000	61.623669
476.000000	61.377590
475.000000	60.914051
474.000000	60.214108
473.000000	59.231884
472.000000	57.983744
471.000000	56.625175
470.000000	55.378985
469.000000	54.437948
468.000000	53.939405
467.000000	53.886377
466.000000	54.015641
465.000000	53.871569
464.000000	53.102869
463.000000	51.725932
462.000000	50.167361
461.000000	49.042721
460.000000	48.892977
459.000000	50.011975
458.000000	52.261040
457.000000	55.009184
456.000000	57.544751
455.000000	59.569779
454.000000	61.133750
453.000000	62.336118
452.000000	63.242108
451.000000	63.928109
450.000000	64.416428
449.000000	64.605131
448.000000	64.329612
447.000000	63.493145
446.000000	62.156174
445.000000	60.540511
444.000000	59.016650
443.000000	58.029340
442.000000	57.865805
441.000000	58.467802
440.000000	59.559519
439.000000	60.865198
438.000000	62.159602
437.000000	63.257735
436.000000	64.057194
435.000000	64.575999
434.000000	64.890090
433.000000	65.057994
432.000000	65.125713
431.000000	65.156422
430.000000	65.193029
429.000000	65.210057
428.000000	65.164520
427.000000	65.058039
426.000000	64.903017
425.000000	64.666698
424.000000	64.333162
423.000000	63.989408
422.000000	63.736110
421.000000	63.561157
420.000000	63.392262
419.000000	63.262145
418.000000	63.266524
417.000000	63.348056
416.000000	63.400597
415.000000	63.427769
414.000000	63.450676
413.000000	63.434584
412.000000	63.381402
411.000000	63.396654
410.000000	63.570729
409.000000	63.836929
408.000000	64.078381
407.000000	64.301209
406.000000	64.572294
405.000000	64.861899
404.000000	65.103572
403.000000	65.316842
402.000000	65.554418
401.000000	65.786566
400.000000	65.970396
