PE IR       SUBTECH     SPECTRUM    ASCII       PEDS        4.00        
   -1
23ms263cis.asc
24/10/18
15:35:17.00
24/10/18
15:35:17.00
Administrator
Sample 1304 By Administrator Date Friday, October 18 2024
400.000000
#HDR
-1
-1
#GR
cm-1
%T
1.0
0.0
4000.000000
-1.000000
3601
8
85.935265
6.884507
#DATA
4000.000000	56.896581
3999.000000	56.882611
3998.000000	56.871155
3997.000000	56.862030
3996.000000	56.854885
3995.000000	56.849445
3994.000000	56.845739
3993.000000	56.843969
3992.000000	56.844159
3991.000000	56.846234
3990.000000	56.850459
3989.000000	56.857637
3988.000000	56.868778
3987.000000	56.884395
3986.000000	56.904344
3985.000000	56.928111
3984.000000	56.955046
3983.000000	56.984599
3982.000000	57.016545
3981.000000	57.051213
3980.000000	57.089178
3979.000000	57.130552
3978.000000	57.174654
3977.000000	57.220181
3976.000000	57.265826
3975.000000	57.310678
3974.000000	57.354191
3973.000000	57.396064
3972.000000	57.435996
3971.000000	57.473857
3970.000000	57.509805
3969.000000	57.544464
3968.000000	57.579070
3967.000000	57.615152
3966.000000	57.654182
3965.000000	57.697220
3964.000000	57.744530
3963.000000	57.795427
3962.000000	57.848965
3961.000000	57.904642
3960.000000	57.962331
3959.000000	58.021785
3958.000000	58.081982
3957.000000	58.141728
3956.000000	58.200596
3955.000000	58.258682
3954.000000	58.315826
3953.000000	58.370895
3952.000000	58.422339
3951.000000	58.469305
3950.000000	58.511964
3949.000000	58.551347
3948.000000	58.589259
3947.000000	58.628005
3946.000000	58.669192
3945.000000	58.711958
3944.000000	58.752635
3943.000000	58.787677
3942.000000	58.818608
3941.000000	58.851797
3940.000000	58.892026
3939.000000	58.938733
3938.000000	58.987394
3937.000000	59.034239
3936.000000	59.078926
3935.000000	59.122148
3934.000000	59.163358
3933.000000	59.200381
3932.000000	59.232197
3931.000000	59.260370
3930.000000	59.286858
3929.000000	59.313460
3928.000000	59.341004
3927.000000	59.368707
3926.000000	59.393404
3925.000000	59.411121
3924.000000	59.422276
3923.000000	59.432009
3922.000000	59.444019
3921.000000	59.457325
3920.000000	59.469042
3919.000000	59.478551
3918.000000	59.487776
3917.000000	59.499021
3916.000000	59.513976
3915.000000	59.533433
3914.000000	59.557025
3913.000000	59.582920
3912.000000	59.608574
3911.000000	59.633484
3910.000000	59.658931
3909.000000	59.686634
3908.000000	59.717394
3907.000000	59.748146
3906.000000	59.772067
3905.000000	59.781813
3904.000000	59.778181
3903.000000	59.774056
3902.000000	59.783593
3901.000000	59.810206
3900.000000	59.847011
3899.000000	59.887369
3898.000000	59.931951
3897.000000	59.984651
3896.000000	60.045314
3895.000000	60.111051
3894.000000	60.177847
3893.000000	60.240180
3892.000000	60.290418
3891.000000	60.326769
3890.000000	60.358469
3889.000000	60.397008
3888.000000	60.446168
3887.000000	60.498556
3886.000000	60.542140
3885.000000	60.575958
3884.000000	60.611227
3883.000000	60.654448
3882.000000	60.696859
3881.000000	60.723588
3880.000000	60.732189
3879.000000	60.737130
3878.000000	60.752804
3877.000000	60.779829
3876.000000	60.807725
3875.000000	60.825087
3874.000000	60.830392
3873.000000	60.834410
3872.000000	60.847111
3871.000000	60.864365
3870.000000	60.875769
3869.000000	60.885808
3868.000000	60.909995
3867.000000	60.953110
3866.000000	61.003347
3865.000000	61.044586
3864.000000	61.072971
3863.000000	61.098320
3862.000000	61.128285
3861.000000	61.162272
3860.000000	61.197690
3859.000000	61.235723
3858.000000	61.280756
3857.000000	61.334555
3856.000000	61.390588
3855.000000	61.429003
3854.000000	61.429121
3853.000000	61.407346
3852.000000	61.404671
3851.000000	61.432090
3850.000000	61.472865
3849.000000	61.514213
3848.000000	61.554967
3847.000000	61.600041
3846.000000	61.650564
3845.000000	61.700879
3844.000000	61.743457
3843.000000	61.775893
3842.000000	61.802852
3841.000000	61.831106
3840.000000	61.859803
3839.000000	61.882802
3838.000000	61.900839
3837.000000	61.922085
3836.000000	61.952614
3835.000000	61.990722
3834.000000	62.031301
3833.000000	62.070714
3832.000000	62.107404
3831.000000	62.143038
3830.000000	62.181602
3829.000000	62.224782
3828.000000	62.268896
3827.000000	62.308027
3826.000000	62.340139
3825.000000	62.371710
3824.000000	62.411249
3823.000000	62.458366
3822.000000	62.498727
3821.000000	62.519559
3820.000000	62.532187
3819.000000	62.557321
3818.000000	62.598792
3817.000000	62.641801
3816.000000	62.672164
3815.000000	62.695616
3814.000000	62.727420
3813.000000	62.767868
3812.000000	62.804999
3811.000000	62.834170
3810.000000	62.863677
3809.000000	62.902166
3808.000000	62.945268
3807.000000	62.981479
3806.000000	63.010844
3805.000000	63.046074
3804.000000	63.092883
3803.000000	63.141744
3802.000000	63.173395
3801.000000	63.184515
3800.000000	63.195846
3799.000000	63.221548
3798.000000	63.255079
3797.000000	63.284282
3796.000000	63.308283
3795.000000	63.337662
3794.000000	63.379731
3793.000000	63.429348
3792.000000	63.476241
3791.000000	63.516358
3790.000000	63.552262
3789.000000	63.587138
3788.000000	63.622034
3787.000000	63.656628
3786.000000	63.689644
3785.000000	63.718813
3784.000000	63.743162
3783.000000	63.765492
3782.000000	63.789421
3781.000000	63.814439
3780.000000	63.835985
3779.000000	63.853224
3778.000000	63.872771
3777.000000	63.900880
3776.000000	63.935847
3775.000000	63.971773
3774.000000	64.006536
3773.000000	64.042896
3772.000000	64.082309
3771.000000	64.120620
3770.000000	64.153050
3769.000000	64.183211
3768.000000	64.219958
3767.000000	64.266149
3766.000000	64.316035
3765.000000	64.362548
3764.000000	64.406457
3763.000000	64.454675
3762.000000	64.509521
3761.000000	64.564952
3760.000000	64.612779
3759.000000	64.652507
3758.000000	64.689656
3757.000000	64.727143
3756.000000	64.765317
3755.000000	64.804825
3754.000000	64.846395
3753.000000	64.888137
3752.000000	64.925983
3751.000000	64.959494
3750.000000	64.992608
3749.000000	65.027335
3748.000000	65.065293
3747.000000	65.111922
3746.000000	65.168749
3745.000000	65.223626
3744.000000	65.270292
3743.000000	65.323129
3742.000000	65.387095
3741.000000	65.447463
3740.000000	65.492163
3739.000000	65.526424
3738.000000	65.565955
3737.000000	65.616381
3736.000000	65.667988
3735.000000	65.710749
3734.000000	65.748468
3733.000000	65.789952
3732.000000	65.835301
3731.000000	65.880098
3730.000000	65.922935
3729.000000	65.965400
3728.000000	66.008026
3727.000000	66.048021
3726.000000	66.084777
3725.000000	66.121949
3724.000000	66.161679
3723.000000	66.201030
3722.000000	66.236875
3721.000000	66.271627
3720.000000	66.309245
3719.000000	66.352141
3718.000000	66.399242
3717.000000	66.447652
3716.000000	66.495664
3715.000000	66.543575
3714.000000	66.592990
3713.000000	66.644382
3712.000000	66.696282
3711.000000	66.748679
3710.000000	66.805600
3709.000000	66.868639
3708.000000	66.934716
3707.000000	66.999225
3706.000000	67.061768
3705.000000	67.124845
3704.000000	67.189621
3703.000000	67.253565
3702.000000	67.312631
3701.000000	67.366298
3700.000000	67.417226
3699.000000	67.468455
3698.000000	67.519983
3697.000000	67.569112
3696.000000	67.612940
3695.000000	67.652785
3694.000000	67.691857
3693.000000	67.732886
3692.000000	67.776343
3691.000000	67.820379
3690.000000	67.862812
3689.000000	67.903984
3688.000000	67.948125
3687.000000	67.995760
3686.000000	68.044207
3685.000000	68.089994
3684.000000	68.131413
3683.000000	68.171281
3682.000000	68.215093
3681.000000	68.261551
3680.000000	68.301655
3679.000000	68.330279
3678.000000	68.355310
3677.000000	68.387794
3676.000000	68.422618
3675.000000	68.451476
3674.000000	68.478216
3673.000000	68.509199
3672.000000	68.545523
3671.000000	68.585566
3670.000000	68.626119
3669.000000	68.669926
3668.000000	68.721031
3667.000000	68.773548
3666.000000	68.818887
3665.000000	68.857306
3664.000000	68.895147
3663.000000	68.937138
3662.000000	68.981405
3661.000000	69.020882
3660.000000	69.052440
3659.000000	69.079485
3658.000000	69.107887
3657.000000	69.138255
3656.000000	69.166065
3655.000000	69.189084
3654.000000	69.207405
3653.000000	69.222865
3652.000000	69.239876
3651.000000	69.261877
3650.000000	69.289199
3649.000000	69.324722
3648.000000	69.373519
3647.000000	69.432016
3646.000000	69.490166
3645.000000	69.543629
3644.000000	69.595477
3643.000000	69.649791
3642.000000	69.706441
3641.000000	69.762701
3640.000000	69.816530
3639.000000	69.865307
3638.000000	69.906007
3637.000000	69.938383
3636.000000	69.965730
3635.000000	69.989027
3634.000000	70.003077
3633.000000	70.003600
3632.000000	69.994918
3631.000000	69.988829
3630.000000	69.992744
3629.000000	70.002588
3628.000000	70.014993
3627.000000	70.029335
3626.000000	70.036130
3625.000000	70.025283
3624.000000	69.997274
3623.000000	69.960803
3622.000000	69.924227
3621.000000	69.887912
3620.000000	69.844157
3619.000000	69.786626
3618.000000	69.717680
3617.000000	69.642578
3616.000000	69.563144
3615.000000	69.478678
3614.000000	69.387481
3613.000000	69.289610
3612.000000	69.189397
3611.000000	69.092736
3610.000000	69.003607
3609.000000	68.921743
3608.000000	68.842579
3607.000000	68.761339
3606.000000	68.675540
3605.000000	68.583837
3604.000000	68.487626
3603.000000	68.391258
3602.000000	68.299383
3601.000000	68.214513
3600.000000	68.135685
3599.000000	68.059655
3598.000000	67.983209
3597.000000	67.904859
3596.000000	67.825006
3595.000000	67.744003
3594.000000	67.660606
3593.000000	67.573266
3592.000000	67.481535
3591.000000	67.389477
3590.000000	67.308307
3589.000000	67.250802
3588.000000	67.220246
3587.000000	67.207570
3586.000000	67.199996
3585.000000	67.187491
3584.000000	67.164531
3583.000000	67.130894
3582.000000	67.089812
3581.000000	67.045000
3580.000000	66.997798
3579.000000	66.947488
3578.000000	66.892380
3577.000000	66.831607
3576.000000	66.764956
3575.000000	66.693116
3574.000000	66.616355
3573.000000	66.533706
3572.000000	66.442891
3571.000000	66.342081
3570.000000	66.232673
3569.000000	66.119912
3568.000000	66.008475
3567.000000	65.899112
3566.000000	65.789833
3565.000000	65.677158
3564.000000	65.556952
3563.000000	65.427697
3562.000000	65.290731
3561.000000	65.147884
3560.000000	64.999390
3559.000000	64.843931
3558.000000	64.679848
3557.000000	64.506319
3556.000000	64.323722
3555.000000	64.133165
3554.000000	63.935554
3553.000000	63.731222
3552.000000	63.520592
3551.000000	63.303671
3550.000000	63.078726
3549.000000	62.843560
3548.000000	62.597472
3547.000000	62.341890
3546.000000	62.078797
3545.000000	61.809725
3544.000000	61.534990
3543.000000	61.253173
3542.000000	60.961584
3541.000000	60.657983
3540.000000	60.341334
3539.000000	60.010160
3538.000000	59.662002
3537.000000	59.295483
3536.000000	58.912410
3535.000000	58.515646
3534.000000	58.105817
3533.000000	57.681193
3532.000000	57.239795
3531.000000	56.779893
3530.000000	56.299147
3529.000000	55.796240
3528.000000	55.272485
3527.000000	54.730011
3526.000000	54.168473
3525.000000	53.586156
3524.000000	52.983942
3523.000000	52.365609
3522.000000	51.734120
3521.000000	51.088649
3520.000000	50.425584
3519.000000	49.741072
3518.000000	49.033497
3517.000000	48.304847
3516.000000	47.559428
3515.000000	46.800750
3514.000000	46.030471
3513.000000	45.249127
3512.000000	44.455726
3511.000000	43.647370
3510.000000	42.823006
3509.000000	41.988504
3508.000000	41.152913
3507.000000	40.317911
3506.000000	39.475104
3505.000000	38.616023
3504.000000	37.742437
3503.000000	36.865175
3502.000000	35.995284
3501.000000	35.137826
3500.000000	34.291019
3499.000000	33.448394
3498.000000	32.604496
3497.000000	31.760673
3496.000000	30.924223
3495.000000	30.101384
3494.000000	29.294200
3493.000000	28.504388
3492.000000	27.734579
3491.000000	26.984341
3490.000000	26.250395
3489.000000	25.533120
3488.000000	24.839505
3487.000000	24.177222
3486.000000	23.548519
3485.000000	22.950691
3484.000000	22.377678
3483.000000	21.821676
3482.000000	21.278747
3481.000000	20.754052
3480.000000	20.257040
3479.000000	19.789600
3478.000000	19.343707
3477.000000	18.910406
3476.000000	18.485665
3475.000000	18.068232
3474.000000	17.657388
3473.000000	17.254745
3472.000000	16.864117
3471.000000	16.488959
3470.000000	16.135178
3469.000000	15.815058
3468.000000	15.542584
3467.000000	15.323779
3466.000000	15.155374
3465.000000	15.032843
3464.000000	14.953928
3463.000000	14.916340
3462.000000	14.919621
3461.000000	14.968456
3460.000000	15.068557
3459.000000	15.217594
3458.000000	15.404805
3457.000000	15.619365
3456.000000	15.852880
3455.000000	16.095282
3454.000000	16.334705
3453.000000	16.561250
3452.000000	16.766424
3451.000000	16.939251
3450.000000	17.067157
3449.000000	17.141830
3448.000000	17.160418
3447.000000	17.121736
3446.000000	17.027020
3445.000000	16.881513
3444.000000	16.691855
3443.000000	16.463298
3442.000000	16.201715
3441.000000	15.918106
3440.000000	15.625975
3439.000000	15.336221
3438.000000	15.059637
3437.000000	14.811210
3436.000000	14.605781
3435.000000	14.449676
3434.000000	14.340534
3433.000000	14.274308
3432.000000	14.250336
3431.000000	14.270545
3430.000000	14.339766
3429.000000	14.466179
3428.000000	14.654983
3427.000000	14.905166
3426.000000	15.213505
3425.000000	15.580439
3424.000000	16.009402
3423.000000	16.500321
3422.000000	17.051401
3421.000000	17.662210
3420.000000	18.330347
3419.000000	19.048127
3418.000000	19.804505
3417.000000	20.591517
3416.000000	21.403924
3415.000000	22.235409
3414.000000	23.080334
3413.000000	23.935251
3412.000000	24.795728
3411.000000	25.653552
3410.000000	26.500781
3409.000000	27.334652
3408.000000	28.154317
3407.000000	28.954753
3406.000000	29.728543
3405.000000	30.471853
3404.000000	31.185029
3403.000000	31.870255
3402.000000	32.532106
3401.000000	33.178266
3400.000000	33.814691
3399.000000	34.439440
3398.000000	35.045144
3397.000000	35.626643
3396.000000	36.183249
3395.000000	36.716628
3394.000000	37.230146
3393.000000	37.730256
3392.000000	38.224140
3391.000000	38.714461
3390.000000	39.199264
3389.000000	39.675531
3388.000000	40.141467
3387.000000	40.596666
3386.000000	41.042557
3385.000000	41.482469
3384.000000	41.918624
3383.000000	42.350344
3382.000000	42.776773
3381.000000	43.199592
3380.000000	43.621054
3379.000000	44.041004
3378.000000	44.458374
3377.000000	44.874120
3376.000000	45.289686
3375.000000	45.703820
3374.000000	46.113429
3373.000000	46.516942
3372.000000	46.914822
3371.000000	47.307826
3370.000000	47.697329
3369.000000	48.086215
3368.000000	48.476981
3367.000000	48.869269
3366.000000	49.260622
3365.000000	49.648888
3364.000000	50.032504
3363.000000	50.410035
3362.000000	50.781518
3361.000000	51.149079
3360.000000	51.514528
3359.000000	51.877211
3358.000000	52.235670
3357.000000	52.590187
3356.000000	52.941501
3355.000000	53.288556
3354.000000	53.629538
3353.000000	53.964463
3352.000000	54.295085
3351.000000	54.622665
3350.000000	54.947336
3349.000000	55.268829
3348.000000	55.586258
3347.000000	55.898080
3346.000000	56.203613
3345.000000	56.504059
3344.000000	56.800645
3343.000000	57.092214
3342.000000	57.376249
3341.000000	57.651490
3340.000000	57.918584
3339.000000	58.178832
3338.000000	58.433119
3337.000000	58.681774
3336.000000	58.923799
3335.000000	59.156750
3334.000000	59.378303
3333.000000	59.586918
3332.000000	59.781033
3331.000000	59.958127
3330.000000	60.115705
3329.000000	60.252756
3328.000000	60.368371
3327.000000	60.460839
3326.000000	60.528147
3325.000000	60.568330
3324.000000	60.578689
3323.000000	60.554125
3322.000000	60.489321
3321.000000	60.381309
3320.000000	60.227866
3319.000000	60.025967
3318.000000	59.769762
3317.000000	59.452551
3316.000000	59.067043
3315.000000	58.603938
3314.000000	58.054232
3313.000000	57.409040
3312.000000	56.658879
3311.000000	55.794169
3310.000000	54.805571
3309.000000	53.690045
3308.000000	52.447280
3307.000000	51.075370
3306.000000	49.572109
3305.000000	47.934393
3304.000000	46.162355
3303.000000	44.255550
3302.000000	42.215615
3301.000000	40.052661
3300.000000	37.784450
3299.000000	35.437383
3298.000000	33.049138
3297.000000	30.670496
3296.000000	28.358475
3295.000000	26.164753
3294.000000	24.131177
3293.000000	22.292112
3292.000000	20.670799
3291.000000	19.267530
3290.000000	18.063969
3289.000000	17.029396
3288.000000	16.128063
3287.000000	15.324863
3286.000000	14.588520
3285.000000	13.900826
3284.000000	13.252521
3283.000000	12.639660
3282.000000	12.067162
3281.000000	11.548875
3280.000000	11.102897
3279.000000	10.743552
3278.000000	10.482773
3277.000000	10.335011
3276.000000	10.310534
3275.000000	10.409536
3274.000000	10.622912
3273.000000	10.934716
3272.000000	11.321285
3271.000000	11.746980
3270.000000	12.169928
3269.000000	12.549707
3268.000000	12.848637
3267.000000	13.033506
3266.000000	13.084481
3265.000000	13.000882
3264.000000	12.797063
3263.000000	12.497182
3262.000000	12.132981
3261.000000	11.744655
3260.000000	11.372212
3259.000000	11.046670
3258.000000	10.791713
3257.000000	10.627342
3256.000000	10.565577
3255.000000	10.606109
3254.000000	10.740537
3253.000000	10.956341
3252.000000	11.237274
3251.000000	11.560387
3250.000000	11.901906
3249.000000	12.244577
3248.000000	12.574760
3247.000000	12.878919
3246.000000	13.145165
3245.000000	13.366336
3244.000000	13.537953
3243.000000	13.657301
3242.000000	13.726649
3241.000000	13.755369
3240.000000	13.754405
3239.000000	13.729836
3238.000000	13.686433
3237.000000	13.630744
3236.000000	13.568884
3235.000000	13.504708
3234.000000	13.442313
3233.000000	13.386868
3232.000000	13.337446
3231.000000	13.283574
3230.000000	13.213400
3229.000000	13.121393
3228.000000	13.005915
3227.000000	12.863711
3226.000000	12.691950
3225.000000	12.492352
3224.000000	12.267738
3223.000000	12.018950
3222.000000	11.748556
3221.000000	11.464737
3220.000000	11.177569
3219.000000	10.893327
3218.000000	10.616029
3217.000000	10.349867
3216.000000	10.096198
3215.000000	9.851712
3214.000000	9.613354
3213.000000	9.381436
3212.000000	9.155040
3211.000000	8.929187
3210.000000	8.700532
3209.000000	8.472183
3208.000000	8.248864
3207.000000	8.031908
3206.000000	7.822957
3205.000000	7.627414
3204.000000	7.450505
3203.000000	7.293479
3202.000000	7.157550
3201.000000	7.047465
3200.000000	6.966296
3199.000000	6.912420
3198.000000	6.884507
3197.000000	6.885051
3196.000000	6.915756
3195.000000	6.972802
3194.000000	7.052639
3193.000000	7.156230
3192.000000	7.283763
3191.000000	7.431202
3190.000000	7.594480
3189.000000	7.773959
3188.000000	7.969887
3187.000000	8.177891
3186.000000	8.394017
3185.000000	8.618710
3184.000000	8.852634
3183.000000	9.092645
3182.000000	9.335753
3181.000000	9.583143
3180.000000	9.835699
3179.000000	10.090290
3178.000000	10.343947
3177.000000	10.597375
3176.000000	10.850840
3175.000000	11.100797
3174.000000	11.344335
3173.000000	11.582614
3172.000000	11.816641
3171.000000	12.043762
3170.000000	12.262089
3169.000000	12.473959
3168.000000	12.681301
3167.000000	12.882019
3166.000000	13.073824
3165.000000	13.257705
3164.000000	13.434053
3163.000000	13.599453
3162.000000	13.751324
3161.000000	13.891006
3160.000000	14.019549
3159.000000	14.134626
3158.000000	14.234658
3157.000000	14.322608
3156.000000	14.401780
3155.000000	14.472598
3154.000000	14.536975
3153.000000	14.601203
3152.000000	14.671008
3151.000000	14.746961
3150.000000	14.828134
3149.000000	14.916192
3148.000000	15.012555
3147.000000	15.115498
3146.000000	15.223650
3145.000000	15.338524
3144.000000	15.460400
3143.000000	15.585880
3142.000000	15.712232
3141.000000	15.840464
3140.000000	15.970967
3139.000000	16.100147
3138.000000	16.224355
3137.000000	16.342916
3136.000000	16.454234
3135.000000	16.552759
3134.000000	16.633242
3133.000000	16.693153
3132.000000	16.728534
3131.000000	16.731279
3130.000000	16.693536
3129.000000	16.612634
3128.000000	16.487658
3127.000000	16.317544
3126.000000	16.105591
3125.000000	15.861523
3124.000000	15.597103
3123.000000	15.321396
3122.000000	15.043783
3121.000000	14.775884
3120.000000	14.525968
3119.000000	14.295132
3118.000000	14.081756
3117.000000	13.885988
3116.000000	13.706786
3115.000000	13.539529
3114.000000	13.379855
3113.000000	13.226667
3112.000000	13.078504
3111.000000	12.931605
3110.000000	12.785271
3109.000000	12.644283
3108.000000	12.513382
3107.000000	12.393582
3106.000000	12.286386
3105.000000	12.197477
3104.000000	12.131983
3103.000000	12.091336
3102.000000	12.078107
3101.000000	12.098249
3100.000000	12.156657
3099.000000	12.253183
3098.000000	12.387034
3097.000000	12.560459
3096.000000	12.773502
3095.000000	13.021976
3094.000000	13.302033
3093.000000	13.613405
3092.000000	13.955524
3091.000000	14.323626
3090.000000	14.713133
3089.000000	15.121674
3088.000000	15.544880
3087.000000	15.975419
3086.000000	16.408302
3085.000000	16.843796
3084.000000	17.281745
3083.000000	17.717946
3082.000000	18.148865
3081.000000	18.574990
3080.000000	18.997041
3079.000000	19.413053
3078.000000	19.821980
3077.000000	20.225404
3076.000000	20.623136
3075.000000	21.011067
3074.000000	21.386079
3073.000000	21.749311
3072.000000	22.101931
3071.000000	22.442480
3070.000000	22.770575
3069.000000	23.089299
3068.000000	23.401335
3067.000000	23.705786
3066.000000	24.001624
3065.000000	24.290264
3064.000000	24.572549
3063.000000	24.847134
3062.000000	25.113589
3061.000000	25.374046
3060.000000	25.629513
3059.000000	25.878168
3058.000000	26.119424
3057.000000	26.355778
3056.000000	26.589096
3055.000000	26.818433
3054.000000	27.043354
3053.000000	27.266000
3052.000000	27.487759
3051.000000	27.707487
3050.000000	27.924462
3049.000000	28.139496
3048.000000	28.351843
3047.000000	28.558690
3046.000000	28.759655
3045.000000	28.958154
3044.000000	29.156717
3043.000000	29.354715
3042.000000	29.551870
3041.000000	29.749834
3040.000000	29.948295
3039.000000	30.143496
3038.000000	30.333066
3037.000000	30.519013
3036.000000	30.704403
3035.000000	30.890439
3034.000000	31.078087
3033.000000	31.268672
3032.000000	31.460914
3031.000000	31.651121
3030.000000	31.838074
3029.000000	32.024061
3028.000000	32.209832
3027.000000	32.392739
3026.000000	32.571569
3025.000000	32.748937
3024.000000	32.926277
3023.000000	33.100306
3022.000000	33.266625
3021.000000	33.422888
3020.000000	33.566304
3019.000000	33.690807
3018.000000	33.789893
3017.000000	33.859685
3016.000000	33.898092
3015.000000	33.905566
3014.000000	33.889357
3013.000000	33.865584
3012.000000	33.854342
3011.000000	33.874239
3010.000000	33.940243
3009.000000	34.060645
3008.000000	34.232043
3007.000000	34.439114
3006.000000	34.661131
3005.000000	34.876834
3004.000000	35.063181
3003.000000	35.193886
3002.000000	35.242723
3001.000000	35.186902
3000.000000	35.011690
2999.000000	34.720511
2998.000000	34.348556
2997.000000	33.964718
2996.000000	33.654089
2995.000000	33.492270
2994.000000	33.523114
2993.000000	33.747480
2992.000000	34.122912
2991.000000	34.581946
2990.000000	35.059250
2989.000000	35.509945
2988.000000	35.911169
2987.000000	36.255127
2986.000000	36.544565
2985.000000	36.787066
2984.000000	36.988596
2983.000000	37.150447
2982.000000	37.273264
2981.000000	37.358799
2980.000000	37.406530
2979.000000	37.411467
2978.000000	37.367741
2977.000000	37.274463
2976.000000	37.137191
2975.000000	36.969817
2974.000000	36.796137
2973.000000	36.645350
2972.000000	36.541040
2971.000000	36.491378
2970.000000	36.486694
2969.000000	36.499320
2968.000000	36.484837
2967.000000	36.393334
2966.000000	36.191201
2965.000000	35.878065
2964.000000	35.486318
2963.000000	35.067457
2962.000000	34.677120
2961.000000	34.361547
2960.000000	34.149292
2959.000000	34.051240
2958.000000	34.068854
2957.000000	34.197217
2956.000000	34.421025
2955.000000	34.714088
2954.000000	35.045430
2953.000000	35.384189
2952.000000	35.697316
2951.000000	35.952852
2950.000000	36.130691
2949.000000	36.231720
2948.000000	36.274016
2947.000000	36.278748
2946.000000	36.252970
2945.000000	36.171823
2944.000000	35.975810
2943.000000	35.599190
2942.000000	35.026660
2941.000000	34.337163
2940.000000	33.697033
2939.000000	33.298321
2938.000000	33.275297
2937.000000	33.649180
2936.000000	34.327564
2935.000000	35.159322
2934.000000	36.004223
2933.000000	36.774543
2932.000000	37.435302
2931.000000	37.986436
2930.000000	38.446960
2929.000000	38.841247
2928.000000	39.189282
2927.000000	39.502489
2926.000000	39.788293
2925.000000	40.052755
2924.000000	40.298434
2923.000000	40.523995
2922.000000	40.728716
2921.000000	40.914347
2920.000000	41.081467
2919.000000	41.228821
2918.000000	41.357025
2917.000000	41.469711
2916.000000	41.569589
2915.000000	41.656744
2914.000000	41.732154
2913.000000	41.798806
2912.000000	41.857848
2911.000000	41.906904
2910.000000	41.943088
2909.000000	41.964363
2908.000000	41.966511
2907.000000	41.941101
2906.000000	41.877894
2905.000000	41.765378
2904.000000	41.588439
2903.000000	41.330476
2902.000000	40.982643
2901.000000	40.551255
2900.000000	40.059389
2899.000000	39.547049
2898.000000	39.068556
2897.000000	38.683331
2896.000000	38.437736
2895.000000	38.351755
2894.000000	38.419434
2893.000000	38.615180
2892.000000	38.901253
2891.000000	39.236628
2890.000000	39.588032
2889.000000	39.933929
2888.000000	40.260918
2887.000000	40.560159
2886.000000	40.827590
2885.000000	41.063797
2884.000000	41.269720
2883.000000	41.445583
2882.000000	41.594041
2881.000000	41.721230
2880.000000	41.833456
2879.000000	41.935325
2878.000000	42.031523
2877.000000	42.126534
2876.000000	42.221103
2875.000000	42.311797
2874.000000	42.395878
2873.000000	42.474002
2872.000000	42.548111
2871.000000	42.620781
2870.000000	42.697869
2869.000000	42.788015
2868.000000	42.896882
2867.000000	43.023779
2866.000000	43.164433
2865.000000	43.313521
2864.000000	43.463689
2863.000000	43.606679
2862.000000	43.738077
2861.000000	43.858709
2860.000000	43.970492
2859.000000	44.073824
2858.000000	44.170082
2857.000000	44.262934
2856.000000	44.355183
2855.000000	44.447114
2854.000000	44.538983
2853.000000	44.631666
2852.000000	44.723335
2851.000000	44.808725
2850.000000	44.883601
2849.000000	44.947702
2848.000000	45.002708
2847.000000	45.050639
2846.000000	45.095511
2845.000000	45.143002
2844.000000	45.196453
2843.000000	45.255283
2842.000000	45.318405
2841.000000	45.386796
2840.000000	45.461630
2839.000000	45.542664
2838.000000	45.629671
2837.000000	45.722927
2836.000000	45.821287
2835.000000	45.922252
2834.000000	46.024767
2833.000000	46.129615
2832.000000	46.236398
2831.000000	46.342785
2830.000000	46.447600
2829.000000	46.551862
2828.000000	46.655895
2827.000000	46.758138
2826.000000	46.857676
2825.000000	46.955230
2824.000000	47.050729
2823.000000	47.142474
2822.000000	47.229842
2821.000000	47.314294
2820.000000	47.396735
2819.000000	47.476386
2818.000000	47.552987
2817.000000	47.627534
2816.000000	47.699835
2815.000000	47.767879
2814.000000	47.830693
2813.000000	47.889447
2812.000000	47.944994
2811.000000	47.996961
2810.000000	48.046135
2809.000000	48.095078
2808.000000	48.145256
2807.000000	48.195876
2806.000000	48.246367
2805.000000	48.297437
2804.000000	48.348774
2803.000000	48.398378
2802.000000	48.445292
2801.000000	48.490646
2800.000000	48.535197
2799.000000	48.578349
2798.000000	48.620414
2797.000000	48.663111
2796.000000	48.706751
2795.000000	48.749464
2794.000000	48.790181
2793.000000	48.829848
2792.000000	48.868804
2791.000000	48.905749
2790.000000	48.940483
2789.000000	48.974933
2788.000000	49.010040
2787.000000	49.044042
2786.000000	49.075140
2785.000000	49.103765
2784.000000	49.131252
2783.000000	49.158917
2782.000000	49.189634
2781.000000	49.227636
2780.000000	49.275094
2779.000000	49.330605
2778.000000	49.391904
2777.000000	49.457974
2776.000000	49.527528
2775.000000	49.597906
2774.000000	49.666830
2773.000000	49.733300
2772.000000	49.796036
2771.000000	49.853324
2770.000000	49.905374
2769.000000	49.954736
2768.000000	50.003372
2767.000000	50.051111
2766.000000	50.097576
2765.000000	50.143152
2764.000000	50.187122
2763.000000	50.227311
2762.000000	50.262717
2761.000000	50.294583
2760.000000	50.324101
2759.000000	50.351097
2758.000000	50.375771
2757.000000	50.399245
2756.000000	50.421368
2755.000000	50.440175
2754.000000	50.454601
2753.000000	50.466230
2752.000000	50.477894
2751.000000	50.492565
2750.000000	50.513867
2749.000000	50.544608
2748.000000	50.583336
2747.000000	50.624392
2746.000000	50.662451
2745.000000	50.695466
2744.000000	50.723278
2743.000000	50.746192
2742.000000	50.765661
2741.000000	50.783531
2740.000000	50.799122
2739.000000	50.809201
2738.000000	50.812484
2737.000000	50.813055
2736.000000	50.818834
2735.000000	50.838384
2734.000000	50.878800
2733.000000	50.942721
2732.000000	51.025653
2731.000000	51.117968
2730.000000	51.210690
2729.000000	51.298779
2728.000000	51.379587
2727.000000	51.451529
2726.000000	51.515305
2725.000000	51.573446
2724.000000	51.627001
2723.000000	51.674423
2722.000000	51.714080
2721.000000	51.745640
2720.000000	51.769007
2719.000000	51.784365
2718.000000	51.794396
2717.000000	51.804218
2716.000000	51.817871
2715.000000	51.836729
2714.000000	51.861455
2713.000000	51.892724
2712.000000	51.929302
2711.000000	51.968067
2710.000000	52.007038
2709.000000	52.046381
2708.000000	52.085866
2707.000000	52.123764
2706.000000	52.159122
2705.000000	52.192560
2704.000000	52.223663
2703.000000	52.249844
2702.000000	52.268775
2701.000000	52.279656
2700.000000	52.281749
2699.000000	52.274046
2698.000000	52.257523
2697.000000	52.235841
2696.000000	52.212563
2695.000000	52.189744
2694.000000	52.169438
2693.000000	52.153698
2692.000000	52.142196
2691.000000	52.132296
2690.000000	52.122695
2689.000000	52.115075
2688.000000	52.111527
2687.000000	52.112645
2686.000000	52.118992
2685.000000	52.131583
2684.000000	52.149757
2683.000000	52.171140
2682.000000	52.194678
2681.000000	52.221775
2680.000000	52.253432
2679.000000	52.288418
2678.000000	52.325227
2677.000000	52.363227
2676.000000	52.400964
2675.000000	52.435666
2674.000000	52.465402
2673.000000	52.489793
2672.000000	52.508131
2671.000000	52.519322
2670.000000	52.524757
2669.000000	52.529142
2668.000000	52.537466
2667.000000	52.553052
2666.000000	52.578678
2665.000000	52.616217
2664.000000	52.663579
2663.000000	52.714432
2662.000000	52.762298
2661.000000	52.803267
2660.000000	52.834600
2659.000000	52.853805
2658.000000	52.860675
2657.000000	52.858340
2656.000000	52.851019
2655.000000	52.842420
2654.000000	52.836996
2653.000000	52.839949
2652.000000	52.854457
2651.000000	52.880628
2650.000000	52.917742
2649.000000	52.965078
2648.000000	53.020014
2647.000000	53.077703
2646.000000	53.133949
2645.000000	53.186969
2644.000000	53.235763
2643.000000	53.279653
2642.000000	53.320373
2641.000000	53.362100
2640.000000	53.408026
2639.000000	53.458316
2638.000000	53.511760
2637.000000	53.566926
2636.000000	53.620941
2635.000000	53.669655
2634.000000	53.710550
2633.000000	53.743726
2632.000000	53.769548
2631.000000	53.787833
2630.000000	53.799927
2629.000000	53.809327
2628.000000	53.818714
2627.000000	53.828156
2626.000000	53.837230
2625.000000	53.846382
2624.000000	53.855433
2623.000000	53.862900
2622.000000	53.867922
2621.000000	53.871148
2620.000000	53.872656
2619.000000	53.871094
2618.000000	53.865522
2617.000000	53.855857
2616.000000	53.840922
2615.000000	53.818134
2614.000000	53.786508
2613.000000	53.748052
2612.000000	53.705447
2611.000000	53.660903
2610.000000	53.618065
2609.000000	53.582418
2608.000000	53.558261
2607.000000	53.547005
2606.000000	53.548832
2605.000000	53.563998
2604.000000	53.591278
2603.000000	53.627324
2602.000000	53.669337
2601.000000	53.715935
2600.000000	53.765194
2599.000000	53.814090
2598.000000	53.860679
2597.000000	53.905219
2596.000000	53.948071
2595.000000	53.988829
2594.000000	54.028220
2593.000000	54.068331
2592.000000	54.109727
2591.000000	54.150369
2590.000000	54.188175
2589.000000	54.222515
2588.000000	54.252507
2587.000000	54.276177
2586.000000	54.292921
2585.000000	54.305021
2584.000000	54.315787
2583.000000	54.328144
2582.000000	54.345763
2581.000000	54.373099
2580.000000	54.412928
2579.000000	54.465211
2578.000000	54.528614
2577.000000	54.601471
2576.000000	54.680392
2575.000000	54.760510
2574.000000	54.838582
2573.000000	54.913972
2572.000000	54.986388
2571.000000	55.054584
2570.000000	55.118006
2569.000000	55.177675
2568.000000	55.234512
2567.000000	55.288449
2566.000000	55.339896
2565.000000	55.390240
2564.000000	55.439905
2563.000000	55.487922
2562.000000	55.533853
2561.000000	55.578382
2560.000000	55.621498
2559.000000	55.661944
2558.000000	55.699312
2557.000000	55.734769
2556.000000	55.769258
2555.000000	55.803016
2554.000000	55.837331
2553.000000	55.874622
2552.000000	55.915970
2551.000000	55.960396
2550.000000	56.007087
2549.000000	56.056284
2548.000000	56.107242
2547.000000	56.157484
2546.000000	56.204873
2545.000000	56.248682
2544.000000	56.288005
2543.000000	56.321349
2542.000000	56.348485
2541.000000	56.370561
2540.000000	56.387905
2539.000000	56.399176
2538.000000	56.403620
2537.000000	56.402000
2536.000000	56.394245
2535.000000	56.378852
2534.000000	56.355034
2533.000000	56.324010
2532.000000	56.287417
2531.000000	56.246099
2530.000000	56.201722
2529.000000	56.157215
2528.000000	56.114815
2527.000000	56.075328
2526.000000	56.039684
2525.000000	56.009157
2524.000000	55.983131
2523.000000	55.958656
2522.000000	55.933032
2521.000000	55.904916
2520.000000	55.872537
2519.000000	55.833161
2518.000000	55.785444
2517.000000	55.730478
2516.000000	55.669590
2515.000000	55.603516
2514.000000	55.534307
2513.000000	55.465891
2512.000000	55.401843
2511.000000	55.344662
2510.000000	55.297610
2509.000000	55.264828
2508.000000	55.248608
2507.000000	55.248128
2506.000000	55.262255
2505.000000	55.290465
2504.000000	55.330546
2503.000000	55.378315
2502.000000	55.430024
2501.000000	55.483739
2500.000000	55.537164
2499.000000	55.586707
2498.000000	55.629998
2497.000000	55.666943
2496.000000	55.697468
2495.000000	55.720463
2494.000000	55.735901
2493.000000	55.745712
2492.000000	55.751890
2491.000000	55.755444
2490.000000	55.758140
2489.000000	55.763045
2488.000000	55.772082
2487.000000	55.785025
2486.000000	55.801472
2485.000000	55.821656
2484.000000	55.844528
2483.000000	55.867408
2482.000000	55.888552
2481.000000	55.908254
2480.000000	55.926902
2479.000000	55.944152
2478.000000	55.961123
2477.000000	55.981048
2476.000000	56.006817
2475.000000	56.039653
2474.000000	56.080461
2473.000000	56.130503
2472.000000	56.189411
2471.000000	56.254685
2470.000000	56.323931
2469.000000	56.395457
2468.000000	56.466621
2467.000000	56.533811
2466.000000	56.595066
2465.000000	56.650819
2464.000000	56.701551
2463.000000	56.746744
2462.000000	56.786761
2461.000000	56.823432
2460.000000	56.857741
2459.000000	56.889225
2458.000000	56.917841
2457.000000	56.944384
2456.000000	56.968358
2455.000000	56.987557
2454.000000	57.001106
2453.000000	57.010711
2452.000000	57.018415
2451.000000	57.025221
2450.000000	57.032651
2449.000000	57.043461
2448.000000	57.059833
2447.000000	57.082726
2446.000000	57.113508
2445.000000	57.154099
2444.000000	57.204199
2443.000000	57.260479
2442.000000	57.319155
2441.000000	57.377419
2440.000000	57.432285
2439.000000	57.480568
2438.000000	57.521377
2437.000000	57.556707
2436.000000	57.588743
2435.000000	57.618002
2434.000000	57.644497
2433.000000	57.668233
2432.000000	57.687591
2431.000000	57.699810
2430.000000	57.703547
2429.000000	57.699565
2428.000000	57.688188
2427.000000	57.668055
2426.000000	57.638663
2425.000000	57.601422
2424.000000	57.557956
2423.000000	57.509646
2422.000000	57.459807
2421.000000	57.414155
2420.000000	57.377506
2419.000000	57.351742
2418.000000	57.337474
2417.000000	57.335254
2416.000000	57.343558
2415.000000	57.357830
2414.000000	57.372716
2413.000000	57.383651
2412.000000	57.385840
2411.000000	57.374318
2410.000000	57.346538
2409.000000	57.303512
2408.000000	57.248019
2407.000000	57.183179
2406.000000	57.113674
2405.000000	57.045343
2404.000000	56.982197
2403.000000	56.925612
2402.000000	56.876975
2401.000000	56.838768
2400.000000	56.811953
2399.000000	56.794683
2398.000000	56.784465
2397.000000	56.779571
2396.000000	56.777071
2395.000000	56.771949
2394.000000	56.759609
2393.000000	56.737774
2392.000000	56.705240
2391.000000	56.661680
2390.000000	56.609984
2389.000000	56.556330
2388.000000	56.507698
2387.000000	56.469785
2386.000000	56.448451
2385.000000	56.450066
2384.000000	56.477608
2383.000000	56.529422
2382.000000	56.601162
2381.000000	56.687463
2380.000000	56.780568
2379.000000	56.869529
2378.000000	56.943742
2377.000000	56.997467
2376.000000	57.027931
2375.000000	57.033822
2374.000000	57.017137
2373.000000	56.983298
2372.000000	56.939005
2371.000000	56.889744
2370.000000	56.839052
2369.000000	56.793841
2368.000000	56.763597
2367.000000	56.753784
2366.000000	56.763287
2365.000000	56.796074
2364.000000	56.862902
2363.000000	56.956047
2362.000000	57.066349
2361.000000	57.190114
2360.000000	57.309031
2359.000000	57.412706
2358.000000	57.483106
2357.000000	57.515402
2356.000000	57.513638
2355.000000	57.471533
2354.000000	57.404681
2353.000000	57.348177
2352.000000	57.364921
2351.000000	57.462430
2350.000000	57.568456
2349.000000	57.624667
2348.000000	57.619177
2347.000000	57.623161
2346.000000	57.686679
2345.000000	57.798056
2344.000000	57.905177
2343.000000	57.957409
2342.000000	57.980634
2341.000000	57.993962
2340.000000	58.006828
2339.000000	58.009928
2338.000000	58.003584
2337.000000	57.990827
2336.000000	57.981614
2335.000000	57.974533
2334.000000	57.974126
2333.000000	57.964177
2332.000000	57.936084
2331.000000	57.875396
2330.000000	57.774011
2329.000000	57.661960
2328.000000	57.549845
2327.000000	57.466032
2326.000000	57.410630
2325.000000	57.385870
2324.000000	57.386042
2323.000000	57.385436
2322.000000	57.377850
2321.000000	57.348721
2320.000000	57.307459
2319.000000	57.253613
2318.000000	57.200569
2317.000000	57.155909
2316.000000	57.123806
2315.000000	57.098315
2314.000000	57.067951
2313.000000	57.023599
2312.000000	56.955115
2311.000000	56.861805
2310.000000	56.746210
2309.000000	56.618115
2308.000000	56.481341
2307.000000	56.338772
2306.000000	56.193917
2305.000000	56.052340
2304.000000	55.918087
2303.000000	55.789175
2302.000000	55.663364
2301.000000	55.539318
2300.000000	55.414845
2299.000000	55.289791
2298.000000	55.166203
2297.000000	55.052698
2296.000000	54.953926
2295.000000	54.875223
2294.000000	54.818980
2293.000000	54.789929
2292.000000	54.787045
2291.000000	54.806348
2290.000000	54.842910
2289.000000	54.893843
2288.000000	54.956411
2287.000000	55.028151
2286.000000	55.109666
2285.000000	55.202640
2284.000000	55.305903
2283.000000	55.414079
2282.000000	55.522915
2281.000000	55.629248
2280.000000	55.729417
2279.000000	55.818203
2278.000000	55.894331
2277.000000	55.960658
2276.000000	56.021113
2275.000000	56.079150
2274.000000	56.139081
2273.000000	56.206356
2272.000000	56.283431
2271.000000	56.369898
2270.000000	56.465933
2269.000000	56.573305
2268.000000	56.692757
2267.000000	56.823307
2266.000000	56.964591
2265.000000	57.117576
2264.000000	57.279939
2263.000000	57.446312
2262.000000	57.610754
2261.000000	57.768632
2260.000000	57.915431
2259.000000	58.046240
2258.000000	58.160242
2257.000000	58.260279
2256.000000	58.350904
2255.000000	58.435861
2254.000000	58.519804
2253.000000	58.607596
2252.000000	58.700977
2251.000000	58.798354
2250.000000	58.897302
2249.000000	58.995931
2248.000000	59.090851
2247.000000	59.178029
2246.000000	59.255734
2245.000000	59.325604
2244.000000	59.389338
2243.000000	59.447275
2242.000000	59.500088
2241.000000	59.549287
2240.000000	59.594502
2239.000000	59.632805
2238.000000	59.661870
2237.000000	59.681863
2236.000000	59.694252
2235.000000	59.700939
2234.000000	59.705716
2233.000000	59.713574
2232.000000	59.727248
2231.000000	59.745960
2230.000000	59.767941
2229.000000	59.791820
2228.000000	59.815206
2227.000000	59.834876
2226.000000	59.849797
2225.000000	59.862062
2224.000000	59.874096
2223.000000	59.887041
2222.000000	59.902087
2221.000000	59.920632
2220.000000	59.941934
2219.000000	59.963084
2218.000000	59.982265
2217.000000	60.000276
2216.000000	60.018437
2215.000000	60.037627
2214.000000	60.060157
2213.000000	60.089684
2212.000000	60.127920
2211.000000	60.173113
2210.000000	60.222443
2209.000000	60.273576
2208.000000	60.323398
2207.000000	60.367990
2206.000000	60.405169
2205.000000	60.435320
2204.000000	60.458954
2203.000000	60.475564
2202.000000	60.485302
2201.000000	60.489360
2200.000000	60.487887
2199.000000	60.479816
2198.000000	60.465768
2197.000000	60.449066
2196.000000	60.433494
2195.000000	60.422306
2194.000000	60.420054
2193.000000	60.432252
2192.000000	60.461525
2191.000000	60.505948
2190.000000	60.561583
2189.000000	60.624470
2188.000000	60.689700
2187.000000	60.751815
2186.000000	60.807746
2185.000000	60.857747
2184.000000	60.902880
2183.000000	60.943724
2182.000000	60.982143
2181.000000	61.021418
2180.000000	61.063240
2179.000000	61.106306
2178.000000	61.148573
2177.000000	61.188778
2176.000000	61.225055
2175.000000	61.254642
2174.000000	61.276183
2173.000000	61.290550
2172.000000	61.298642
2171.000000	61.300334
2170.000000	61.296344
2169.000000	61.288823
2168.000000	61.279207
2167.000000	61.267515
2166.000000	61.254678
2165.000000	61.243366
2164.000000	61.235635
2163.000000	61.231999
2162.000000	61.233415
2161.000000	61.241746
2160.000000	61.257205
2159.000000	61.277530
2158.000000	61.300529
2157.000000	61.325222
2156.000000	61.349875
2155.000000	61.371618
2154.000000	61.389379
2153.000000	61.405142
2152.000000	61.421443
2151.000000	61.439646
2150.000000	61.461193
2149.000000	61.487783
2148.000000	61.518837
2147.000000	61.550833
2146.000000	61.580198
2145.000000	61.605170
2144.000000	61.624541
2143.000000	61.637171
2142.000000	61.643924
2141.000000	61.647945
2140.000000	61.651824
2139.000000	61.656080
2138.000000	61.660723
2137.000000	61.665885
2136.000000	61.670127
2135.000000	61.670555
2134.000000	61.665854
2133.000000	61.657274
2132.000000	61.646005
2131.000000	61.631801
2130.000000	61.614953
2129.000000	61.597077
2128.000000	61.578779
2127.000000	61.558734
2126.000000	61.536280
2125.000000	61.513124
2124.000000	61.491670
2123.000000	61.474165
2122.000000	61.464322
2121.000000	61.467286
2120.000000	61.486570
2119.000000	61.522216
2118.000000	61.571901
2117.000000	61.631384
2116.000000	61.693501
2115.000000	61.749642
2114.000000	61.793995
2113.000000	61.825215
2112.000000	61.844283
2111.000000	61.853355
2110.000000	61.856718
2109.000000	61.859715
2108.000000	61.865255
2107.000000	61.873127
2106.000000	61.883173
2105.000000	61.896480
2104.000000	61.912739
2103.000000	61.929253
2102.000000	61.943441
2101.000000	61.953903
2100.000000	61.958114
2099.000000	61.951869
2098.000000	61.932500
2097.000000	61.900677
2096.000000	61.858614
2095.000000	61.809469
2094.000000	61.759402
2093.000000	61.717260
2092.000000	61.690563
2091.000000	61.683299
2090.000000	61.697754
2089.000000	61.735038
2088.000000	61.792158
2087.000000	61.861355
2086.000000	61.933683
2085.000000	62.001416
2084.000000	62.057657
2083.000000	62.097224
2082.000000	62.119175
2081.000000	62.126733
2080.000000	62.123777
2079.000000	62.113032
2078.000000	62.097608
2077.000000	62.080466
2076.000000	62.061200
2075.000000	62.036130
2074.000000	62.002406
2073.000000	61.959739
2072.000000	61.907872
2071.000000	61.845763
2070.000000	61.774790
2069.000000	61.699198
2068.000000	61.621479
2067.000000	61.539991
2066.000000	61.452575
2065.000000	61.359975
2064.000000	61.263863
2063.000000	61.164654
2062.000000	61.063103
2061.000000	60.961296
2060.000000	60.860559
2059.000000	60.760813
2058.000000	60.663164
2057.000000	60.570163
2056.000000	60.482269
2055.000000	60.397000
2054.000000	60.312919
2053.000000	60.231517
2052.000000	60.154365
2051.000000	60.081988
2050.000000	60.016682
2049.000000	59.963041
2048.000000	59.923561
2047.000000	59.896586
2046.000000	59.880135
2045.000000	59.873678
2044.000000	59.874789
2043.000000	59.878245
2042.000000	59.880783
2041.000000	59.884293
2040.000000	59.892462
2039.000000	59.907849
2038.000000	59.933533
2037.000000	59.973187
2036.000000	60.027639
2035.000000	60.093951
2034.000000	60.169300
2033.000000	60.252687
2032.000000	60.341815
2031.000000	60.432447
2030.000000	60.522140
2029.000000	60.611284
2028.000000	60.699777
2027.000000	60.785750
2026.000000	60.868522
2025.000000	60.949270
2024.000000	61.027428
2023.000000	61.100100
2022.000000	61.166623
2021.000000	61.230356
2020.000000	61.294216
2019.000000	61.358039
2018.000000	61.422212
2017.000000	61.490431
2016.000000	61.566362
2015.000000	61.650163
2014.000000	61.739895
2013.000000	61.833295
2012.000000	61.926634
2011.000000	62.015402
2010.000000	62.098443
2009.000000	62.178802
2008.000000	62.259478
2007.000000	62.341022
2006.000000	62.423978
2005.000000	62.509993
2004.000000	62.598619
2003.000000	62.686175
2002.000000	62.769309
2001.000000	62.847388
2000.000000	62.920427
1999.000000	62.987837
1998.000000	63.050464
1997.000000	63.111675
1996.000000	63.174625
1995.000000	63.238914
1994.000000	63.301430
1993.000000	63.359765
1992.000000	63.414537
1991.000000	63.469397
1990.000000	63.529005
1989.000000	63.596463
1988.000000	63.672142
1987.000000	63.754488
1986.000000	63.841991
1985.000000	63.933435
1984.000000	64.025884
1983.000000	64.114920
1982.000000	64.197623
1981.000000	64.274140
1980.000000	64.346099
1979.000000	64.415151
1978.000000	64.483454
1977.000000	64.553995
1976.000000	64.629410
1975.000000	64.710155
1974.000000	64.794572
1973.000000	64.880253
1972.000000	64.964921
1971.000000	65.046269
1970.000000	65.121480
1969.000000	65.187340
1968.000000	65.240944
1967.000000	65.281634
1966.000000	65.312647
1965.000000	65.338364
1964.000000	65.359903
1963.000000	65.374019
1962.000000	65.376199
1961.000000	65.364973
1960.000000	65.342872
1959.000000	65.314997
1958.000000	65.287616
1957.000000	65.266725
1956.000000	65.256354
1955.000000	65.257472
1954.000000	65.268859
1953.000000	65.288480
1952.000000	65.313730
1951.000000	65.341614
1950.000000	65.370003
1949.000000	65.398179
1948.000000	65.425939
1947.000000	65.453765
1946.000000	65.482837
1945.000000	65.512443
1944.000000	65.537518
1943.000000	65.552074
1942.000000	65.556975
1941.000000	65.560003
1940.000000	65.566833
1939.000000	65.576670
1938.000000	65.585846
1937.000000	65.591883
1936.000000	65.594146
1935.000000	65.592217
1934.000000	65.585817
1933.000000	65.575474
1932.000000	65.561626
1931.000000	65.545091
1930.000000	65.528665
1929.000000	65.516430
1928.000000	65.511128
1927.000000	65.514849
1926.000000	65.529503
1925.000000	65.553127
1924.000000	65.577618
1923.000000	65.595383
1922.000000	65.608773
1921.000000	65.624707
1920.000000	65.643018
1919.000000	65.656510
1918.000000	65.661110
1917.000000	65.661383
1916.000000	65.662143
1915.000000	65.662845
1914.000000	65.662787
1913.000000	65.662281
1912.000000	65.658785
1911.000000	65.647916
1910.000000	65.629681
1909.000000	65.609834
1908.000000	65.593824
1907.000000	65.584516
1906.000000	65.585050
1905.000000	65.597829
1904.000000	65.620891
1903.000000	65.650545
1902.000000	65.687980
1901.000000	65.737006
1900.000000	65.796952
1899.000000	65.863658
1898.000000	65.934728
1897.000000	66.008190
1896.000000	66.078049
1895.000000	66.138410
1894.000000	66.191970
1893.000000	66.246089
1892.000000	66.301601
1891.000000	66.351754
1890.000000	66.391852
1889.000000	66.426227
1888.000000	66.462115
1887.000000	66.501745
1886.000000	66.544537
1885.000000	66.589074
1884.000000	66.632094
1883.000000	66.671754
1882.000000	66.711072
1881.000000	66.754076
1880.000000	66.800095
1879.000000	66.846031
1878.000000	66.892232
1877.000000	66.941199
1876.000000	66.991852
1875.000000	67.040700
1874.000000	67.088294
1873.000000	67.139039
1872.000000	67.194021
1871.000000	67.248619
1870.000000	67.296890
1869.000000	67.336863
1868.000000	67.371812
1867.000000	67.406869
1866.000000	67.447297
1865.000000	67.495962
1864.000000	67.549300
1863.000000	67.600477
1862.000000	67.647679
1861.000000	67.695134
1860.000000	67.745320
1859.000000	67.796716
1858.000000	67.849391
1857.000000	67.905299
1856.000000	67.962439
1855.000000	68.015598
1854.000000	68.062180
1853.000000	68.104038
1852.000000	68.143889
1851.000000	68.183740
1850.000000	68.226248
1849.000000	68.272762
1848.000000	68.321596
1847.000000	68.370404
1846.000000	68.418720
1845.000000	68.464242
1844.000000	68.503428
1843.000000	68.538623
1842.000000	68.575551
1841.000000	68.619189
1840.000000	68.671729
1839.000000	68.728582
1838.000000	68.781358
1837.000000	68.825529
1836.000000	68.862605
1835.000000	68.896387
1834.000000	68.930422
1833.000000	68.967523
1832.000000	69.008602
1831.000000	69.049508
1830.000000	69.086674
1829.000000	69.127608
1828.000000	69.182178
1827.000000	69.248327
1826.000000	69.315702
1825.000000	69.375211
1824.000000	69.425248
1823.000000	69.468804
1822.000000	69.509227
1821.000000	69.551117
1820.000000	69.596868
1819.000000	69.643184
1818.000000	69.686018
1817.000000	69.727197
1816.000000	69.770523
1815.000000	69.813322
1814.000000	69.849206
1813.000000	69.874969
1812.000000	69.890153
1811.000000	69.893863
1810.000000	69.889234
1809.000000	69.885461
1808.000000	69.887035
1807.000000	69.890032
1806.000000	69.891915
1805.000000	69.895371
1804.000000	69.900792
1803.000000	69.901626
1802.000000	69.894239
1801.000000	69.888380
1800.000000	69.898118
1799.000000	69.926662
1798.000000	69.968189
1797.000000	70.016439
1796.000000	70.064920
1795.000000	70.107016
1794.000000	70.137484
1793.000000	70.152425
1792.000000	70.152089
1791.000000	70.144666
1790.000000	70.142873
1789.000000	70.157052
1788.000000	70.188200
1787.000000	70.226048
1786.000000	70.258789
1785.000000	70.284106
1784.000000	70.307323
1783.000000	70.329288
1782.000000	70.345674
1781.000000	70.355256
1780.000000	70.363244
1779.000000	70.378070
1778.000000	70.403418
1777.000000	70.438076
1776.000000	70.479284
1775.000000	70.525815
1774.000000	70.576311
1773.000000	70.627037
1772.000000	70.678770
1771.000000	70.734962
1770.000000	70.793417
1769.000000	70.855314
1768.000000	70.927959
1767.000000	71.009355
1766.000000	71.087453
1765.000000	71.154268
1764.000000	71.209983
1763.000000	71.249634
1762.000000	71.263989
1761.000000	71.261807
1760.000000	71.264411
1759.000000	71.280949
1758.000000	71.306941
1757.000000	71.337016
1756.000000	71.374837
1755.000000	71.423379
1754.000000	71.474933
1753.000000	71.524410
1752.000000	71.574615
1751.000000	71.628306
1750.000000	71.680517
1749.000000	71.724389
1748.000000	71.766096
1747.000000	71.817015
1746.000000	71.875254
1745.000000	71.929081
1744.000000	71.974168
1743.000000	72.014750
1742.000000	72.053894
1741.000000	72.093407
1740.000000	72.137946
1739.000000	72.189214
1738.000000	72.238668
1737.000000	72.279727
1736.000000	72.317111
1735.000000	72.347279
1734.000000	72.358069
1733.000000	72.358409
1732.000000	72.355058
1731.000000	72.344489
1730.000000	72.333668
1729.000000	72.328284
1728.000000	72.333016
1727.000000	72.349254
1726.000000	72.374182
1725.000000	72.400979
1724.000000	72.425762
1723.000000	72.451271
1722.000000	72.480913
1721.000000	72.514947
1720.000000	72.552497
1719.000000	72.585445
1718.000000	72.598865
1717.000000	72.600184
1716.000000	72.604654
1715.000000	72.611051
1714.000000	72.627090
1713.000000	72.664072
1712.000000	72.718375
1711.000000	72.780400
1710.000000	72.847179
1709.000000	72.919901
1708.000000	72.995450
1707.000000	73.067410
1706.000000	73.132053
1705.000000	73.191318
1704.000000	73.243009
1703.000000	73.285847
1702.000000	73.335252
1701.000000	73.407823
1700.000000	73.495822
1699.000000	73.572294
1698.000000	73.624469
1697.000000	73.679504
1696.000000	73.768476
1695.000000	73.881391
1694.000000	73.983656
1693.000000	74.058324
1692.000000	74.122989
1691.000000	74.193138
1690.000000	74.260006
1689.000000	74.306702
1688.000000	74.333226
1687.000000	74.358027
1686.000000	74.399926
1685.000000	74.445835
1684.000000	74.474480
1683.000000	74.507317
1682.000000	74.547042
1681.000000	74.573139
1680.000000	74.593041
1679.000000	74.615942
1678.000000	74.640399
1677.000000	74.652331
1676.000000	74.645926
1675.000000	74.634817
1674.000000	74.629783
1673.000000	74.615276
1672.000000	74.584598
1671.000000	74.555749
1670.000000	74.536852
1669.000000	74.515924
1668.000000	74.487489
1667.000000	74.464238
1666.000000	74.453345
1665.000000	74.444925
1664.000000	74.426320
1663.000000	74.398764
1662.000000	74.366936
1661.000000	74.313450
1660.000000	74.220611
1659.000000	74.104714
1658.000000	73.986073
1657.000000	73.856812
1656.000000	73.693347
1655.000000	73.480715
1654.000000	73.156905
1653.000000	72.677075
1652.000000	72.165113
1651.000000	71.685283
1650.000000	71.150337
1649.000000	70.435070
1648.000000	69.332405
1647.000000	67.690578
1646.000000	65.594389
1645.000000	63.239110
1644.000000	60.653413
1643.000000	57.730733
1642.000000	54.398723
1641.000000	50.744837
1640.000000	47.062388
1639.000000	43.676126
1638.000000	40.738387
1637.000000	38.280122
1636.000000	36.476830
1635.000000	35.636624
1634.000000	35.757451
1633.000000	36.537309
1632.000000	37.730993
1631.000000	39.215321
1630.000000	40.929224
1629.000000	42.830379
1628.000000	44.850511
1627.000000	46.858786
1626.000000	48.768428
1625.000000	50.649216
1624.000000	52.619190
1623.000000	54.626187
1622.000000	56.450531
1621.000000	57.970082
1620.000000	59.256179
1619.000000	60.438061
1618.000000	61.606501
1617.000000	62.786544
1616.000000	63.898797
1615.000000	64.809563
1614.000000	65.490422
1613.000000	66.039593
1612.000000	66.551520
1611.000000	67.022113
1610.000000	67.382284
1609.000000	67.604241
1608.000000	67.701119
1607.000000	67.647730
1606.000000	67.382063
1605.000000	66.863855
1604.000000	66.080670
1603.000000	65.005074
1602.000000	63.624028
1601.000000	62.017229
1600.000000	60.348528
1599.000000	58.782999
1598.000000	57.426686
1597.000000	56.331325
1596.000000	55.505714
1595.000000	54.898497
1594.000000	54.402457
1593.000000	53.919076
1592.000000	53.406835
1591.000000	52.850856
1590.000000	52.230316
1589.000000	51.537477
1588.000000	50.789786
1587.000000	49.988176
1586.000000	49.096818
1585.000000	48.093051
1584.000000	47.005215
1583.000000	45.870731
1582.000000	44.692483
1581.000000	43.474829
1580.000000	42.252768
1579.000000	41.010483
1578.000000	39.588641
1577.000000	37.755185
1576.000000	35.552822
1575.000000	33.423977
1574.000000	31.681102
1573.000000	30.233801
1572.000000	28.900376
1571.000000	27.610754
1570.000000	26.413870
1569.000000	25.423844
1568.000000	24.737767
1567.000000	24.379590
1566.000000	24.287998
1565.000000	24.363989
1564.000000	24.563447
1563.000000	24.899933
1562.000000	25.391344
1561.000000	26.057683
1560.000000	27.035414
1559.000000	28.440084
1558.000000	29.942035
1557.000000	31.126409
1556.000000	32.035222
1555.000000	32.883591
1554.000000	33.726097
1553.000000	34.479545
1552.000000	35.100344
1551.000000	35.673421
1550.000000	36.292641
1549.000000	36.972179
1548.000000	37.698245
1547.000000	38.510020
1546.000000	39.457156
1545.000000	40.509149
1544.000000	41.576075
1543.000000	42.619267
1542.000000	43.678203
1541.000000	44.789927
1540.000000	45.925045
1539.000000	46.995240
1538.000000	47.910454
1537.000000	48.660573
1536.000000	49.338578
1535.000000	50.070089
1534.000000	50.911707
1533.000000	51.783942
1532.000000	52.581012
1531.000000	53.301743
1530.000000	53.995340
1529.000000	54.673156
1528.000000	55.322967
1527.000000	55.947942
1526.000000	56.543062
1525.000000	57.077735
1524.000000	57.549702
1523.000000	58.012832
1522.000000	58.503166
1521.000000	58.979626
1520.000000	59.397921
1519.000000	59.779049
1518.000000	60.156659
1517.000000	60.520973
1516.000000	60.852934
1515.000000	61.166879
1514.000000	61.478354
1513.000000	61.783923
1512.000000	62.083991
1511.000000	62.389131
1510.000000	62.696897
1509.000000	62.992791
1508.000000	63.278096
1507.000000	63.578452
1506.000000	63.917361
1505.000000	64.250752
1504.000000	64.531321
1503.000000	64.793206
1502.000000	65.064026
1501.000000	65.329878
1500.000000	65.578205
1499.000000	65.823555
1498.000000	66.068696
1497.000000	66.290752
1496.000000	66.493149
1495.000000	66.704275
1494.000000	66.919479
1493.000000	67.116433
1492.000000	67.307578
1491.000000	67.523743
1490.000000	67.750765
1489.000000	67.943985
1488.000000	68.101933
1487.000000	68.251778
1486.000000	68.377102
1485.000000	68.425584
1484.000000	68.378766
1483.000000	68.246059
1482.000000	68.001902
1481.000000	67.603052
1480.000000	67.049009
1479.000000	66.324996
1478.000000	65.308052
1477.000000	63.853761
1476.000000	61.970511
1475.000000	59.770295
1474.000000	57.268927
1473.000000	54.503357
1472.000000	51.847261
1471.000000	49.767835
1470.000000	48.352113
1469.000000	47.437640
1468.000000	46.935624
1467.000000	46.883180
1466.000000	47.362341
1465.000000	48.366974
1464.000000	49.689582
1463.000000	50.999356
1462.000000	52.051269
1461.000000	52.750745
1460.000000	53.062826
1459.000000	52.929469
1458.000000	52.245072
1457.000000	51.088551
1456.000000	49.920572
1455.000000	49.113983
1454.000000	48.631394
1453.000000	48.322415
1452.000000	48.111857
1451.000000	47.984430
1450.000000	47.947585
1449.000000	48.025699
1448.000000	48.241239
1447.000000	48.569263
1446.000000	48.955691
1445.000000	49.383757
1444.000000	49.884645
1443.000000	50.497800
1442.000000	51.249215
1441.000000	52.152713
1440.000000	53.214488
1439.000000	54.453565
1438.000000	55.912257
1437.000000	57.557695
1436.000000	59.156449
1435.000000	60.449036
1434.000000	61.419829
1433.000000	62.209414
1432.000000	62.908948
1431.000000	63.528865
1430.000000	64.066909
1429.000000	64.541853
1428.000000	64.964229
1427.000000	65.334576
1426.000000	65.667910
1425.000000	65.978575
1424.000000	66.257904
1423.000000	66.496276
1422.000000	66.712801
1421.000000	66.937846
1420.000000	67.174916
1419.000000	67.402327
1418.000000	67.617355
1417.000000	67.839291
1416.000000	68.071668
1415.000000	68.305041
1414.000000	68.534148
1413.000000	68.754826
1412.000000	68.956412
1411.000000	69.134075
1410.000000	69.302770
1409.000000	69.483351
1408.000000	69.678782
1407.000000	69.879771
1406.000000	70.083924
1405.000000	70.287617
1404.000000	70.469187
1403.000000	70.599821
1402.000000	70.653897
1401.000000	70.586255
1400.000000	70.327503
1399.000000	69.872637
1398.000000	69.359590
1397.000000	68.986017
1396.000000	68.876961
1395.000000	69.033781
1394.000000	69.339831
1393.000000	69.648910
1392.000000	69.905233
1391.000000	70.161031
1390.000000	70.505144
1389.000000	70.992965
1388.000000	71.612559
1387.000000	72.286453
1386.000000	72.914324
1385.000000	73.424489
1384.000000	73.790003
1383.000000	74.022213
1382.000000	74.164008
1381.000000	74.265440
1380.000000	74.350850
1379.000000	74.414711
1378.000000	74.435098
1377.000000	74.356798
1376.000000	74.032732
1375.000000	73.182892
1374.000000	71.441853
1373.000000	68.530508
1372.000000	64.451392
1371.000000	59.604737
1370.000000	54.820202
1369.000000	51.192575
1368.000000	49.572038
1367.000000	50.004419
1366.000000	51.750608
1365.000000	53.810218
1364.000000	55.325746
1363.000000	55.757337
1362.000000	55.063413
1361.000000	53.792844
1360.000000	52.825583
1359.000000	52.916881
1358.000000	54.349902
1357.000000	56.832831
1356.000000	59.726569
1355.000000	62.437037
1354.000000	64.666042
1353.000000	66.396490
1352.000000	67.729104
1351.000000	68.768173
1350.000000	69.598476
1349.000000	70.280981
1348.000000	70.852232
1347.000000	71.342839
1346.000000	71.787306
1345.000000	72.206878
1344.000000	72.600687
1343.000000	72.961638
1342.000000	73.293447
1341.000000	73.600157
1340.000000	73.874180
1339.000000	74.114490
1338.000000	74.340176
1337.000000	74.570440
1336.000000	74.801810
1335.000000	75.012036
1334.000000	75.169157
1333.000000	75.212427
1332.000000	75.036937
1331.000000	74.518328
1330.000000	73.565047
1329.000000	72.156310
1328.000000	70.315172
1327.000000	68.054158
1326.000000	65.375545
1325.000000	62.383842
1324.000000	59.445134
1323.000000	57.147382
1322.000000	55.961185
1321.000000	55.905665
1320.000000	56.576012
1319.000000	57.482092
1318.000000	58.355835
1317.000000	59.168018
1316.000000	59.960567
1315.000000	60.749836
1314.000000	61.548326
1313.000000	62.408920
1312.000000	63.407437
1311.000000	64.579368
1310.000000	65.873170
1309.000000	67.157151
1308.000000	68.274260
1307.000000	69.109553
1306.000000	69.621468
1305.000000	69.805548
1304.000000	69.651059
1303.000000	69.133079
1302.000000	68.231229
1301.000000	66.969465
1300.000000	65.467258
1299.000000	63.969469
1298.000000	62.776515
1297.000000	62.087998
1296.000000	61.891066
1295.000000	61.978160
1294.000000	62.055956
1293.000000	61.852815
1292.000000	61.184224
1291.000000	59.975239
1290.000000	58.231787
1289.000000	56.012235
1288.000000	53.472351
1287.000000	50.944106
1286.000000	48.892043
1285.000000	47.709524
1284.000000	47.526824
1283.000000	48.201789
1282.000000	49.489303
1281.000000	51.197415
1280.000000	53.187895
1279.000000	55.260832
1278.000000	57.105571
1277.000000	58.414470
1276.000000	59.038221
1275.000000	59.037981
1274.000000	58.629696
1273.000000	58.107539
1272.000000	57.788899
1271.000000	57.949571
1270.000000	58.726729
1269.000000	60.056307
1268.000000	61.717057
1267.000000	63.454792
1266.000000	65.086675
1265.000000	66.529301
1264.000000	67.769523
1263.000000	68.825583
1262.000000	69.723439
1261.000000	70.484298
1260.000000	71.120769
1259.000000	71.646148
1258.000000	72.088515
1257.000000	72.480048
1256.000000	72.842110
1255.000000	73.187674
1254.000000	73.526944
1253.000000	73.863797
1252.000000	74.188628
1251.000000	74.488142
1250.000000	74.759437
1249.000000	75.006729
1248.000000	75.232810
1247.000000	75.442649
1246.000000	75.649101
1245.000000	75.863356
1244.000000	76.082092
1243.000000	76.293409
1242.000000	76.489092
1241.000000	76.662470
1240.000000	76.802436
1239.000000	76.901309
1238.000000	76.966139
1237.000000	77.010715
1236.000000	77.041215
1235.000000	77.059002
1234.000000	77.067530
1233.000000	77.066372
1232.000000	77.042713
1231.000000	76.979513
1230.000000	76.869669
1229.000000	76.710124
1228.000000	76.491780
1227.000000	76.202792
1226.000000	75.831954
1225.000000	75.361070
1224.000000	74.748127
1223.000000	73.935225
1222.000000	72.864663
1221.000000	71.480558
1220.000000	69.746431
1219.000000	67.667413
1218.000000	65.304469
1217.000000	62.761967
1216.000000	60.168620
1215.000000	57.674451
1214.000000	55.444700
1213.000000	53.638676
1212.000000	52.383483
1211.000000	51.748069
1210.000000	51.696518
1209.000000	52.084653
1208.000000	52.705681
1207.000000	53.344315
1206.000000	53.822759
1205.000000	54.016914
1204.000000	53.860530
1203.000000	53.345020
1202.000000	52.520126
1201.000000	51.500197
1200.000000	50.469668
1199.000000	49.658254
1198.000000	49.270644
1197.000000	49.410406
1196.000000	50.065618
1195.000000	51.140000
1194.000000	52.504479
1193.000000	54.044205
1192.000000	55.672889
1191.000000	57.335432
1190.000000	58.992539
1189.000000	60.609956
1188.000000	62.157353
1187.000000	63.608901
1186.000000	64.945081
1185.000000	66.155548
1184.000000	67.239864
1183.000000	68.202730
1182.000000	69.054022
1181.000000	69.800790
1180.000000	70.446603
1179.000000	71.000547
1178.000000	71.475731
1177.000000	71.882289
1176.000000	72.215697
1175.000000	72.462099
1174.000000	72.609449
1173.000000	72.636327
1172.000000	72.506198
1171.000000	72.166114
1170.000000	71.553572
1169.000000	70.606707
1168.000000	69.275083
1167.000000	67.565283
1166.000000	65.580597
1165.000000	63.524681
1164.000000	61.666894
1163.000000	60.279983
1162.000000	59.552856
1161.000000	59.532280
1160.000000	60.129841
1159.000000	61.164472
1158.000000	62.433166
1157.000000	63.755439
1156.000000	64.997638
1155.000000	66.081922
1154.000000	66.975150
1153.000000	67.670775
1152.000000	68.170613
1151.000000	68.477207
1150.000000	68.586369
1149.000000	68.488203
1148.000000	68.154005
1147.000000	67.541578
1146.000000	66.603805
1145.000000	65.273320
1144.000000	63.474558
1143.000000	61.138142
1142.000000	58.241655
1141.000000	54.859705
1140.000000	51.187817
1139.000000	47.523011
1138.000000	44.155097
1137.000000	41.238428
1136.000000	38.744350
1135.000000	36.534932
1134.000000	34.490689
1133.000000	32.655004
1132.000000	31.297772
1131.000000	30.811503
1130.000000	31.529614
1129.000000	33.530245
1128.000000	36.583349
1127.000000	40.218472
1126.000000	43.846332
1125.000000	46.901662
1124.000000	48.942862
1123.000000	49.700940
1122.000000	49.099646
1121.000000	47.260298
1120.000000	44.425000
1119.000000	40.905378
1118.000000	37.093364
1117.000000	33.516451
1116.000000	30.829191
1115.000000	29.633571
1114.000000	30.199896
1113.000000	32.319790
1112.000000	35.394087
1111.000000	38.619231
1110.000000	41.255677
1109.000000	42.908082
1108.000000	43.686868
1107.000000	44.103801
1106.000000	44.719034
1105.000000	45.804000
1104.000000	47.246592
1103.000000	48.672397
1102.000000	49.597696
1101.000000	49.594939
1100.000000	48.475015
1099.000000	46.468373
1098.000000	44.252118
1097.000000	42.711651
1096.000000	42.535024
1095.000000	43.897728
1094.000000	46.431948
1093.000000	49.487015
1092.000000	52.488779
1091.000000	55.121642
1090.000000	57.311557
1089.000000	59.111752
1088.000000	60.604624
1087.000000	61.865116
1086.000000	62.956858
1085.000000	63.926879
1084.000000	64.800958
1083.000000	65.600325
1082.000000	66.343329
1081.000000	67.040401
1080.000000	67.688711
1079.000000	68.273902
1078.000000	68.780794
1077.000000	69.181414
1076.000000	69.429488
1075.000000	69.470444
1074.000000	69.237893
1073.000000	68.653936
1072.000000	67.597184
1071.000000	65.899147
1070.000000	63.358157
1069.000000	59.735288
1068.000000	54.854374
1067.000000	48.758442
1066.000000	41.877330
1065.000000	35.051154
1064.000000	29.306774
1063.000000	25.419045
1062.000000	23.482482
1061.000000	22.824319
1060.000000	22.389192
1059.000000	21.391645
1058.000000	19.742731
1057.000000	18.056769
1056.000000	17.238798
1055.000000	17.905443
1054.000000	20.090795
1053.000000	23.333376
1052.000000	27.018795
1051.000000	30.668046
1050.000000	34.011133
1049.000000	36.965318
1048.000000	39.566737
1047.000000	41.895718
1046.000000	44.008409
1045.000000	45.921671
1044.000000	47.631160
1043.000000	49.139750
1042.000000	50.462914
1041.000000	51.616480
1040.000000	52.623351
1039.000000	53.508576
1038.000000	54.292586
1037.000000	54.986806
1036.000000	55.594611
1035.000000	56.122948
1034.000000	56.577997
1033.000000	56.961609
1032.000000	57.277912
1031.000000	57.538273
1030.000000	57.760585
1029.000000	57.958504
1028.000000	58.137906
1027.000000	58.300683
1026.000000	58.441175
1025.000000	58.544496
1024.000000	58.589641
1023.000000	58.557330
1022.000000	58.434774
1021.000000	58.206714
1020.000000	57.855714
1019.000000	57.359980
1018.000000	56.684113
1017.000000	55.778265
1016.000000	54.581531
1015.000000	53.056919
1014.000000	51.229985
1013.000000	49.219331
1012.000000	47.240739
1011.000000	45.544964
1010.000000	44.293271
1009.000000	43.448216
1008.000000	42.793425
1007.000000	42.096782
1006.000000	41.333009
1005.000000	40.772048
1004.000000	40.838515
1003.000000	41.822691
1002.000000	43.651920
1001.000000	45.934763
1000.000000	48.184363
999.000000	50.024370
998.000000	51.262177
997.000000	51.861308
996.000000	51.904167
995.000000	51.573555
994.000000	51.132567
993.000000	50.873242
992.000000	51.040954
991.000000	51.746354
990.000000	52.917044
989.000000	54.344512
988.000000	55.806586
987.000000	57.157277
986.000000	58.341931
985.000000	59.361414
984.000000	60.236459
983.000000	60.991333
982.000000	61.646994
981.000000	62.216266
980.000000	62.708680
979.000000	63.143236
978.000000	63.543521
977.000000	63.928419
976.000000	64.308266
975.000000	64.687422
974.000000	65.064669
973.000000	65.427387
972.000000	65.756946
971.000000	66.041786
970.000000	66.282686
969.000000	66.488434
968.000000	66.672048
967.000000	66.852497
966.000000	67.050001
965.000000	67.273991
964.000000	67.519844
963.000000	67.776184
962.000000	68.030527
961.000000	68.268393
960.000000	68.476258
959.000000	68.651676
958.000000	68.806072
957.000000	68.955103
956.000000	69.109694
955.000000	69.276097
954.000000	69.456842
953.000000	69.646162
952.000000	69.830424
951.000000	69.998575
950.000000	70.149945
949.000000	70.291209
948.000000	70.431999
947.000000	70.585466
946.000000	70.764930
945.000000	70.973032
944.000000	71.196727
943.000000	71.415069
942.000000	71.608950
941.000000	71.763827
940.000000	71.872037
939.000000	71.940947
938.000000	71.994822
937.000000	72.062709
936.000000	72.165576
935.000000	72.313830
934.000000	72.506729
933.000000	72.727439
932.000000	72.945187
931.000000	73.131171
930.000000	73.272319
929.000000	73.370369
928.000000	73.436034
927.000000	73.489058
926.000000	73.555290
925.000000	73.652483
924.000000	73.779815
923.000000	73.924207
922.000000	74.071821
921.000000	74.209929
920.000000	74.326837
919.000000	74.420735
918.000000	74.505774
917.000000	74.601615
916.000000	74.718972
915.000000	74.858375
914.000000	75.014458
913.000000	75.173273
912.000000	75.309116
911.000000	75.396399
910.000000	75.421058
909.000000	75.372842
908.000000	75.232012
907.000000	74.963995
906.000000	74.527497
905.000000	73.872381
904.000000	72.949503
903.000000	71.766484
902.000000	70.459338
901.000000	69.302370
900.000000	68.610146
899.000000	68.575945
898.000000	69.160353
897.000000	70.135749
896.000000	71.229229
895.000000	72.251410
894.000000	73.132465
893.000000	73.869284
892.000000	74.475190
891.000000	74.963118
890.000000	75.350113
889.000000	75.652475
888.000000	75.883264
887.000000	76.047030
886.000000	76.127634
885.000000	76.073321
884.000000	75.812409
883.000000	75.323769
882.000000	74.684211
881.000000	74.026454
880.000000	73.429770
879.000000	72.860222
878.000000	72.241374
877.000000	71.589815
876.000000	71.079475
875.000000	70.945813
874.000000	71.314468
873.000000	72.102313
872.000000	73.077482
871.000000	74.005651
870.000000	74.753686
869.000000	75.297994
868.000000	75.675442
867.000000	75.945393
866.000000	76.167949
865.000000	76.387478
864.000000	76.621298
863.000000	76.867077
862.000000	77.113548
861.000000	77.342317
860.000000	77.531583
859.000000	77.668013
858.000000	77.757002
857.000000	77.816542
856.000000	77.865171
855.000000	77.920057
854.000000	77.996282
853.000000	78.098582
852.000000	78.216023
851.000000	78.331345
850.000000	78.433545
849.000000	78.518717
848.000000	78.587151
847.000000	78.647235
846.000000	78.716580
845.000000	78.810323
844.000000	78.929963
843.000000	79.065988
842.000000	79.205226
841.000000	79.330552
840.000000	79.422515
839.000000	79.471900
838.000000	79.489595
837.000000	79.498728
836.000000	79.521437
835.000000	79.576395
834.000000	79.678467
833.000000	79.828930
832.000000	80.008877
831.000000	80.189967
830.000000	80.349805
829.000000	80.474442
828.000000	80.555903
827.000000	80.599252
826.000000	80.628354
825.000000	80.673891
824.000000	80.755899
823.000000	80.880767
822.000000	81.045832
821.000000	81.236341
820.000000	81.424473
819.000000	81.583503
818.000000	81.702595
817.000000	81.783777
816.000000	81.831794
815.000000	81.854873
814.000000	81.867091
813.000000	81.876470
812.000000	81.874035
811.000000	81.839067
810.000000	81.751075
809.000000	81.590565
808.000000	81.333226
807.000000	80.958491
806.000000	80.454751
805.000000	79.807669
804.000000	78.987977
803.000000	77.948845
802.000000	76.638200
801.000000	74.998799
800.000000	72.976741
799.000000	70.552876
798.000000	67.760806
797.000000	64.687982
796.000000	61.458622
795.000000	58.222065
794.000000	55.134634
793.000000	52.339471
792.000000	49.957157
791.000000	48.084102
790.000000	46.788652
789.000000	46.093445
788.000000	45.976336
787.000000	46.367471
786.000000	47.159288
785.000000	48.228197
784.000000	49.448625
783.000000	50.706124
782.000000	51.894581
781.000000	52.918191
780.000000	53.697131
779.000000	54.182922
778.000000	54.371139
777.000000	54.297586
776.000000	54.016221
775.000000	53.575817
774.000000	53.022773
773.000000	52.423528
772.000000	51.890027
771.000000	51.571816
770.000000	51.613318
769.000000	52.096064
768.000000	53.009076
767.000000	54.262168
766.000000	55.730317
765.000000	57.302190
764.000000	58.899651
763.000000	60.478341
762.000000	62.015830
761.000000	63.496599
760.000000	64.898483
759.000000	66.192716
758.000000	67.357070
757.000000	68.384566
756.000000	69.283681
755.000000	70.076100
754.000000	70.795868
753.000000	71.478009
752.000000	72.143116
751.000000	72.794459
750.000000	73.424658
749.000000	74.020012
748.000000	74.560703
747.000000	75.030094
746.000000	75.428731
745.000000	75.773632
744.000000	76.084809
743.000000	76.377024
742.000000	76.659764
741.000000	76.933817
740.000000	77.185448
739.000000	77.393365
738.000000	77.543600
737.000000	77.633541
736.000000	77.665924
735.000000	77.648696
734.000000	77.600453
733.000000	77.544976
732.000000	77.497471
731.000000	77.460272
730.000000	77.427537
729.000000	77.383926
728.000000	77.302170
727.000000	77.151769
726.000000	76.912577
725.000000	76.579608
724.000000	76.154183
723.000000	75.627214
722.000000	74.957580
721.000000	74.063339
720.000000	72.850371
719.000000	71.276367
718.000000	69.399270
717.000000	67.375231
716.000000	65.421729
715.000000	63.768957
714.000000	62.611284
713.000000	62.059227
712.000000	62.110304
711.000000	62.662788
710.000000	63.571326
709.000000	64.699199
708.000000	65.935300
707.000000	67.196250
706.000000	68.433380
705.000000	69.632262
704.000000	70.790440
703.000000	71.901040
702.000000	72.958359
701.000000	73.960227
700.000000	74.894231
699.000000	75.735296
698.000000	76.463199
697.000000	77.075670
696.000000	77.582644
695.000000	78.001528
694.000000	78.365631
693.000000	78.718639
692.000000	79.089928
691.000000	79.483532
690.000000	79.891260
689.000000	80.302230
688.000000	80.693174
687.000000	81.030023
686.000000	81.293093
685.000000	81.487431
684.000000	81.625204
683.000000	81.716066
682.000000	81.780262
681.000000	81.848766
680.000000	81.937229
679.000000	82.040165
678.000000	82.152311
677.000000	82.270398
676.000000	82.393418
675.000000	82.511817
674.000000	82.632924
673.000000	82.828560
672.000000	83.240005
671.000000	83.985363
670.000000	85.007600
669.000000	85.887610
668.000000	85.935265
667.000000	85.093071
666.000000	84.112395
665.000000	83.453772
664.000000	83.137600
663.000000	83.048351
662.000000	83.085168
661.000000	83.193980
660.000000	83.345243
659.000000	83.520325
658.000000	83.701271
657.000000	83.851172
656.000000	83.935308
655.000000	83.943837
654.000000	83.887115
653.000000	83.781016
652.000000	83.651211
651.000000	83.537759
650.000000	83.470850
649.000000	83.446450
648.000000	83.443671
647.000000	83.453384
646.000000	83.471090
645.000000	83.478796
644.000000	83.453361
643.000000	83.386834
642.000000	83.287195
641.000000	83.162558
640.000000	83.020107
639.000000	82.874672
638.000000	82.737310
637.000000	82.598611
636.000000	82.440918
635.000000	82.261713
634.000000	82.072740
633.000000	81.883870
632.000000	81.703045
631.000000	81.545252
630.000000	81.421491
629.000000	81.319925
628.000000	81.212865
627.000000	81.075507
626.000000	80.884765
625.000000	80.616268
624.000000	80.259657
623.000000	79.835598
622.000000	79.386239
621.000000	78.950735
620.000000	78.553540
619.000000	78.197397
618.000000	77.850353
617.000000	77.454208
616.000000	76.969849
615.000000	76.400336
614.000000	75.754737
613.000000	75.015814
612.000000	74.164852
611.000000	73.217505
610.000000	72.200281
609.000000	71.107219
608.000000	69.914523
607.000000	68.616611
606.000000	67.213620
605.000000	65.687104
604.000000	64.026130
603.000000	62.260294
602.000000	60.422987
601.000000	58.512077
600.000000	56.528569
599.000000	54.519455
598.000000	52.528925
597.000000	50.545887
596.000000	48.559311
595.000000	46.617442
594.000000	44.774497
593.000000	43.024777
592.000000	41.365241
591.000000	39.859082
590.000000	38.559891
589.000000	37.431607
588.000000	36.407119
587.000000	35.461474
586.000000	34.554165
585.000000	33.579089
584.000000	32.461005
583.000000	31.246039
582.000000	30.034064
581.000000	28.896401
580.000000	27.922415
579.000000	27.266649
578.000000	27.039778
577.000000	27.223401
576.000000	27.741499
575.000000	28.518665
574.000000	29.426712
573.000000	30.275447
572.000000	30.955740
571.000000	31.539934
570.000000	32.195472
569.000000	33.045914
568.000000	34.136861
567.000000	35.444845
566.000000	36.849506
565.000000	38.171956
564.000000	39.303499
563.000000	40.256683
562.000000	41.079555
561.000000	41.787356
560.000000	42.406189
559.000000	43.005582
558.000000	43.635718
557.000000	44.284106
556.000000	44.930636
555.000000	45.595447
554.000000	46.290044
553.000000	46.981850
552.000000	47.648084
551.000000	48.313241
550.000000	48.995287
549.000000	49.664092
548.000000	50.292317
547.000000	50.898714
546.000000	51.505384
545.000000	52.097492
544.000000	52.663137
543.000000	53.227637
542.000000	53.813951
541.000000	54.405992
540.000000	54.984139
539.000000	55.556822
538.000000	56.126545
537.000000	56.663546
536.000000	57.142955
535.000000	57.578767
534.000000	57.989447
533.000000	58.365773
532.000000	58.695318
531.000000	58.987722
530.000000	59.249099
529.000000	59.455250
528.000000	59.572855
527.000000	59.591458
526.000000	59.499008
525.000000	59.256394
524.000000	58.834609
523.000000	58.257995
522.000000	57.597377
521.000000	56.927288
520.000000	56.298014
519.000000	55.697594
518.000000	54.982949
517.000000	53.900976
516.000000	52.247766
515.000000	50.034702
514.000000	47.490578
513.000000	44.953085
512.000000	42.782629
511.000000	41.299598
510.000000	40.674007
509.000000	40.877023
508.000000	41.793022
507.000000	43.284373
506.000000	45.151328
505.000000	47.156747
504.000000	49.140743
503.000000	51.055382
502.000000	52.856541
501.000000	54.465331
500.000000	55.851293
499.000000	57.071678
498.000000	58.192055
497.000000	59.235457
496.000000	60.216460
495.000000	61.166277
494.000000	62.101046
493.000000	62.988044
492.000000	63.782125
491.000000	64.473717
490.000000	65.078223
489.000000	65.615489
488.000000	66.112811
487.000000	66.610674
486.000000	67.137710
485.000000	67.687183
484.000000	68.235743
483.000000	68.767566
482.000000	69.268180
481.000000	69.716111
480.000000	70.100855
479.000000	70.435081
478.000000	70.722557
477.000000	70.939697
476.000000	71.060759
475.000000	71.059629
474.000000	70.867193
473.000000	70.353307
472.000000	69.424137
471.000000	68.155832
470.000000	66.769682
469.000000	65.519953
468.000000	64.640484
467.000000	64.254583
466.000000	64.209390
465.000000	64.086036
464.000000	63.470946
463.000000	62.239307
462.000000	60.671029
461.000000	59.302928
460.000000	58.677335
459.000000	59.155485
458.000000	60.724538
457.000000	62.893753
456.000000	65.043720
455.000000	66.897553
454.000000	68.456280
453.000000	69.722492
452.000000	70.650872
451.000000	71.258953
450.000000	71.600368
449.000000	71.656941
448.000000	71.348641
447.000000	70.634272
446.000000	69.570063
445.000000	68.288143
444.000000	67.015528
443.000000	66.078536
442.000000	65.739585
441.000000	65.999982
440.000000	66.672430
439.000000	67.566296
438.000000	68.530686
437.000000	69.432773
436.000000	70.182691
435.000000	70.767291
434.000000	71.199207
433.000000	71.462617
432.000000	71.546889
431.000000	71.506384
430.000000	71.426854
429.000000	71.340539
428.000000	71.237858
427.000000	71.127609
426.000000	71.017655
425.000000	70.861544
424.000000	70.612662
423.000000	70.320994
422.000000	70.074145
421.000000	69.874142
420.000000	69.672237
419.000000	69.503824
418.000000	69.454140
417.000000	69.477070
416.000000	69.481939
415.000000	69.476998
414.000000	69.496671
413.000000	69.517188
412.000000	69.517231
411.000000	69.543803
410.000000	69.634194
409.000000	69.724626
408.000000	69.760242
407.000000	69.823181
406.000000	70.020692
405.000000	70.317489
404.000000	70.614648
403.000000	70.910315
402.000000	71.248043
401.000000	71.585216
400.000000	71.845178
