PE IR       SUBTECH     SPECTRUM    ASCII       PEDS        4.00        
   -1
23ms098-cis.asc
24/10/22
15:17:44.00
24/10/22
15:17:44.00
Administrator
Sample 1329 By Administrator Date Tuesday, October 22 2024
400.000000
#HDR
-1
-1
#GR
cm-1
%T
1.0
0.0
4000.000000
-1.000000
3601
8
72.939216
2.928436
#DATA
4000.000000	41.095637
3999.000000	41.076675
3998.000000	41.061994
3997.000000	41.050371
3996.000000	41.041153
3995.000000	41.034565
3994.000000	41.030859
3993.000000	41.029835
3992.000000	41.031346
3991.000000	41.035879
3990.000000	41.043839
3989.000000	41.054810
3988.000000	41.068630
3987.000000	41.086552
3986.000000	41.110444
3985.000000	41.140767
3984.000000	41.176079
3983.000000	41.214635
3982.000000	41.255852
3981.000000	41.300218
3980.000000	41.348067
3979.000000	41.398704
3978.000000	41.451151
3977.000000	41.504641
3976.000000	41.558142
3975.000000	41.609966
3974.000000	41.658691
3973.000000	41.704270
3972.000000	41.747580
3971.000000	41.789922
3970.000000	41.832379
3969.000000	41.875500
3968.000000	41.919577
3967.000000	41.965440
3966.000000	42.014461
3965.000000	42.068023
3964.000000	42.126822
3963.000000	42.190455
3962.000000	42.257870
3961.000000	42.327546
3960.000000	42.397455
3959.000000	42.467342
3958.000000	42.538759
3957.000000	42.612306
3956.000000	42.685641
3955.000000	42.755427
3954.000000	42.820334
3953.000000	42.880773
3952.000000	42.937571
3951.000000	42.991281
3950.000000	43.041860
3949.000000	43.089273
3948.000000	43.135346
3947.000000	43.182391
3946.000000	43.229720
3945.000000	43.274681
3944.000000	43.317647
3943.000000	43.361747
3942.000000	43.407834
3941.000000	43.453187
3940.000000	43.495749
3939.000000	43.539725
3938.000000	43.591228
3937.000000	43.649968
3936.000000	43.708343
3935.000000	43.759359
3934.000000	43.803804
3933.000000	43.845134
3932.000000	43.882440
3931.000000	43.911704
3930.000000	43.932608
3929.000000	43.951929
3928.000000	43.974923
3927.000000	43.998401
3926.000000	44.017859
3925.000000	44.035293
3924.000000	44.053047
3923.000000	44.066775
3922.000000	44.072563
3921.000000	44.076369
3920.000000	44.086022
3919.000000	44.099410
3918.000000	44.109346
3917.000000	44.117087
3916.000000	44.129992
3915.000000	44.148971
3914.000000	44.169019
3913.000000	44.191874
3912.000000	44.221022
3911.000000	44.255676
3910.000000	44.289792
3909.000000	44.320558
3908.000000	44.349397
3907.000000	44.374752
3906.000000	44.390589
3905.000000	44.395000
3904.000000	44.395090
3903.000000	44.399232
3902.000000	44.408665
3901.000000	44.423354
3900.000000	44.452332
3899.000000	44.503108
3898.000000	44.568439
3897.000000	44.637091
3896.000000	44.706860
3895.000000	44.784663
3894.000000	44.868906
3893.000000	44.946814
3892.000000	45.007108
3891.000000	45.058928
3890.000000	45.113658
3889.000000	45.163249
3888.000000	45.197220
3887.000000	45.225969
3886.000000	45.270132
3885.000000	45.333988
3884.000000	45.392468
3883.000000	45.422720
3882.000000	45.434004
3881.000000	45.449717
3880.000000	45.478719
3879.000000	45.510491
3878.000000	45.527818
3877.000000	45.526481
3876.000000	45.518464
3875.000000	45.522060
3874.000000	45.546638
3873.000000	45.574860
3872.000000	45.577177
3871.000000	45.555993
3870.000000	45.551278
3869.000000	45.589490
3868.000000	45.640077
3867.000000	45.664433
3866.000000	45.678092
3865.000000	45.718979
3864.000000	45.782275
3863.000000	45.834901
3862.000000	45.864396
3861.000000	45.890507
3860.000000	45.928225
3859.000000	45.978843
3858.000000	46.039620
3857.000000	46.106109
3856.000000	46.161912
3855.000000	46.179491
3854.000000	46.148611
3853.000000	46.108441
3852.000000	46.096763
3851.000000	46.107549
3850.000000	46.136828
3849.000000	46.197857
3848.000000	46.285270
3847.000000	46.375223
3846.000000	46.450798
3845.000000	46.508919
3844.000000	46.550815
3843.000000	46.584866
3842.000000	46.614286
3841.000000	46.635908
3840.000000	46.648286
3839.000000	46.658270
3838.000000	46.673733
3837.000000	46.698519
3836.000000	46.731689
3835.000000	46.770681
3834.000000	46.812336
3833.000000	46.856834
3832.000000	46.908265
3831.000000	46.967709
3830.000000	47.028000
3829.000000	47.078910
3828.000000	47.114580
3827.000000	47.146726
3826.000000	47.191570
3825.000000	47.245054
3824.000000	47.283785
3823.000000	47.298604
3822.000000	47.307090
3821.000000	47.338684
3820.000000	47.395509
3819.000000	47.438794
3818.000000	47.447913
3817.000000	47.448984
3816.000000	47.481483
3815.000000	47.547462
3814.000000	47.605934
3813.000000	47.633750
3812.000000	47.657042
3811.000000	47.705683
3810.000000	47.773171
3809.000000	47.827072
3808.000000	47.852874
3807.000000	47.875714
3806.000000	47.918902
3805.000000	47.965189
3804.000000	47.984572
3803.000000	47.984292
3802.000000	47.997054
3801.000000	48.042074
3800.000000	48.095528
3799.000000	48.121909
3798.000000	48.130624
3797.000000	48.156215
3796.000000	48.212681
3795.000000	48.279691
3794.000000	48.332981
3793.000000	48.372878
3792.000000	48.415830
3791.000000	48.467459
3790.000000	48.519572
3789.000000	48.563903
3788.000000	48.600405
3787.000000	48.630952
3786.000000	48.655416
3785.000000	48.676805
3784.000000	48.700438
3783.000000	48.725178
3782.000000	48.744271
3781.000000	48.758139
3780.000000	48.774879
3779.000000	48.802232
3778.000000	48.835503
3777.000000	48.862503
3776.000000	48.881292
3775.000000	48.907040
3774.000000	48.950570
3773.000000	49.000280
3772.000000	49.037447
3771.000000	49.066131
3770.000000	49.105050
3769.000000	49.156113
3768.000000	49.202140
3767.000000	49.236287
3766.000000	49.274746
3765.000000	49.334195
3764.000000	49.406649
3763.000000	49.468463
3762.000000	49.511045
3761.000000	49.554105
3760.000000	49.610549
3759.000000	49.667639
3758.000000	49.712280
3757.000000	49.751143
3756.000000	49.791283
3755.000000	49.825535
3754.000000	49.850488
3753.000000	49.877871
3752.000000	49.911201
3751.000000	49.932871
3750.000000	49.942133
3749.000000	49.969855
3748.000000	50.023041
3747.000000	50.070313
3746.000000	50.097877
3745.000000	50.131595
3744.000000	50.204041
3743.000000	50.294476
3742.000000	50.345660
3741.000000	50.362392
3740.000000	50.393272
3739.000000	50.450690
3738.000000	50.507591
3737.000000	50.549469
3736.000000	50.595927
3735.000000	50.652816
3734.000000	50.694124
3733.000000	50.712953
3732.000000	50.739659
3731.000000	50.793410
3730.000000	50.856985
3729.000000	50.907213
3728.000000	50.949374
3727.000000	51.004364
3726.000000	51.075669
3725.000000	51.140253
3724.000000	51.183236
3723.000000	51.219175
3722.000000	51.265119
3721.000000	51.323352
3720.000000	51.385011
3719.000000	51.446999
3718.000000	51.518236
3717.000000	51.605124
3716.000000	51.690549
3715.000000	51.746839
3714.000000	51.769652
3713.000000	51.782199
3712.000000	51.807773
3711.000000	51.849035
3710.000000	51.900971
3709.000000	51.961255
3708.000000	52.030899
3707.000000	52.109908
3706.000000	52.193283
3705.000000	52.274347
3704.000000	52.348205
3703.000000	52.417034
3702.000000	52.483983
3701.000000	52.550833
3700.000000	52.612923
3699.000000	52.663047
3698.000000	52.704854
3697.000000	52.755804
3696.000000	52.820639
3695.000000	52.880882
3694.000000	52.921665
3693.000000	52.952512
3692.000000	52.990041
3691.000000	53.032805
3690.000000	53.072325
3689.000000	53.112312
3688.000000	53.168008
3687.000000	53.236882
3686.000000	53.298602
3685.000000	53.349214
3684.000000	53.404342
3683.000000	53.471027
3682.000000	53.534950
3681.000000	53.580870
3680.000000	53.616950
3679.000000	53.651598
3678.000000	53.670797
3677.000000	53.669294
3676.000000	53.678056
3675.000000	53.729677
3674.000000	53.794557
3673.000000	53.814958
3672.000000	53.797901
3671.000000	53.808734
3670.000000	53.884320
3669.000000	53.990659
3668.000000	54.074049
3667.000000	54.124879
3666.000000	54.167192
3665.000000	54.220962
3664.000000	54.285733
3663.000000	54.348421
3662.000000	54.400837
3661.000000	54.442679
3660.000000	54.477599
3659.000000	54.503499
3658.000000	54.519868
3657.000000	54.536554
3656.000000	54.568568
3655.000000	54.609739
3654.000000	54.628699
3653.000000	54.611101
3652.000000	54.586779
3651.000000	54.596815
3650.000000	54.645695
3649.000000	54.704422
3648.000000	54.761127
3647.000000	54.830618
3646.000000	54.913325
3645.000000	54.994374
3644.000000	55.068688
3643.000000	55.145499
3642.000000	55.229767
3641.000000	55.310982
3640.000000	55.375634
3639.000000	55.423813
3638.000000	55.466053
3637.000000	55.504061
3636.000000	55.530342
3635.000000	55.545157
3634.000000	55.557687
3633.000000	55.565053
3632.000000	55.547786
3631.000000	55.503692
3630.000000	55.466312
3629.000000	55.473415
3628.000000	55.516598
3627.000000	55.546183
3626.000000	55.536161
3625.000000	55.508322
3624.000000	55.489823
3623.000000	55.478166
3622.000000	55.451443
3621.000000	55.401213
3620.000000	55.338216
3619.000000	55.270169
3618.000000	55.194066
3617.000000	55.105633
3616.000000	55.006607
3615.000000	54.906167
3614.000000	54.811729
3613.000000	54.716938
3612.000000	54.604763
3611.000000	54.465717
3610.000000	54.314726
3609.000000	54.179643
3608.000000	54.070470
3607.000000	53.970379
3606.000000	53.858796
3605.000000	53.731799
3604.000000	53.599518
3603.000000	53.472403
3602.000000	53.354662
3601.000000	53.250423
3600.000000	53.160871
3599.000000	53.075836
3598.000000	52.986792
3597.000000	52.895007
3596.000000	52.805075
3595.000000	52.716188
3594.000000	52.623115
3593.000000	52.518875
3592.000000	52.401853
3591.000000	52.279054
3590.000000	52.172610
3589.000000	52.114601
3588.000000	52.124228
3587.000000	52.186088
3586.000000	52.260951
3585.000000	52.317814
3584.000000	52.348876
3583.000000	52.360593
3582.000000	52.358495
3581.000000	52.344141
3580.000000	52.317058
3579.000000	52.276916
3578.000000	52.225589
3577.000000	52.167717
3576.000000	52.107050
3575.000000	52.043792
3574.000000	51.975655
3573.000000	51.898259
3572.000000	51.806884
3571.000000	51.696848
3570.000000	51.567521
3569.000000	51.428980
3568.000000	51.298425
3567.000000	51.183312
3566.000000	51.074010
3565.000000	50.956486
3564.000000	50.826593
3563.000000	50.689918
3562.000000	50.551491
3561.000000	50.409564
3560.000000	50.258426
3559.000000	50.094010
3558.000000	49.916331
3557.000000	49.728915
3556.000000	49.535004
3555.000000	49.334506
3554.000000	49.126158
3553.000000	48.910999
3552.000000	48.690636
3551.000000	48.462322
3550.000000	48.219875
3549.000000	47.962898
3548.000000	47.699628
3547.000000	47.437781
3546.000000	47.176071
3545.000000	46.908340
3544.000000	46.630831
3543.000000	46.343034
3542.000000	46.044412
3541.000000	45.733877
3540.000000	45.410577
3539.000000	45.072964
3538.000000	44.719927
3537.000000	44.352375
3536.000000	43.972385
3535.000000	43.579760
3534.000000	43.172271
3533.000000	42.749152
3532.000000	42.311589
3531.000000	41.858569
3530.000000	41.386135
3529.000000	40.893021
3528.000000	40.383598
3527.000000	39.862322
3526.000000	39.328564
3525.000000	38.780284
3524.000000	38.218848
3523.000000	37.646769
3522.000000	37.063937
3521.000000	36.468607
3520.000000	35.860288
3519.000000	35.239188
3518.000000	34.605046
3517.000000	33.958094
3516.000000	33.300212
3515.000000	32.633981
3514.000000	31.961117
3513.000000	31.281529
3512.000000	30.593600
3511.000000	29.895257
3510.000000	29.186975
3509.000000	28.474715
3508.000000	27.766449
3507.000000	27.064175
3506.000000	26.362596
3505.000000	25.656448
3504.000000	24.946409
3503.000000	24.237660
3502.000000	23.535954
3501.000000	22.845856
3500.000000	22.169179
3499.000000	21.503420
3498.000000	20.844735
3497.000000	20.192987
3496.000000	19.551725
3495.000000	18.923748
3494.000000	18.310091
3493.000000	17.713141
3492.000000	17.135954
3491.000000	16.577901
3490.000000	16.035339
3489.000000	15.507541
3488.000000	14.998798
3487.000000	14.513430
3486.000000	14.051947
3485.000000	13.612664
3484.000000	13.192627
3483.000000	12.787184
3482.000000	12.393113
3481.000000	12.012828
3480.000000	11.651949
3479.000000	11.311555
3478.000000	10.986649
3477.000000	10.671946
3476.000000	10.364795
3475.000000	10.063180
3474.000000	9.765383
3473.000000	9.472680
3472.000000	9.188912
3471.000000	8.917172
3470.000000	8.660887
3469.000000	8.426843
3468.000000	8.222684
3467.000000	8.051045
3466.000000	7.909356
3465.000000	7.795332
3464.000000	7.708431
3463.000000	7.647401
3462.000000	7.611695
3461.000000	7.604338
3460.000000	7.629212
3459.000000	7.684860
3458.000000	7.764747
3457.000000	7.863163
3456.000000	7.976195
3455.000000	8.098236
3454.000000	8.222299
3453.000000	8.343436
3452.000000	8.457864
3451.000000	8.558758
3450.000000	8.636821
3449.000000	8.685653
3448.000000	8.703192
3447.000000	8.688439
3446.000000	8.641437
3445.000000	8.565182
3444.000000	8.464199
3443.000000	8.341494
3442.000000	8.199243
3441.000000	8.042537
3440.000000	7.878634
3439.000000	7.713707
3438.000000	7.554103
3437.000000	7.408868
3436.000000	7.286705
3435.000000	7.190485
3434.000000	7.117855
3433.000000	7.066672
3432.000000	7.037591
3431.000000	7.032201
3430.000000	7.053010
3429.000000	7.104597
3428.000000	7.190228
3427.000000	7.309569
3426.000000	7.461354
3425.000000	7.647213
3424.000000	7.870395
3423.000000	8.131142
3422.000000	8.428787
3421.000000	8.764935
3420.000000	9.140849
3419.000000	9.553823
3418.000000	9.997997
3417.000000	10.469287
3416.000000	10.965212
3415.000000	11.482027
3414.000000	12.016442
3413.000000	12.567195
3412.000000	13.132641
3411.000000	13.707823
3410.000000	14.286961
3409.000000	14.867528
3408.000000	15.447905
3407.000000	16.023051
3406.000000	16.586414
3405.000000	17.134818
3404.000000	17.668819
3403.000000	18.190306
3402.000000	18.702626
3401.000000	19.210788
3400.000000	19.717175
3399.000000	20.217633
3398.000000	20.705195
3397.000000	21.176484
3396.000000	21.631925
3395.000000	22.072648
3394.000000	22.500808
3393.000000	22.921714
3392.000000	23.341172
3391.000000	23.760237
3390.000000	24.175878
3389.000000	24.585581
3388.000000	24.988995
3387.000000	25.386216
3386.000000	25.777547
3385.000000	26.164622
3384.000000	26.549068
3383.000000	26.930987
3382.000000	27.310689
3381.000000	27.690454
3380.000000	28.072237
3379.000000	28.455054
3378.000000	28.837008
3377.000000	29.218366
3376.000000	29.599979
3375.000000	29.980227
3374.000000	30.356420
3373.000000	30.728434
3372.000000	31.098550
3371.000000	31.468620
3370.000000	31.839639
3369.000000	32.212713
3368.000000	32.587873
3367.000000	32.962564
3366.000000	33.333489
3365.000000	33.699598
3364.000000	34.061841
3363.000000	34.421225
3362.000000	34.778865
3361.000000	35.136476
3360.000000	35.494621
3359.000000	35.851399
3358.000000	36.204712
3357.000000	36.554850
3356.000000	36.902669
3355.000000	37.246838
3354.000000	37.585349
3353.000000	37.918831
3352.000000	38.249937
3351.000000	38.579797
3350.000000	38.907186
3349.000000	39.230732
3348.000000	39.550066
3347.000000	39.865108
3346.000000	40.175876
3345.000000	40.482918
3344.000000	40.786289
3343.000000	41.084494
3342.000000	41.376110
3341.000000	41.661710
3340.000000	41.942911
3339.000000	42.220050
3338.000000	42.491854
3337.000000	42.757082
3336.000000	43.014612
3335.000000	43.262478
3334.000000	43.498462
3333.000000	43.720892
3332.000000	43.928300
3331.000000	44.118189
3330.000000	44.287709
3329.000000	44.435651
3328.000000	44.561452
3327.000000	44.663378
3326.000000	44.737915
3325.000000	44.780734
3324.000000	44.787765
3323.000000	44.754362
3322.000000	44.676493
3321.000000	44.551644
3320.000000	44.376692
3319.000000	44.147474
3318.000000	43.857793
3317.000000	43.501720
3316.000000	43.073119
3315.000000	42.563385
3314.000000	41.964012
3313.000000	41.267636
3312.000000	40.468422
3311.000000	39.562268
3310.000000	38.545912
3309.000000	37.421771
3308.000000	36.195130
3307.000000	34.870617
3306.000000	33.453152
3305.000000	31.947194
3304.000000	30.359485
3303.000000	28.696429
3302.000000	26.966290
3301.000000	25.183550
3300.000000	23.367776
3299.000000	21.542953
3298.000000	19.739146
3297.000000	17.993376
3296.000000	16.342964
3295.000000	14.818213
3294.000000	13.440027
3293.000000	12.222635
3292.000000	11.172179
3291.000000	10.278948
3290.000000	9.523203
3289.000000	8.880202
3288.000000	8.324401
3287.000000	7.832155
3286.000000	7.383013
3285.000000	6.965945
3284.000000	6.575692
3283.000000	6.209495
3282.000000	5.869490
3281.000000	5.563137
3280.000000	5.300144
3279.000000	5.087370
3278.000000	4.930287
3277.000000	4.836229
3276.000000	4.809710
3275.000000	4.848766
3274.000000	4.947100
3273.000000	5.097042
3272.000000	5.288182
3271.000000	5.503126
3270.000000	5.720404
3269.000000	5.919286
3268.000000	6.079981
3267.000000	6.183941
3266.000000	6.219353
3265.000000	6.185238
3264.000000	6.088639
3263.000000	5.940809
3262.000000	5.756490
3261.000000	5.555184
3260.000000	5.356423
3259.000000	5.175156
3258.000000	5.023793
3257.000000	4.914284
3256.000000	4.854426
3255.000000	4.844623
3254.000000	4.881273
3253.000000	4.960018
3252.000000	5.074821
3251.000000	5.215305
3250.000000	5.370513
3249.000000	5.533310
3248.000000	5.697375
3247.000000	5.854324
3246.000000	5.995854
3245.000000	6.117173
3244.000000	6.215755
3243.000000	6.289677
3242.000000	6.339672
3241.000000	6.370625
3240.000000	6.387831
3239.000000	6.393188
3238.000000	6.388110
3237.000000	6.376074
3236.000000	6.360744
3235.000000	6.344314
3234.000000	6.329415
3233.000000	6.319608
3232.000000	6.314360
3231.000000	6.306916
3230.000000	6.290143
3229.000000	6.261295
3228.000000	6.219353
3227.000000	6.161380
3226.000000	6.085089
3225.000000	5.992046
3224.000000	5.884382
3223.000000	5.761937
3222.000000	5.625256
3221.000000	5.478749
3220.000000	5.327933
3219.000000	5.175699
3218.000000	5.024300
3217.000000	4.877277
3216.000000	4.736387
3215.000000	4.599578
3214.000000	4.464848
3213.000000	4.333266
3212.000000	4.205555
3211.000000	4.079236
3210.000000	3.952178
3209.000000	3.826095
3208.000000	3.703538
3207.000000	3.584802
3206.000000	3.470749
3205.000000	3.364913
3204.000000	3.269985
3203.000000	3.185121
3202.000000	3.109692
3201.000000	3.046499
3200.000000	2.997827
3199.000000	2.962381
3198.000000	2.938717
3197.000000	2.928436
3196.000000	2.933193
3195.000000	2.951110
3194.000000	2.980211
3193.000000	3.021483
3192.000000	3.075673
3191.000000	3.140767
3190.000000	3.214570
3189.000000	3.297405
3188.000000	3.389267
3187.000000	3.487497
3186.000000	3.590363
3185.000000	3.698974
3184.000000	3.813614
3183.000000	3.931515
3182.000000	4.050745
3181.000000	4.172962
3180.000000	4.299248
3179.000000	4.427061
3178.000000	4.553836
3177.000000	4.680032
3176.000000	4.806042
3175.000000	4.929663
3174.000000	5.049531
3173.000000	5.167472
3172.000000	5.284707
3171.000000	5.399004
3170.000000	5.508403
3169.000000	5.614354
3168.000000	5.718467
3167.000000	5.819641
3166.000000	5.916756
3165.000000	6.010878
3164.000000	6.102126
3163.000000	6.187704
3162.000000	6.265938
3161.000000	6.338617
3160.000000	6.407048
3159.000000	6.469152
3158.000000	6.522916
3157.000000	6.569801
3156.000000	6.611976
3155.000000	6.649861
3154.000000	6.684927
3153.000000	6.721162
3152.000000	6.761153
3151.000000	6.803702
3150.000000	6.847865
3149.000000	6.895863
3148.000000	6.949511
3147.000000	7.007316
3146.000000	7.067861
3145.000000	7.132533
3144.000000	7.202112
3143.000000	7.274214
3142.000000	7.346621
3141.000000	7.419953
3140.000000	7.494322
3139.000000	7.566781
3138.000000	7.634759
3137.000000	7.698657
3136.000000	7.758385
3135.000000	7.810442
3134.000000	7.851253
3133.000000	7.879690
3132.000000	7.894123
3131.000000	7.890005
3130.000000	7.862864
3129.000000	7.811616
3128.000000	7.735935
3127.000000	7.634834
3126.000000	7.510154
3125.000000	7.368141
3124.000000	7.215894
3123.000000	7.058267
3122.000000	6.900698
3121.000000	6.750636
3120.000000	6.612943
3119.000000	6.487153
3118.000000	6.371588
3117.000000	6.266802
3116.000000	6.172526
3115.000000	6.085345
3114.000000	6.002081
3113.000000	5.922538
3112.000000	5.846368
3111.000000	5.770960
3110.000000	5.695267
3109.000000	5.621958
3108.000000	5.553430
3107.000000	5.489146
3106.000000	5.429231
3105.000000	5.377325
3104.000000	5.336770
3103.000000	5.307841
3102.000000	5.291439
3101.000000	5.291357
3100.000000	5.310841
3099.000000	5.349482
3098.000000	5.406552
3097.000000	5.483890
3096.000000	5.582234
3095.000000	5.699464
3094.000000	5.834069
3093.000000	5.987292
3092.000000	6.159564
3091.000000	6.347592
3090.000000	6.548300
3089.000000	6.761194
3088.000000	6.984952
3087.000000	7.215735
3086.000000	7.450797
3085.000000	7.690899
3084.000000	7.936178
3083.000000	8.183351
3082.000000	8.429584
3081.000000	8.675364
3080.000000	8.921586
3079.000000	9.166947
3078.000000	9.410448
3077.000000	9.652850
3076.000000	9.893496
3075.000000	10.129192
3074.000000	10.358347
3073.000000	10.582930
3072.000000	10.804121
3071.000000	11.019781
3070.000000	11.228379
3069.000000	11.431931
3068.000000	11.632709
3067.000000	11.830031
3066.000000	12.022855
3065.000000	12.212184
3064.000000	12.398599
3063.000000	12.580648
3062.000000	12.757719
3061.000000	12.931764
3060.000000	13.104012
3059.000000	13.273014
3058.000000	13.437998
3057.000000	13.600835
3056.000000	13.762826
3055.000000	13.922558
3054.000000	14.079073
3053.000000	14.234258
3052.000000	14.389863
3051.000000	14.544988
3050.000000	14.698443
3049.000000	14.850715
3048.000000	15.001868
3047.000000	15.150319
3046.000000	15.295684
3045.000000	15.440078
3044.000000	15.584934
3043.000000	15.729348
3042.000000	15.872911
3041.000000	16.017038
3040.000000	16.161856
3039.000000	16.304903
3038.000000	16.444805
3037.000000	16.583367
3036.000000	16.722434
3035.000000	16.861682
3034.000000	17.000961
3033.000000	17.141657
3032.000000	17.284011
3031.000000	17.426222
3030.000000	17.567725
3029.000000	17.710167
3028.000000	17.853658
3027.000000	17.995426
3026.000000	18.133819
3025.000000	18.270338
3024.000000	18.405740
3023.000000	18.537352
3022.000000	18.662136
3021.000000	18.778983
3020.000000	18.886151
3019.000000	18.978860
3018.000000	19.052086
3017.000000	19.103264
3016.000000	19.131140
3015.000000	19.136063
3014.000000	19.123840
3013.000000	19.107559
3012.000000	19.102919
3011.000000	19.123328
3010.000000	19.178998
3009.000000	19.275716
3008.000000	19.410895
3007.000000	19.572596
3006.000000	19.744292
3005.000000	19.908937
3004.000000	20.048101
3003.000000	20.140985
3002.000000	20.167704
3001.000000	20.112642
3000.000000	19.967653
2999.000000	19.738496
2998.000000	19.454046
2997.000000	19.167027
2996.000000	18.940724
2995.000000	18.830427
2994.000000	18.867720
2993.000000	19.052010
2992.000000	19.349473
2991.000000	19.706980
2990.000000	20.073959
2989.000000	20.416976
2988.000000	20.720056
2987.000000	20.978557
2986.000000	21.195950
2985.000000	21.379528
2984.000000	21.534429
2983.000000	21.660409
2982.000000	21.755588
2981.000000	21.819053
2980.000000	21.848916
2979.000000	21.840897
2978.000000	21.791566
2977.000000	21.702788
2976.000000	21.581738
2975.000000	21.441344
2974.000000	21.301364
2973.000000	21.184729
2972.000000	21.108198
2971.000000	21.074616
2970.000000	21.072470
2969.000000	21.077542
2968.000000	21.054542
2967.000000	20.965913
2966.000000	20.789010
2965.000000	20.528713
2964.000000	20.214919
2963.000000	19.889781
2962.000000	19.595843
2961.000000	19.366654
2960.000000	19.221145
2959.000000	19.164153
2958.000000	19.193960
2957.000000	19.305737
2956.000000	19.488213
2955.000000	19.721919
2954.000000	19.982924
2953.000000	20.246566
2952.000000	20.486348
2951.000000	20.677529
2950.000000	20.806255
2949.000000	20.876088
2948.000000	20.903283
2947.000000	20.904829
2946.000000	20.885989
2945.000000	20.828484
2944.000000	20.689357
2943.000000	20.421904
2942.000000	20.016303
2941.000000	19.529643
2940.000000	19.079767
2939.000000	18.802521
2938.000000	18.795428
2937.000000	19.079154
2936.000000	19.593563
2935.000000	20.232563
2934.000000	20.892792
2933.000000	21.505718
2932.000000	22.040781
2931.000000	22.494542
2930.000000	22.879743
2929.000000	23.214193
2928.000000	23.512129
2927.000000	23.781063
2926.000000	24.026370
2925.000000	24.253350
2924.000000	24.464278
2923.000000	24.657646
2922.000000	24.832869
2921.000000	24.992416
2920.000000	25.137661
2919.000000	25.267051
2918.000000	25.379613
2917.000000	25.477250
2916.000000	25.561958
2915.000000	25.633957
2914.000000	25.694254
2913.000000	25.745475
2912.000000	25.788462
2911.000000	25.820933
2910.000000	25.840378
2909.000000	25.845232
2908.000000	25.831584
2907.000000	25.791166
2906.000000	25.714211
2905.000000	25.590958
2904.000000	25.409988
2903.000000	25.159755
2902.000000	24.836345
2901.000000	24.449403
2900.000000	24.022052
2899.000000	23.589229
2898.000000	23.194685
2897.000000	22.883956
2896.000000	22.690941
2895.000000	22.628983
2894.000000	22.692687
2893.000000	22.862810
2892.000000	23.110624
2891.000000	23.403630
2890.000000	23.714242
2889.000000	24.023157
2888.000000	24.316692
2887.000000	24.584804
2886.000000	24.822727
2885.000000	25.031280
2884.000000	25.212206
2883.000000	25.366311
2882.000000	25.496225
2881.000000	25.607648
2880.000000	25.706202
2879.000000	25.795529
2878.000000	25.879379
2877.000000	25.962033
2876.000000	26.044920
2875.000000	26.125308
2874.000000	26.200297
2873.000000	26.269801
2872.000000	26.335377
2871.000000	26.399881
2870.000000	26.469575
2869.000000	26.553086
2868.000000	26.655533
2867.000000	26.775314
2866.000000	26.907375
2865.000000	27.046475
2864.000000	27.186425
2863.000000	27.320329
2862.000000	27.444205
2861.000000	27.558238
2860.000000	27.663452
2859.000000	27.759760
2858.000000	27.848490
2857.000000	27.933500
2856.000000	28.017819
2855.000000	28.101680
2854.000000	28.184933
2853.000000	28.268243
2852.000000	28.350408
2851.000000	28.427462
2850.000000	28.496224
2849.000000	28.556649
2848.000000	28.609993
2847.000000	28.657661
2846.000000	28.702989
2845.000000	28.750949
2844.000000	28.804501
2843.000000	28.863422
2842.000000	28.927484
2841.000000	28.998062
2840.000000	29.075571
2839.000000	29.158289
2838.000000	29.245021
2837.000000	29.336265
2836.000000	29.431757
2835.000000	29.529686
2834.000000	29.629399
2833.000000	29.732171
2832.000000	29.838051
2831.000000	29.944541
2830.000000	30.049678
2829.000000	30.153836
2828.000000	30.257277
2827.000000	30.358538
2826.000000	30.456503
2825.000000	30.551603
2824.000000	30.643745
2823.000000	30.731378
2822.000000	30.813994
2821.000000	30.893324
2820.000000	30.970791
2819.000000	31.045926
2818.000000	31.118163
2817.000000	31.187899
2816.000000	31.254748
2815.000000	31.317072
2814.000000	31.374463
2813.000000	31.428556
2812.000000	31.480426
2811.000000	31.529485
2810.000000	31.575829
2809.000000	31.621294
2808.000000	31.667065
2807.000000	31.712488
2806.000000	31.757221
2805.000000	31.802227
2804.000000	31.847607
2803.000000	31.891865
2802.000000	31.934429
2801.000000	31.976665
2800.000000	32.019402
2799.000000	32.061688
2798.000000	32.102933
2797.000000	32.143900
2796.000000	32.184558
2795.000000	32.223358
2794.000000	32.259753
2793.000000	32.295125
2792.000000	32.330192
2791.000000	32.363755
2790.000000	32.395017
2789.000000	32.424789
2788.000000	32.453384
2787.000000	32.479672
2786.000000	32.503407
2785.000000	32.526447
2784.000000	32.550825
2783.000000	32.577997
2782.000000	32.610721
2781.000000	32.652698
2780.000000	32.704932
2779.000000	32.764642
2778.000000	32.828737
2777.000000	32.896110
2776.000000	32.965536
2775.000000	33.034161
2774.000000	33.099777
2773.000000	33.162411
2772.000000	33.222399
2771.000000	33.279050
2770.000000	33.332325
2769.000000	33.383618
2768.000000	33.433561
2767.000000	33.480913
2766.000000	33.524708
2765.000000	33.565361
2764.000000	33.602630
2763.000000	33.634912
2762.000000	33.661747
2761.000000	33.685026
2760.000000	33.706560
2759.000000	33.726342
2758.000000	33.744193
2757.000000	33.760695
2756.000000	33.775388
2755.000000	33.786493
2754.000000	33.793895
2753.000000	33.800748
2752.000000	33.811076
2751.000000	33.827572
2750.000000	33.852237
2749.000000	33.886173
2748.000000	33.926832
2747.000000	33.967632
2746.000000	34.002300
2745.000000	34.028716
2744.000000	34.048304
2743.000000	34.063906
2742.000000	34.078852
2741.000000	34.095236
2740.000000	34.111143
2739.000000	34.121410
2738.000000	34.123224
2737.000000	34.120558
2736.000000	34.122722
2735.000000	34.140132
2734.000000	34.181030
2733.000000	34.248103
2732.000000	34.336033
2731.000000	34.433906
2730.000000	34.531615
2729.000000	34.623790
2728.000000	34.708094
2727.000000	34.783000
2726.000000	34.848685
2725.000000	34.907366
2724.000000	34.960549
2723.000000	35.007252
2722.000000	35.045628
2721.000000	35.074586
2720.000000	35.093550
2719.000000	35.102572
2718.000000	35.104170
2717.000000	35.103578
2716.000000	35.105774
2715.000000	35.113651
2714.000000	35.129165
2713.000000	35.153829
2712.000000	35.187077
2711.000000	35.226080
2710.000000	35.268148
2709.000000	35.311841
2708.000000	35.355328
2707.000000	35.395833
2706.000000	35.431671
2705.000000	35.462819
2704.000000	35.488535
2703.000000	35.506469
2702.000000	35.514971
2701.000000	35.514025
2700.000000	35.503525
2699.000000	35.482700
2698.000000	35.452445
2697.000000	35.416649
2696.000000	35.379912
2695.000000	35.345709
2694.000000	35.317025
2693.000000	35.296024
2692.000000	35.281930
2691.000000	35.271292
2690.000000	35.261567
2689.000000	35.253054
2688.000000	35.246929
2687.000000	35.243528
2686.000000	35.243549
2685.000000	35.248467
2684.000000	35.258658
2683.000000	35.273327
2682.000000	35.292946
2681.000000	35.319838
2680.000000	35.355140
2679.000000	35.396839
2678.000000	35.441638
2677.000000	35.486417
2676.000000	35.527360
2675.000000	35.560255
2674.000000	35.583020
2673.000000	35.596412
2672.000000	35.601819
2671.000000	35.600455
2670.000000	35.595460
2669.000000	35.592507
2668.000000	35.596949
2667.000000	35.611867
2666.000000	35.639120
2665.000000	35.679408
2664.000000	35.729924
2663.000000	35.784216
2662.000000	35.835537
2661.000000	35.878940
2660.000000	35.910284
2659.000000	35.926207
2658.000000	35.926593
2657.000000	35.915386
2656.000000	35.897906
2655.000000	35.879002
2654.000000	35.864351
2653.000000	35.860646
2652.000000	35.872728
2651.000000	35.901956
2650.000000	35.947701
2649.000000	36.007834
2648.000000	36.077273
2647.000000	36.148491
2646.000000	36.215086
2645.000000	36.273988
2644.000000	36.323999
2643.000000	36.365165
2642.000000	36.400583
2641.000000	36.436182
2640.000000	36.476923
2639.000000	36.524196
2638.000000	36.577008
2637.000000	36.633265
2636.000000	36.689099
2635.000000	36.739391
2634.000000	36.780810
2633.000000	36.813009
2632.000000	36.836508
2631.000000	36.851618
2630.000000	36.859852
2629.000000	36.864306
2628.000000	36.867147
2627.000000	36.868288
2626.000000	36.867445
2625.000000	36.865129
2624.000000	36.861262
2623.000000	36.855000
2622.000000	36.846868
2621.000000	36.839157
2620.000000	36.832828
2619.000000	36.825935
2618.000000	36.815710
2617.000000	36.800131
2616.000000	36.776960
2615.000000	36.743432
2614.000000	36.698668
2613.000000	36.644957
2612.000000	36.585947
2611.000000	36.525672
2610.000000	36.469773
2609.000000	36.425071
2608.000000	36.396365
2607.000000	36.385036
2606.000000	36.390686
2605.000000	36.412405
2604.000000	36.447711
2603.000000	36.492619
2602.000000	36.544458
2601.000000	36.601878
2600.000000	36.662146
2599.000000	36.720839
2598.000000	36.774855
2597.000000	36.824021
2596.000000	36.868830
2595.000000	36.909199
2594.000000	36.946327
2593.000000	36.983245
2592.000000	37.022001
2591.000000	37.062069
2590.000000	37.101999
2589.000000	37.140427
2588.000000	37.174839
2587.000000	37.201731
2586.000000	37.219711
2585.000000	37.231022
2584.000000	37.239549
2583.000000	37.249454
2582.000000	37.266196
2581.000000	37.295883
2580.000000	37.341925
2579.000000	37.403641
2578.000000	37.478219
2577.000000	37.562407
2576.000000	37.651681
2575.000000	37.740809
2574.000000	37.826927
2573.000000	37.910022
2572.000000	37.990103
2571.000000	38.065815
2570.000000	38.136395
2569.000000	38.202651
2568.000000	38.265037
2567.000000	38.322695
2566.000000	38.375453
2565.000000	38.424918
2564.000000	38.472381
2563.000000	38.517759
2562.000000	38.561132
2561.000000	38.603480
2560.000000	38.645117
2559.000000	38.685037
2558.000000	38.722789
2557.000000	38.759139
2556.000000	38.794490
2555.000000	38.828756
2554.000000	38.863343
2553.000000	38.901107
2552.000000	38.943478
2551.000000	38.989483
2550.000000	39.038056
2549.000000	39.089013
2548.000000	39.140977
2547.000000	39.190738
2546.000000	39.235807
2545.000000	39.275824
2544.000000	39.310540
2543.000000	39.338714
2542.000000	39.359949
2541.000000	39.375353
2540.000000	39.385554
2539.000000	39.389176
2538.000000	39.384595
2537.000000	39.371333
2536.000000	39.348671
2535.000000	39.315544
2534.000000	39.272223
2533.000000	39.220898
2532.000000	39.163874
2531.000000	39.102608
2530.000000	39.039603
2529.000000	38.978623
2528.000000	38.922226
2527.000000	38.870857
2526.000000	38.824827
2525.000000	38.784925
2524.000000	38.750069
2523.000000	38.716587
2522.000000	38.680903
2521.000000	38.641065
2520.000000	38.595106
2519.000000	38.540336
2518.000000	38.475658
2517.000000	38.402748
2516.000000	38.323830
2515.000000	38.240608
2514.000000	38.156063
2513.000000	38.075114
2512.000000	38.002315
2511.000000	37.940902
2510.000000	37.894315
2509.000000	37.866139
2508.000000	37.857458
2507.000000	37.865797
2506.000000	37.888550
2505.000000	37.924365
2504.000000	37.970900
2503.000000	38.024312
2502.000000	38.081299
2501.000000	38.140168
2500.000000	38.198382
2499.000000	38.251647
2498.000000	38.296762
2497.000000	38.333086
2496.000000	38.360374
2495.000000	38.377789
2494.000000	38.386193
2493.000000	38.388844
2492.000000	38.388913
2491.000000	38.387995
2490.000000	38.388034
2489.000000	38.392127
2488.000000	38.401797
2487.000000	38.415738
2486.000000	38.432369
2485.000000	38.451521
2484.000000	38.472532
2483.000000	38.493316
2482.000000	38.512734
2481.000000	38.532029
2480.000000	38.552689
2479.000000	38.574709
2478.000000	38.598368
2477.000000	38.625492
2476.000000	38.657904
2475.000000	38.696439
2474.000000	38.742182
2473.000000	38.796950
2472.000000	38.860987
2471.000000	38.932059
2470.000000	39.007673
2469.000000	39.085999
2468.000000	39.164299
2467.000000	39.238582
2466.000000	39.306098
2465.000000	39.366408
2464.000000	39.419452
2463.000000	39.464597
2462.000000	39.502610
2461.000000	39.536332
2460.000000	39.567912
2459.000000	39.597396
2458.000000	39.624237
2457.000000	39.648268
2456.000000	39.668358
2455.000000	39.682194
2454.000000	39.689148
2453.000000	39.691426
2452.000000	39.691790
2451.000000	39.692091
2450.000000	39.694771
2449.000000	39.703446
2448.000000	39.720683
2447.000000	39.746937
2446.000000	39.782333
2445.000000	39.827536
2444.000000	39.881367
2443.000000	39.939916
2442.000000	39.999129
2441.000000	40.056509
2440.000000	40.109845
2439.000000	40.156528
2438.000000	40.195615
2437.000000	40.228697
2436.000000	40.257657
2435.000000	40.282845
2434.000000	40.304279
2433.000000	40.322324
2432.000000	40.335811
2431.000000	40.341877
2430.000000	40.338347
2429.000000	40.325229
2428.000000	40.302854
2427.000000	40.270265
2426.000000	40.227124
2425.000000	40.174922
2424.000000	40.115939
2423.000000	40.052859
2422.000000	39.990363
2421.000000	39.935153
2420.000000	39.892630
2419.000000	39.864786
2418.000000	39.851569
2417.000000	39.852031
2416.000000	39.862533
2415.000000	39.876257
2414.000000	39.885987
2413.000000	39.886308
2412.000000	39.872830
2411.000000	39.841994
2410.000000	39.793100
2409.000000	39.728974
2408.000000	39.653810
2407.000000	39.571372
2406.000000	39.486211
2405.000000	39.403651
2404.000000	39.327291
2403.000000	39.258376
2402.000000	39.198441
2401.000000	39.150351
2400.000000	39.115503
2399.000000	39.092183
2398.000000	39.077384
2397.000000	39.068123
2396.000000	39.059710
2395.000000	39.045355
2394.000000	39.019434
2393.000000	38.980028
2392.000000	38.927084
2391.000000	38.861072
2390.000000	38.784566
2389.000000	38.702144
2388.000000	38.618409
2387.000000	38.535973
2386.000000	38.457275
2385.000000	38.385973
2384.000000	38.323911
2383.000000	38.271358
2382.000000	38.229846
2381.000000	38.204201
2380.000000	38.199973
2379.000000	38.219793
2378.000000	38.262685
2377.000000	38.327131
2376.000000	38.407380
2375.000000	38.490770
2374.000000	38.562364
2373.000000	38.608688
2372.000000	38.622400
2371.000000	38.603328
2370.000000	38.553508
2369.000000	38.482126
2368.000000	38.407659
2367.000000	38.347510
2366.000000	38.304075
2365.000000	38.281505
2364.000000	38.305397
2363.000000	38.369621
2362.000000	38.455186
2361.000000	38.565587
2360.000000	38.683440
2359.000000	38.811807
2358.000000	38.928457
2357.000000	39.004773
2356.000000	39.037668
2355.000000	38.994010
2354.000000	38.878011
2353.000000	38.744353
2352.000000	38.734532
2351.000000	38.920046
2350.000000	39.164304
2349.000000	39.313558
2348.000000	39.283224
2347.000000	39.182297
2346.000000	39.170386
2345.000000	39.304176
2344.000000	39.525661
2343.000000	39.680066
2342.000000	39.761242
2341.000000	39.803547
2340.000000	39.828554
2339.000000	39.831165
2338.000000	39.809246
2337.000000	39.774422
2336.000000	39.740904
2335.000000	39.696501
2334.000000	39.634840
2333.000000	39.538063
2332.000000	39.419821
2331.000000	39.307924
2330.000000	39.188077
2329.000000	39.097250
2328.000000	39.012304
2327.000000	38.942554
2326.000000	38.874862
2325.000000	38.802923
2324.000000	38.756192
2323.000000	38.715621
2322.000000	38.697337
2321.000000	38.679978
2320.000000	38.672199
2319.000000	38.665550
2318.000000	38.653482
2317.000000	38.627230
2316.000000	38.573196
2315.000000	38.495502
2314.000000	38.397626
2313.000000	38.295866
2312.000000	38.189398
2311.000000	38.082110
2310.000000	37.971525
2309.000000	37.863426
2308.000000	37.758512
2307.000000	37.655415
2306.000000	37.554467
2305.000000	37.453534
2304.000000	37.353535
2303.000000	37.251341
2302.000000	37.148994
2301.000000	37.051128
2300.000000	36.957392
2299.000000	36.867754
2298.000000	36.780566
2297.000000	36.703007
2296.000000	36.637193
2295.000000	36.588356
2294.000000	36.559835
2293.000000	36.557285
2292.000000	36.581837
2291.000000	36.630312
2290.000000	36.700540
2289.000000	36.789793
2288.000000	36.895257
2287.000000	37.011020
2286.000000	37.134269
2285.000000	37.261720
2284.000000	37.388309
2283.000000	37.506192
2282.000000	37.613292
2281.000000	37.711767
2280.000000	37.803692
2279.000000	37.887027
2278.000000	37.961347
2277.000000	38.029644
2276.000000	38.094538
2275.000000	38.158412
2274.000000	38.224048
2273.000000	38.297105
2272.000000	38.381238
2271.000000	38.477503
2270.000000	38.587257
2269.000000	38.712503
2268.000000	38.853713
2267.000000	39.008630
2266.000000	39.173913
2265.000000	39.347338
2264.000000	39.523871
2263.000000	39.698008
2262.000000	39.866386
2261.000000	40.027491
2260.000000	40.180274
2259.000000	40.321055
2258.000000	40.449410
2257.000000	40.566955
2256.000000	40.676002
2255.000000	40.777651
2254.000000	40.873988
2253.000000	40.969286
2252.000000	41.065869
2251.000000	41.164258
2250.000000	41.264159
2249.000000	41.365656
2248.000000	41.466385
2247.000000	41.561987
2246.000000	41.649187
2245.000000	41.727665
2244.000000	41.797954
2243.000000	41.860119
2242.000000	41.915213
2241.000000	41.965210
2240.000000	42.010271
2239.000000	42.047753
2238.000000	42.075171
2237.000000	42.091862
2236.000000	42.098197
2235.000000	42.095236
2234.000000	42.086909
2233.000000	42.079812
2232.000000	42.079735
2231.000000	42.089466
2230.000000	42.109775
2229.000000	42.139703
2228.000000	42.175040
2227.000000	42.209342
2226.000000	42.237885
2225.000000	42.259521
2224.000000	42.274614
2223.000000	42.283959
2222.000000	42.290032
2221.000000	42.296720
2220.000000	42.306370
2219.000000	42.319096
2218.000000	42.335280
2217.000000	42.356442
2216.000000	42.383055
2215.000000	42.414027
2214.000000	42.449236
2213.000000	42.490005
2212.000000	42.536483
2211.000000	42.586772
2210.000000	42.639385
2209.000000	42.693760
2208.000000	42.747553
2207.000000	42.795937
2206.000000	42.834755
2205.000000	42.862578
2204.000000	42.879033
2203.000000	42.883884
2202.000000	42.878746
2201.000000	42.867476
2200.000000	42.853488
2199.000000	42.838454
2198.000000	42.824273
2197.000000	42.813872
2196.000000	42.809197
2195.000000	42.810451
2194.000000	42.818448
2193.000000	42.835440
2192.000000	42.862737
2191.000000	42.899658
2190.000000	42.945479
2189.000000	43.000227
2188.000000	43.062612
2187.000000	43.129514
2186.000000	43.198264
2185.000000	43.267420
2184.000000	43.334686
2183.000000	43.396387
2182.000000	43.450212
2181.000000	43.496620
2180.000000	43.537105
2179.000000	43.572915
2178.000000	43.605803
2177.000000	43.637551
2176.000000	43.667613
2175.000000	43.693128
2174.000000	43.711864
2173.000000	43.723374
2172.000000	43.727082
2171.000000	43.721915
2170.000000	43.708888
2169.000000	43.691898
2168.000000	43.675022
2167.000000	43.660639
2166.000000	43.650486
2165.000000	43.645785
2164.000000	43.645434
2163.000000	43.646517
2162.000000	43.647672
2161.000000	43.650181
2160.000000	43.655366
2159.000000	43.663444
2158.000000	43.675605
2157.000000	43.694414
2156.000000	43.720807
2155.000000	43.752615
2154.000000	43.786836
2153.000000	43.821231
2152.000000	43.853367
2151.000000	43.880788
2150.000000	43.903296
2149.000000	43.923037
2148.000000	43.941411
2147.000000	43.957969
2146.000000	43.972715
2145.000000	43.986931
2144.000000	44.000807
2143.000000	44.012659
2142.000000	44.021413
2141.000000	44.027823
2140.000000	44.032506
2139.000000	44.034960
2138.000000	44.035272
2137.000000	44.034475
2136.000000	44.032287
2135.000000	44.026489
2134.000000	44.015300
2133.000000	43.998278
2132.000000	43.974599
2131.000000	43.943144
2130.000000	43.905260
2129.000000	43.865118
2128.000000	43.826543
2127.000000	43.791498
2126.000000	43.761950
2125.000000	43.740351
2124.000000	43.727301
2123.000000	43.721678
2122.000000	43.724177
2121.000000	43.738116
2120.000000	43.765811
2119.000000	43.806383
2118.000000	43.857429
2117.000000	43.915932
2116.000000	43.976648
2115.000000	44.032618
2114.000000	44.079137
2113.000000	44.115443
2112.000000	44.142084
2111.000000	44.159247
2110.000000	44.168408
2109.000000	44.173076
2108.000000	44.176616
2107.000000	44.181143
2106.000000	44.189015
2105.000000	44.202536
2104.000000	44.220882
2103.000000	44.239329
2102.000000	44.252433
2101.000000	44.256053
2100.000000	44.246281
2099.000000	44.219780
2098.000000	44.176805
2097.000000	44.122157
2096.000000	44.062283
2095.000000	44.003608
2094.000000	43.953493
2093.000000	43.919063
2092.000000	43.903770
2091.000000	43.907151
2090.000000	43.928581
2089.000000	43.968291
2088.000000	44.023900
2087.000000	44.089349
2086.000000	44.158379
2085.000000	44.226024
2084.000000	44.286694
2083.000000	44.334481
2082.000000	44.366252
2081.000000	44.382174
2080.000000	44.382616
2079.000000	44.367560
2078.000000	44.339705
2077.000000	44.304538
2076.000000	44.265440
2075.000000	44.221752
2074.000000	44.172361
2073.000000	44.117615
2072.000000	44.056894
2071.000000	43.987542
2070.000000	43.908647
2069.000000	43.822675
2068.000000	43.731444
2067.000000	43.633657
2066.000000	43.528695
2065.000000	43.420358
2064.000000	43.313875
2063.000000	43.211455
2062.000000	43.112082
2061.000000	43.013122
2060.000000	42.910973
2059.000000	42.802966
2058.000000	42.690492
2057.000000	42.578451
2056.000000	42.470896
2055.000000	42.369610
2054.000000	42.277162
2053.000000	42.197088
2052.000000	42.129984
2051.000000	42.072905
2050.000000	42.023511
2049.000000	41.981885
2048.000000	41.947457
2047.000000	41.918048
2046.000000	41.893711
2045.000000	41.877157
2044.000000	41.868932
2043.000000	41.866239
2042.000000	41.868006
2041.000000	41.877642
2040.000000	41.898436
2039.000000	41.930319
2038.000000	41.972933
2037.000000	42.027639
2036.000000	42.095185
2035.000000	42.174271
2034.000000	42.263854
2033.000000	42.363758
2032.000000	42.471174
2031.000000	42.580653
2030.000000	42.688318
2029.000000	42.793007
2028.000000	42.893292
2027.000000	42.986687
2026.000000	43.073348
2025.000000	43.156375
2024.000000	43.237901
2023.000000	43.317896
2022.000000	43.397310
2021.000000	43.478471
2020.000000	43.560454
2019.000000	43.638302
2018.000000	43.709172
2017.000000	43.776783
2016.000000	43.847837
2015.000000	43.926774
2014.000000	44.015160
2013.000000	44.112455
2012.000000	44.215084
2011.000000	44.317905
2010.000000	44.418283
2009.000000	44.516611
2008.000000	44.612918
2007.000000	44.705933
2006.000000	44.796586
2005.000000	44.887685
2004.000000	44.980020
2003.000000	45.071226
2002.000000	45.159262
2001.000000	45.244329
2000.000000	45.324946
1999.000000	45.398203
1998.000000	45.464259
1997.000000	45.527666
1996.000000	45.592924
1995.000000	45.659826
1994.000000	45.724852
1993.000000	45.785944
1992.000000	45.845800
1991.000000	45.910780
1990.000000	45.986483
1989.000000	46.073470
1988.000000	46.166747
1987.000000	46.259665
1986.000000	46.349623
1985.000000	46.438548
1984.000000	46.528449
1983.000000	46.619139
1982.000000	46.710499
1981.000000	46.803919
1980.000000	46.898953
1979.000000	46.992774
1978.000000	47.083157
1977.000000	47.170519
1976.000000	47.256566
1975.000000	47.342011
1974.000000	47.427452
1973.000000	47.514522
1972.000000	47.604638
1971.000000	47.696427
1970.000000	47.784473
1969.000000	47.860368
1968.000000	47.915903
1967.000000	47.948510
1966.000000	47.964453
1965.000000	47.973393
1964.000000	47.979909
1963.000000	47.980973
1962.000000	47.971497
1961.000000	47.950907
1960.000000	47.922658
1959.000000	47.890439
1958.000000	47.856890
1957.000000	47.825121
1956.000000	47.798714
1955.000000	47.780856
1954.000000	47.774814
1953.000000	47.783616
1952.000000	47.808845
1951.000000	47.847988
1950.000000	47.895531
1949.000000	47.946140
1948.000000	47.994704
1947.000000	48.036843
1946.000000	48.069690
1945.000000	48.090435
1944.000000	48.094240
1943.000000	48.079049
1942.000000	48.054991
1941.000000	48.040443
1940.000000	48.045996
1939.000000	48.067298
1938.000000	48.091231
1937.000000	48.106360
1936.000000	48.107924
1935.000000	48.095953
1934.000000	48.072743
1933.000000	48.042079
1932.000000	48.009839
1931.000000	47.980880
1930.000000	47.959319
1929.000000	47.948874
1928.000000	47.950562
1927.000000	47.964162
1926.000000	47.985699
1925.000000	48.007653
1924.000000	48.021049
1923.000000	48.023213
1922.000000	48.025372
1921.000000	48.041115
1920.000000	48.071199
1919.000000	48.101451
1918.000000	48.116877
1917.000000	48.117873
1916.000000	48.113611
1915.000000	48.108981
1914.000000	48.102998
1913.000000	48.090798
1912.000000	48.068710
1911.000000	48.037353
1910.000000	48.003768
1909.000000	47.977368
1908.000000	47.963083
1907.000000	47.962707
1906.000000	47.975598
1905.000000	47.999644
1904.000000	48.030853
1903.000000	48.065472
1902.000000	48.107029
1901.000000	48.162193
1900.000000	48.232109
1899.000000	48.313501
1898.000000	48.401637
1897.000000	48.490263
1896.000000	48.571166
1895.000000	48.639775
1894.000000	48.701606
1893.000000	48.764646
1892.000000	48.827705
1891.000000	48.880604
1890.000000	48.917333
1889.000000	48.946521
1888.000000	48.981749
1887.000000	49.027720
1886.000000	49.080752
1885.000000	49.133384
1884.000000	49.179430
1883.000000	49.219074
1882.000000	49.259480
1881.000000	49.307050
1880.000000	49.360685
1879.000000	49.417342
1878.000000	49.476909
1877.000000	49.539033
1876.000000	49.600792
1875.000000	49.659169
1874.000000	49.714933
1873.000000	49.771601
1872.000000	49.829547
1871.000000	49.882813
1870.000000	49.921170
1869.000000	49.942375
1868.000000	49.960512
1867.000000	49.993212
1866.000000	50.049153
1865.000000	50.124692
1864.000000	50.205277
1863.000000	50.276602
1862.000000	50.336474
1861.000000	50.392238
1860.000000	50.449149
1859.000000	50.508052
1858.000000	50.570914
1857.000000	50.638519
1856.000000	50.706121
1855.000000	50.766412
1854.000000	50.817485
1853.000000	50.863995
1852.000000	50.908729
1851.000000	50.955992
1850.000000	51.010735
1849.000000	51.070983
1848.000000	51.130960
1847.000000	51.190606
1846.000000	51.254763
1845.000000	51.314126
1844.000000	51.352571
1843.000000	51.372938
1842.000000	51.394292
1841.000000	51.434148
1840.000000	51.495144
1839.000000	51.562705
1838.000000	51.621089
1837.000000	51.672019
1836.000000	51.726751
1835.000000	51.787240
1834.000000	51.847936
1833.000000	51.904209
1832.000000	51.951614
1831.000000	51.982832
1830.000000	51.998578
1829.000000	52.019713
1828.000000	52.066975
1827.000000	52.141322
1826.000000	52.227857
1825.000000	52.308120
1824.000000	52.376553
1823.000000	52.438903
1822.000000	52.501714
1821.000000	52.565948
1820.000000	52.625244
1819.000000	52.673386
1818.000000	52.711137
1817.000000	52.750204
1816.000000	52.801068
1815.000000	52.859100
1814.000000	52.910957
1813.000000	52.942534
1812.000000	52.946471
1811.000000	52.923926
1810.000000	52.885321
1809.000000	52.848590
1808.000000	52.825319
1807.000000	52.818966
1806.000000	52.832256
1805.000000	52.865957
1804.000000	52.907745
1803.000000	52.933256
1802.000000	52.929531
1801.000000	52.907387
1800.000000	52.891070
1799.000000	52.895136
1798.000000	52.918021
1797.000000	52.953690
1796.000000	52.997191
1795.000000	53.048396
1794.000000	53.104928
1793.000000	53.147757
1792.000000	53.159561
1791.000000	53.150057
1790.000000	53.144765
1789.000000	53.162939
1788.000000	53.203136
1787.000000	53.246773
1786.000000	53.276957
1785.000000	53.297193
1784.000000	53.319508
1783.000000	53.343609
1782.000000	53.364199
1781.000000	53.374824
1780.000000	53.378204
1779.000000	53.387859
1778.000000	53.413176
1777.000000	53.453776
1776.000000	53.502323
1775.000000	53.562368
1774.000000	53.643980
1773.000000	53.737714
1772.000000	53.825320
1771.000000	53.901130
1770.000000	53.966462
1769.000000	54.032299
1768.000000	54.108909
1767.000000	54.190400
1766.000000	54.267818
1765.000000	54.344269
1764.000000	54.425403
1763.000000	54.495160
1762.000000	54.531548
1761.000000	54.542579
1760.000000	54.553153
1759.000000	54.571864
1758.000000	54.596285
1757.000000	54.625095
1756.000000	54.663484
1755.000000	54.717437
1754.000000	54.786716
1753.000000	54.869525
1752.000000	54.948469
1751.000000	54.998838
1750.000000	55.016609
1749.000000	55.027982
1748.000000	55.065158
1747.000000	55.138908
1746.000000	55.234805
1745.000000	55.328012
1744.000000	55.407342
1743.000000	55.472791
1742.000000	55.525229
1741.000000	55.569969
1740.000000	55.613447
1739.000000	55.648141
1738.000000	55.661177
1737.000000	55.665659
1736.000000	55.701643
1735.000000	55.759847
1734.000000	55.796042
1733.000000	55.814981
1732.000000	55.823262
1731.000000	55.819232
1730.000000	55.814361
1729.000000	55.810622
1728.000000	55.806084
1727.000000	55.807423
1726.000000	55.821267
1725.000000	55.842418
1724.000000	55.871121
1723.000000	55.911998
1722.000000	55.959863
1721.000000	56.005778
1720.000000	56.050039
1719.000000	56.082882
1718.000000	56.077980
1717.000000	56.050252
1716.000000	56.034242
1715.000000	56.042135
1714.000000	56.088881
1713.000000	56.178637
1712.000000	56.288861
1711.000000	56.394564
1710.000000	56.489059
1709.000000	56.570321
1708.000000	56.629824
1707.000000	56.671259
1706.000000	56.711600
1705.000000	56.764542
1704.000000	56.818325
1703.000000	56.873501
1702.000000	56.979608
1701.000000	57.139252
1700.000000	57.287806
1699.000000	57.372947
1698.000000	57.401342
1697.000000	57.451764
1696.000000	57.571960
1695.000000	57.716423
1694.000000	57.826625
1693.000000	57.905402
1692.000000	58.002820
1691.000000	58.132831
1690.000000	58.253287
1689.000000	58.325640
1688.000000	58.353055
1687.000000	58.380476
1686.000000	58.447256
1685.000000	58.505877
1684.000000	58.519071
1683.000000	58.539659
1682.000000	58.577459
1681.000000	58.619165
1680.000000	58.674263
1679.000000	58.730369
1678.000000	58.769176
1677.000000	58.784948
1676.000000	58.779362
1675.000000	58.764261
1674.000000	58.751609
1673.000000	58.728748
1672.000000	58.706380
1671.000000	58.713771
1670.000000	58.749334
1669.000000	58.795853
1668.000000	58.838321
1667.000000	58.870516
1666.000000	58.889053
1665.000000	58.889221
1664.000000	58.866635
1663.000000	58.825153
1662.000000	58.782570
1661.000000	58.732058
1660.000000	58.658273
1659.000000	58.573975
1658.000000	58.475811
1657.000000	58.328063
1656.000000	58.106279
1655.000000	57.827372
1654.000000	57.405354
1653.000000	56.811383
1652.000000	56.216022
1651.000000	55.622059
1650.000000	54.917027
1649.000000	54.004225
1648.000000	52.681070
1647.000000	50.785853
1646.000000	48.418306
1645.000000	45.803614
1644.000000	43.007411
1643.000000	39.961224
1642.000000	36.632475
1641.000000	33.129754
1640.000000	29.731743
1639.000000	26.725363
1638.000000	24.224762
1637.000000	22.215338
1636.000000	20.779959
1635.000000	20.130284
1634.000000	20.276402
1633.000000	21.006009
1632.000000	22.133991
1631.000000	23.554994
1630.000000	25.199846
1629.000000	27.008652
1628.000000	28.909590
1627.000000	30.788182
1626.000000	32.563903
1625.000000	34.280063
1624.000000	36.028228
1623.000000	37.788604
1622.000000	39.419272
1621.000000	40.829748
1620.000000	42.065808
1619.000000	43.232304
1618.000000	44.402167
1617.000000	45.580190
1616.000000	46.689186
1615.000000	47.613639
1614.000000	48.328402
1613.000000	48.924166
1612.000000	49.484067
1611.000000	49.993931
1610.000000	50.383971
1609.000000	50.623827
1608.000000	50.713579
1607.000000	50.613202
1606.000000	50.254165
1605.000000	49.590571
1604.000000	48.611577
1603.000000	47.316262
1602.000000	45.733479
1601.000000	43.974462
1600.000000	42.212891
1599.000000	40.610279
1598.000000	39.260869
1597.000000	38.198196
1596.000000	37.415947
1595.000000	36.860390
1594.000000	36.428939
1593.000000	36.022297
1592.000000	35.593207
1591.000000	35.124991
1590.000000	34.598731
1589.000000	34.003307
1588.000000	33.349689
1587.000000	32.637932
1586.000000	31.835608
1585.000000	30.918548
1584.000000	29.908233
1583.000000	28.846195
1582.000000	27.750579
1581.000000	26.634281
1580.000000	25.533171
1579.000000	24.448496
1578.000000	23.265818
1577.000000	21.801977
1576.000000	20.080658
1575.000000	18.440201
1574.000000	17.131496
1573.000000	16.092481
1572.000000	15.178485
1571.000000	14.322907
1570.000000	13.546940
1569.000000	12.924646
1568.000000	12.522092
1567.000000	12.354610
1566.000000	12.371533
1565.000000	12.493398
1564.000000	12.684140
1563.000000	12.964888
1562.000000	13.358119
1561.000000	13.867329
1560.000000	14.511539
1559.000000	15.328316
1558.000000	16.229065
1557.000000	17.020176
1556.000000	17.666843
1555.000000	18.252548
1554.000000	18.799295
1553.000000	19.264677
1552.000000	19.636173
1551.000000	19.972561
1550.000000	20.339116
1549.000000	20.766549
1548.000000	21.271704
1547.000000	21.884589
1546.000000	22.619037
1545.000000	23.431225
1544.000000	24.258538
1543.000000	25.085568
1542.000000	25.933541
1541.000000	26.800778
1540.000000	27.670523
1539.000000	28.531300
1538.000000	29.333175
1537.000000	30.040117
1536.000000	30.702111
1535.000000	31.396911
1534.000000	32.142272
1533.000000	32.883906
1532.000000	33.581410
1531.000000	34.253251
1530.000000	34.923944
1529.000000	35.582680
1528.000000	36.209317
1527.000000	36.806153
1526.000000	37.375523
1525.000000	37.899084
1524.000000	38.377704
1523.000000	38.848208
1522.000000	39.317478
1521.000000	39.751859
1520.000000	40.142150
1519.000000	40.517287
1518.000000	40.898087
1517.000000	41.269996
1516.000000	41.623796
1515.000000	41.979672
1514.000000	42.348847
1513.000000	42.719850
1512.000000	43.078929
1511.000000	43.424714
1510.000000	43.753011
1509.000000	44.052894
1508.000000	44.308488
1507.000000	44.549208
1506.000000	44.871501
1505.000000	45.259133
1504.000000	45.619091
1503.000000	45.951270
1502.000000	46.277186
1501.000000	46.580919
1500.000000	46.849149
1499.000000	47.103317
1498.000000	47.361119
1497.000000	47.616263
1496.000000	47.880590
1495.000000	48.169326
1494.000000	48.460857
1493.000000	48.728625
1492.000000	48.976625
1491.000000	49.209939
1490.000000	49.408901
1489.000000	49.568512
1488.000000	49.726683
1487.000000	49.915305
1486.000000	50.104451
1485.000000	50.229340
1484.000000	50.253516
1483.000000	50.167990
1482.000000	49.936131
1481.000000	49.515034
1480.000000	48.910966
1479.000000	48.113669
1478.000000	47.004474
1477.000000	45.448637
1476.000000	43.474109
1475.000000	41.219778
1474.000000	38.737804
1473.000000	36.085295
1472.000000	33.596561
1471.000000	31.673609
1470.000000	30.383283
1469.000000	29.569718
1468.000000	29.134297
1467.000000	29.084457
1466.000000	29.466558
1465.000000	30.271406
1464.000000	31.355299
1463.000000	32.468413
1462.000000	33.388210
1461.000000	33.998719
1460.000000	34.248351
1459.000000	34.082861
1458.000000	33.414440
1457.000000	32.336362
1456.000000	31.278112
1455.000000	30.564876
1454.000000	30.152387
1453.000000	29.891196
1452.000000	29.701164
1451.000000	29.566563
1450.000000	29.497804
1449.000000	29.517219
1448.000000	29.647356
1447.000000	29.878850
1446.000000	30.177687
1445.000000	30.528964
1444.000000	30.953129
1443.000000	31.483654
1442.000000	32.147360
1441.000000	32.967048
1440.000000	33.960186
1439.000000	35.145979
1438.000000	36.539177
1437.000000	38.084023
1436.000000	39.594106
1435.000000	40.871805
1434.000000	41.894000
1433.000000	42.763965
1432.000000	43.548604
1431.000000	44.243529
1430.000000	44.840146
1429.000000	45.360812
1428.000000	45.824499
1427.000000	46.232186
1426.000000	46.595921
1425.000000	46.931634
1424.000000	47.243697
1423.000000	47.539532
1422.000000	47.840609
1421.000000	48.164530
1420.000000	48.482865
1419.000000	48.749115
1418.000000	48.973981
1417.000000	49.202597
1416.000000	49.454636
1415.000000	49.725684
1414.000000	50.006803
1413.000000	50.289909
1412.000000	50.565169
1411.000000	50.827010
1410.000000	51.082989
1409.000000	51.345539
1408.000000	51.612306
1407.000000	51.866006
1406.000000	52.098954
1405.000000	52.315767
1404.000000	52.512843
1403.000000	52.669238
1402.000000	52.746111
1401.000000	52.675115
1400.000000	52.366587
1399.000000	51.816708
1398.000000	51.192430
1397.000000	50.730475
1396.000000	50.581918
1395.000000	50.750575
1394.000000	51.107957
1393.000000	51.490768
1392.000000	51.829630
1391.000000	52.171812
1390.000000	52.598949
1389.000000	53.147863
1388.000000	53.787819
1387.000000	54.449191
1386.000000	55.070701
1385.000000	55.621700
1384.000000	56.095874
1383.000000	56.500026
1382.000000	56.848769
1381.000000	57.156565
1380.000000	57.421858
1379.000000	57.623547
1378.000000	57.728510
1377.000000	57.669425
1376.000000	57.278361
1375.000000	56.249415
1374.000000	54.221343
1373.000000	50.978944
1372.000000	46.632875
1371.000000	41.679199
1370.000000	36.959157
1369.000000	33.458522
1368.000000	31.864544
1367.000000	32.144753
1366.000000	33.611859
1365.000000	35.367008
1364.000000	36.635807
1363.000000	36.931693
1362.000000	36.215059
1361.000000	34.964053
1360.000000	33.962759
1359.000000	33.921366
1358.000000	35.155419
1357.000000	37.453734
1356.000000	40.249643
1355.000000	42.975315
1354.000000	45.316668
1353.000000	47.226337
1352.000000	48.779138
1351.000000	50.057178
1350.000000	51.123964
1349.000000	52.022597
1348.000000	52.776380
1347.000000	53.408558
1346.000000	53.955844
1345.000000	54.455484
1344.000000	54.929513
1343.000000	55.387738
1342.000000	55.838425
1341.000000	56.280985
1340.000000	56.698522
1339.000000	57.078280
1338.000000	57.426713
1337.000000	57.753990
1336.000000	58.053639
1335.000000	58.305020
1334.000000	58.480385
1333.000000	58.518642
1332.000000	58.300787
1331.000000	57.674927
1330.000000	56.524376
1329.000000	54.826244
1328.000000	52.628724
1327.000000	49.984894
1326.000000	46.941132
1325.000000	43.643858
1324.000000	40.492922
1323.000000	38.096132
1322.000000	36.927145
1321.000000	36.988324
1320.000000	37.833329
1319.000000	38.910796
1318.000000	39.897968
1317.000000	40.745271
1316.000000	41.509824
1315.000000	42.237718
1314.000000	42.969684
1313.000000	43.785185
1312.000000	44.784870
1311.000000	46.017145
1310.000000	47.422786
1309.000000	48.846063
1308.000000	50.100703
1307.000000	51.044126
1306.000000	51.612811
1305.000000	51.791519
1304.000000	51.571750
1303.000000	50.939226
1302.000000	49.888529
1301.000000	48.465625
1300.000000	46.819733
1299.000000	45.224486
1298.000000	43.994500
1297.000000	43.320770
1296.000000	43.161411
1295.000000	43.272972
1294.000000	43.337940
1293.000000	43.084776
1292.000000	42.352481
1291.000000	41.100697
1290.000000	39.370169
1289.000000	37.246732
1288.000000	34.891760
1287.000000	32.602326
1286.000000	30.769484
1285.000000	29.707661
1284.000000	29.502002
1283.000000	30.015441
1282.000000	31.043911
1281.000000	32.446241
1280.000000	34.130982
1279.000000	35.940470
1278.000000	37.594570
1277.000000	38.789672
1276.000000	39.353810
1275.000000	39.316847
1274.000000	38.872672
1273.000000	38.308059
1272.000000	37.945907
1271.000000	38.076434
1270.000000	38.855579
1269.000000	40.233356
1268.000000	41.987332
1267.000000	43.846680
1266.000000	45.606646
1265.000000	47.168756
1264.000000	48.517361
1263.000000	49.677856
1262.000000	50.686892
1261.000000	51.574558
1260.000000	52.356900
1259.000000	53.042603
1258.000000	53.647425
1257.000000	54.187629
1256.000000	54.670790
1255.000000	55.103142
1254.000000	55.498372
1253.000000	55.873727
1252.000000	56.237728
1251.000000	56.592977
1250.000000	56.945062
1249.000000	57.296979
1248.000000	57.641174
1247.000000	57.966481
1246.000000	58.270301
1245.000000	58.555681
1244.000000	58.821303
1243.000000	59.065967
1242.000000	59.296840
1241.000000	59.521660
1240.000000	59.736542
1239.000000	59.929853
1238.000000	60.095124
1237.000000	60.228286
1236.000000	60.318624
1235.000000	60.356903
1234.000000	60.347235
1233.000000	60.302407
1232.000000	60.230023
1231.000000	60.132431
1230.000000	60.014616
1229.000000	59.873501
1228.000000	59.685905
1227.000000	59.414247
1226.000000	59.017711
1225.000000	58.455254
1224.000000	57.674198
1223.000000	56.620242
1222.000000	55.253789
1221.000000	53.548353
1220.000000	51.501853
1219.000000	49.151197
1218.000000	46.581410
1217.000000	43.910591
1216.000000	41.269064
1215.000000	38.794426
1214.000000	36.628982
1213.000000	34.904213
1212.000000	33.719510
1211.000000	33.124366
1210.000000	33.078402
1209.000000	33.445885
1208.000000	34.030763
1207.000000	34.623135
1206.000000	35.046186
1205.000000	35.178080
1204.000000	34.960510
1203.000000	34.399225
1202.000000	33.560618
1201.000000	32.568498
1200.000000	31.599311
1199.000000	30.856174
1198.000000	30.510502
1197.000000	30.641752
1196.000000	31.230626
1195.000000	32.188935
1194.000000	33.404591
1193.000000	34.780933
1192.000000	36.247584
1191.000000	37.764175
1190.000000	39.306008
1189.000000	40.851143
1188.000000	42.376636
1187.000000	43.856880
1186.000000	45.265253
1185.000000	46.577456
1184.000000	47.775624
1183.000000	48.850088
1182.000000	49.803409
1181.000000	50.642898
1180.000000	51.376527
1179.000000	52.018721
1178.000000	52.587745
1177.000000	53.097067
1176.000000	53.539782
1175.000000	53.891431
1174.000000	54.123632
1173.000000	54.197449
1172.000000	54.062798
1171.000000	53.660828
1170.000000	52.934690
1169.000000	51.841458
1168.000000	50.358672
1167.000000	48.522960
1166.000000	46.462456
1165.000000	44.393155
1164.000000	42.577537
1163.000000	41.262578
1162.000000	40.603805
1161.000000	40.622959
1160.000000	41.224704
1159.000000	42.238787
1158.000000	43.483422
1157.000000	44.797965
1156.000000	46.057936
1155.000000	47.181987
1154.000000	48.125210
1153.000000	48.866445
1152.000000	49.393911
1151.000000	49.700566
1150.000000	49.779328
1149.000000	49.624394
1148.000000	49.213359
1147.000000	48.507937
1146.000000	47.462434
1145.000000	46.012712
1144.000000	44.093857
1143.000000	41.661968
1142.000000	38.737647
1141.000000	35.445501
1140.000000	32.016598
1139.000000	28.746066
1138.000000	25.888670
1137.000000	23.556786
1136.000000	21.696794
1135.000000	20.167176
1134.000000	18.841265
1133.000000	17.710978
1132.000000	16.927932
1131.000000	16.731786
1130.000000	17.338440
1129.000000	18.813225
1128.000000	21.030656
1127.000000	23.700648
1126.000000	26.422363
1125.000000	28.762380
1124.000000	30.335013
1123.000000	30.875139
1122.000000	30.294753
1121.000000	28.707824
1120.000000	26.362625
1119.000000	23.569223
1118.000000	20.667087
1117.000000	18.040491
1116.000000	16.118522
1115.000000	15.279848
1114.000000	15.689926
1113.000000	17.205393
1112.000000	19.413392
1111.000000	21.734487
1110.000000	23.612021
1109.000000	24.740724
1108.000000	25.212752
1107.000000	25.443419
1106.000000	25.887515
1105.000000	26.765414
1104.000000	27.980364
1103.000000	29.207885
1102.000000	30.021250
1101.000000	30.044022
1100.000000	29.120270
1099.000000	27.459235
1098.000000	25.627356
1097.000000	24.331826
1096.000000	24.107371
1095.000000	25.099993
1094.000000	27.057239
1093.000000	29.507989
1092.000000	32.013331
1091.000000	34.303065
1090.000000	36.282853
1089.000000	37.968537
1088.000000	39.417829
1087.000000	40.699602
1086.000000	41.879355
1085.000000	43.002659
1084.000000	44.084563
1083.000000	45.124768
1082.000000	46.118699
1081.000000	47.060486
1080.000000	47.939699
1079.000000	48.741300
1078.000000	49.454481
1077.000000	50.058785
1076.000000	50.513269
1075.000000	50.759308
1074.000000	50.712381
1073.000000	50.263883
1072.000000	49.255418
1071.000000	47.492871
1070.000000	44.793815
1069.000000	41.025112
1068.000000	36.208025
1067.000000	30.613887
1066.000000	24.795009
1065.000000	19.473964
1064.000000	15.317937
1063.000000	12.680533
1062.000000	11.437878
1061.000000	11.040680
1060.000000	10.788048
1059.000000	10.203944
1058.000000	9.237474
1057.000000	8.231898
1056.000000	7.685292
1055.000000	7.942403
1054.000000	9.051595
1053.000000	10.806367
1052.000000	12.908919
1051.000000	15.107470
1050.000000	17.235247
1049.000000	19.219362
1048.000000	21.058580
1047.000000	22.783698
1046.000000	24.414583
1045.000000	25.946938
1044.000000	27.364007
1043.000000	28.653765
1042.000000	29.814932
1041.000000	30.853114
1040.000000	31.783593
1039.000000	32.624028
1038.000000	33.387630
1037.000000	34.080174
1036.000000	34.699590
1035.000000	35.244618
1034.000000	35.715060
1033.000000	36.112374
1032.000000	36.443368
1031.000000	36.721327
1030.000000	36.966808
1029.000000	37.199907
1028.000000	37.432900
1027.000000	37.667675
1026.000000	37.892454
1025.000000	38.084155
1024.000000	38.212850
1023.000000	38.250148
1022.000000	38.178251
1021.000000	37.984891
1020.000000	37.661055
1019.000000	37.194495
1018.000000	36.560504
1017.000000	35.721768
1016.000000	34.629708
1015.000000	33.255743
1014.000000	31.628563
1013.000000	29.860304
1012.000000	28.142488
1011.000000	26.687479
1010.000000	25.626612
1009.000000	24.924547
1008.000000	24.395933
1007.000000	23.837227
1006.000000	23.210257
1005.000000	22.719048
1004.000000	22.701054
1003.000000	23.398192
1002.000000	24.772848
1001.000000	26.535395
1000.000000	28.310771
999.000000	29.796387
998.000000	30.823654
997.000000	31.343344
996.000000	31.402638
995.000000	31.136934
994.000000	30.760279
993.000000	30.524908
992.000000	30.650060
991.000000	31.238997
990.000000	32.235225
989.000000	33.463191
988.000000	34.733517
987.000000	35.920957
986.000000	36.980733
985.000000	37.918573
984.000000	38.755344
983.000000	39.509901
982.000000	40.194921
981.000000	40.816110
980.000000	41.375447
979.000000	41.880029
978.000000	42.340549
977.000000	42.767417
976.000000	43.167825
975.000000	43.546951
974.000000	43.910287
973.000000	44.259388
972.000000	44.592056
971.000000	44.907471
970.000000	45.208580
969.000000	45.498998
968.000000	45.779360
967.000000	46.050326
966.000000	46.315049
965.000000	46.575021
964.000000	46.827451
963.000000	47.068806
962.000000	47.299185
961.000000	47.520334
960.000000	47.732558
959.000000	47.938237
958.000000	48.144390
957.000000	48.357576
956.000000	48.578071
955.000000	48.802114
954.000000	49.026861
953.000000	49.248824
952.000000	49.461707
951.000000	49.661793
950.000000	49.853307
949.000000	50.043988
948.000000	50.237985
947.000000	50.437204
946.000000	50.645439
945.000000	50.863854
944.000000	51.085159
943.000000	51.298204
942.000000	51.497042
941.000000	51.680971
940.000000	51.849472
939.000000	52.005111
938.000000	52.158585
937.000000	52.322715
936.000000	52.501954
935.000000	52.692652
934.000000	52.890120
933.000000	53.088289
932.000000	53.275853
931.000000	53.442683
930.000000	53.589614
929.000000	53.725963
928.000000	53.859584
927.000000	53.996281
926.000000	54.145175
925.000000	54.313629
924.000000	54.497204
923.000000	54.682399
922.000000	54.858609
921.000000	55.020546
920.000000	55.162695
919.000000	55.282696
918.000000	55.390004
917.000000	55.501290
916.000000	55.627329
915.000000	55.771078
914.000000	55.934035
913.000000	56.113518
912.000000	56.293184
911.000000	56.448754
910.000000	56.558795
909.000000	56.596642
908.000000	56.515094
907.000000	56.244525
906.000000	55.716764
905.000000	54.876118
904.000000	53.690004
903.000000	52.201479
902.000000	50.599563
901.000000	49.220169
900.000000	48.424388
899.000000	48.415633
898.000000	49.128244
897.000000	50.290790
896.000000	51.585288
895.000000	52.786939
894.000000	53.810406
893.000000	54.659177
892.000000	55.366503
891.000000	55.963140
890.000000	56.473022
889.000000	56.907358
888.000000	57.264263
887.000000	57.525441
886.000000	57.649943
885.000000	57.567348
884.000000	57.201749
883.000000	56.553984
882.000000	55.751051
881.000000	54.979992
880.000000	54.337429
879.000000	53.753543
878.000000	53.096585
877.000000	52.358012
876.000000	51.734182
875.000000	51.504974
874.000000	51.830002
873.000000	52.636384
872.000000	53.685635
871.000000	54.733480
870.000000	55.641394
869.000000	56.382191
868.000000	56.978999
867.000000	57.462810
866.000000	57.861562
865.000000	58.198709
864.000000	58.486200
863.000000	58.730377
862.000000	58.943176
861.000000	59.140261
860.000000	59.331516
859.000000	59.519339
858.000000	59.706913
857.000000	59.897041
856.000000	60.083848
855.000000	60.256566
854.000000	60.410703
853.000000	60.548555
852.000000	60.670979
851.000000	60.778981
850.000000	60.882500
849.000000	60.996499
848.000000	61.128495
847.000000	61.277687
846.000000	61.443337
845.000000	61.622786
844.000000	61.802955
843.000000	61.965973
842.000000	62.104402
841.000000	62.222148
840.000000	62.323874
839.000000	62.415823
838.000000	62.514812
837.000000	62.641707
836.000000	62.803321
835.000000	62.989886
834.000000	63.188454
833.000000	63.387893
832.000000	63.573235
831.000000	63.731043
830.000000	63.864211
829.000000	63.991540
828.000000	64.131846
827.000000	64.298179
826.000000	64.504218
825.000000	64.758363
824.000000	65.048284
823.000000	65.344623
822.000000	65.622459
821.000000	65.868588
820.000000	66.073093
819.000000	66.232996
818.000000	66.364954
817.000000	66.498260
816.000000	66.651647
815.000000	66.826401
814.000000	67.016601
813.000000	67.206912
812.000000	67.361510
811.000000	67.430836
810.000000	67.376496
809.000000	67.181360
808.000000	66.833953
807.000000	66.324271
806.000000	65.645090
805.000000	64.778919
804.000000	63.680634
803.000000	62.275943
802.000000	60.493429
801.000000	58.280915
800.000000	55.615226
799.000000	52.527783
798.000000	49.118797
797.000000	45.545105
796.000000	41.976926
795.000000	38.569993
794.000000	35.456263
793.000000	32.743003
792.000000	30.507196
791.000000	28.796184
790.000000	27.638474
789.000000	27.037900
788.000000	26.970906
787.000000	27.375192
786.000000	28.159692
785.000000	29.220540
784.000000	30.439589
783.000000	31.690567
782.000000	32.849341
781.000000	33.809629
780.000000	34.488386
779.000000	34.839232
778.000000	34.870460
777.000000	34.641042
776.000000	34.224772
775.000000	33.677640
774.000000	33.047289
773.000000	32.400950
772.000000	31.842756
771.000000	31.501639
770.000000	31.503431
769.000000	31.928252
768.000000	32.776838
767.000000	33.971210
766.000000	35.394418
765.000000	36.936378
764.000000	38.507082
763.000000	40.040723
762.000000	41.503145
761.000000	42.889909
760.000000	44.204708
759.000000	45.444923
758.000000	46.610500
757.000000	47.708910
756.000000	48.743910
755.000000	49.710741
754.000000	50.611650
753.000000	51.460759
752.000000	52.267664
751.000000	53.030756
750.000000	53.751364
749.000000	54.439768
748.000000	55.098366
747.000000	55.714886
746.000000	56.280760
745.000000	56.800946
744.000000	57.280314
743.000000	57.716704
742.000000	58.114662
741.000000	58.489109
740.000000	58.845553
739.000000	59.172018
738.000000	59.456805
737.000000	59.697078
736.000000	59.884376
735.000000	60.000197
734.000000	60.036843
733.000000	60.007155
732.000000	59.928426
731.000000	59.814926
730.000000	59.690297
729.000000	59.584186
728.000000	59.502922
727.000000	59.416436
726.000000	59.280857
725.000000	59.056134
724.000000	58.691969
723.000000	58.115659
722.000000	57.245099
721.000000	56.010370
720.000000	54.368593
719.000000	52.331097
718.000000	49.999733
717.000000	47.574305
716.000000	45.309838
715.000000	43.449442
714.000000	42.178000
713.000000	41.591622
712.000000	41.673545
711.000000	42.305281
710.000000	43.330335
709.000000	44.611662
708.000000	46.034172
707.000000	47.494019
706.000000	48.921010
705.000000	50.294775
704.000000	51.612883
703.000000	52.864918
702.000000	54.049821
701.000000	55.184805
700.000000	56.272415
699.000000	57.282244
698.000000	58.185405
697.000000	58.983258
696.000000	59.684358
695.000000	60.287820
694.000000	60.812514
693.000000	61.310131
692.000000	61.822415
691.000000	62.348537
690.000000	62.874351
689.000000	63.398001
688.000000	63.900308
687.000000	64.331403
686.000000	64.662743
685.000000	64.919414
684.000000	65.136604
683.000000	65.325248
682.000000	65.509204
681.000000	65.742457
680.000000	66.047075
679.000000	66.381309
678.000000	66.699583
677.000000	66.977582
676.000000	67.193527
675.000000	67.326164
674.000000	67.398456
673.000000	67.521721
672.000000	67.915408
671.000000	68.829910
670.000000	70.309136
669.000000	71.932184
668.000000	72.939216
667.000000	72.719793
666.000000	71.456416
665.000000	70.114140
664.000000	69.298009
663.000000	68.982692
662.000000	68.924851
661.000000	68.963664
660.000000	69.065909
659.000000	69.236421
658.000000	69.460712
657.000000	69.690134
656.000000	69.872633
655.000000	69.983389
654.000000	70.017591
653.000000	69.972382
652.000000	69.870588
651.000000	69.774171
650.000000	69.739002
649.000000	69.775471
648.000000	69.866796
647.000000	69.992405
646.000000	70.114143
645.000000	70.174529
644.000000	70.135248
643.000000	70.003198
642.000000	69.812475
641.000000	69.598179
640.000000	69.399695
639.000000	69.263117
638.000000	69.210265
637.000000	69.213923
636.000000	69.220755
635.000000	69.184852
634.000000	69.071717
633.000000	68.857089
632.000000	68.545851
631.000000	68.183850
630.000000	67.830441
629.000000	67.520718
628.000000	67.262265
627.000000	67.047774
626.000000	66.849380
625.000000	66.615679
624.000000	66.298121
623.000000	65.878954
622.000000	65.366907
621.000000	64.780623
620.000000	64.148251
619.000000	63.505029
618.000000	62.868937
617.000000	62.220677
616.000000	61.525209
615.000000	60.758608
614.000000	59.896642
613.000000	58.902921
612.000000	57.754695
611.000000	56.470011
610.000000	55.083320
609.000000	53.608666
608.000000	52.052773
607.000000	50.434826
606.000000	48.758875
605.000000	46.991535
604.000000	45.104580
603.000000	43.119908
602.000000	41.074505
601.000000	38.978134
600.000000	36.850160
599.000000	34.759548
598.000000	32.770095
597.000000	30.885897
596.000000	29.100541
595.000000	27.448465
594.000000	25.955224
593.000000	24.583318
592.000000	23.301044
591.000000	22.144250
590.000000	21.147464
589.000000	20.273867
588.000000	19.467446
587.000000	18.715284
586.000000	17.994346
585.000000	17.227294
584.000000	16.365314
583.000000	15.460051
582.000000	14.595461
581.000000	13.813021
580.000000	13.158109
579.000000	12.731576
578.000000	12.607165
577.000000	12.762450
576.000000	13.138488
575.000000	13.687951
574.000000	14.321208
573.000000	14.887914
572.000000	15.296850
571.000000	15.607443
570.000000	15.959570
569.000000	16.457734
568.000000	17.151047
567.000000	18.044792
566.000000	19.063883
565.000000	20.066992
564.000000	20.957923
563.000000	21.741293
562.000000	22.449927
561.000000	23.083353
560.000000	23.650785
559.000000	24.205892
558.000000	24.787824
557.000000	25.378378
556.000000	25.953986
555.000000	26.532407
554.000000	27.126040
553.000000	27.705902
552.000000	28.253656
551.000000	28.801842
550.000000	29.382033
549.000000	29.976804
548.000000	30.561693
547.000000	31.148026
546.000000	31.746391
545.000000	32.329302
544.000000	32.870452
543.000000	33.383041
542.000000	33.888029
541.000000	34.378878
540.000000	34.850902
539.000000	35.328836
538.000000	35.831957
537.000000	36.341339
536.000000	36.828140
535.000000	37.288237
534.000000	37.720979
533.000000	38.107853
532.000000	38.435282
531.000000	38.714900
530.000000	38.958742
529.000000	39.151610
528.000000	39.262752
527.000000	39.270440
526.000000	39.144598
525.000000	38.837696
524.000000	38.327060
523.000000	37.653066
522.000000	36.910013
521.000000	36.200795
520.000000	35.595406
519.000000	35.079217
518.000000	34.492292
517.000000	33.572801
516.000000	32.126123
515.000000	30.177202
514.000000	27.957081
513.000000	25.784015
512.000000	23.966961
511.000000	22.747637
510.000000	22.226128
509.000000	22.344107
508.000000	22.989791
507.000000	24.057201
506.000000	25.411436
505.000000	26.891001
504.000000	28.384760
503.000000	29.863336
502.000000	31.298712
501.000000	32.630582
500.000000	33.829113
499.000000	34.928606
498.000000	35.966469
497.000000	36.940323
496.000000	37.840582
495.000000	38.682633
494.000000	39.488820
493.000000	40.261303
492.000000	41.003142
491.000000	41.740234
490.000000	42.492513
489.000000	43.248955
488.000000	43.980643
487.000000	44.667199
486.000000	45.297523
485.000000	45.863587
484.000000	46.374873
483.000000	46.863693
482.000000	47.361534
481.000000	47.878106
480.000000	48.409522
479.000000	48.947988
478.000000	49.459138
477.000000	49.878746
476.000000	50.147059
475.000000	50.212768
474.000000	49.998693
473.000000	49.396011
472.000000	48.357732
471.000000	47.003651
470.000000	45.575659
469.000000	44.333044
468.000000	43.497629
467.000000	43.154376
466.000000	43.100693
465.000000	42.888971
464.000000	42.116122
463.000000	40.704803
462.000000	38.994758
461.000000	37.559887
460.000000	36.935372
459.000000	37.434278
458.000000	38.994175
457.000000	41.125060
456.000000	43.233994
455.000000	45.040992
454.000000	46.537872
453.000000	47.758807
452.000000	48.723747
451.000000	49.488529
450.000000	50.080202
449.000000	50.409451
448.000000	50.306204
447.000000	49.640450
446.000000	48.430537
445.000000	46.860610
444.000000	45.267524
443.000000	44.075737
442.000000	43.597655
441.000000	43.847337
440.000000	44.624914
439.000000	45.700887
438.000000	46.868381
437.000000	47.942555
436.000000	48.796468
435.000000	49.399426
434.000000	49.778152
433.000000	49.965818
432.000000	50.008110
431.000000	49.984845
430.000000	49.968353
429.000000	49.964584
428.000000	49.941973
427.000000	49.884838
426.000000	49.778573
425.000000	49.572900
424.000000	49.236551
423.000000	48.840647
422.000000	48.495130
421.000000	48.228661
420.000000	48.011539
419.000000	47.870238
418.000000	47.862755
417.000000	47.925096
416.000000	47.949205
415.000000	47.916006
414.000000	47.846983
413.000000	47.746392
412.000000	47.651536
411.000000	47.663297
410.000000	47.853193
409.000000	48.157731
408.000000	48.463049
407.000000	48.741607
406.000000	49.012908
405.000000	49.243199
404.000000	49.398893
403.000000	49.543390
402.000000	49.773436
401.000000	50.106908
400.000000	50.478802
