PE IR       SUBTECH     SPECTRUM    ASCII       PEDS        4.00        
   -1
23MS154-trans.asc
24/09/23
16:39:22.00
24/09/23
16:39:22.00
Administrator
Sample 1191 By Administrator Date Monday, September 23 2024
400.000000
#HDR
-1
-1
#GR
cm-1
%T
1.0
0.0
4000.000000
-1.000000
3601
8
68.639062
4.309158
#DATA
4000.000000	34.011697
3999.000000	33.986670
3998.000000	33.961003
3997.000000	33.934861
3996.000000	33.908535
3995.000000	33.882135
3994.000000	33.855184
3993.000000	33.826724
3992.000000	33.795924
3991.000000	33.762643
3990.000000	33.727657
3989.000000	33.692184
3988.000000	33.657219
3987.000000	33.623515
3986.000000	33.591842
3985.000000	33.562898
3984.000000	33.536758
3983.000000	33.512680
3982.000000	33.489467
3981.000000	33.465919
3980.000000	33.441445
3979.000000	33.416623
3978.000000	33.393389
3977.000000	33.374710
3976.000000	33.363799
3975.000000	33.363197
3974.000000	33.374066
3973.000000	33.396219
3972.000000	33.428671
3971.000000	33.469941
3970.000000	33.518482
3969.000000	33.572776
3968.000000	33.630960
3967.000000	33.690691
3966.000000	33.749408
3965.000000	33.804913
3964.000000	33.855823
3963.000000	33.901758
3962.000000	33.942748
3961.000000	33.978783
3960.000000	34.010388
3959.000000	34.038573
3958.000000	34.065122
3957.000000	34.092680
3956.000000	34.123474
3955.000000	34.158685
3954.000000	34.198339
3953.000000	34.241979
3952.000000	34.288919
3951.000000	34.338150
3950.000000	34.389686
3949.000000	34.444318
3948.000000	34.501578
3947.000000	34.559387
3946.000000	34.616564
3945.000000	34.674774
3944.000000	34.736291
3943.000000	34.801293
3942.000000	34.866468
3941.000000	34.926716
3940.000000	34.980566
3939.000000	35.030714
3938.000000	35.080044
3937.000000	35.128642
3936.000000	35.173011
3935.000000	35.209613
3934.000000	35.237590
3933.000000	35.259852
3932.000000	35.280773
3931.000000	35.301978
3930.000000	35.323000
3929.000000	35.342382
3928.000000	35.359992
3927.000000	35.379078
3926.000000	35.402551
3925.000000	35.429730
3924.000000	35.456504
3923.000000	35.478419
3922.000000	35.495050
3921.000000	35.508564
3920.000000	35.521035
3919.000000	35.534762
3918.000000	35.552393
3917.000000	35.576148
3916.000000	35.605798
3915.000000	35.639895
3914.000000	35.678074
3913.000000	35.719700
3912.000000	35.765277
3911.000000	35.814525
3910.000000	35.864144
3909.000000	35.909871
3908.000000	35.947751
3907.000000	35.978433
3906.000000	36.005766
3905.000000	36.031253
3904.000000	36.051503
3903.000000	36.059709
3902.000000	36.055916
3901.000000	36.052882
3900.000000	36.065336
3899.000000	36.099425
3898.000000	36.149407
3897.000000	36.202569
3896.000000	36.250412
3895.000000	36.289538
3894.000000	36.319959
3893.000000	36.345578
3892.000000	36.373384
3891.000000	36.404889
3890.000000	36.428362
3889.000000	36.434722
3888.000000	36.428519
3887.000000	36.421630
3886.000000	36.429213
3885.000000	36.453833
3884.000000	36.476684
3883.000000	36.481944
3882.000000	36.476677
3881.000000	36.482279
3880.000000	36.510841
3879.000000	36.548710
3878.000000	36.573746
3877.000000	36.582514
3876.000000	36.588852
3875.000000	36.606359
3874.000000	36.631557
3873.000000	36.646812
3872.000000	36.641706
3871.000000	36.625588
3870.000000	36.620532
3869.000000	36.632473
3868.000000	36.645826
3867.000000	36.653313
3866.000000	36.661040
3865.000000	36.679142
3864.000000	36.715802
3863.000000	36.760736
3862.000000	36.796995
3861.000000	36.822211
3860.000000	36.845192
3859.000000	36.873740
3858.000000	36.905442
3857.000000	36.931335
3856.000000	36.938446
3855.000000	36.917522
3854.000000	36.891033
3853.000000	36.889846
3852.000000	36.894351
3851.000000	36.882556
3850.000000	36.875895
3849.000000	36.894441
3848.000000	36.940084
3847.000000	37.001522
3846.000000	37.060510
3845.000000	37.106096
3844.000000	37.138421
3843.000000	37.157153
3842.000000	37.161103
3841.000000	37.151208
3840.000000	37.130562
3839.000000	37.109108
3838.000000	37.097383
3837.000000	37.097841
3836.000000	37.103686
3835.000000	37.109486
3834.000000	37.120215
3833.000000	37.144336
3832.000000	37.184810
3831.000000	37.235716
3830.000000	37.283477
3829.000000	37.320217
3828.000000	37.353790
3827.000000	37.393260
3826.000000	37.434781
3825.000000	37.464964
3824.000000	37.473621
3823.000000	37.462731
3822.000000	37.451777
3821.000000	37.462503
3820.000000	37.479967
3819.000000	37.474929
3818.000000	37.450673
3817.000000	37.435356
3816.000000	37.456206
3815.000000	37.509979
3814.000000	37.565175
3813.000000	37.604591
3812.000000	37.637826
3811.000000	37.676991
3810.000000	37.720400
3809.000000	37.760038
3808.000000	37.794836
3807.000000	37.829305
3806.000000	37.858065
3805.000000	37.865055
3804.000000	37.850792
3803.000000	37.831932
3802.000000	37.832088
3801.000000	37.863247
3800.000000	37.898238
3799.000000	37.908028
3798.000000	37.901634
3797.000000	37.906849
3796.000000	37.938646
3795.000000	37.987929
3794.000000	38.036066
3793.000000	38.075079
3792.000000	38.110603
3791.000000	38.150262
3790.000000	38.193169
3789.000000	38.232774
3788.000000	38.264363
3787.000000	38.288550
3786.000000	38.310284
3785.000000	38.332274
3784.000000	38.351177
3783.000000	38.361273
3782.000000	38.361727
3781.000000	38.359411
3780.000000	38.365241
3779.000000	38.382337
3778.000000	38.401517
3777.000000	38.415132
3776.000000	38.426598
3775.000000	38.441796
3774.000000	38.459640
3773.000000	38.475225
3772.000000	38.485780
3771.000000	38.491293
3770.000000	38.494105
3769.000000	38.493340
3768.000000	38.483425
3767.000000	38.467157
3766.000000	38.456560
3765.000000	38.460110
3764.000000	38.472843
3763.000000	38.481483
3762.000000	38.481363
3761.000000	38.477656
3760.000000	38.481294
3759.000000	38.498272
3758.000000	38.518971
3757.000000	38.532910
3756.000000	38.540586
3755.000000	38.549276
3754.000000	38.562177
3753.000000	38.572549
3752.000000	38.576793
3751.000000	38.582926
3750.000000	38.593696
3749.000000	38.595193
3748.000000	38.578099
3747.000000	38.554633
3746.000000	38.539404
3745.000000	38.554648
3744.000000	38.622195
3743.000000	38.702588
3742.000000	38.747200
3741.000000	38.764517
3740.000000	38.781764
3739.000000	38.813505
3738.000000	38.854485
3737.000000	38.892895
3736.000000	38.922831
3735.000000	38.945634
3734.000000	38.966641
3733.000000	38.990860
3732.000000	39.026231
3731.000000	39.073333
3730.000000	39.121099
3729.000000	39.161188
3728.000000	39.193395
3727.000000	39.223716
3726.000000	39.255394
3725.000000	39.282063
3724.000000	39.296168
3723.000000	39.300190
3722.000000	39.307325
3721.000000	39.322114
3720.000000	39.338727
3719.000000	39.356141
3718.000000	39.376020
3717.000000	39.397747
3716.000000	39.416930
3715.000000	39.428088
3714.000000	39.428651
3713.000000	39.420858
3712.000000	39.415372
3711.000000	39.419051
3710.000000	39.425557
3709.000000	39.431113
3708.000000	39.440848
3707.000000	39.459348
3706.000000	39.483390
3705.000000	39.505752
3704.000000	39.522670
3703.000000	39.536742
3702.000000	39.553336
3701.000000	39.570468
3700.000000	39.578750
3699.000000	39.577176
3698.000000	39.574652
3697.000000	39.577203
3696.000000	39.584411
3695.000000	39.590206
3694.000000	39.587746
3693.000000	39.573236
3692.000000	39.548238
3691.000000	39.516508
3690.000000	39.481985
3689.000000	39.452342
3688.000000	39.431698
3687.000000	39.414964
3686.000000	39.398831
3685.000000	39.387732
3684.000000	39.385309
3683.000000	39.390679
3682.000000	39.398292
3681.000000	39.402738
3680.000000	39.396095
3679.000000	39.369207
3678.000000	39.318643
3677.000000	39.246763
3676.000000	39.177891
3675.000000	39.133718
3674.000000	39.090221
3673.000000	39.022326
3672.000000	38.941789
3671.000000	38.874191
3670.000000	38.843427
3669.000000	38.842335
3668.000000	38.831615
3667.000000	38.794264
3666.000000	38.748446
3665.000000	38.711071
3664.000000	38.681599
3663.000000	38.650771
3662.000000	38.610921
3661.000000	38.560185
3660.000000	38.495230
3659.000000	38.412245
3658.000000	38.314747
3657.000000	38.215688
3656.000000	38.125972
3655.000000	38.036540
3654.000000	37.932552
3653.000000	37.812495
3652.000000	37.679095
3651.000000	37.532950
3650.000000	37.379335
3649.000000	37.225140
3648.000000	37.073431
3647.000000	36.930679
3646.000000	36.806811
3645.000000	36.702607
3644.000000	36.610420
3643.000000	36.522115
3642.000000	36.431918
3641.000000	36.335408
3640.000000	36.227113
3639.000000	36.105026
3638.000000	35.971141
3637.000000	35.827948
3636.000000	35.677592
3635.000000	35.523641
3634.000000	35.370944
3633.000000	35.217263
3632.000000	35.050407
3631.000000	34.853558
3630.000000	34.626575
3629.000000	34.404657
3628.000000	34.216049
3627.000000	34.045763
3626.000000	33.877841
3625.000000	33.717831
3624.000000	33.570774
3623.000000	33.429921
3622.000000	33.279878
3621.000000	33.107650
3620.000000	32.915788
3619.000000	32.720427
3618.000000	32.529382
3617.000000	32.338788
3616.000000	32.147533
3615.000000	31.959737
3614.000000	31.779931
3613.000000	31.607916
3612.000000	31.436245
3611.000000	31.255845
3610.000000	31.065277
3609.000000	30.873369
3608.000000	30.692298
3607.000000	30.524943
3606.000000	30.363840
3605.000000	30.203003
3604.000000	30.040841
3603.000000	29.877183
3602.000000	29.710998
3601.000000	29.540323
3600.000000	29.365384
3599.000000	29.188608
3598.000000	29.009771
3597.000000	28.827187
3596.000000	28.642196
3595.000000	28.458323
3594.000000	28.279520
3593.000000	28.106203
3592.000000	27.934976
3591.000000	27.760390
3590.000000	27.576103
3589.000000	27.379957
3588.000000	27.180349
3587.000000	26.990106
3586.000000	26.813861
3585.000000	26.649485
3584.000000	26.494597
3583.000000	26.347304
3582.000000	26.204928
3581.000000	26.064792
3580.000000	25.925042
3579.000000	25.784202
3578.000000	25.641713
3577.000000	25.498162
3576.000000	25.355839
3575.000000	25.216266
3574.000000	25.079594
3573.000000	24.946042
3572.000000	24.815237
3571.000000	24.685381
3570.000000	24.554061
3569.000000	24.421380
3568.000000	24.292442
3567.000000	24.173775
3566.000000	24.065443
3565.000000	23.962889
3564.000000	23.864229
3563.000000	23.770699
3562.000000	23.683997
3561.000000	23.604840
3560.000000	23.531814
3559.000000	23.461386
3558.000000	23.390324
3557.000000	23.317380
3556.000000	23.242307
3555.000000	23.164666
3554.000000	23.084791
3553.000000	23.005650
3552.000000	22.930328
3551.000000	22.857716
3550.000000	22.783187
3549.000000	22.702906
3548.000000	22.616714
3547.000000	22.528147
3546.000000	22.442691
3545.000000	22.364873
3544.000000	22.296053
3543.000000	22.234230
3542.000000	22.176129
3541.000000	22.118486
3540.000000	22.057726
3539.000000	21.991020
3538.000000	21.918792
3537.000000	21.845818
3536.000000	21.776837
3535.000000	21.711717
3534.000000	21.646478
3533.000000	21.577888
3532.000000	21.505505
3531.000000	21.429913
3530.000000	21.351652
3529.000000	21.271113
3528.000000	21.187549
3527.000000	21.098746
3526.000000	21.003999
3525.000000	20.907375
3524.000000	20.815988
3523.000000	20.733945
3522.000000	20.658892
3521.000000	20.584795
3520.000000	20.506587
3519.000000	20.422144
3518.000000	20.331396
3517.000000	20.235051
3516.000000	20.133984
3515.000000	20.029560
3514.000000	19.924332
3513.000000	19.820954
3512.000000	19.719665
3511.000000	19.617964
3510.000000	19.513624
3509.000000	19.406681
3508.000000	19.297325
3507.000000	19.183598
3506.000000	19.063483
3505.000000	18.938822
3504.000000	18.815588
3503.000000	18.699758
3502.000000	18.593326
3501.000000	18.493722
3500.000000	18.396071
3499.000000	18.296712
3498.000000	18.196110
3497.000000	18.098138
3496.000000	18.005719
3495.000000	17.918173
3494.000000	17.833566
3493.000000	17.751822
3492.000000	17.673512
3491.000000	17.597372
3490.000000	17.521792
3489.000000	17.447792
3488.000000	17.378666
3487.000000	17.317017
3486.000000	17.263233
3485.000000	17.215865
3484.000000	17.171521
3483.000000	17.126128
3482.000000	17.078918
3481.000000	17.034458
3480.000000	16.998803
3479.000000	16.973735
3478.000000	16.956298
3477.000000	16.942420
3476.000000	16.929050
3475.000000	16.914116
3474.000000	16.896255
3473.000000	16.874602
3472.000000	16.848167
3471.000000	16.816847
3470.000000	16.784470
3469.000000	16.758810
3468.000000	16.746222
3467.000000	16.746689
3466.000000	16.754971
3465.000000	16.764931
3464.000000	16.771470
3463.000000	16.771172
3462.000000	16.764368
3461.000000	16.755678
3460.000000	16.750111
3459.000000	16.748763
3458.000000	16.749449
3457.000000	16.750102
3456.000000	16.749586
3455.000000	16.747115
3454.000000	16.743068
3453.000000	16.739173
3452.000000	16.736189
3451.000000	16.732447
3450.000000	16.726669
3449.000000	16.720700
3448.000000	16.717523
3447.000000	16.717773
3446.000000	16.720065
3445.000000	16.723591
3444.000000	16.728137
3443.000000	16.732463
3442.000000	16.734612
3441.000000	16.733022
3440.000000	16.726376
3439.000000	16.714113
3438.000000	16.698742
3437.000000	16.686118
3436.000000	16.681289
3435.000000	16.684881
3434.000000	16.694041
3433.000000	16.704952
3432.000000	16.714115
3431.000000	16.719832
3430.000000	16.724441
3429.000000	16.732762
3428.000000	16.746586
3427.000000	16.762735
3426.000000	16.777327
3425.000000	16.789404
3424.000000	16.799219
3423.000000	16.806333
3422.000000	16.811561
3421.000000	16.818051
3420.000000	16.827857
3419.000000	16.839315
3418.000000	16.849630
3417.000000	16.857717
3416.000000	16.863245
3415.000000	16.865899
3414.000000	16.867570
3413.000000	16.872439
3412.000000	16.882706
3411.000000	16.896640
3410.000000	16.912654
3409.000000	16.932357
3408.000000	16.956991
3407.000000	16.983364
3406.000000	17.005828
3405.000000	17.020644
3404.000000	17.027105
3403.000000	17.027478
3402.000000	17.028378
3401.000000	17.039216
3400.000000	17.065564
3399.000000	17.104370
3398.000000	17.147081
3397.000000	17.185853
3396.000000	17.215920
3395.000000	17.235677
3394.000000	17.248355
3393.000000	17.262255
3392.000000	17.285901
3391.000000	17.322387
3390.000000	17.368800
3389.000000	17.419486
3388.000000	17.468767
3387.000000	17.513052
3386.000000	17.552605
3385.000000	17.590165
3384.000000	17.626910
3383.000000	17.661540
3382.000000	17.693872
3381.000000	17.726520
3380.000000	17.761646
3379.000000	17.798532
3378.000000	17.836169
3377.000000	17.875768
3376.000000	17.918560
3375.000000	17.962837
3374.000000	18.005121
3373.000000	18.043109
3372.000000	18.076620
3371.000000	18.107907
3370.000000	18.142377
3369.000000	18.186743
3368.000000	18.244142
3367.000000	18.311900
3366.000000	18.384786
3365.000000	18.458320
3364.000000	18.528734
3363.000000	18.593272
3362.000000	18.652801
3361.000000	18.712085
3360.000000	18.775256
3359.000000	18.842362
3358.000000	18.911449
3357.000000	18.981446
3356.000000	19.051217
3355.000000	19.118211
3354.000000	19.180674
3353.000000	19.240411
3352.000000	19.302056
3351.000000	19.370427
3350.000000	19.448527
3349.000000	19.535643
3348.000000	19.626237
3347.000000	19.712931
3346.000000	19.792347
3345.000000	19.866911
3344.000000	19.940532
3343.000000	20.014349
3342.000000	20.087282
3341.000000	20.158497
3340.000000	20.228396
3339.000000	20.298956
3338.000000	20.373486
3337.000000	20.453814
3336.000000	20.536900
3335.000000	20.616490
3334.000000	20.688702
3333.000000	20.753642
3332.000000	20.811724
3331.000000	20.861175
3330.000000	20.900030
3329.000000	20.927900
3328.000000	20.944447
3327.000000	20.949359
3326.000000	20.944283
3325.000000	20.931749
3324.000000	20.911223
3323.000000	20.877867
3322.000000	20.827044
3321.000000	20.757006
3320.000000	20.666133
3319.000000	20.551391
3318.000000	20.409603
3317.000000	20.238725
3316.000000	20.035534
3315.000000	19.794316
3314.000000	19.510771
3313.000000	19.183418
3312.000000	18.811883
3311.000000	18.396882
3310.000000	17.943219
3309.000000	17.462209
3308.000000	16.967323
3307.000000	16.470084
3306.000000	15.981225
3305.000000	15.511045
3304.000000	15.066358
3303.000000	14.649205
3302.000000	14.260898
3301.000000	13.905300
3300.000000	13.587179
3299.000000	13.309549
3298.000000	13.076030
3297.000000	12.891706
3296.000000	12.757233
3295.000000	12.665999
3294.000000	12.606974
3293.000000	12.569134
3292.000000	12.541438
3291.000000	12.511315
3290.000000	12.469209
3289.000000	12.411953
3288.000000	12.340873
3287.000000	12.258955
3286.000000	12.170512
3285.000000	12.080085
3284.000000	11.988375
3283.000000	11.890686
3282.000000	11.780775
3281.000000	11.654322
3280.000000	11.506866
3279.000000	11.332830
3278.000000	11.129073
3277.000000	10.896994
3276.000000	10.640235
3275.000000	10.362129
3274.000000	10.068221
3273.000000	9.768817
3272.000000	9.476956
3271.000000	9.206147
3270.000000	8.971410
3269.000000	8.788428
3268.000000	8.668837
3267.000000	8.619707
3266.000000	8.645420
3265.000000	8.748057
3264.000000	8.922101
3263.000000	9.150934
3262.000000	9.413179
3261.000000	9.686367
3260.000000	9.945857
3259.000000	10.165408
3258.000000	10.322925
3257.000000	10.403748
3256.000000	10.398552
3255.000000	10.299682
3254.000000	10.102085
3253.000000	9.806606
3252.000000	9.414948
3251.000000	8.930277
3250.000000	8.362039
3249.000000	7.729153
3248.000000	7.059964
3247.000000	6.387727
3246.000000	5.750563
3245.000000	5.189952
3244.000000	4.744743
3243.000000	4.444473
3242.000000	4.309158
3241.000000	4.344055
3240.000000	4.531269
3239.000000	4.832847
3238.000000	5.200742
3237.000000	5.591456
3236.000000	5.971503
3235.000000	6.319083
3234.000000	6.627323
3233.000000	6.898458
3232.000000	7.134272
3231.000000	7.332802
3230.000000	7.494623
3229.000000	7.626692
3228.000000	7.738492
3227.000000	7.837930
3226.000000	7.932824
3225.000000	8.032276
3224.000000	8.142183
3223.000000	8.262999
3222.000000	8.393076
3221.000000	8.530774
3220.000000	8.671619
3219.000000	8.806878
3218.000000	8.927960
3217.000000	9.029352
3216.000000	9.106690
3215.000000	9.156577
3214.000000	9.179907
3213.000000	9.182763
3212.000000	9.171430
3211.000000	9.149715
3210.000000	9.122683
3209.000000	9.097977
3208.000000	9.081797
3207.000000	9.076396
3206.000000	9.083182
3205.000000	9.104698
3204.000000	9.141762
3203.000000	9.192081
3202.000000	9.253565
3201.000000	9.325969
3200.000000	9.407378
3199.000000	9.493317
3198.000000	9.580723
3197.000000	9.669646
3196.000000	9.759705
3195.000000	9.848108
3194.000000	9.933003
3193.000000	10.014965
3192.000000	10.093663
3191.000000	10.166448
3190.000000	10.232010
3189.000000	10.292224
3188.000000	10.349183
3187.000000	10.403824
3186.000000	10.458503
3185.000000	10.517139
3184.000000	10.580845
3183.000000	10.646655
3182.000000	10.711804
3181.000000	10.775731
3180.000000	10.836819
3179.000000	10.890975
3178.000000	10.935499
3177.000000	10.971428
3176.000000	11.000946
3175.000000	11.026216
3174.000000	11.051911
3173.000000	11.085219
3172.000000	11.131346
3171.000000	11.192545
3170.000000	11.272133
3169.000000	11.375641
3168.000000	11.506682
3167.000000	11.664155
3166.000000	11.846194
3165.000000	12.052656
3164.000000	12.283213
3163.000000	12.537396
3162.000000	12.816447
3161.000000	13.122718
3160.000000	13.453836
3159.000000	13.800469
3158.000000	14.150706
3157.000000	14.492418
3156.000000	14.811616
3155.000000	15.092949
3154.000000	15.324616
3153.000000	15.500498
3152.000000	15.619065
3151.000000	15.682962
3150.000000	15.701365
3149.000000	15.689328
3148.000000	15.660282
3147.000000	15.621928
3146.000000	15.576149
3145.000000	15.518807
3144.000000	15.439219
3143.000000	15.322043
3142.000000	15.155198
3141.000000	14.933601
3140.000000	14.656607
3139.000000	14.327547
3138.000000	13.954925
3137.000000	13.552566
3136.000000	13.135024
3135.000000	12.715426
3134.000000	12.308919
3133.000000	11.932859
3132.000000	11.601899
3131.000000	11.325314
3130.000000	11.110242
3129.000000	10.961653
3128.000000	10.878917
3127.000000	10.854638
3126.000000	10.879548
3125.000000	10.946562
3124.000000	11.047124
3123.000000	11.171619
3122.000000	11.313756
3121.000000	11.471680
3120.000000	11.644115
3119.000000	11.827212
3118.000000	12.017846
3117.000000	12.214436
3116.000000	12.413019
3115.000000	12.605770
3114.000000	12.784604
3113.000000	12.942930
3112.000000	13.073038
3111.000000	13.166761
3110.000000	13.219070
3109.000000	13.229339
3108.000000	13.196582
3107.000000	13.117747
3106.000000	12.993014
3105.000000	12.827631
3104.000000	12.629716
3103.000000	12.408896
3102.000000	12.179621
3101.000000	11.961519
3100.000000	11.773346
3099.000000	11.628757
3098.000000	11.538038
3097.000000	11.509922
3096.000000	11.547529
3095.000000	11.648013
3094.000000	11.806134
3093.000000	12.016471
3092.000000	12.272343
3091.000000	12.564590
3090.000000	12.885618
3089.000000	13.229105
3088.000000	13.586310
3087.000000	13.947432
3086.000000	14.306552
3085.000000	14.662891
3084.000000	15.015053
3083.000000	15.358298
3082.000000	15.688422
3081.000000	16.004488
3080.000000	16.306677
3079.000000	16.594960
3078.000000	16.871078
3077.000000	17.137901
3076.000000	17.396235
3075.000000	17.644747
3074.000000	17.883946
3073.000000	18.116858
3072.000000	18.344734
3071.000000	18.566071
3070.000000	18.780438
3069.000000	18.990272
3068.000000	19.198029
3067.000000	19.404270
3066.000000	19.609423
3065.000000	19.813929
3064.000000	20.016002
3063.000000	20.212468
3062.000000	20.402275
3061.000000	20.586647
3060.000000	20.765503
3059.000000	20.937018
3058.000000	21.101194
3057.000000	21.260319
3056.000000	21.415547
3055.000000	21.565897
3054.000000	21.711138
3053.000000	21.852886
3052.000000	21.992218
3051.000000	22.129079
3050.000000	22.263971
3049.000000	22.397164
3048.000000	22.526428
3047.000000	22.648503
3046.000000	22.763266
3045.000000	22.873483
3044.000000	22.980574
3043.000000	23.084031
3042.000000	23.184715
3041.000000	23.285156
3040.000000	23.385747
3039.000000	23.483832
3038.000000	23.577557
3037.000000	23.668092
3036.000000	23.758077
3035.000000	23.850453
3034.000000	23.948749
3033.000000	24.055319
3032.000000	24.168562
3031.000000	24.284404
3030.000000	24.400565
3029.000000	24.517154
3028.000000	24.633693
3027.000000	24.748957
3026.000000	24.863872
3025.000000	24.981219
3024.000000	25.101888
3023.000000	25.224018
3022.000000	25.346144
3021.000000	25.468433
3020.000000	25.590542
3019.000000	25.711016
3018.000000	25.829227
3017.000000	25.945635
3016.000000	26.060131
3015.000000	26.172554
3014.000000	26.284637
3013.000000	26.398815
3012.000000	26.514891
3011.000000	26.629750
3010.000000	26.740079
3009.000000	26.842823
3008.000000	26.933497
3007.000000	27.007073
3006.000000	27.060263
3005.000000	27.091767
3004.000000	27.099807
3003.000000	27.081613
3002.000000	27.034712
3001.000000	26.953117
3000.000000	26.820576
2999.000000	26.607108
2998.000000	26.280140
2997.000000	25.832424
2996.000000	25.313738
2995.000000	24.837206
2994.000000	24.535836
2993.000000	24.491007
2992.000000	24.686306
2991.000000	25.028558
2990.000000	25.409942
2989.000000	25.756385
2988.000000	26.037562
2987.000000	26.253220
2986.000000	26.419170
2985.000000	26.554522
2984.000000	26.673035
2983.000000	26.781288
2982.000000	26.882496
2981.000000	26.975959
2980.000000	27.051248
2979.000000	27.087481
2978.000000	27.064099
2977.000000	26.978437
2976.000000	26.858879
2975.000000	26.764420
2974.000000	26.762279
2973.000000	26.892349
2972.000000	27.144201
2971.000000	27.466897
2970.000000	27.799891
2969.000000	28.096902
2968.000000	28.331116
2967.000000	28.491633
2966.000000	28.579549
2965.000000	28.601236
2964.000000	28.562288
2963.000000	28.464785
2962.000000	28.308975
2961.000000	28.089423
2960.000000	27.785372
2959.000000	27.357194
2958.000000	26.758586
2957.000000	25.972044
2956.000000	25.052906
2955.000000	24.150322
2954.000000	23.462228
2953.000000	23.133359
2952.000000	23.169238
2951.000000	23.441313
2950.000000	23.777595
2949.000000	24.055315
2948.000000	24.239644
2947.000000	24.366155
2946.000000	24.499554
2945.000000	24.690613
2944.000000	24.949478
2943.000000	25.250427
2942.000000	25.558358
2941.000000	25.852852
2940.000000	26.133711
2939.000000	26.415195
2938.000000	26.718396
2937.000000	27.061023
2936.000000	27.447595
2935.000000	27.868921
2934.000000	28.310313
2933.000000	28.757155
2932.000000	29.194403
2931.000000	29.608671
2930.000000	29.993189
2929.000000	30.347273
2928.000000	30.670303
2927.000000	30.960251
2926.000000	31.218428
2925.000000	31.449658
2924.000000	31.656927
2923.000000	31.839750
2922.000000	31.998477
2921.000000	32.135637
2920.000000	32.252017
2919.000000	32.346362
2918.000000	32.419050
2917.000000	32.472346
2916.000000	32.506944
2915.000000	32.522625
2914.000000	32.523258
2913.000000	32.516563
2912.000000	32.508353
2911.000000	32.500439
2910.000000	32.493984
2909.000000	32.490769
2908.000000	32.490336
2907.000000	32.490223
2906.000000	32.490052
2905.000000	32.492137
2904.000000	32.497710
2903.000000	32.505926
2902.000000	32.517064
2901.000000	32.532769
2900.000000	32.552586
2899.000000	32.572940
2898.000000	32.590150
2897.000000	32.600922
2896.000000	32.599952
2895.000000	32.581408
2894.000000	32.543709
2893.000000	32.490009
2892.000000	32.423595
2891.000000	32.346351
2890.000000	32.261685
2889.000000	32.174996
2888.000000	32.090113
2887.000000	32.008743
2886.000000	31.933966
2885.000000	31.870641
2884.000000	31.821887
2883.000000	31.788213
2882.000000	31.770770
2881.000000	31.771873
2880.000000	31.791460
2879.000000	31.826180
2878.000000	31.872133
2877.000000	31.925005
2876.000000	31.977568
2875.000000	32.021966
2874.000000	32.055891
2873.000000	32.083333
2872.000000	32.108321
2871.000000	32.131528
2870.000000	32.154613
2869.000000	32.184907
2868.000000	32.234229
2867.000000	32.314903
2866.000000	32.436377
2865.000000	32.600768
2864.000000	32.799748
2863.000000	33.018388
2862.000000	33.243272
2861.000000	33.465890
2860.000000	33.680412
2859.000000	33.882629
2858.000000	34.071719
2857.000000	34.249215
2856.000000	34.414703
2855.000000	34.565542
2854.000000	34.700307
2853.000000	34.819111
2852.000000	34.920524
2851.000000	35.001732
2850.000000	35.062642
2849.000000	35.107265
2848.000000	35.140868
2847.000000	35.168432
2846.000000	35.195739
2845.000000	35.228067
2844.000000	35.267166
2843.000000	35.311972
2842.000000	35.362413
2841.000000	35.420328
2840.000000	35.486720
2839.000000	35.560973
2838.000000	35.642649
2837.000000	35.731080
2836.000000	35.823233
2835.000000	35.915031
2834.000000	36.004956
2833.000000	36.093929
2832.000000	36.181898
2831.000000	36.267391
2830.000000	36.350345
2829.000000	36.432266
2828.000000	36.513307
2827.000000	36.591988
2826.000000	36.667928
2825.000000	36.742116
2824.000000	36.814441
2823.000000	36.883574
2822.000000	36.949463
2821.000000	37.013259
2820.000000	37.074699
2819.000000	37.132250
2818.000000	37.185914
2817.000000	37.237269
2816.000000	37.286718
2815.000000	37.333354
2814.000000	37.377636
2813.000000	37.421565
2812.000000	37.466094
2811.000000	37.510945
2810.000000	37.556890
2809.000000	37.605347
2808.000000	37.655580
2807.000000	37.705039
2806.000000	37.752709
2805.000000	37.799662
2804.000000	37.846285
2803.000000	37.891768
2802.000000	37.936484
2801.000000	37.982120
2800.000000	38.029084
2799.000000	38.076236
2798.000000	38.123294
2797.000000	38.170946
2796.000000	38.218488
2795.000000	38.264031
2794.000000	38.307305
2793.000000	38.349817
2792.000000	38.392122
2791.000000	38.433432
2790.000000	38.473974
2789.000000	38.515038
2788.000000	38.556458
2787.000000	38.596640
2786.000000	38.635414
2785.000000	38.674538
2784.000000	38.715213
2783.000000	38.757489
2782.000000	38.802166
2781.000000	38.850595
2780.000000	38.902218
2779.000000	38.954614
2778.000000	39.006145
2777.000000	39.056439
2776.000000	39.104437
2775.000000	39.148509
2774.000000	39.188767
2773.000000	39.226918
2772.000000	39.263662
2771.000000	39.298494
2770.000000	39.331905
2769.000000	39.365216
2768.000000	39.398186
2767.000000	39.429080
2766.000000	39.457279
2765.000000	39.483462
2764.000000	39.507291
2763.000000	39.527520
2762.000000	39.544407
2761.000000	39.559592
2760.000000	39.573389
2759.000000	39.584544
2758.000000	39.592800
2757.000000	39.599194
2756.000000	39.603767
2755.000000	39.605558
2754.000000	39.605060
2753.000000	39.604360
2752.000000	39.604598
2751.000000	39.605577
2750.000000	39.608027
2749.000000	39.613822
2748.000000	39.623729
2747.000000	39.637448
2746.000000	39.656014
2745.000000	39.681649
2744.000000	39.714989
2743.000000	39.754391
2742.000000	39.797974
2741.000000	39.843975
2740.000000	39.888965
2739.000000	39.928524
2738.000000	39.960402
2737.000000	39.985453
2736.000000	40.005955
2735.000000	40.025342
2734.000000	40.049196
2733.000000	40.083157
2732.000000	40.128807
2731.000000	40.183099
2730.000000	40.241604
2729.000000	40.300386
2728.000000	40.355357
2727.000000	40.403140
2726.000000	40.443452
2725.000000	40.478659
2724.000000	40.510661
2723.000000	40.540086
2722.000000	40.568018
2721.000000	40.595767
2720.000000	40.622810
2719.000000	40.647266
2718.000000	40.668898
2717.000000	40.689868
2716.000000	40.712574
2715.000000	40.738788
2714.000000	40.770483
2713.000000	40.808718
2712.000000	40.851323
2711.000000	40.893887
2710.000000	40.933241
2709.000000	40.968295
2708.000000	40.998144
2707.000000	41.022088
2706.000000	41.041531
2705.000000	41.059418
2704.000000	41.077388
2703.000000	41.095394
2702.000000	41.113832
2701.000000	41.133550
2700.000000	41.153956
2699.000000	41.173545
2698.000000	41.192275
2697.000000	41.211221
2696.000000	41.230163
2695.000000	41.248123
2694.000000	41.266212
2693.000000	41.287244
2692.000000	41.312254
2691.000000	41.339787
2690.000000	41.368544
2689.000000	41.398187
2688.000000	41.427541
2687.000000	41.454753
2686.000000	41.479728
2685.000000	41.504112
2684.000000	41.528520
2683.000000	41.551933
2682.000000	41.573794
2681.000000	41.594203
2680.000000	41.612003
2679.000000	41.625341
2678.000000	41.634615
2677.000000	41.642753
2676.000000	41.652346
2675.000000	41.664627
2674.000000	41.681239
2673.000000	41.704445
2672.000000	41.734978
2671.000000	41.771942
2670.000000	41.814957
2669.000000	41.864102
2668.000000	41.917810
2667.000000	41.973003
2666.000000	42.027815
2665.000000	42.082175
2664.000000	42.135558
2663.000000	42.186588
2662.000000	42.234959
2661.000000	42.281495
2660.000000	42.326106
2659.000000	42.367822
2658.000000	42.406951
2657.000000	42.445148
2656.000000	42.483090
2655.000000	42.520022
2654.000000	42.555715
2653.000000	42.590434
2652.000000	42.622948
2651.000000	42.650683
2650.000000	42.672158
2649.000000	42.687706
2648.000000	42.697822
2647.000000	42.703103
2646.000000	42.705957
2645.000000	42.710071
2644.000000	42.717961
2643.000000	42.730742
2642.000000	42.749869
2641.000000	42.776738
2640.000000	42.810500
2639.000000	42.848380
2638.000000	42.888509
2637.000000	42.930296
2636.000000	42.972176
2635.000000	43.011562
2634.000000	43.047176
2633.000000	43.079344
2632.000000	43.107891
2631.000000	43.132105
2630.000000	43.153141
2629.000000	43.174444
2628.000000	43.199374
2627.000000	43.229896
2626.000000	43.267159
2625.000000	43.310936
2624.000000	43.358277
2623.000000	43.405005
2622.000000	43.448950
2621.000000	43.490043
2620.000000	43.527621
2619.000000	43.560000
2618.000000	43.586637
2617.000000	43.608363
2616.000000	43.625463
2615.000000	43.637500
2614.000000	43.645384
2613.000000	43.651391
2612.000000	43.656698
2611.000000	43.661126
2610.000000	43.665168
2609.000000	43.670131
2608.000000	43.675983
2607.000000	43.681090
2606.000000	43.684491
2605.000000	43.686428
2604.000000	43.686649
2603.000000	43.684435
2602.000000	43.680609
2601.000000	43.677443
2600.000000	43.676247
2599.000000	43.676891
2598.000000	43.679769
2597.000000	43.686027
2596.000000	43.695510
2595.000000	43.706597
2594.000000	43.718383
2593.000000	43.731050
2592.000000	43.744069
2591.000000	43.756070
2590.000000	43.766770
2589.000000	43.777109
2588.000000	43.787282
2587.000000	43.796676
2586.000000	43.805790
2585.000000	43.816128
2584.000000	43.827986
2583.000000	43.840386
2582.000000	43.853461
2581.000000	43.868844
2580.000000	43.887555
2579.000000	43.909520
2578.000000	43.935118
2577.000000	43.965232
2576.000000	43.999358
2575.000000	44.035703
2574.000000	44.073488
2573.000000	44.113105
2572.000000	44.154201
2571.000000	44.195458
2570.000000	44.236323
2569.000000	44.277035
2568.000000	44.316826
2567.000000	44.354238
2566.000000	44.389356
2565.000000	44.423793
2564.000000	44.458387
2563.000000	44.492891
2562.000000	44.527863
2561.000000	44.564661
2560.000000	44.603358
2559.000000	44.642728
2558.000000	44.682548
2557.000000	44.723980
2556.000000	44.767460
2555.000000	44.812027
2554.000000	44.856985
2553.000000	44.902312
2552.000000	44.947381
2551.000000	44.991166
2550.000000	45.033848
2549.000000	45.076448
2548.000000	45.118787
2547.000000	45.159550
2546.000000	45.198223
2545.000000	45.235191
2544.000000	45.269905
2543.000000	45.301133
2542.000000	45.329092
2541.000000	45.355343
2540.000000	45.380547
2539.000000	45.403887
2538.000000	45.424787
2537.000000	45.443259
2536.000000	45.458521
2535.000000	45.469607
2534.000000	45.477497
2533.000000	45.485022
2532.000000	45.494481
2531.000000	45.506980
2530.000000	45.523841
2529.000000	45.546345
2528.000000	45.573696
2527.000000	45.603027
2526.000000	45.631834
2525.000000	45.658831
2524.000000	45.682775
2523.000000	45.702516
2522.000000	45.718404
2521.000000	45.731655
2520.000000	45.742225
2519.000000	45.748691
2518.000000	45.750031
2517.000000	45.745868
2516.000000	45.734800
2515.000000	45.715185
2514.000000	45.687643
2513.000000	45.655029
2512.000000	45.620171
2511.000000	45.585028
2510.000000	45.552053
2509.000000	45.523700
2508.000000	45.500148
2507.000000	45.479519
2506.000000	45.460768
2505.000000	45.444551
2504.000000	45.431432
2503.000000	45.421563
2502.000000	45.416066
2501.000000	45.416820
2500.000000	45.424126
2499.000000	45.436392
2498.000000	45.452478
2497.000000	45.472092
2496.000000	45.494451
2495.000000	45.518503
2494.000000	45.544761
2493.000000	45.575000
2492.000000	45.609480
2491.000000	45.646530
2490.000000	45.684650
2489.000000	45.723045
2488.000000	45.760293
2487.000000	45.794806
2486.000000	45.827284
2485.000000	45.860818
2484.000000	45.898098
2483.000000	45.940232
2482.000000	45.987820
2481.000000	46.040926
2480.000000	46.097534
2479.000000	46.153941
2478.000000	46.207210
2477.000000	46.255812
2476.000000	46.298430
2475.000000	46.334397
2474.000000	46.365689
2473.000000	46.396264
2472.000000	46.428950
2471.000000	46.464087
2470.000000	46.500750
2469.000000	46.537407
2468.000000	46.571267
2467.000000	46.599587
2466.000000	46.622058
2465.000000	46.640160
2464.000000	46.654325
2463.000000	46.663188
2462.000000	46.665662
2461.000000	46.661651
2460.000000	46.650504
2459.000000	46.631661
2458.000000	46.607003
2457.000000	46.581010
2456.000000	46.557998
2455.000000	46.540666
2454.000000	46.531175
2453.000000	46.531080
2452.000000	46.539665
2451.000000	46.554190
2450.000000	46.572692
2449.000000	46.594678
2448.000000	46.619610
2447.000000	46.646766
2446.000000	46.676674
2445.000000	46.710739
2444.000000	46.748548
2443.000000	46.787572
2442.000000	46.825608
2441.000000	46.861705
2440.000000	46.894769
2439.000000	46.923660
2438.000000	46.949389
2437.000000	46.975248
2436.000000	47.004031
2435.000000	47.036507
2434.000000	47.072440
2433.000000	47.110867
2432.000000	47.148840
2431.000000	47.182101
2430.000000	47.207879
2429.000000	47.225963
2428.000000	47.237108
2427.000000	47.242123
2426.000000	47.243011
2425.000000	47.242528
2424.000000	47.241965
2423.000000	47.240622
2422.000000	47.237685
2421.000000	47.233352
2420.000000	47.227862
2419.000000	47.221637
2418.000000	47.216808
2417.000000	47.216918
2416.000000	47.224222
2415.000000	47.238562
2414.000000	47.258620
2413.000000	47.282334
2412.000000	47.306125
2411.000000	47.325885
2410.000000	47.339797
2409.000000	47.348889
2408.000000	47.354814
2407.000000	47.358668
2406.000000	47.361919
2405.000000	47.366011
2404.000000	47.370217
2403.000000	47.371797
2402.000000	47.368647
2401.000000	47.360551
2400.000000	47.347458
2399.000000	47.328270
2398.000000	47.302080
2397.000000	47.268153
2396.000000	47.224460
2395.000000	47.167764
2394.000000	47.095651
2393.000000	47.008139
2392.000000	46.906155
2391.000000	46.791273
2390.000000	46.667048
2389.000000	46.538112
2388.000000	46.407841
2387.000000	46.277382
2386.000000	46.148129
2385.000000	46.023212
2384.000000	45.905567
2383.000000	45.797755
2382.000000	45.703654
2381.000000	45.628613
2380.000000	45.576421
2379.000000	45.546731
2378.000000	45.536443
2377.000000	45.541370
2376.000000	45.556419
2375.000000	45.575106
2374.000000	45.594084
2373.000000	45.613418
2372.000000	45.634700
2371.000000	45.658908
2370.000000	45.686236
2369.000000	45.716207
2368.000000	45.748552
2367.000000	45.782252
2366.000000	45.814390
2365.000000	45.840947
2364.000000	45.866309
2363.000000	45.888510
2362.000000	45.899470
2361.000000	45.907706
2360.000000	45.918785
2359.000000	45.937361
2358.000000	45.965481
2357.000000	45.987534
2356.000000	46.002729
2355.000000	46.001378
2354.000000	45.987757
2353.000000	45.970864
2352.000000	45.976047
2351.000000	46.037362
2350.000000	46.128293
2349.000000	46.197378
2348.000000	46.213962
2347.000000	46.209263
2346.000000	46.255017
2345.000000	46.353068
2344.000000	46.467872
2343.000000	46.532310
2342.000000	46.539980
2341.000000	46.517689
2340.000000	46.480613
2339.000000	46.445208
2338.000000	46.414795
2337.000000	46.407472
2336.000000	46.420715
2335.000000	46.460310
2334.000000	46.510329
2333.000000	46.575848
2332.000000	46.634013
2331.000000	46.700995
2330.000000	46.754754
2329.000000	46.815293
2328.000000	46.867059
2327.000000	46.905941
2326.000000	46.926575
2325.000000	46.928907
2324.000000	46.932393
2323.000000	46.937700
2322.000000	46.943139
2321.000000	46.942370
2320.000000	46.925476
2319.000000	46.902133
2318.000000	46.864297
2317.000000	46.823391
2316.000000	46.761496
2315.000000	46.688632
2314.000000	46.594230
2313.000000	46.494505
2312.000000	46.377793
2311.000000	46.252491
2310.000000	46.110210
2309.000000	45.963405
2308.000000	45.808377
2307.000000	45.654259
2306.000000	45.500659
2305.000000	45.359730
2304.000000	45.232683
2303.000000	45.130133
2302.000000	45.054193
2301.000000	45.017042
2300.000000	45.015407
2299.000000	45.048879
2298.000000	45.105461
2297.000000	45.179221
2296.000000	45.255291
2295.000000	45.324266
2294.000000	45.378265
2293.000000	45.416699
2292.000000	45.439268
2291.000000	45.446268
2290.000000	45.440450
2289.000000	45.424039
2288.000000	45.397143
2287.000000	45.355842
2286.000000	45.298993
2285.000000	45.226064
2284.000000	45.137915
2283.000000	45.035926
2282.000000	44.928915
2281.000000	44.831155
2280.000000	44.756700
2279.000000	44.713822
2278.000000	44.704979
2277.000000	44.728317
2276.000000	44.776796
2275.000000	44.844790
2274.000000	44.931151
2273.000000	45.039131
2272.000000	45.168782
2271.000000	45.315653
2270.000000	45.474341
2269.000000	45.640021
2268.000000	45.806879
2267.000000	45.968942
2266.000000	46.122518
2265.000000	46.266515
2264.000000	46.399411
2263.000000	46.519620
2262.000000	46.628929
2261.000000	46.730728
2260.000000	46.827690
2259.000000	46.920151
2258.000000	47.009789
2257.000000	47.099415
2256.000000	47.190482
2255.000000	47.283993
2254.000000	47.382396
2253.000000	47.490059
2252.000000	47.608310
2251.000000	47.735803
2250.000000	47.870290
2249.000000	48.010082
2248.000000	48.151814
2247.000000	48.291395
2246.000000	48.426691
2245.000000	48.557613
2244.000000	48.683399
2243.000000	48.802513
2242.000000	48.914929
2241.000000	49.021840
2240.000000	49.122985
2239.000000	49.216329
2238.000000	49.300826
2237.000000	49.376540
2236.000000	49.442853
2235.000000	49.498594
2234.000000	49.544899
2233.000000	49.585257
2232.000000	49.622321
2231.000000	49.656835
2230.000000	49.689337
2229.000000	49.720509
2228.000000	49.749155
2227.000000	49.772454
2226.000000	49.788958
2225.000000	49.799608
2224.000000	49.805449
2223.000000	49.806846
2222.000000	49.804991
2221.000000	49.802128
2220.000000	49.799289
2219.000000	49.795977
2218.000000	49.792366
2217.000000	49.789781
2216.000000	49.788761
2215.000000	49.788765
2214.000000	49.790230
2213.000000	49.794436
2212.000000	49.800932
2211.000000	49.807354
2210.000000	49.812581
2209.000000	49.818305
2208.000000	49.827137
2207.000000	49.841022
2206.000000	49.861066
2205.000000	49.886207
2204.000000	49.911331
2203.000000	49.929313
2202.000000	49.936088
2201.000000	49.933056
2200.000000	49.925397
2199.000000	49.921049
2198.000000	49.930574
2197.000000	49.963805
2196.000000	50.024046
2195.000000	50.106651
2194.000000	50.203533
2193.000000	50.307065
2192.000000	50.410394
2191.000000	50.507482
2190.000000	50.594707
2189.000000	50.670778
2188.000000	50.734548
2187.000000	50.784907
2186.000000	50.822861
2185.000000	50.851700
2184.000000	50.873927
2183.000000	50.889768
2182.000000	50.898925
2181.000000	50.901925
2180.000000	50.899259
2179.000000	50.891386
2178.000000	50.880537
2177.000000	50.870495
2176.000000	50.863942
2175.000000	50.861514
2174.000000	50.863703
2173.000000	50.871510
2172.000000	50.884507
2171.000000	50.900550
2170.000000	50.918230
2169.000000	50.937920
2168.000000	50.959797
2167.000000	50.982722
2166.000000	51.005506
2165.000000	51.027422
2164.000000	51.047062
2163.000000	51.062763
2162.000000	51.074946
2161.000000	51.086347
2160.000000	51.099507
2159.000000	51.115682
2158.000000	51.136374
2157.000000	51.163507
2156.000000	51.197485
2155.000000	51.236948
2154.000000	51.280837
2153.000000	51.328605
2152.000000	51.378124
2151.000000	51.425774
2150.000000	51.469320
2149.000000	51.508831
2148.000000	51.544051
2147.000000	51.573138
2146.000000	51.594565
2145.000000	51.608429
2144.000000	51.615096
2143.000000	51.614626
2142.000000	51.608471
2141.000000	51.599762
2140.000000	51.590827
2139.000000	51.581911
2138.000000	51.573074
2137.000000	51.565598
2136.000000	51.561176
2135.000000	51.561817
2134.000000	51.570915
2133.000000	51.592193
2132.000000	51.626287
2131.000000	51.669843
2130.000000	51.718361
2129.000000	51.768033
2128.000000	51.814530
2127.000000	51.852580
2126.000000	51.878079
2125.000000	51.889085
2124.000000	51.884494
2123.000000	51.863669
2122.000000	51.828345
2121.000000	51.783286
2120.000000	51.734180
2119.000000	51.686146
2118.000000	51.644384
2117.000000	51.613397
2116.000000	51.594061
2115.000000	51.583181
2114.000000	51.576467
2113.000000	51.570634
2112.000000	51.562836
2111.000000	51.550945
2110.000000	51.535520
2109.000000	51.519398
2108.000000	51.504387
2107.000000	51.490142
2106.000000	51.476798
2105.000000	51.466379
2104.000000	51.461006
2103.000000	51.461913
2102.000000	51.470856
2101.000000	51.490051
2100.000000	51.519732
2099.000000	51.557925
2098.000000	51.603017
2097.000000	51.654407
2096.000000	51.710337
2095.000000	51.767037
2094.000000	51.820946
2093.000000	51.869843
2092.000000	51.911419
2091.000000	51.943386
2090.000000	51.966240
2089.000000	51.984276
2088.000000	52.003180
2087.000000	52.028213
2086.000000	52.064492
2085.000000	52.115892
2084.000000	52.182263
2083.000000	52.259727
2082.000000	52.344680
2081.000000	52.435715
2080.000000	52.531502
2079.000000	52.629489
2078.000000	52.727431
2077.000000	52.823774
2076.000000	52.916108
2075.000000	53.000854
2074.000000	53.075820
2073.000000	53.141511
2072.000000	53.198874
2071.000000	53.248261
2070.000000	53.290714
2069.000000	53.327983
2068.000000	53.360462
2067.000000	53.387158
2066.000000	53.408433
2065.000000	53.427172
2064.000000	53.446260
2063.000000	53.467356
2062.000000	53.493077
2061.000000	53.527344
2060.000000	53.571860
2059.000000	53.623943
2058.000000	53.678922
2057.000000	53.732958
2056.000000	53.782904
2055.000000	53.826058
2054.000000	53.862238
2053.000000	53.894615
2052.000000	53.926662
2051.000000	53.959759
2050.000000	53.994058
2049.000000	54.029368
2048.000000	54.064217
2047.000000	54.096094
2046.000000	54.123572
2045.000000	54.147713
2044.000000	54.171099
2043.000000	54.196774
2042.000000	54.228163
2041.000000	54.267692
2040.000000	54.313991
2039.000000	54.361969
2038.000000	54.406677
2037.000000	54.445826
2036.000000	54.478715
2035.000000	54.505248
2034.000000	54.527546
2033.000000	54.550710
2032.000000	54.579583
2031.000000	54.615072
2030.000000	54.654885
2029.000000	54.696123
2028.000000	54.735699
2027.000000	54.770422
2026.000000	54.798644
2025.000000	54.822247
2024.000000	54.844696
2023.000000	54.868483
2022.000000	54.893853
2021.000000	54.918952
2020.000000	54.940478
2019.000000	54.955338
2018.000000	54.963007
2017.000000	54.966280
2016.000000	54.968916
2015.000000	54.973702
2014.000000	54.983152
2013.000000	54.999318
2012.000000	55.021219
2011.000000	55.043702
2010.000000	55.060581
2009.000000	55.069026
2008.000000	55.070319
2007.000000	55.067769
2006.000000	55.065834
2005.000000	55.070535
2004.000000	55.086632
2003.000000	55.114922
2002.000000	55.152255
2001.000000	55.194046
2000.000000	55.235691
1999.000000	55.272070
1998.000000	55.301374
1997.000000	55.326255
1996.000000	55.350060
1995.000000	55.373459
1994.000000	55.396101
1993.000000	55.418494
1992.000000	55.440082
1991.000000	55.456456
1990.000000	55.462591
1989.000000	55.458508
1988.000000	55.448451
1987.000000	55.437177
1986.000000	55.429219
1985.000000	55.429894
1984.000000	55.443754
1983.000000	55.471306
1982.000000	55.508065
1981.000000	55.547086
1980.000000	55.582234
1979.000000	55.609302
1978.000000	55.628712
1977.000000	55.645061
1976.000000	55.664491
1975.000000	55.692067
1974.000000	55.730802
1973.000000	55.780213
1972.000000	55.835166
1971.000000	55.888063
1970.000000	55.933970
1969.000000	55.973469
1968.000000	56.011357
1967.000000	56.053190
1966.000000	56.101280
1965.000000	56.153231
1964.000000	56.204214
1963.000000	56.249319
1962.000000	56.284300
1961.000000	56.305642
1960.000000	56.310664
1959.000000	56.300459
1958.000000	56.281637
1957.000000	56.261815
1956.000000	56.243762
1955.000000	56.224211
1954.000000	56.198064
1953.000000	56.162210
1952.000000	56.116733
1951.000000	56.066486
1950.000000	56.019301
1949.000000	55.984347
1948.000000	55.969601
1947.000000	55.978211
1946.000000	56.005970
1945.000000	56.043026
1944.000000	56.080086
1943.000000	56.114704
1942.000000	56.151673
1941.000000	56.195996
1940.000000	56.250614
1939.000000	56.319177
1938.000000	56.404000
1937.000000	56.502328
1936.000000	56.604506
1935.000000	56.698142
1934.000000	56.775265
1933.000000	56.833893
1932.000000	56.875360
1931.000000	56.903947
1930.000000	56.925558
1929.000000	56.948042
1928.000000	56.976223
1927.000000	57.006205
1926.000000	57.029646
1925.000000	57.039241
1924.000000	57.036268
1923.000000	57.027580
1922.000000	57.018447
1921.000000	57.010133
1920.000000	57.003891
1919.000000	57.000735
1918.000000	57.002932
1917.000000	57.012422
1916.000000	57.023499
1915.000000	57.026221
1914.000000	57.016433
1913.000000	56.996902
1912.000000	56.974352
1911.000000	56.955788
1910.000000	56.947340
1909.000000	56.954738
1908.000000	56.976323
1907.000000	57.001375
1906.000000	57.019762
1905.000000	57.025947
1904.000000	57.020040
1903.000000	57.001694
1902.000000	56.972038
1901.000000	56.939997
1900.000000	56.915774
1899.000000	56.900476
1898.000000	56.889549
1897.000000	56.879797
1896.000000	56.872572
1895.000000	56.868711
1894.000000	56.868361
1893.000000	56.875601
1892.000000	56.897114
1891.000000	56.935875
1890.000000	56.991411
1889.000000	57.061177
1888.000000	57.135032
1887.000000	57.199362
1886.000000	57.248163
1885.000000	57.285182
1884.000000	57.318947
1883.000000	57.354848
1882.000000	57.394801
1881.000000	57.443204
1880.000000	57.500829
1879.000000	57.556815
1878.000000	57.596756
1877.000000	57.614373
1876.000000	57.613950
1875.000000	57.605417
1874.000000	57.599812
1873.000000	57.608221
1872.000000	57.636057
1871.000000	57.675744
1870.000000	57.714100
1869.000000	57.749603
1868.000000	57.786915
1867.000000	57.815087
1866.000000	57.823728
1865.000000	57.822236
1864.000000	57.826451
1863.000000	57.843959
1862.000000	57.873553
1861.000000	57.914215
1860.000000	57.967405
1859.000000	58.030146
1858.000000	58.094676
1857.000000	58.157608
1856.000000	58.222945
1855.000000	58.294579
1854.000000	58.372788
1853.000000	58.459089
1852.000000	58.553274
1851.000000	58.644271
1850.000000	58.722008
1849.000000	58.786213
1848.000000	58.844507
1847.000000	58.899933
1846.000000	58.946899
1845.000000	58.980805
1844.000000	59.013736
1843.000000	59.060601
1842.000000	59.112261
1841.000000	59.157660
1840.000000	59.193709
1839.000000	59.215042
1838.000000	59.220337
1837.000000	59.218583
1836.000000	59.227265
1835.000000	59.259952
1834.000000	59.320182
1833.000000	59.401328
1832.000000	59.487356
1831.000000	59.560986
1830.000000	59.621483
1829.000000	59.672306
1828.000000	59.705713
1827.000000	59.726127
1826.000000	59.751765
1825.000000	59.799151
1824.000000	59.876154
1823.000000	59.972859
1822.000000	60.071011
1821.000000	60.156432
1820.000000	60.221953
1819.000000	60.270806
1818.000000	60.312906
1817.000000	60.360144
1816.000000	60.425086
1815.000000	60.508113
1814.000000	60.594775
1813.000000	60.668899
1812.000000	60.723588
1811.000000	60.761578
1810.000000	60.781756
1809.000000	60.788592
1808.000000	60.804765
1807.000000	60.849439
1806.000000	60.917967
1805.000000	60.992454
1804.000000	61.060659
1803.000000	61.115470
1802.000000	61.150857
1801.000000	61.169376
1800.000000	61.180017
1799.000000	61.191923
1798.000000	61.209218
1797.000000	61.241121
1796.000000	61.298172
1795.000000	61.370938
1794.000000	61.423267
1793.000000	61.421811
1792.000000	61.380725
1791.000000	61.343605
1790.000000	61.327287
1789.000000	61.338565
1788.000000	61.383664
1787.000000	61.453119
1786.000000	61.526303
1785.000000	61.592016
1784.000000	61.652431
1783.000000	61.703231
1782.000000	61.734768
1781.000000	61.751142
1780.000000	61.764091
1779.000000	61.786785
1778.000000	61.824825
1777.000000	61.885794
1776.000000	61.978668
1775.000000	62.101977
1774.000000	62.233351
1773.000000	62.333701
1772.000000	62.386544
1771.000000	62.400984
1770.000000	62.396480
1769.000000	62.414374
1768.000000	62.483854
1767.000000	62.598325
1766.000000	62.726181
1765.000000	62.838123
1764.000000	62.921887
1763.000000	62.975615
1762.000000	63.009710
1761.000000	63.042419
1760.000000	63.080043
1759.000000	63.129476
1758.000000	63.192902
1757.000000	63.265571
1756.000000	63.338009
1755.000000	63.405680
1754.000000	63.474728
1753.000000	63.543405
1752.000000	63.591774
1751.000000	63.619055
1750.000000	63.654736
1749.000000	63.706299
1748.000000	63.759055
1747.000000	63.796214
1746.000000	63.809368
1745.000000	63.794556
1744.000000	63.754179
1743.000000	63.705357
1742.000000	63.654792
1741.000000	63.589708
1740.000000	63.511273
1739.000000	63.455081
1738.000000	63.442734
1737.000000	63.468186
1736.000000	63.512185
1735.000000	63.513455
1734.000000	63.454690
1733.000000	63.395986
1732.000000	63.325758
1731.000000	63.241144
1730.000000	63.181335
1729.000000	63.155519
1728.000000	63.138659
1727.000000	63.107800
1726.000000	63.057974
1725.000000	62.989332
1724.000000	62.912422
1723.000000	62.853051
1722.000000	62.820274
1721.000000	62.808123
1720.000000	62.815382
1719.000000	62.834606
1718.000000	62.843642
1717.000000	62.820683
1716.000000	62.743723
1715.000000	62.621542
1714.000000	62.503231
1713.000000	62.431787
1712.000000	62.424808
1711.000000	62.468511
1710.000000	62.530991
1709.000000	62.588994
1708.000000	62.633909
1707.000000	62.665201
1706.000000	62.688166
1705.000000	62.715191
1704.000000	62.759874
1703.000000	62.833446
1702.000000	62.916861
1701.000000	62.922784
1700.000000	62.876904
1699.000000	62.902838
1698.000000	62.966085
1697.000000	63.013961
1696.000000	63.026198
1695.000000	62.977472
1694.000000	62.860293
1693.000000	62.709626
1692.000000	62.585307
1691.000000	62.512216
1690.000000	62.460194
1689.000000	62.408056
1688.000000	62.375299
1687.000000	62.392143
1686.000000	62.424601
1685.000000	62.354437
1684.000000	62.173370
1683.000000	61.951645
1682.000000	61.692191
1681.000000	61.465003
1680.000000	61.301583
1679.000000	61.176476
1678.000000	61.056592
1677.000000	60.911180
1676.000000	60.716356
1675.000000	60.501900
1674.000000	60.325745
1673.000000	60.181051
1672.000000	60.031674
1671.000000	59.862371
1670.000000	59.663591
1669.000000	59.441124
1668.000000	59.207170
1667.000000	58.983026
1666.000000	58.782456
1665.000000	58.582092
1664.000000	58.344378
1663.000000	58.065237
1662.000000	57.773145
1661.000000	57.476847
1660.000000	57.166640
1659.000000	56.856611
1658.000000	56.572090
1657.000000	56.329957
1656.000000	56.130908
1655.000000	55.930165
1654.000000	55.568421
1653.000000	54.993995
1652.000000	54.380953
1651.000000	53.761619
1650.000000	53.109440
1649.000000	52.396442
1648.000000	51.555729
1647.000000	50.519404
1646.000000	49.353362
1645.000000	48.171542
1644.000000	47.030674
1643.000000	45.920698
1642.000000	44.831721
1641.000000	43.797370
1640.000000	42.890704
1639.000000	42.179954
1638.000000	41.683075
1637.000000	41.376093
1636.000000	41.261937
1635.000000	41.356811
1634.000000	41.592194
1633.000000	41.895033
1632.000000	42.261443
1631.000000	42.703368
1630.000000	43.213009
1629.000000	43.770058
1628.000000	44.354096
1627.000000	44.929119
1626.000000	45.464861
1625.000000	45.979243
1624.000000	46.519698
1623.000000	47.102587
1622.000000	47.676319
1621.000000	48.192111
1620.000000	48.679950
1619.000000	49.221497
1618.000000	49.883411
1617.000000	50.666009
1616.000000	51.458089
1615.000000	52.098313
1614.000000	52.567050
1613.000000	52.979746
1612.000000	53.414244
1611.000000	53.840668
1610.000000	54.176123
1609.000000	54.361474
1608.000000	54.352362
1607.000000	54.080840
1606.000000	53.474606
1605.000000	52.478749
1604.000000	51.064478
1603.000000	49.251851
1602.000000	47.115059
1601.000000	44.718686
1600.000000	42.013082
1599.000000	38.837252
1598.000000	35.026552
1597.000000	30.601007
1596.000000	25.936603
1595.000000	21.737917
1594.000000	18.677087
1593.000000	16.970003
1592.000000	16.377898
1591.000000	16.528137
1590.000000	17.128399
1589.000000	17.949753
1588.000000	18.795935
1587.000000	19.529309
1586.000000	20.083223
1585.000000	20.481196
1584.000000	20.818486
1583.000000	21.190729
1582.000000	21.616754
1581.000000	22.053623
1580.000000	22.496371
1579.000000	23.010176
1578.000000	23.642481
1577.000000	24.319692
1576.000000	24.876108
1575.000000	25.212002
1574.000000	25.361009
1573.000000	25.406254
1572.000000	25.429256
1571.000000	25.531879
1570.000000	25.819576
1569.000000	26.313028
1568.000000	26.946267
1567.000000	27.699503
1566.000000	28.586150
1565.000000	29.540567
1564.000000	30.444841
1563.000000	31.250280
1562.000000	32.012547
1561.000000	32.814944
1560.000000	33.745019
1559.000000	34.934422
1558.000000	36.196143
1557.000000	37.158435
1556.000000	37.931489
1555.000000	38.722487
1554.000000	39.566713
1553.000000	40.369293
1552.000000	41.060063
1551.000000	41.688188
1550.000000	42.321138
1549.000000	42.941337
1548.000000	43.494368
1547.000000	43.983531
1546.000000	44.457558
1545.000000	44.944204
1544.000000	45.434672
1543.000000	45.918726
1542.000000	46.410139
1541.000000	46.916796
1540.000000	47.412951
1539.000000	47.817692
1538.000000	48.080254
1537.000000	48.260028
1536.000000	48.437268
1535.000000	48.667082
1534.000000	48.954428
1533.000000	49.267556
1532.000000	49.558251
1531.000000	49.822900
1530.000000	50.088497
1529.000000	50.351253
1528.000000	50.599319
1527.000000	50.839026
1526.000000	51.080483
1525.000000	51.319623
1524.000000	51.553922
1523.000000	51.796198
1522.000000	52.044329
1521.000000	52.262457
1520.000000	52.408022
1519.000000	52.498918
1518.000000	52.599939
1517.000000	52.736582
1516.000000	52.886050
1515.000000	53.025185
1514.000000	53.160649
1513.000000	53.293212
1512.000000	53.411278
1511.000000	53.528839
1510.000000	53.671837
1509.000000	53.851077
1508.000000	54.048822
1507.000000	54.255530
1506.000000	54.418233
1505.000000	54.477818
1504.000000	54.498512
1503.000000	54.535596
1502.000000	54.623831
1501.000000	54.757940
1500.000000	54.905478
1499.000000	55.062387
1498.000000	55.246061
1497.000000	55.443487
1496.000000	55.626220
1495.000000	55.787786
1494.000000	55.937620
1493.000000	56.090598
1492.000000	56.260383
1491.000000	56.462668
1490.000000	56.712539
1489.000000	56.988832
1488.000000	57.253975
1487.000000	57.511183
1486.000000	57.767949
1485.000000	58.018601
1484.000000	58.261630
1483.000000	58.506754
1482.000000	58.763177
1481.000000	59.016560
1480.000000	59.250162
1479.000000	59.467494
1478.000000	59.682193
1477.000000	59.900858
1476.000000	60.140443
1475.000000	60.423955
1474.000000	60.750725
1473.000000	61.092043
1472.000000	61.406844
1471.000000	61.666958
1470.000000	61.870184
1469.000000	62.025584
1468.000000	62.135685
1467.000000	62.182462
1466.000000	62.086599
1465.000000	61.721055
1464.000000	61.006246
1463.000000	59.958137
1462.000000	58.604243
1461.000000	56.954381
1460.000000	55.044706
1459.000000	52.895694
1458.000000	50.449031
1457.000000	47.853961
1456.000000	45.635443
1455.000000	44.029715
1454.000000	42.735203
1453.000000	41.433643
1452.000000	40.077016
1451.000000	38.794367
1450.000000	37.676731
1449.000000	36.690596
1448.000000	35.788738
1447.000000	35.011976
1446.000000	34.506410
1445.000000	34.499427
1444.000000	35.207442
1443.000000	36.669242
1442.000000	38.633865
1441.000000	40.690255
1440.000000	42.517804
1439.000000	44.010333
1438.000000	45.216474
1437.000000	46.242070
1436.000000	47.188263
1435.000000	48.097323
1434.000000	48.988239
1433.000000	49.892481
1432.000000	50.808906
1431.000000	51.684605
1430.000000	52.467255
1429.000000	53.135619
1428.000000	53.686870
1427.000000	54.134031
1426.000000	54.516781
1425.000000	54.876735
1424.000000	55.218356
1423.000000	55.531215
1422.000000	55.829258
1421.000000	56.136097
1420.000000	56.442187
1419.000000	56.742491
1418.000000	57.050285
1417.000000	57.351324
1416.000000	57.637467
1415.000000	57.916160
1414.000000	58.193096
1413.000000	58.465409
1412.000000	58.717412
1411.000000	58.940619
1410.000000	59.143679
1409.000000	59.322001
1408.000000	59.441400
1407.000000	59.458803
1406.000000	59.344185
1405.000000	59.070934
1404.000000	58.616422
1403.000000	58.016874
1402.000000	57.364436
1401.000000	56.735382
1400.000000	56.169808
1399.000000	55.699591
1398.000000	55.340506
1397.000000	55.091775
1396.000000	54.990354
1395.000000	55.116800
1394.000000	55.494689
1393.000000	56.011271
1392.000000	56.501706
1391.000000	56.871574
1390.000000	57.109258
1389.000000	57.241133
1388.000000	57.308950
1387.000000	57.376189
1386.000000	57.510315
1385.000000	57.751611
1384.000000	58.111837
1383.000000	58.583850
1382.000000	59.137037
1381.000000	59.716857
1380.000000	60.264239
1379.000000	60.736722
1378.000000	61.115488
1377.000000	61.389035
1376.000000	61.527858
1375.000000	61.481889
1374.000000	61.194774
1373.000000	60.604070
1372.000000	59.627231
1371.000000	58.133627
1370.000000	55.957302
1369.000000	53.022644
1368.000000	49.544063
1367.000000	46.094984
1366.000000	43.368549
1365.000000	41.851832
1364.000000	41.696453
1363.000000	42.723511
1362.000000	44.502202
1361.000000	46.583974
1360.000000	48.702007
1359.000000	50.736070
1358.000000	52.603593
1357.000000	54.236192
1356.000000	55.606526
1355.000000	56.733572
1354.000000	57.662408
1353.000000	58.441144
1352.000000	59.104481
1351.000000	59.664417
1350.000000	60.124241
1349.000000	60.500692
1348.000000	60.818059
1347.000000	61.100006
1346.000000	61.369305
1345.000000	61.644367
1344.000000	61.926572
1343.000000	62.198925
1342.000000	62.447149
1341.000000	62.675677
1340.000000	62.896453
1339.000000	63.111834
1338.000000	63.319150
1337.000000	63.523587
1336.000000	63.730588
1335.000000	63.934779
1334.000000	64.126530
1333.000000	64.298407
1332.000000	64.441927
1331.000000	64.549135
1330.000000	64.623117
1329.000000	64.678848
1328.000000	64.723825
1327.000000	64.741654
1326.000000	64.688520
1325.000000	64.488215
1324.000000	64.034724
1323.000000	63.216629
1322.000000	61.965112
1321.000000	60.294557
1320.000000	58.305595
1319.000000	56.152913
1318.000000	53.984370
1317.000000	51.919123
1316.000000	50.111320
1315.000000	48.806558
1314.000000	48.246951
1313.000000	48.486200
1312.000000	49.318919
1311.000000	50.409116
1310.000000	51.504306
1309.000000	52.526604
1308.000000	53.525055
1307.000000	54.588618
1306.000000	55.770213
1305.000000	57.045486
1304.000000	58.317606
1303.000000	59.475591
1302.000000	60.458669
1301.000000	61.266478
1300.000000	61.915981
1299.000000	62.417371
1298.000000	62.777556
1297.000000	62.988000
1296.000000	63.011543
1295.000000	62.789963
1294.000000	62.265343
1293.000000	61.373533
1292.000000	60.056609
1291.000000	58.375892
1290.000000	56.606790
1289.000000	55.127662
1288.000000	54.133123
1287.000000	53.446064
1286.000000	52.663651
1285.000000	51.520458
1284.000000	50.097406
1283.000000	48.728244
1282.000000	47.767846
1281.000000	47.420248
1280.000000	47.702304
1279.000000	48.471353
1278.000000	49.469932
1277.000000	50.385663
1276.000000	50.877696
1275.000000	50.612404
1274.000000	49.436302
1273.000000	47.652109
1272.000000	46.098392
1271.000000	45.737639
1270.000000	46.998685
1269.000000	49.498381
1268.000000	52.392660
1267.000000	54.975861
1266.000000	56.979979
1265.000000	58.466221
1264.000000	59.591731
1263.000000	60.486901
1262.000000	61.242602
1261.000000	61.913540
1260.000000	62.513111
1259.000000	63.030498
1258.000000	63.463256
1257.000000	63.814396
1256.000000	64.084041
1255.000000	64.285544
1254.000000	64.454706
1253.000000	64.631092
1252.000000	64.833436
1251.000000	65.064262
1250.000000	65.323238
1249.000000	65.601873
1248.000000	65.878840
1247.000000	66.138099
1246.000000	66.386078
1245.000000	66.639548
1244.000000	66.905256
1243.000000	67.181268
1242.000000	67.465319
1241.000000	67.745813
1240.000000	67.993406
1239.000000	68.177941
1238.000000	68.292861
1237.000000	68.352311
1236.000000	68.374701
1235.000000	68.383301
1234.000000	68.407705
1233.000000	68.465717
1232.000000	68.545045
1231.000000	68.612857
1230.000000	68.639062
1229.000000	68.595207
1228.000000	68.446957
1227.000000	68.158278
1226.000000	67.690816
1225.000000	66.989761
1224.000000	65.962906
1223.000000	64.511717
1222.000000	62.587713
1221.000000	60.220925
1220.000000	57.533202
1219.000000	54.714866
1218.000000	51.965373
1217.000000	49.420350
1216.000000	47.119009
1215.000000	45.029066
1214.000000	43.089580
1213.000000	41.246992
1212.000000	39.484417
1211.000000	37.837614
1210.000000	36.366583
1209.000000	35.132240
1208.000000	34.191356
1207.000000	33.575638
1206.000000	33.264354
1205.000000	33.174636
1204.000000	33.220692
1203.000000	33.378361
1202.000000	33.683999
1201.000000	34.199774
1200.000000	34.962699
1199.000000	35.961983
1198.000000	37.147960
1197.000000	38.458425
1196.000000	39.855555
1195.000000	41.325276
1194.000000	42.855533
1193.000000	44.424070
1192.000000	45.999277
1191.000000	47.546997
1190.000000	49.034080
1189.000000	50.432146
1188.000000	51.719959
1187.000000	52.886631
1186.000000	53.925190
1185.000000	54.828423
1184.000000	55.588424
1183.000000	56.195877
1182.000000	56.649360
1181.000000	56.955046
1180.000000	57.131185
1179.000000	57.213254
1178.000000	57.240874
1177.000000	57.242476
1176.000000	57.228836
1175.000000	57.205414
1174.000000	57.183519
1173.000000	57.176419
1172.000000	57.196327
1171.000000	57.258820
1170.000000	57.382190
1169.000000	57.574423
1168.000000	57.823570
1167.000000	58.100367
1166.000000	58.364996
1165.000000	58.571811
1164.000000	58.682287
1163.000000	58.690783
1162.000000	58.639265
1161.000000	58.600819
1160.000000	58.645542
1159.000000	58.814062
1158.000000	59.108992
1157.000000	59.500186
1156.000000	59.944211
1155.000000	60.407970
1154.000000	60.876257
1153.000000	61.340981
1152.000000	61.788012
1151.000000	62.198920
1150.000000	62.558515
1149.000000	62.854926
1148.000000	63.075127
1147.000000	63.212063
1146.000000	63.272182
1145.000000	63.264265
1144.000000	63.190064
1143.000000	63.042574
1142.000000	62.811612
1141.000000	62.483248
1140.000000	62.031196
1139.000000	61.427831
1138.000000	60.644531
1137.000000	59.646013
1136.000000	58.396132
1135.000000	56.863176
1134.000000	55.032077
1133.000000	52.894435
1132.000000	50.452487
1131.000000	47.749856
1130.000000	44.886648
1129.000000	42.016557
1128.000000	39.332057
1127.000000	37.027329
1126.000000	35.233603
1125.000000	33.979818
1124.000000	33.194015
1123.000000	32.712967
1122.000000	32.281493
1121.000000	31.568403
1120.000000	30.235187
1119.000000	28.039433
1118.000000	24.964970
1117.000000	21.355489
1116.000000	17.933461
1115.000000	15.601235
1114.000000	15.031017
1113.000000	16.343436
1112.000000	19.112061
1111.000000	22.589229
1110.000000	26.012318
1109.000000	28.834466
1108.000000	30.786956
1107.000000	31.767921
1106.000000	31.691789
1105.000000	30.512790
1104.000000	28.470845
1103.000000	26.284932
1102.000000	24.946008
1101.000000	25.176804
1100.000000	27.028346
1099.000000	29.935392
1098.000000	33.134922
1097.000000	36.083286
1096.000000	38.570831
1095.000000	40.611222
1094.000000	42.301179
1093.000000	43.744082
1092.000000	45.023056
1091.000000	46.195203
1090.000000	47.296581
1089.000000	48.351321
1088.000000	49.381683
1087.000000	50.402625
1086.000000	51.422003
1085.000000	52.437259
1084.000000	53.429117
1083.000000	54.370814
1082.000000	55.241474
1081.000000	56.033518
1080.000000	56.745861
1079.000000	57.378327
1078.000000	57.938745
1077.000000	58.435601
1076.000000	58.866668
1075.000000	59.218880
1074.000000	59.469689
1073.000000	59.590151
1072.000000	59.528828
1071.000000	59.217324
1070.000000	58.590554
1069.000000	57.580473
1068.000000	56.125745
1067.000000	54.177308
1066.000000	51.721863
1065.000000	48.808624
1064.000000	45.551946
1063.000000	42.138981
1062.000000	38.781390
1061.000000	35.635078
1060.000000	32.741027
1059.000000	30.016468
1058.000000	27.305914
1057.000000	24.496797
1056.000000	21.648293
1055.000000	19.013902
1054.000000	16.961133
1053.000000	15.815008
1052.000000	15.758597
1051.000000	16.792158
1050.000000	18.708055
1049.000000	21.177687
1048.000000	23.856875
1047.000000	26.476560
1046.000000	28.890805
1045.000000	31.059960
1044.000000	33.012351
1043.000000	34.786422
1042.000000	36.395911
1041.000000	37.832502
1040.000000	39.093571
1039.000000	40.191094
1038.000000	41.149111
1037.000000	41.998735
1036.000000	42.767497
1035.000000	43.479921
1034.000000	44.152227
1033.000000	44.793172
1032.000000	45.408946
1031.000000	46.003878
1030.000000	46.582112
1029.000000	47.145380
1028.000000	47.694602
1027.000000	48.235854
1026.000000	48.782077
1025.000000	49.346813
1024.000000	49.934954
1023.000000	50.540595
1022.000000	51.152917
1021.000000	51.757112
1020.000000	52.333510
1019.000000	52.858057
1018.000000	53.301663
1017.000000	53.628060
1016.000000	53.773457
1015.000000	53.652275
1014.000000	53.166851
1013.000000	52.213516
1012.000000	50.710261
1011.000000	48.605613
1010.000000	45.891025
1009.000000	42.592913
1008.000000	38.801571
1007.000000	34.791159
1006.000000	31.123509
1005.000000	28.554265
1004.000000	27.695450
1003.000000	28.636295
1002.000000	30.830389
1001.000000	33.396995
1000.000000	35.527650
999.000000	36.685727
998.000000	36.619627
997.000000	35.391492
996.000000	33.475401
995.000000	31.686369
994.000000	30.795428
993.000000	31.095108
992.000000	32.316632
991.000000	33.934906
990.000000	35.545968
989.000000	37.022270
988.000000	38.422579
987.000000	39.822512
986.000000	41.232829
985.000000	42.609869
984.000000	43.897786
983.000000	45.061496
982.000000	46.097398
981.000000	47.023356
980.000000	47.859213
979.000000	48.622867
978.000000	49.328883
977.000000	49.988550
976.000000	50.605076
975.000000	51.175308
974.000000	51.700529
973.000000	52.183382
972.000000	52.622547
971.000000	53.014959
970.000000	53.362117
969.000000	53.670940
968.000000	53.945724
967.000000	54.190181
966.000000	54.414215
965.000000	54.630322
964.000000	54.846353
963.000000	55.066167
962.000000	55.296009
961.000000	55.542108
960.000000	55.803107
959.000000	56.072606
958.000000	56.347135
957.000000	56.624807
956.000000	56.898168
955.000000	57.156274
954.000000	57.393261
953.000000	57.606212
952.000000	57.787759
951.000000	57.930715
950.000000	58.037289
949.000000	58.116995
948.000000	58.176540
947.000000	58.221443
946.000000	58.264688
945.000000	58.321754
944.000000	58.399205
943.000000	58.496698
942.000000	58.617827
941.000000	58.768319
940.000000	58.945762
939.000000	59.140595
938.000000	59.346322
937.000000	59.558373
936.000000	59.764072
935.000000	59.945668
934.000000	60.093942
933.000000	60.208643
932.000000	60.286778
931.000000	60.324475
930.000000	60.328710
929.000000	60.316348
928.000000	60.300891
927.000000	60.290377
926.000000	60.296914
925.000000	60.334671
924.000000	60.407886
923.000000	60.511635
922.000000	60.644470
921.000000	60.807398
920.000000	60.992063
919.000000	61.182046
918.000000	61.366857
917.000000	61.542275
916.000000	61.697070
915.000000	61.813942
914.000000	61.885851
913.000000	61.918587
912.000000	61.915969
911.000000	61.879979
910.000000	61.825085
909.000000	61.776295
908.000000	61.750073
907.000000	61.750616
906.000000	61.784135
905.000000	61.858258
904.000000	61.963557
903.000000	62.073802
902.000000	62.170826
901.000000	62.254982
900.000000	62.326870
899.000000	62.369032
898.000000	62.347526
897.000000	62.212313
896.000000	61.913970
895.000000	61.451156
894.000000	60.888959
893.000000	60.276435
892.000000	59.534468
891.000000	58.508399
890.000000	57.201378
889.000000	55.923244
888.000000	55.112569
887.000000	54.993055
886.000000	55.420534
885.000000	56.065349
884.000000	56.696876
883.000000	57.253171
882.000000	57.733212
881.000000	58.117324
880.000000	58.401384
879.000000	58.647140
878.000000	58.945966
877.000000	59.343326
876.000000	59.808654
875.000000	60.268151
874.000000	60.653626
873.000000	60.933393
872.000000	61.117662
871.000000	61.243689
870.000000	61.350967
869.000000	61.460335
868.000000	61.571919
867.000000	61.672594
866.000000	61.743017
865.000000	61.765296
864.000000	61.733511
863.000000	61.664910
862.000000	61.597682
861.000000	61.571842
860.000000	61.607915
859.000000	61.698045
858.000000	61.811580
857.000000	61.909794
856.000000	61.964347
855.000000	61.970141
854.000000	61.944372
853.000000	61.913056
852.000000	61.898204
851.000000	61.915172
850.000000	61.973657
849.000000	62.075825
848.000000	62.214596
847.000000	62.378174
846.000000	62.556776
845.000000	62.742756
844.000000	62.927566
843.000000	63.102267
842.000000	63.259620
841.000000	63.390327
840.000000	63.479373
839.000000	63.510674
838.000000	63.476684
837.000000	63.381287
836.000000	63.235440
835.000000	63.058578
834.000000	62.881032
833.000000	62.736883
832.000000	62.649960
831.000000	62.627360
830.000000	62.663136
829.000000	62.744214
828.000000	62.855057
827.000000	62.983412
826.000000	63.125804
825.000000	63.281941
824.000000	63.442554
823.000000	63.586636
822.000000	63.692272
821.000000	63.743568
820.000000	63.727458
819.000000	63.633688
818.000000	63.462721
817.000000	63.231710
816.000000	62.964849
815.000000	62.681442
814.000000	62.385855
813.000000	62.050705
812.000000	61.600638
811.000000	60.923494
810.000000	59.945088
809.000000	58.735843
808.000000	57.550883
807.000000	56.725223
806.000000	56.482816
805.000000	56.813519
804.000000	57.516839
803.000000	58.348103
802.000000	59.122217
801.000000	59.731827
800.000000	60.125485
799.000000	60.296525
798.000000	60.274334
797.000000	60.100302
796.000000	59.803907
795.000000	59.400901
794.000000	58.903564
793.000000	58.320758
792.000000	57.664364
791.000000	56.965881
790.000000	56.284508
789.000000	55.689563
788.000000	55.234549
787.000000	54.945635
786.000000	54.821363
785.000000	54.832910
784.000000	54.925312
783.000000	55.030694
782.000000	55.086633
781.000000	55.051225
780.000000	54.914347
779.000000	54.705419
778.000000	54.490441
777.000000	54.348943
776.000000	54.344304
775.000000	54.507195
774.000000	54.833074
773.000000	55.289003
772.000000	55.825628
771.000000	56.395676
770.000000	56.969549
769.000000	57.533157
768.000000	58.074777
767.000000	58.577197
766.000000	59.020223
765.000000	59.380779
764.000000	59.633094
763.000000	59.759807
762.000000	59.768522
761.000000	59.693289
760.000000	59.579029
759.000000	59.469733
758.000000	59.403242
757.000000	59.403222
756.000000	59.470193
755.000000	59.585447
754.000000	59.726415
753.000000	59.876443
752.000000	60.024930
751.000000	60.168305
750.000000	60.311477
749.000000	60.457863
748.000000	60.593674
747.000000	60.686411
746.000000	60.700311
745.000000	60.608650
744.000000	60.397944
743.000000	60.074943
742.000000	59.673674
741.000000	59.247059
740.000000	58.846026
739.000000	58.507301
738.000000	58.252180
737.000000	58.082442
736.000000	57.973488
735.000000	57.881458
734.000000	57.764644
733.000000	57.596619
732.000000	57.362740
731.000000	57.057345
730.000000	56.688078
729.000000	56.272742
728.000000	55.828222
727.000000	55.371317
726.000000	54.933800
725.000000	54.567479
724.000000	54.327282
723.000000	54.251050
722.000000	54.354783
721.000000	54.631966
720.000000	55.046273
719.000000	55.534491
718.000000	56.030938
717.000000	56.489710
716.000000	56.886105
715.000000	57.212928
714.000000	57.482391
713.000000	57.719708
712.000000	57.942485
711.000000	58.148705
710.000000	58.324825
709.000000	58.453241
708.000000	58.510499
707.000000	58.476311
706.000000	58.355323
705.000000	58.182770
704.000000	58.004412
703.000000	57.856677
702.000000	57.766403
701.000000	57.750778
700.000000	57.803531
699.000000	57.894272
698.000000	57.992876
697.000000	58.088435
696.000000	58.181500
695.000000	58.273122
694.000000	58.372748
693.000000	58.497446
692.000000	58.644654
691.000000	58.780470
690.000000	58.865448
689.000000	58.878276
688.000000	58.807136
687.000000	58.642487
686.000000	58.403203
685.000000	58.148438
684.000000	57.936781
683.000000	57.789136
682.000000	57.704950
681.000000	57.689207
680.000000	57.735485
679.000000	57.813105
678.000000	57.903822
677.000000	58.022219
676.000000	58.188397
675.000000	58.392614
674.000000	58.619859
673.000000	58.863318
672.000000	59.079687
671.000000	59.188555
670.000000	59.163754
669.000000	59.102893
668.000000	59.029607
667.000000	58.881130
666.000000	58.754037
665.000000	58.675281
664.000000	58.590180
663.000000	58.539650
662.000000	58.567360
661.000000	58.646601
660.000000	58.729174
659.000000	58.816419
658.000000	58.934248
657.000000	59.084452
656.000000	59.259583
655.000000	59.457318
654.000000	59.658030
653.000000	59.812245
652.000000	59.875741
651.000000	59.843041
650.000000	59.731285
649.000000	59.558529
648.000000	59.357285
647.000000	59.182710
646.000000	59.076663
645.000000	59.038633
644.000000	59.045223
643.000000	59.078752
642.000000	59.128491
641.000000	59.184292
640.000000	59.249500
639.000000	59.347074
638.000000	59.494413
637.000000	59.680916
636.000000	59.877894
635.000000	60.053249
634.000000	60.171164
633.000000	60.198657
632.000000	60.127824
631.000000	59.987415
630.000000	59.822513
629.000000	59.667925
628.000000	59.546194
627.000000	59.475424
626.000000	59.460222
625.000000	59.482268
624.000000	59.514871
623.000000	59.546392
622.000000	59.585571
621.000000	59.648459
620.000000	59.749475
619.000000	59.897940
618.000000	60.088661
617.000000	60.292098
616.000000	60.459803
615.000000	60.545880
614.000000	60.529138
613.000000	60.421967
612.000000	60.261546
611.000000	60.093190
610.000000	59.954521
609.000000	59.864726
608.000000	59.821619
607.000000	59.806790
606.000000	59.797142
605.000000	59.778682
604.000000	59.751594
603.000000	59.725662
602.000000	59.714285
601.000000	59.725910
600.000000	59.746909
599.000000	59.730076
598.000000	59.610985
597.000000	59.332674
596.000000	58.859851
595.000000	58.173397
594.000000	57.233470
593.000000	55.913986
592.000000	53.972326
591.000000	51.216001
590.000000	47.838754
589.000000	44.600555
588.000000	42.538063
587.000000	42.327241
586.000000	43.793072
585.000000	46.061969
584.000000	48.271991
583.000000	50.076502
582.000000	51.548093
581.000000	52.830930
580.000000	53.967273
579.000000	54.935562
578.000000	55.711299
577.000000	56.276943
576.000000	56.638316
575.000000	56.848600
574.000000	56.978829
573.000000	57.074204
572.000000	57.155252
571.000000	57.237383
570.000000	57.321604
569.000000	57.377687
568.000000	57.372609
567.000000	57.299261
566.000000	57.150539
565.000000	56.883604
564.000000	56.437657
563.000000	55.795743
562.000000	55.010571
561.000000	54.173290
560.000000	53.371746
559.000000	52.653831
558.000000	51.999029
557.000000	51.351235
556.000000	50.727546
555.000000	50.270514
554.000000	50.151150
553.000000	50.429295
552.000000	51.032376
551.000000	51.823134
550.000000	52.647229
549.000000	53.379067
548.000000	53.971772
547.000000	54.454902
546.000000	54.872584
545.000000	55.236376
544.000000	55.541420
543.000000	55.792533
542.000000	55.991676
541.000000	56.117390
540.000000	56.146635
539.000000	56.083735
538.000000	55.951980
537.000000	55.771750
536.000000	55.559316
535.000000	55.338331
534.000000	55.127243
533.000000	54.927688
532.000000	54.743144
531.000000	54.594769
530.000000	54.501053
529.000000	54.456100
528.000000	54.441264
527.000000	54.437315
526.000000	54.401865
525.000000	54.259969
524.000000	53.948574
523.000000	53.452561
522.000000	52.790879
521.000000	51.988786
520.000000	51.078987
519.000000	50.100013
518.000000	49.067052
517.000000	47.974406
516.000000	46.858971
515.000000	45.833349
514.000000	45.025249
513.000000	44.519276
512.000000	44.360150
511.000000	44.565726
510.000000	45.094898
509.000000	45.846240
508.000000	46.724716
507.000000	47.662937
506.000000	48.590058
505.000000	49.441201
504.000000	50.208793
503.000000	50.937510
502.000000	51.646570
501.000000	52.296150
500.000000	52.846543
499.000000	53.303822
498.000000	53.683784
497.000000	53.983943
496.000000	54.209203
495.000000	54.391580
494.000000	54.567309
493.000000	54.751785
492.000000	54.952059
491.000000	55.179654
490.000000	55.427423
489.000000	55.658824
488.000000	55.834563
487.000000	55.930312
486.000000	55.913408
485.000000	55.718496
484.000000	55.274078
483.000000	54.531876
482.000000	53.473378
481.000000	52.115845
480.000000	50.528744
479.000000	48.827759
478.000000	47.117930
477.000000	45.478512
476.000000	44.029852
475.000000	42.978775
474.000000	42.525062
473.000000	42.738097
472.000000	43.518368
471.000000	44.663073
470.000000	45.985828
469.000000	47.365234
468.000000	48.735306
467.000000	50.047315
466.000000	51.240150
465.000000	52.259283
464.000000	53.095455
463.000000	53.784825
462.000000	54.367649
461.000000	54.858479
460.000000	55.262446
459.000000	55.617373
458.000000	55.980318
457.000000	56.362922
456.000000	56.732631
455.000000	57.079111
454.000000	57.430821
453.000000	57.811504
452.000000	58.204281
451.000000	58.568847
450.000000	58.876341
449.000000	59.118591
448.000000	59.300364
447.000000	59.437164
446.000000	59.548617
445.000000	59.644639
444.000000	59.730182
443.000000	59.816996
442.000000	59.914603
441.000000	60.016005
440.000000	60.111198
439.000000	60.206107
438.000000	60.317496
437.000000	60.456096
436.000000	60.621929
435.000000	60.806211
434.000000	60.979271
433.000000	61.083983
432.000000	61.062763
431.000000	60.905143
430.000000	60.654022
429.000000	60.361878
428.000000	60.064045
427.000000	59.801072
426.000000	59.616829
425.000000	59.520095
424.000000	59.489164
423.000000	59.512411
422.000000	59.591584
421.000000	59.721255
420.000000	59.918326
419.000000	60.252115
418.000000	60.712531
417.000000	61.183835
416.000000	61.609691
415.000000	62.020888
414.000000	62.442919
413.000000	62.840929
412.000000	63.140087
411.000000	63.292402
410.000000	63.308744
409.000000	63.219046
408.000000	63.026708
407.000000	62.745552
406.000000	62.467705
405.000000	62.318111
404.000000	62.345084
403.000000	62.506052
402.000000	62.729834
401.000000	62.975105
400.000000	63.237572
