PE IR       SUBTECH     SPECTRUM    ASCII       PEDS        4.00        
   -1
23MS243-TRANS.asc
24/09/24
16:36:06.00
24/09/24
16:36:06.00
Administrator
Sample 1201 By Administrator Date Tuesday, September 24 2024
400.000000
#HDR
-1
-1
#GR
cm-1
%T
1.0
0.0
4000.000000
-1.000000
3601
8
100.053631
48.960340
#DATA
4000.000000	90.592191
3999.000000	90.567503
3998.000000	90.543951
3997.000000	90.521325
3996.000000	90.499189
3995.000000	90.477511
3994.000000	90.456779
3993.000000	90.437228
3992.000000	90.418324
3991.000000	90.399357
3990.000000	90.379574
3989.000000	90.357577
3988.000000	90.331388
3987.000000	90.299703
3986.000000	90.262941
3985.000000	90.222519
3984.000000	90.179649
3983.000000	90.135031
3982.000000	90.089387
3981.000000	90.044350
3980.000000	90.002700
3979.000000	89.967720
3978.000000	89.942934
3977.000000	89.931313
3976.000000	89.933751
3975.000000	89.948533
3974.000000	89.972767
3973.000000	90.005290
3972.000000	90.046285
3971.000000	90.095184
3970.000000	90.149634
3969.000000	90.205201
3968.000000	90.256963
3967.000000	90.301243
3966.000000	90.336424
3965.000000	90.362969
3964.000000	90.382500
3963.000000	90.396147
3962.000000	90.404576
3961.000000	90.409366
3960.000000	90.412121
3959.000000	90.414421
3958.000000	90.418762
3957.000000	90.427124
3956.000000	90.440557
3955.000000	90.459183
3954.000000	90.483449
3953.000000	90.514760
3952.000000	90.554791
3951.000000	90.605882
3950.000000	90.668699
3949.000000	90.739230
3948.000000	90.812208
3947.000000	90.886728
3946.000000	90.964714
3945.000000	91.045396
3944.000000	91.124703
3943.000000	91.198290
3942.000000	91.265130
3941.000000	91.329346
3940.000000	91.392764
3939.000000	91.450401
3938.000000	91.496699
3937.000000	91.530300
3936.000000	91.555943
3935.000000	91.580300
3934.000000	91.609354
3933.000000	91.645584
3932.000000	91.683866
3931.000000	91.716327
3930.000000	91.738354
3929.000000	91.754397
3928.000000	91.774437
3927.000000	91.799325
3926.000000	91.819281
3925.000000	91.827123
3924.000000	91.827053
3923.000000	91.829123
3922.000000	91.836356
3921.000000	91.847235
3920.000000	91.864886
3919.000000	91.892203
3918.000000	91.924206
3917.000000	91.953411
3916.000000	91.980554
3915.000000	92.012890
3914.000000	92.051920
3913.000000	92.095320
3912.000000	92.139904
3911.000000	92.180168
3910.000000	92.213234
3909.000000	92.239517
3908.000000	92.265841
3907.000000	92.297203
3906.000000	92.328727
3905.000000	92.351500
3904.000000	92.365118
3903.000000	92.386806
3902.000000	92.435248
3901.000000	92.501706
3900.000000	92.558945
3899.000000	92.591800
3898.000000	92.604882
3897.000000	92.613671
3896.000000	92.627462
3895.000000	92.652017
3894.000000	92.693666
3893.000000	92.743685
3892.000000	92.768675
3891.000000	92.744762
3890.000000	92.705981
3889.000000	92.701061
3888.000000	92.731264
3887.000000	92.765837
3886.000000	92.771152
3885.000000	92.743060
3884.000000	92.722428
3883.000000	92.742476
3882.000000	92.789050
3881.000000	92.822473
3880.000000	92.814982
3879.000000	92.785287
3878.000000	92.778346
3877.000000	92.803598
3876.000000	92.830679
3875.000000	92.828623
3874.000000	92.803714
3873.000000	92.796797
3872.000000	92.826828
3871.000000	92.862637
3870.000000	92.859312
3869.000000	92.826743
3868.000000	92.823185
3867.000000	92.861124
3866.000000	92.905070
3865.000000	92.937462
3864.000000	92.953513
3863.000000	92.956859
3862.000000	92.959798
3861.000000	92.965202
3860.000000	92.967890
3859.000000	92.961001
3858.000000	92.947165
3857.000000	92.942044
3856.000000	92.969874
3855.000000	93.042100
3854.000000	93.084978
3853.000000	92.999649
3852.000000	92.874802
3851.000000	92.861081
3850.000000	92.937790
3849.000000	93.023182
3848.000000	93.083463
3847.000000	93.117582
3846.000000	93.136961
3845.000000	93.148517
3844.000000	93.145266
3843.000000	93.130525
3842.000000	93.124096
3841.000000	93.136228
3840.000000	93.161614
3839.000000	93.179731
3838.000000	93.170280
3837.000000	93.139594
3836.000000	93.122223
3835.000000	93.144225
3834.000000	93.193146
3833.000000	93.235109
3832.000000	93.249055
3831.000000	93.241471
3830.000000	93.239068
3829.000000	93.260146
3828.000000	93.285920
3827.000000	93.286096
3826.000000	93.265167
3825.000000	93.260793
3824.000000	93.298998
3823.000000	93.365936
3822.000000	93.407794
3821.000000	93.370025
3820.000000	93.299087
3819.000000	93.291921
3818.000000	93.350485
3817.000000	93.406007
3816.000000	93.405174
3815.000000	93.363398
3814.000000	93.345475
3813.000000	93.371462
3812.000000	93.409189
3811.000000	93.441348
3810.000000	93.480805
3809.000000	93.533379
3808.000000	93.567196
3807.000000	93.546336
3806.000000	93.499037
3805.000000	93.502001
3804.000000	93.572300
3803.000000	93.657280
3802.000000	93.689914
3801.000000	93.640961
3800.000000	93.579561
3799.000000	93.586018
3798.000000	93.645522
3797.000000	93.701148
3796.000000	93.725571
3795.000000	93.731488
3794.000000	93.742199
3793.000000	93.762953
3792.000000	93.785522
3791.000000	93.801574
3790.000000	93.810213
3789.000000	93.817196
3788.000000	93.829978
3787.000000	93.851682
3786.000000	93.872976
3785.000000	93.881298
3784.000000	93.879378
3783.000000	93.884744
3782.000000	93.906958
3781.000000	93.936131
3780.000000	93.950435
3779.000000	93.939856
3778.000000	93.923171
3777.000000	93.921527
3776.000000	93.929034
3775.000000	93.931166
3774.000000	93.931845
3773.000000	93.942936
3772.000000	93.959165
3771.000000	93.961550
3770.000000	93.939848
3769.000000	93.909068
3768.000000	93.898873
3767.000000	93.912371
3766.000000	93.922953
3765.000000	93.914431
3764.000000	93.899596
3763.000000	93.899587
3762.000000	93.911621
3761.000000	93.923163
3760.000000	93.929103
3759.000000	93.921479
3758.000000	93.902110
3757.000000	93.886577
3756.000000	93.886294
3755.000000	93.897136
3754.000000	93.910965
3753.000000	93.937185
3752.000000	93.980956
3751.000000	94.000624
3750.000000	93.956398
3749.000000	93.896382
3748.000000	93.905320
3747.000000	93.987277
3746.000000	94.091832
3745.000000	94.154698
3744.000000	94.105656
3743.000000	94.015298
3742.000000	94.007647
3741.000000	94.062173
3740.000000	94.113692
3739.000000	94.145361
3738.000000	94.170808
3737.000000	94.203251
3736.000000	94.245027
3735.000000	94.298797
3734.000000	94.354603
3733.000000	94.387991
3732.000000	94.384601
3731.000000	94.364230
3730.000000	94.363762
3729.000000	94.389865
3728.000000	94.423106
3727.000000	94.448669
3726.000000	94.467400
3725.000000	94.492724
3724.000000	94.530529
3723.000000	94.575652
3722.000000	94.611524
3721.000000	94.629700
3720.000000	94.638855
3719.000000	94.640427
3718.000000	94.631676
3717.000000	94.618873
3716.000000	94.613588
3715.000000	94.620818
3714.000000	94.639615
3713.000000	94.665721
3712.000000	94.683248
3711.000000	94.674882
3710.000000	94.655151
3709.000000	94.648739
3708.000000	94.657256
3707.000000	94.671685
3706.000000	94.688470
3705.000000	94.711136
3704.000000	94.738731
3703.000000	94.761678
3702.000000	94.764109
3701.000000	94.744005
3700.000000	94.726056
3699.000000	94.729238
3698.000000	94.741959
3697.000000	94.748469
3696.000000	94.747983
3695.000000	94.744784
3694.000000	94.741215
3693.000000	94.740318
3692.000000	94.750797
3691.000000	94.775832
3690.000000	94.800803
3689.000000	94.794559
3688.000000	94.753638
3687.000000	94.725395
3686.000000	94.740711
3685.000000	94.775681
3684.000000	94.801006
3683.000000	94.810525
3682.000000	94.806113
3681.000000	94.780531
3680.000000	94.734264
3679.000000	94.697296
3678.000000	94.696125
3677.000000	94.726476
3676.000000	94.730683
3675.000000	94.657017
3674.000000	94.576144
3673.000000	94.571058
3672.000000	94.610229
3671.000000	94.638184
3670.000000	94.621719
3669.000000	94.559069
3668.000000	94.502481
3667.000000	94.486329
3666.000000	94.486938
3665.000000	94.475754
3664.000000	94.448573
3663.000000	94.407626
3662.000000	94.354472
3661.000000	94.293083
3660.000000	94.237903
3659.000000	94.202847
3658.000000	94.179525
3657.000000	94.136908
3656.000000	94.051013
3655.000000	93.948098
3654.000000	93.869077
3653.000000	93.810100
3652.000000	93.753467
3651.000000	93.704187
3650.000000	93.657251
3649.000000	93.584738
3648.000000	93.484836
3647.000000	93.393770
3646.000000	93.332581
3645.000000	93.289646
3644.000000	93.245361
3643.000000	93.188879
3642.000000	93.121945
3641.000000	93.048978
3640.000000	92.971324
3639.000000	92.887034
3638.000000	92.797030
3637.000000	92.707540
3636.000000	92.617027
3635.000000	92.513391
3634.000000	92.389579
3633.000000	92.260196
3632.000000	92.147990
3631.000000	92.063906
3630.000000	91.998146
3629.000000	91.902078
3628.000000	91.755052
3627.000000	91.622965
3626.000000	91.543834
3625.000000	91.477950
3624.000000	91.393482
3623.000000	91.296662
3622.000000	91.203431
3621.000000	91.117740
3620.000000	91.025524
3619.000000	90.904069
3618.000000	90.758697
3617.000000	90.624598
3616.000000	90.518154
3615.000000	90.423279
3614.000000	90.319348
3613.000000	90.201227
3612.000000	90.081945
3611.000000	89.976106
3610.000000	89.882772
3609.000000	89.791884
3608.000000	89.694080
3607.000000	89.588130
3606.000000	89.480744
3605.000000	89.374633
3604.000000	89.268153
3603.000000	89.158922
3602.000000	89.041991
3601.000000	88.914970
3600.000000	88.783886
3599.000000	88.653378
3598.000000	88.524581
3597.000000	88.399352
3596.000000	88.277098
3595.000000	88.153451
3594.000000	88.023006
3593.000000	87.886100
3592.000000	87.749453
3591.000000	87.616956
3590.000000	87.489251
3589.000000	87.370330
3588.000000	87.258446
3587.000000	87.144811
3586.000000	87.030613
3585.000000	86.924065
3584.000000	86.823279
3583.000000	86.720379
3582.000000	86.612711
3581.000000	86.503558
3580.000000	86.396063
3579.000000	86.290133
3578.000000	86.184232
3577.000000	86.080708
3576.000000	85.982715
3575.000000	85.888952
3574.000000	85.795017
3573.000000	85.696829
3572.000000	85.594589
3571.000000	85.492464
3570.000000	85.397772
3569.000000	85.322101
3568.000000	85.273010
3567.000000	85.241507
3566.000000	85.213310
3565.000000	85.185719
3564.000000	85.160057
3563.000000	85.135375
3562.000000	85.112514
3561.000000	85.094294
3560.000000	85.081192
3559.000000	85.069465
3558.000000	85.054354
3557.000000	85.035712
3556.000000	85.019276
3555.000000	85.010553
3554.000000	85.010082
3553.000000	85.013241
3552.000000	85.013342
3551.000000	85.005704
3550.000000	84.988580
3549.000000	84.964914
3548.000000	84.944164
3547.000000	84.937289
3546.000000	84.947309
3545.000000	84.968687
3544.000000	84.992823
3543.000000	85.012014
3542.000000	85.021158
3541.000000	85.018600
3540.000000	85.006903
3539.000000	84.990049
3538.000000	84.972844
3537.000000	84.959475
3536.000000	84.950117
3535.000000	84.939832
3534.000000	84.922040
3533.000000	84.894522
3532.000000	84.859696
3531.000000	84.820260
3530.000000	84.775976
3529.000000	84.725439
3528.000000	84.669431
3527.000000	84.611584
3526.000000	84.556880
3525.000000	84.509525
3524.000000	84.469129
3523.000000	84.427778
3522.000000	84.375253
3521.000000	84.307140
3520.000000	84.226029
3519.000000	84.135244
3518.000000	84.036020
3517.000000	83.930191
3516.000000	83.820480
3515.000000	83.707637
3514.000000	83.589959
3513.000000	83.466149
3512.000000	83.336987
3511.000000	83.203677
3510.000000	83.066280
3509.000000	82.924791
3508.000000	82.779543
3507.000000	82.629455
3506.000000	82.473056
3505.000000	82.313218
3504.000000	82.156762
3503.000000	82.007450
3502.000000	81.862162
3501.000000	81.715383
3500.000000	81.564868
3499.000000	81.412268
3498.000000	81.261433
3497.000000	81.116609
3496.000000	80.980488
3495.000000	80.852744
3494.000000	80.731707
3493.000000	80.616992
3492.000000	80.508844
3491.000000	80.406787
3490.000000	80.311164
3489.000000	80.225404
3488.000000	80.154181
3487.000000	80.098551
3486.000000	80.055429
3485.000000	80.021140
3484.000000	79.993058
3483.000000	79.969623
3482.000000	79.951912
3481.000000	79.945053
3480.000000	79.954112
3479.000000	79.978130
3478.000000	80.011318
3477.000000	80.049872
3476.000000	80.094244
3475.000000	80.144595
3474.000000	80.198245
3473.000000	80.252478
3472.000000	80.306833
3471.000000	80.362710
3470.000000	80.423019
3469.000000	80.491425
3468.000000	80.569164
3467.000000	80.652392
3466.000000	80.734937
3465.000000	80.813141
3464.000000	80.886465
3463.000000	80.955320
3462.000000	81.021429
3461.000000	81.089235
3460.000000	81.163175
3459.000000	81.243156
3458.000000	81.325555
3457.000000	81.407331
3456.000000	81.487652
3455.000000	81.566318
3454.000000	81.642398
3453.000000	81.715354
3452.000000	81.785484
3451.000000	81.853939
3450.000000	81.923376
3449.000000	81.997505
3448.000000	82.078276
3447.000000	82.163304
3446.000000	82.248209
3445.000000	82.330585
3444.000000	82.410075
3443.000000	82.486416
3442.000000	82.559651
3441.000000	82.631438
3440.000000	82.704140
3439.000000	82.778533
3438.000000	82.854258
3437.000000	82.931300
3436.000000	83.009696
3435.000000	83.087847
3434.000000	83.162326
3433.000000	83.231262
3432.000000	83.296442
3431.000000	83.361753
3430.000000	83.429780
3429.000000	83.500107
3428.000000	83.570395
3427.000000	83.638015
3426.000000	83.701603
3425.000000	83.761814
3424.000000	83.820850
3423.000000	83.881230
3422.000000	83.944954
3421.000000	84.013096
3420.000000	84.085019
3419.000000	84.158105
3418.000000	84.228913
3417.000000	84.295231
3416.000000	84.357160
3415.000000	84.416634
3414.000000	84.476234
3413.000000	84.537993
3412.000000	84.602650
3411.000000	84.670053
3410.000000	84.740296
3409.000000	84.813696
3408.000000	84.889068
3407.000000	84.962808
3406.000000	85.031578
3405.000000	85.095569
3404.000000	85.158461
3403.000000	85.224747
3402.000000	85.297837
3401.000000	85.379362
3400.000000	85.467456
3399.000000	85.556285
3398.000000	85.639431
3397.000000	85.714143
3396.000000	85.781618
3395.000000	85.844617
3394.000000	85.906896
3393.000000	85.973419
3392.000000	86.047401
3391.000000	86.126501
3390.000000	86.204413
3389.000000	86.276664
3388.000000	86.343536
3387.000000	86.407580
3386.000000	86.470699
3385.000000	86.533957
3384.000000	86.598010
3383.000000	86.662909
3382.000000	86.728409
3381.000000	86.794768
3380.000000	86.861894
3379.000000	86.928390
3378.000000	86.993001
3377.000000	87.056402
3376.000000	87.119710
3375.000000	87.181775
3374.000000	87.240449
3373.000000	87.296468
3372.000000	87.353967
3371.000000	87.416907
3370.000000	87.486674
3369.000000	87.562819
3368.000000	87.643914
3367.000000	87.727294
3366.000000	87.809920
3365.000000	87.890404
3364.000000	87.969674
3363.000000	88.049697
3362.000000	88.132217
3361.000000	88.218074
3360.000000	88.306269
3359.000000	88.394104
3358.000000	88.479573
3357.000000	88.563339
3356.000000	88.647142
3355.000000	88.731177
3354.000000	88.815007
3353.000000	88.900493
3352.000000	88.991257
3351.000000	89.088606
3350.000000	89.189510
3349.000000	89.288888
3348.000000	89.383135
3347.000000	89.471382
3346.000000	89.555115
3345.000000	89.637227
3344.000000	89.719631
3343.000000	89.801143
3342.000000	89.878669
3341.000000	89.950565
3340.000000	90.017845
3339.000000	90.081683
3338.000000	90.140731
3337.000000	90.191709
3336.000000	90.231352
3335.000000	90.257328
3334.000000	90.268146
3333.000000	90.262166
3332.000000	90.237202
3331.000000	90.189892
3330.000000	90.116336
3329.000000	90.014322
3328.000000	89.883809
3327.000000	89.726167
3326.000000	89.541929
3325.000000	89.329049
3324.000000	89.083726
3323.000000	88.800870
3322.000000	88.476404
3321.000000	88.107569
3320.000000	87.690423
3319.000000	87.219649
3318.000000	86.687949
3317.000000	86.087941
3316.000000	85.411484
3315.000000	84.647682
3314.000000	83.787250
3313.000000	82.825173
3312.000000	81.762221
3311.000000	80.604522
3310.000000	79.361853
3309.000000	78.050685
3308.000000	76.691535
3307.000000	75.304674
3306.000000	73.909654
3305.000000	72.524804
3304.000000	71.167203
3303.000000	69.852582
3302.000000	68.598494
3301.000000	67.426913
3300.000000	66.362090
3299.000000	65.424553
3298.000000	64.631169
3297.000000	63.995356
3296.000000	63.517987
3295.000000	63.183257
3294.000000	62.959781
3293.000000	62.809082
3292.000000	62.692846
3291.000000	62.575221
3290.000000	62.433895
3289.000000	62.266278
3288.000000	62.086359
3287.000000	61.915437
3286.000000	61.772612
3285.000000	61.670324
3284.000000	61.608994
3283.000000	61.575962
3282.000000	61.552198
3281.000000	61.519768
3280.000000	61.463408
3279.000000	61.370175
3278.000000	61.233572
3277.000000	61.057340
3276.000000	60.852223
3275.000000	60.630253
3274.000000	60.405500
3273.000000	60.197775
3272.000000	60.030595
3271.000000	59.924148
3270.000000	59.893116
3269.000000	59.947816
3268.000000	60.092919
3267.000000	60.326985
3266.000000	60.641495
3265.000000	61.021737
3264.000000	61.444783
3263.000000	61.878058
3262.000000	62.285187
3261.000000	62.631439
3260.000000	62.884093
3259.000000	63.013177
3258.000000	62.998154
3257.000000	62.828835
3256.000000	62.504062
3255.000000	62.025604
3254.000000	61.396773
3253.000000	60.628167
3252.000000	59.729944
3251.000000	58.710844
3250.000000	57.582627
3249.000000	56.366806
3248.000000	55.100119
3247.000000	53.830943
3246.000000	52.619783
3245.000000	51.537699
3244.000000	50.653951
3243.000000	50.014719
3242.000000	49.632269
3241.000000	49.480144
3240.000000	49.495973
3239.000000	49.600409
3238.000000	49.718598
3237.000000	49.800444
3236.000000	49.823422
3235.000000	49.784908
3234.000000	49.696753
3233.000000	49.576361
3232.000000	49.437897
3231.000000	49.290578
3230.000000	49.146842
3229.000000	49.028421
3228.000000	48.960340
3227.000000	48.963436
3226.000000	49.054112
3225.000000	49.245372
3224.000000	49.543484
3223.000000	49.942271
3222.000000	50.426140
3221.000000	50.974408
3220.000000	51.558722
3219.000000	52.143653
3218.000000	52.694348
3217.000000	53.185085
3216.000000	53.600221
3215.000000	53.932786
3214.000000	54.186336
3213.000000	54.376576
3212.000000	54.525650
3211.000000	54.655388
3210.000000	54.787178
3209.000000	54.941376
3208.000000	55.133339
3207.000000	55.370306
3206.000000	55.654479
3205.000000	55.986228
3204.000000	56.362948
3203.000000	56.777698
3202.000000	57.222364
3201.000000	57.690806
3200.000000	58.175882
3199.000000	58.667925
3198.000000	59.157591
3197.000000	59.638297
3196.000000	60.104534
3195.000000	60.550381
3194.000000	60.971568
3193.000000	61.366299
3192.000000	61.732239
3191.000000	62.064348
3190.000000	62.359068
3189.000000	62.616969
3188.000000	62.840335
3187.000000	63.031650
3186.000000	63.194971
3185.000000	63.337236
3184.000000	63.464235
3183.000000	63.578058
3182.000000	63.680287
3181.000000	63.773803
3180.000000	63.861082
3179.000000	63.942755
3178.000000	64.020624
3177.000000	64.100027
3176.000000	64.187026
3175.000000	64.285894
3174.000000	64.400896
3173.000000	64.537641
3172.000000	64.699631
3171.000000	64.886791
3170.000000	65.098234
3169.000000	65.334615
3168.000000	65.596245
3167.000000	65.880270
3166.000000	66.183167
3165.000000	66.502426
3164.000000	66.834910
3163.000000	67.176352
3162.000000	67.523237
3161.000000	67.873359
3160.000000	68.222065
3159.000000	68.560248
3158.000000	68.876003
3157.000000	69.156459
3156.000000	69.385890
3155.000000	69.545754
3154.000000	69.619079
3153.000000	69.593425
3152.000000	69.465221
3151.000000	69.243835
3150.000000	68.955307
3149.000000	68.638308
3148.000000	68.328361
3147.000000	68.045666
3146.000000	67.792056
3145.000000	67.554078
3144.000000	67.307781
3143.000000	67.024586
3142.000000	66.681982
3141.000000	66.269888
3140.000000	65.788231
3139.000000	65.244137
3138.000000	64.652261
3137.000000	64.035837
3136.000000	63.421546
3135.000000	62.834116
3134.000000	62.297044
3133.000000	61.834109
3132.000000	61.464951
3131.000000	61.200615
3130.000000	61.045903
3129.000000	61.000039
3128.000000	61.056985
3127.000000	61.205253
3126.000000	61.431708
3125.000000	61.725595
3124.000000	62.074318
3123.000000	62.464240
3122.000000	62.884215
3121.000000	63.326256
3120.000000	63.782453
3119.000000	64.242389
3118.000000	64.697635
3117.000000	65.143570
3116.000000	65.575662
3115.000000	65.987175
3114.000000	66.372676
3113.000000	66.730505
3112.000000	67.060007
3111.000000	67.360005
3110.000000	67.629553
3109.000000	67.868430
3108.000000	68.073580
3107.000000	68.239091
3106.000000	68.362347
3105.000000	68.446491
3104.000000	68.498408
3103.000000	68.525827
3102.000000	68.538884
3101.000000	68.551238
3100.000000	68.576514
3099.000000	68.625688
3098.000000	68.708625
3097.000000	68.835454
3096.000000	69.012574
3095.000000	69.240549
3094.000000	69.516254
3093.000000	69.835512
3092.000000	70.192295
3091.000000	70.576410
3090.000000	70.976054
3089.000000	71.380442
3088.000000	71.780433
3087.000000	72.169511
3086.000000	72.544907
3085.000000	72.906468
3084.000000	73.253102
3083.000000	73.582383
3082.000000	73.893841
3081.000000	74.190221
3080.000000	74.473745
3079.000000	74.743736
3078.000000	74.999421
3077.000000	75.242104
3076.000000	75.474073
3075.000000	75.696910
3074.000000	75.912346
3073.000000	76.122740
3072.000000	76.328452
3071.000000	76.527168
3070.000000	76.716860
3069.000000	76.898137
3068.000000	77.072749
3067.000000	77.241119
3066.000000	77.403406
3065.000000	77.561282
3064.000000	77.716974
3063.000000	77.871277
3062.000000	78.023478
3061.000000	78.172674
3060.000000	78.318104
3059.000000	78.459215
3058.000000	78.596674
3057.000000	78.732196
3056.000000	78.866405
3055.000000	78.997780
3054.000000	79.124410
3053.000000	79.246132
3052.000000	79.363510
3051.000000	79.475592
3050.000000	79.580068
3049.000000	79.675476
3048.000000	79.762960
3047.000000	79.845907
3046.000000	79.928393
3045.000000	80.013294
3044.000000	80.100980
3043.000000	80.190076
3042.000000	80.279356
3041.000000	80.368000
3040.000000	80.454314
3039.000000	80.535859
3038.000000	80.612000
3037.000000	80.685395
3036.000000	80.759901
3035.000000	80.837448
3034.000000	80.917190
3033.000000	80.996839
3032.000000	81.074187
3031.000000	81.148407
3030.000000	81.220660
3029.000000	81.292952
3028.000000	81.366424
3027.000000	81.441581
3026.000000	81.519686
3025.000000	81.602078
3024.000000	81.687793
3023.000000	81.773528
3022.000000	81.856624
3021.000000	81.936787
3020.000000	82.014587
3019.000000	82.089646
3018.000000	82.161325
3017.000000	82.229879
3016.000000	82.295601
3015.000000	82.357616
3014.000000	82.414310
3013.000000	82.464533
3012.000000	82.507430
3011.000000	82.541138
3010.000000	82.562808
3009.000000	82.569387
3008.000000	82.558133
3007.000000	82.526686
3006.000000	82.472439
3005.000000	82.392693
3004.000000	82.284913
3003.000000	82.148040
3002.000000	81.983904
3001.000000	81.796228
3000.000000	81.588070
2999.000000	81.358853
2998.000000	81.106186
2997.000000	80.833242
2996.000000	80.558336
2995.000000	80.317490
2994.000000	80.152057
2993.000000	80.087428
2992.000000	80.118077
2991.000000	80.213312
2990.000000	80.335849
2989.000000	80.456628
2988.000000	80.558267
2987.000000	80.632588
2986.000000	80.679872
2985.000000	80.707329
2984.000000	80.725714
2983.000000	80.746083
2982.000000	80.778290
2981.000000	80.829244
2980.000000	80.899956
2979.000000	80.985127
2978.000000	81.077438
2977.000000	81.172892
2976.000000	81.273519
2975.000000	81.386283
2974.000000	81.518704
2973.000000	81.672035
2972.000000	81.836579
2971.000000	81.994156
2970.000000	82.125209
2969.000000	82.214585
2968.000000	82.251711
2967.000000	82.229834
2966.000000	82.146170
2965.000000	82.001421
2964.000000	81.798552
2963.000000	81.541226
2962.000000	81.235085
2961.000000	80.887126
2960.000000	80.502537
2959.000000	80.081955
2958.000000	79.623350
2957.000000	79.131468
2956.000000	78.629357
2955.000000	78.164366
2954.000000	77.795132
2953.000000	77.561908
2952.000000	77.461456
2951.000000	77.451320
2950.000000	77.481607
2949.000000	77.523519
2948.000000	77.576118
2947.000000	77.653452
2946.000000	77.768215
2945.000000	77.919490
2944.000000	78.088808
2943.000000	78.250127
2942.000000	78.387733
2941.000000	78.508568
2940.000000	78.638750
2939.000000	78.809414
2938.000000	79.043719
2937.000000	79.349954
2936.000000	79.720647
2935.000000	80.137418
2934.000000	80.578609
2933.000000	81.024846
2932.000000	81.460251
2931.000000	81.873001
2930.000000	82.256341
2929.000000	82.608058
2928.000000	82.928467
2927.000000	83.218896
2926.000000	83.481867
2925.000000	83.719677
2924.000000	83.932211
2923.000000	84.116976
2922.000000	84.271874
2921.000000	84.397216
2920.000000	84.494667
2919.000000	84.566264
2918.000000	84.614376
2917.000000	84.641857
2916.000000	84.651774
2915.000000	84.647426
2914.000000	84.633045
2913.000000	84.613037
2912.000000	84.590870
2911.000000	84.569207
2910.000000	84.550666
2909.000000	84.537452
2908.000000	84.529837
2907.000000	84.526526
2906.000000	84.526333
2905.000000	84.528578
2904.000000	84.532286
2903.000000	84.536773
2902.000000	84.543018
2901.000000	84.552743
2900.000000	84.565988
2899.000000	84.580194
2898.000000	84.591605
2897.000000	84.595622
2896.000000	84.586437
2895.000000	84.558674
2894.000000	84.510379
2893.000000	84.443475
2892.000000	84.360932
2891.000000	84.264970
2890.000000	84.157839
2889.000000	84.042607
2888.000000	83.922436
2887.000000	83.800722
2886.000000	83.682532
2885.000000	83.574243
2884.000000	83.481411
2883.000000	83.407735
2882.000000	83.356419
2881.000000	83.330639
2880.000000	83.331536
2879.000000	83.357268
2878.000000	83.404536
2877.000000	83.470080
2876.000000	83.550390
2875.000000	83.641562
2874.000000	83.739964
2873.000000	83.842383
2872.000000	83.945541
2871.000000	84.046799
2870.000000	84.145847
2869.000000	84.244527
2868.000000	84.345156
2867.000000	84.449876
2866.000000	84.560769
2865.000000	84.678500
2864.000000	84.800673
2863.000000	84.923425
2862.000000	85.044927
2861.000000	85.165875
2860.000000	85.286695
2859.000000	85.406368
2858.000000	85.524478
2857.000000	85.642581
2856.000000	85.762780
2855.000000	85.886142
2854.000000	86.012436
2853.000000	86.139453
2852.000000	86.261794
2851.000000	86.371605
2850.000000	86.461791
2849.000000	86.528577
2848.000000	86.572000
2847.000000	86.596031
2846.000000	86.608480
2845.000000	86.618737
2844.000000	86.634283
2843.000000	86.659299
2842.000000	86.696088
2841.000000	86.746349
2840.000000	86.810246
2839.000000	86.885727
2838.000000	86.969838
2837.000000	87.060146
2836.000000	87.154752
2835.000000	87.251861
2834.000000	87.349746
2833.000000	87.446610
2832.000000	87.540462
2831.000000	87.629636
2830.000000	87.713562
2829.000000	87.792381
2828.000000	87.865791
2827.000000	87.933189
2826.000000	87.994828
2825.000000	88.051898
2824.000000	88.105452
2823.000000	88.156015
2822.000000	88.204277
2821.000000	88.251206
2820.000000	88.297143
2819.000000	88.341585
2818.000000	88.384104
2817.000000	88.424812
2816.000000	88.463870
2815.000000	88.501220
2814.000000	88.537070
2813.000000	88.572036
2812.000000	88.606619
2811.000000	88.640917
2810.000000	88.674762
2809.000000	88.707636
2808.000000	88.738747
2807.000000	88.767841
2806.000000	88.795925
2805.000000	88.824551
2804.000000	88.854613
2803.000000	88.886511
2802.000000	88.921048
2801.000000	88.959062
2800.000000	89.000104
2799.000000	89.042286
2798.000000	89.083439
2797.000000	89.121819
2796.000000	89.156017
2795.000000	89.185276
2794.000000	89.210145
2793.000000	89.232100
2792.000000	89.252363
2791.000000	89.271483
2790.000000	89.289662
2789.000000	89.306730
2788.000000	89.322180
2787.000000	89.336173
2786.000000	89.350499
2785.000000	89.367817
2784.000000	89.389980
2783.000000	89.417797
2782.000000	89.451822
2781.000000	89.491895
2780.000000	89.535858
2779.000000	89.580044
2778.000000	89.621356
2777.000000	89.658310
2776.000000	89.690298
2775.000000	89.717031
2774.000000	89.739124
2773.000000	89.758217
2772.000000	89.775894
2771.000000	89.792967
2770.000000	89.809806
2769.000000	89.826592
2768.000000	89.843213
2767.000000	89.859566
2766.000000	89.876121
2765.000000	89.893593
2764.000000	89.912026
2763.000000	89.930841
2762.000000	89.949592
2761.000000	89.967766
2760.000000	89.983731
2759.000000	89.994861
2758.000000	89.999161
2757.000000	89.996166
2756.000000	89.986363
2755.000000	89.970681
2754.000000	89.950778
2753.000000	89.929063
2752.000000	89.907663
2751.000000	89.887621
2750.000000	89.869365
2749.000000	89.853505
2748.000000	89.841087
2747.000000	89.833737
2746.000000	89.833657
2745.000000	89.842950
2744.000000	89.862732
2743.000000	89.892668
2742.000000	89.931018
2741.000000	89.974547
2740.000000	90.018593
2739.000000	90.058552
2738.000000	90.091826
2737.000000	90.118384
2736.000000	90.140039
2735.000000	90.159712
2734.000000	90.180793
2733.000000	90.205780
2732.000000	90.234849
2731.000000	90.266097
2730.000000	90.297214
2729.000000	90.326392
2728.000000	90.351959
2727.000000	90.372228
2726.000000	90.386320
2725.000000	90.394892
2724.000000	90.399630
2723.000000	90.402203
2722.000000	90.403486
2721.000000	90.403289
2720.000000	90.401026
2719.000000	90.397059
2718.000000	90.393514
2717.000000	90.393643
2716.000000	90.400435
2715.000000	90.415833
2714.000000	90.440590
2713.000000	90.473762
2712.000000	90.512208
2711.000000	90.551454
2710.000000	90.587361
2709.000000	90.617219
2708.000000	90.639982
2707.000000	90.656143
2706.000000	90.667237
2705.000000	90.674943
2704.000000	90.680570
2703.000000	90.685492
2702.000000	90.691528
2701.000000	90.700076
2700.000000	90.711245
2699.000000	90.724446
2698.000000	90.739499
2697.000000	90.756584
2696.000000	90.775388
2695.000000	90.795018
2694.000000	90.814472
2693.000000	90.832519
2692.000000	90.847321
2691.000000	90.856981
2690.000000	90.860691
2689.000000	90.858932
2688.000000	90.852764
2687.000000	90.843624
2686.000000	90.833535
2685.000000	90.824801
2684.000000	90.819267
2683.000000	90.817966
2682.000000	90.821122
2681.000000	90.828085
2680.000000	90.837558
2679.000000	90.848603
2678.000000	90.861402
2677.000000	90.876561
2676.000000	90.894144
2675.000000	90.913708
2674.000000	90.934552
2673.000000	90.955211
2672.000000	90.973259
2671.000000	90.986836
2670.000000	90.996473
2669.000000	91.004860
2668.000000	91.015140
2667.000000	91.029987
2666.000000	91.051754
2665.000000	91.082006
2664.000000	91.120296
2663.000000	91.164165
2662.000000	91.210413
2661.000000	91.256187
2660.000000	91.299282
2659.000000	91.338305
2658.000000	91.372943
2657.000000	91.403622
2656.000000	91.430656
2655.000000	91.453781
2654.000000	91.472380
2653.000000	91.485497
2652.000000	91.492125
2651.000000	91.492003
2650.000000	91.486229
2649.000000	91.477280
2648.000000	91.468531
2647.000000	91.463767
2646.000000	91.466292
2645.000000	91.477396
2644.000000	91.495606
2643.000000	91.517873
2642.000000	91.541359
2641.000000	91.564090
2640.000000	91.584881
2639.000000	91.603443
2638.000000	91.620466
2637.000000	91.636885
2636.000000	91.653024
2635.000000	91.668783
2634.000000	91.684247
2633.000000	91.699684
2632.000000	91.715390
2631.000000	91.732231
2630.000000	91.752283
2629.000000	91.778213
2628.000000	91.811957
2627.000000	91.853822
2626.000000	91.901927
2625.000000	91.952003
2624.000000	91.998240
2623.000000	92.035286
2622.000000	92.059902
2621.000000	92.071287
2620.000000	92.070719
2619.000000	92.061608
2618.000000	92.048744
2617.000000	92.036090
2616.000000	92.025283
2615.000000	92.016163
2614.000000	92.008380
2613.000000	92.002054
2612.000000	91.997475
2611.000000	91.995206
2610.000000	91.996292
2609.000000	92.001555
2608.000000	92.010579
2607.000000	92.021646
2606.000000	92.032158
2605.000000	92.038773
2604.000000	92.038056
2603.000000	92.028215
2602.000000	92.010325
2601.000000	91.987684
2600.000000	91.964185
2599.000000	91.943483
2598.000000	91.928678
2597.000000	91.921198
2596.000000	91.919834
2595.000000	91.921634
2594.000000	91.924005
2593.000000	91.925793
2592.000000	91.926959
2591.000000	91.927823
2590.000000	91.928466
2589.000000	91.928197
2588.000000	91.925601
2587.000000	91.919405
2586.000000	91.909177
2585.000000	91.895054
2584.000000	91.877539
2583.000000	91.858384
2582.000000	91.841240
2581.000000	91.830596
2580.000000	91.829992
2579.000000	91.841257
2578.000000	91.864261
2577.000000	91.896711
2576.000000	91.934449
2575.000000	91.973154
2574.000000	92.010188
2573.000000	92.044431
2572.000000	92.075373
2571.000000	92.102931
2570.000000	92.127583
2569.000000	92.149804
2568.000000	92.169521
2567.000000	92.186608
2566.000000	92.201674
2565.000000	92.216007
2564.000000	92.231303
2563.000000	92.250047
2562.000000	92.275502
2561.000000	92.310164
2560.000000	92.354017
2559.000000	92.404688
2558.000000	92.458589
2557.000000	92.511679
2556.000000	92.560103
2555.000000	92.601364
2554.000000	92.634981
2553.000000	92.661746
2552.000000	92.682758
2551.000000	92.699529
2550.000000	92.714231
2549.000000	92.728490
2548.000000	92.742469
2547.000000	92.755778
2546.000000	92.768951
2545.000000	92.783415
2544.000000	92.800278
2543.000000	92.819984
2542.000000	92.842727
2541.000000	92.868193
2540.000000	92.894851
2539.000000	92.920161
2538.000000	92.941531
2537.000000	92.956830
2536.000000	92.964531
2535.000000	92.964488
2534.000000	92.958495
2533.000000	92.949688
2532.000000	92.941344
2531.000000	92.936152
2530.000000	92.935966
2529.000000	92.941159
2528.000000	92.950264
2527.000000	92.960893
2526.000000	92.971095
2525.000000	92.979705
2524.000000	92.985932
2523.000000	92.989213
2522.000000	92.989251
2521.000000	92.985484
2520.000000	92.976762
2519.000000	92.961697
2518.000000	92.939158
2517.000000	92.908554
2516.000000	92.870051
2515.000000	92.825576
2514.000000	92.779050
2513.000000	92.734970
2512.000000	92.696823
2511.000000	92.666633
2510.000000	92.645026
2509.000000	92.630711
2508.000000	92.620453
2507.000000	92.610526
2506.000000	92.598614
2505.000000	92.584024
2504.000000	92.566859
2503.000000	92.547833
2502.000000	92.528335
2501.000000	92.509821
2500.000000	92.493109
2499.000000	92.478767
2498.000000	92.467985
2497.000000	92.462344
2496.000000	92.463438
2495.000000	92.473142
2494.000000	92.493431
2493.000000	92.525039
2492.000000	92.565816
2491.000000	92.611573
2490.000000	92.658079
2489.000000	92.701927
2488.000000	92.740642
2487.000000	92.773193
2486.000000	92.800698
2485.000000	92.825783
2484.000000	92.851090
2483.000000	92.878573
2482.000000	92.909500
2481.000000	92.943995
2480.000000	92.980642
2479.000000	93.017347
2478.000000	93.052839
2477.000000	93.087193
2476.000000	93.121378
2475.000000	93.156657
2474.000000	93.193821
2473.000000	93.232068
2472.000000	93.268638
2471.000000	93.300004
2470.000000	93.323250
2469.000000	93.336721
2468.000000	93.340024
2467.000000	93.334543
2466.000000	93.323461
2465.000000	93.310274
2464.000000	93.297509
2463.000000	93.286355
2462.000000	93.276931
2461.000000	93.268150
2460.000000	93.258072
2459.000000	93.245706
2458.000000	93.232339
2457.000000	93.220594
2456.000000	93.212295
2455.000000	93.207613
2454.000000	93.205509
2453.000000	93.204005
2452.000000	93.200441
2451.000000	93.192777
2450.000000	93.181134
2449.000000	93.167810
2448.000000	93.156119
2447.000000	93.149551
2446.000000	93.151189
2445.000000	93.162760
2444.000000	93.183527
2443.000000	93.210716
2442.000000	93.241112
2441.000000	93.272124
2440.000000	93.302370
2439.000000	93.331786
2438.000000	93.361307
2437.000000	93.391696
2436.000000	93.422559
2435.000000	93.452498
2434.000000	93.479665
2433.000000	93.501967
2432.000000	93.517598
2431.000000	93.526545
2430.000000	93.531199
2429.000000	93.535084
2428.000000	93.540840
2427.000000	93.549354
2426.000000	93.560156
2425.000000	93.571673
2424.000000	93.581680
2423.000000	93.588412
2422.000000	93.591360
2421.000000	93.590992
2420.000000	93.588100
2419.000000	93.583712
2418.000000	93.578882
2417.000000	93.573714
2416.000000	93.567134
2415.000000	93.558015
2414.000000	93.546341
2413.000000	93.532928
2412.000000	93.518772
2411.000000	93.505405
2410.000000	93.495060
2409.000000	93.489336
2408.000000	93.487823
2407.000000	93.488804
2406.000000	93.490797
2405.000000	93.492667
2404.000000	93.492794
2403.000000	93.489489
2402.000000	93.482076
2401.000000	93.470615
2400.000000	93.454470
2399.000000	93.431427
2398.000000	93.398712
2397.000000	93.353828
2396.000000	93.295132
2395.000000	93.222933
2394.000000	93.140426
2393.000000	93.052462
2392.000000	92.964986
2391.000000	92.880894
2390.000000	92.805307
2389.000000	92.733923
2388.000000	92.648763
2387.000000	92.576981
2386.000000	92.497348
2385.000000	92.415494
2384.000000	92.319575
2383.000000	92.234661
2382.000000	92.113070
2381.000000	92.041891
2380.000000	91.860488
2379.000000	91.926368
2378.000000	93.194488
2377.000000	93.163418
2376.000000	93.243477
2375.000000	93.210769
2374.000000	93.182483
2373.000000	93.110743
2372.000000	93.042641
2371.000000	92.977905
2370.000000	92.919538
2369.000000	92.863265
2368.000000	92.826502
2367.000000	92.807422
2366.000000	92.797495
2365.000000	92.803906
2364.000000	92.821210
2363.000000	92.859593
2362.000000	92.910862
2361.000000	92.951902
2360.000000	92.982247
2359.000000	92.962506
2358.000000	92.872363
2357.000000	92.732669
2356.000000	92.667621
2355.000000	92.771201
2354.000000	92.965718
2353.000000	93.128523
2352.000000	93.164056
2351.000000	93.100350
2350.000000	93.035798
2349.000000	93.011905
2348.000000	93.029771
2347.000000	93.011517
2346.000000	92.998046
2345.000000	93.023925
2344.000000	93.076623
2343.000000	93.127190
2342.000000	93.153467
2341.000000	93.181710
2340.000000	93.215645
2339.000000	93.270249
2338.000000	93.317850
2337.000000	93.365483
2336.000000	93.398003
2335.000000	93.466101
2334.000000	93.526499
2333.000000	93.617930
2332.000000	93.694026
2331.000000	93.769975
2330.000000	93.818139
2329.000000	93.830424
2328.000000	93.823846
2327.000000	93.794230
2326.000000	93.756946
2325.000000	93.710316
2324.000000	93.659728
2323.000000	93.620573
2322.000000	93.572978
2321.000000	93.523867
2320.000000	93.438718
2319.000000	93.345208
2318.000000	93.226168
2317.000000	93.117115
2316.000000	92.993890
2315.000000	92.880713
2314.000000	92.754728
2313.000000	92.637012
2312.000000	92.510588
2311.000000	92.392118
2310.000000	92.268574
2309.000000	92.152121
2308.000000	92.031764
2307.000000	91.920442
2306.000000	91.809874
2305.000000	91.714183
2304.000000	91.623112
2303.000000	91.547761
2302.000000	91.479732
2301.000000	91.429779
2300.000000	91.389898
2299.000000	91.364214
2298.000000	91.344858
2297.000000	91.330090
2296.000000	91.313132
2295.000000	91.291837
2294.000000	91.266776
2293.000000	91.239356
2292.000000	91.213235
2291.000000	91.189879
2290.000000	91.172899
2289.000000	91.160492
2288.000000	91.150551
2287.000000	91.138303
2286.000000	91.123799
2285.000000	91.107430
2284.000000	91.090786
2283.000000	91.074806
2282.000000	91.061601
2281.000000	91.053656
2280.000000	91.050448
2279.000000	91.052186
2278.000000	91.057983
2277.000000	91.068661
2276.000000	91.084068
2275.000000	91.106167
2274.000000	91.138146
2273.000000	91.183052
2272.000000	91.241743
2271.000000	91.314008
2270.000000	91.398194
2269.000000	91.491308
2268.000000	91.588161
2267.000000	91.684002
2266.000000	91.776776
2265.000000	91.864112
2264.000000	91.945075
2263.000000	92.018396
2262.000000	92.085299
2261.000000	92.146935
2260.000000	92.204049
2259.000000	92.258698
2258.000000	92.313212
2257.000000	92.371077
2256.000000	92.433971
2255.000000	92.504998
2254.000000	92.586269
2253.000000	92.678477
2252.000000	92.779097
2251.000000	92.885203
2250.000000	92.994203
2249.000000	93.102886
2248.000000	93.207525
2247.000000	93.305500
2246.000000	93.396261
2245.000000	93.479581
2244.000000	93.555014
2243.000000	93.623045
2242.000000	93.685726
2241.000000	93.744764
2240.000000	93.800647
2239.000000	93.853717
2238.000000	93.905014
2237.000000	93.954904
2236.000000	94.002542
2235.000000	94.047094
2234.000000	94.088351
2233.000000	94.125650
2232.000000	94.157222
2231.000000	94.181829
2230.000000	94.199592
2229.000000	94.211180
2228.000000	94.216979
2227.000000	94.217796
2226.000000	94.214988
2225.000000	94.209472
2224.000000	94.201558
2223.000000	94.192312
2222.000000	94.183804
2221.000000	94.177553
2220.000000	94.173694
2219.000000	94.172231
2218.000000	94.173821
2217.000000	94.178748
2216.000000	94.186275
2215.000000	94.195677
2214.000000	94.206928
2213.000000	94.219814
2212.000000	94.233469
2211.000000	94.247272
2210.000000	94.261251
2209.000000	94.275192
2208.000000	94.288463
2207.000000	94.301110
2206.000000	94.313987
2205.000000	94.327385
2204.000000	94.340698
2203.000000	94.353767
2202.000000	94.367381
2201.000000	94.382118
2200.000000	94.398053
2199.000000	94.416166
2198.000000	94.438611
2197.000000	94.466809
2196.000000	94.500113
2195.000000	94.536742
2194.000000	94.574943
2193.000000	94.612924
2192.000000	94.649069
2191.000000	94.682669
2190.000000	94.713504
2189.000000	94.740478
2188.000000	94.762024
2187.000000	94.778239
2186.000000	94.791186
2185.000000	94.802697
2184.000000	94.812942
2183.000000	94.821435
2182.000000	94.827912
2181.000000	94.831619
2180.000000	94.831146
2179.000000	94.825758
2178.000000	94.816189
2177.000000	94.803795
2176.000000	94.790118
2175.000000	94.777433
2174.000000	94.768239
2173.000000	94.763307
2172.000000	94.761038
2171.000000	94.759252
2170.000000	94.756744
2169.000000	94.753042
2168.000000	94.747950
2167.000000	94.741972
2166.000000	94.736235
2165.000000	94.731518
2164.000000	94.728035
2163.000000	94.726173
2162.000000	94.726267
2161.000000	94.727577
2160.000000	94.728810
2159.000000	94.729961
2158.000000	94.732515
2157.000000	94.737681
2156.000000	94.745741
2155.000000	94.757032
2154.000000	94.771866
2153.000000	94.788993
2152.000000	94.805778
2151.000000	94.820521
2150.000000	94.833568
2149.000000	94.845974
2148.000000	94.858517
2147.000000	94.872399
2146.000000	94.889266
2145.000000	94.909721
2144.000000	94.932921
2143.000000	94.957809
2142.000000	94.983358
2141.000000	95.007683
2140.000000	95.028706
2139.000000	95.046086
2138.000000	95.061010
2137.000000	95.073954
2136.000000	95.084111
2135.000000	95.090998
2134.000000	95.094821
2133.000000	95.094880
2132.000000	95.089518
2131.000000	95.078334
2130.000000	95.063069
2129.000000	95.045859
2128.000000	95.027980
2127.000000	95.010452
2126.000000	94.994091
2125.000000	94.978084
2124.000000	94.959965
2123.000000	94.937802
2122.000000	94.911422
2121.000000	94.881407
2120.000000	94.848606
2119.000000	94.815044
2118.000000	94.783627
2117.000000	94.756004
2116.000000	94.731599
2115.000000	94.709062
2114.000000	94.687422
2113.000000	94.665839
2112.000000	94.644023
2111.000000	94.623522
2110.000000	94.607208
2109.000000	94.596969
2108.000000	94.592856
2107.000000	94.594439
2106.000000	94.601191
2105.000000	94.611160
2104.000000	94.621099
2103.000000	94.628542
2102.000000	94.632612
2101.000000	94.632748
2100.000000	94.628638
2099.000000	94.621933
2098.000000	94.616305
2097.000000	94.615246
2096.000000	94.620740
2095.000000	94.634490
2094.000000	94.658487
2093.000000	94.693241
2092.000000	94.737096
2091.000000	94.787742
2090.000000	94.842913
2089.000000	94.899813
2088.000000	94.955683
2087.000000	95.009716
2086.000000	95.062415
2085.000000	95.112587
2084.000000	95.157329
2083.000000	95.195584
2082.000000	95.229613
2081.000000	95.262341
2080.000000	95.295156
2079.000000	95.328700
2078.000000	95.363795
2077.000000	95.400672
2076.000000	95.438728
2075.000000	95.477756
2074.000000	95.517647
2073.000000	95.556650
2072.000000	95.592232
2071.000000	95.623232
2070.000000	95.650065
2069.000000	95.673213
2068.000000	95.692912
2067.000000	95.710231
2066.000000	95.726411
2065.000000	95.741446
2064.000000	95.755367
2063.000000	95.770657
2062.000000	95.790608
2061.000000	95.815240
2060.000000	95.841362
2059.000000	95.866716
2058.000000	95.891533
2057.000000	95.915685
2056.000000	95.937465
2055.000000	95.955849
2054.000000	95.971313
2053.000000	95.983914
2052.000000	95.993179
2051.000000	95.999906
2050.000000	96.006397
2049.000000	96.014661
2048.000000	96.025463
2047.000000	96.039151
2046.000000	96.056432
2045.000000	96.077641
2044.000000	96.102063
2043.000000	96.128354
2042.000000	96.154635
2041.000000	96.178321
2040.000000	96.197444
2039.000000	96.212404
2038.000000	96.224774
2037.000000	96.234570
2036.000000	96.240583
2035.000000	96.243554
2034.000000	96.246696
2033.000000	96.252388
2032.000000	96.260793
2031.000000	96.272475
2030.000000	96.289688
2029.000000	96.313757
2028.000000	96.343229
2027.000000	96.375189
2026.000000	96.407261
2025.000000	96.437011
2024.000000	96.461633
2023.000000	96.478659
2022.000000	96.487237
2021.000000	96.488310
2020.000000	96.483610
2019.000000	96.474890
2018.000000	96.463370
2017.000000	96.449701
2016.000000	96.435335
2015.000000	96.423945
2014.000000	96.419426
2013.000000	96.421969
2012.000000	96.427821
2011.000000	96.433583
2010.000000	96.439112
2009.000000	96.445036
2008.000000	96.450096
2007.000000	96.452690
2006.000000	96.452804
2005.000000	96.450111
2004.000000	96.442787
2003.000000	96.429629
2002.000000	96.412432
2001.000000	96.394668
2000.000000	96.379209
1999.000000	96.369550
1998.000000	96.368173
1997.000000	96.375312
1996.000000	96.391244
1995.000000	96.417072
1994.000000	96.450771
1993.000000	96.484606
1992.000000	96.509863
1991.000000	96.525023
1990.000000	96.536252
1989.000000	96.548747
1988.000000	96.561123
1987.000000	96.568769
1986.000000	96.569736
1985.000000	96.565516
1984.000000	96.558288
1983.000000	96.550054
1982.000000	96.543667
1981.000000	96.542873
1980.000000	96.550974
1979.000000	96.570174
1978.000000	96.599236
1977.000000	96.634219
1976.000000	96.671237
1975.000000	96.707092
1974.000000	96.738050
1973.000000	96.761172
1972.000000	96.777348
1971.000000	96.790367
1970.000000	96.802505
1969.000000	96.812802
1968.000000	96.818824
1967.000000	96.818412
1966.000000	96.811646
1965.000000	96.802711
1964.000000	96.797906
1963.000000	96.800251
1962.000000	96.808245
1961.000000	96.821053
1960.000000	96.842031
1959.000000	96.873255
1958.000000	96.908797
1957.000000	96.937664
1956.000000	96.952068
1955.000000	96.949830
1954.000000	96.931825
1953.000000	96.901581
1952.000000	96.865706
1951.000000	96.830383
1950.000000	96.798782
1949.000000	96.770227
1948.000000	96.742111
1947.000000	96.713602
1946.000000	96.686295
1945.000000	96.662510
1944.000000	96.643921
1943.000000	96.631172
1942.000000	96.625498
1941.000000	96.630987
1940.000000	96.653058
1939.000000	96.690772
1938.000000	96.733132
1937.000000	96.767407
1936.000000	96.790187
1935.000000	96.806670
1934.000000	96.821372
1933.000000	96.835663
1932.000000	96.851655
1931.000000	96.872426
1930.000000	96.899311
1929.000000	96.927925
1928.000000	96.952072
1927.000000	96.971520
1926.000000	96.990187
1925.000000	97.010857
1924.000000	97.029488
1923.000000	97.042681
1922.000000	97.055301
1921.000000	97.073849
1920.000000	97.095937
1919.000000	97.109808
1918.000000	97.103325
1917.000000	97.076331
1916.000000	97.042407
1915.000000	97.016307
1914.000000	97.001533
1913.000000	96.992553
1912.000000	96.984408
1911.000000	96.977631
1910.000000	96.973013
1909.000000	96.964229
1908.000000	96.945049
1907.000000	96.918996
1906.000000	96.893576
1905.000000	96.871121
1904.000000	96.845797
1903.000000	96.815996
1902.000000	96.786795
1901.000000	96.756448
1900.000000	96.717474
1899.000000	96.670636
1898.000000	96.624746
1897.000000	96.585125
1896.000000	96.548387
1895.000000	96.514854
1894.000000	96.495649
1893.000000	96.499008
1892.000000	96.519781
1891.000000	96.546800
1890.000000	96.570645
1889.000000	96.585094
1888.000000	96.591310
1887.000000	96.600114
1886.000000	96.620110
1885.000000	96.645362
1884.000000	96.663066
1883.000000	96.671609
1882.000000	96.679453
1881.000000	96.685936
1880.000000	96.681927
1879.000000	96.666716
1878.000000	96.649130
1877.000000	96.635942
1876.000000	96.626577
1875.000000	96.621006
1874.000000	96.626812
1873.000000	96.650223
1872.000000	96.686282
1871.000000	96.725861
1870.000000	96.761816
1869.000000	96.785725
1868.000000	96.793406
1867.000000	96.798545
1866.000000	96.820665
1865.000000	96.859851
1864.000000	96.899856
1863.000000	96.931425
1862.000000	96.960569
1861.000000	96.991828
1860.000000	97.019634
1859.000000	97.042744
1858.000000	97.071149
1857.000000	97.110502
1856.000000	97.154303
1855.000000	97.198309
1854.000000	97.246406
1853.000000	97.296013
1852.000000	97.337840
1851.000000	97.372530
1850.000000	97.403861
1849.000000	97.429688
1848.000000	97.446600
1847.000000	97.457691
1846.000000	97.465892
1845.000000	97.462145
1844.000000	97.437268
1843.000000	97.409651
1842.000000	97.411367
1841.000000	97.443188
1840.000000	97.481918
1839.000000	97.512846
1838.000000	97.538433
1837.000000	97.567534
1836.000000	97.600852
1835.000000	97.638163
1834.000000	97.682880
1833.000000	97.733409
1832.000000	97.781187
1831.000000	97.812743
1830.000000	97.814285
1829.000000	97.795380
1828.000000	97.787075
1827.000000	97.804321
1826.000000	97.833971
1825.000000	97.856807
1824.000000	97.869431
1823.000000	97.886753
1822.000000	97.921526
1821.000000	97.970859
1820.000000	98.023392
1819.000000	98.070739
1818.000000	98.114197
1817.000000	98.156449
1816.000000	98.189515
1815.000000	98.208039
1814.000000	98.220054
1813.000000	98.231574
1812.000000	98.233945
1811.000000	98.214127
1810.000000	98.182799
1809.000000	98.163976
1808.000000	98.161426
1807.000000	98.166837
1806.000000	98.183635
1805.000000	98.220093
1804.000000	98.271911
1803.000000	98.329544
1802.000000	98.388287
1801.000000	98.440124
1800.000000	98.473651
1799.000000	98.487091
1798.000000	98.496457
1797.000000	98.511841
1796.000000	98.522788
1795.000000	98.518766
1794.000000	98.502971
1793.000000	98.479279
1792.000000	98.444243
1791.000000	98.404525
1790.000000	98.385330
1789.000000	98.396946
1788.000000	98.425865
1787.000000	98.460563
1786.000000	98.503565
1785.000000	98.554041
1784.000000	98.598397
1783.000000	98.632152
1782.000000	98.660648
1781.000000	98.678850
1780.000000	98.680902
1779.000000	98.669525
1778.000000	98.658928
1777.000000	98.657649
1776.000000	98.663162
1775.000000	98.673053
1774.000000	98.683437
1773.000000	98.688177
1772.000000	98.690146
1771.000000	98.707667
1770.000000	98.758225
1769.000000	98.839107
1768.000000	98.928599
1767.000000	98.999986
1766.000000	99.051960
1765.000000	99.103609
1764.000000	99.160286
1763.000000	99.201299
1762.000000	99.200209
1761.000000	99.166288
1760.000000	99.139545
1759.000000	99.136192
1758.000000	99.144246
1757.000000	99.146367
1756.000000	99.144620
1755.000000	99.154079
1754.000000	99.176219
1753.000000	99.205554
1752.000000	99.242071
1751.000000	99.275104
1750.000000	99.285439
1749.000000	99.275595
1748.000000	99.260350
1747.000000	99.247163
1746.000000	99.230152
1745.000000	99.204378
1744.000000	99.174534
1743.000000	99.137017
1742.000000	99.085292
1741.000000	99.025691
1740.000000	98.970297
1739.000000	98.927217
1738.000000	98.907818
1737.000000	98.913549
1736.000000	98.931262
1735.000000	98.948277
1734.000000	98.939854
1733.000000	98.909604
1732.000000	98.908337
1731.000000	98.936059
1730.000000	98.950155
1729.000000	98.926130
1728.000000	98.873993
1727.000000	98.818772
1726.000000	98.767744
1725.000000	98.717825
1724.000000	98.666785
1723.000000	98.614958
1722.000000	98.577631
1721.000000	98.567006
1720.000000	98.570686
1719.000000	98.566259
1718.000000	98.549094
1717.000000	98.538893
1716.000000	98.542804
1715.000000	98.553814
1714.000000	98.571255
1713.000000	98.593178
1712.000000	98.605533
1711.000000	98.606553
1710.000000	98.617194
1709.000000	98.651422
1708.000000	98.702556
1707.000000	98.760954
1706.000000	98.829750
1705.000000	98.909715
1704.000000	98.989055
1703.000000	99.061550
1702.000000	99.144526
1701.000000	99.249217
1700.000000	99.321519
1699.000000	99.346502
1698.000000	99.397578
1697.000000	99.478815
1696.000000	99.536357
1695.000000	99.542532
1694.000000	99.549796
1693.000000	99.596073
1692.000000	99.647080
1691.000000	99.676917
1690.000000	99.694096
1689.000000	99.711634
1688.000000	99.733935
1687.000000	99.758785
1686.000000	99.787496
1685.000000	99.822308
1684.000000	99.846277
1683.000000	99.872087
1682.000000	99.934022
1681.000000	99.999592
1680.000000	100.037295
1679.000000	100.053305
1678.000000	100.053631
1677.000000	100.035683
1676.000000	100.002544
1675.000000	99.963407
1674.000000	99.923514
1673.000000	99.894815
1672.000000	99.884955
1671.000000	99.886799
1670.000000	99.883735
1669.000000	99.859771
1668.000000	99.836183
1667.000000	99.841648
1666.000000	99.856420
1665.000000	99.843035
1664.000000	99.786814
1663.000000	99.696488
1662.000000	99.584927
1661.000000	99.457265
1660.000000	99.326910
1659.000000	99.204690
1658.000000	99.079321
1657.000000	98.935083
1656.000000	98.767815
1655.000000	98.562935
1654.000000	98.263652
1653.000000	97.808595
1652.000000	97.329780
1651.000000	97.023043
1650.000000	96.801624
1649.000000	96.473971
1648.000000	95.915300
1647.000000	95.086282
1646.000000	94.073946
1645.000000	93.034481
1644.000000	92.044425
1643.000000	91.076586
1642.000000	90.102012
1641.000000	89.151651
1640.000000	88.316753
1639.000000	87.670635
1638.000000	87.228597
1637.000000	86.999474
1636.000000	87.021961
1635.000000	87.290976
1634.000000	87.715035
1633.000000	88.221222
1632.000000	88.775225
1631.000000	89.364998
1630.000000	89.981868
1629.000000	90.608334
1628.000000	91.222181
1627.000000	91.797914
1626.000000	92.317498
1625.000000	92.793657
1624.000000	93.268095
1623.000000	93.758496
1622.000000	94.230981
1621.000000	94.652697
1620.000000	95.036241
1619.000000	95.412840
1618.000000	95.807180
1617.000000	96.219416
1616.000000	96.624491
1615.000000	96.997329
1614.000000	97.313407
1613.000000	97.554949
1612.000000	97.733086
1611.000000	97.859523
1610.000000	97.903643
1609.000000	97.815272
1608.000000	97.566323
1607.000000	97.131461
1606.000000	96.450082
1605.000000	95.451820
1604.000000	94.134335
1603.000000	92.568164
1602.000000	90.852012
1601.000000	89.072502
1600.000000	87.236327
1599.000000	85.211145
1598.000000	82.735253
1597.000000	79.585059
1596.000000	75.809212
1595.000000	71.806394
1594.000000	68.145675
1593.000000	65.266573
1592.000000	63.351075
1591.000000	62.369856
1590.000000	62.132064
1589.000000	62.322868
1588.000000	62.624773
1587.000000	62.825584
1586.000000	62.808663
1585.000000	62.552915
1584.000000	62.167474
1583.000000	61.850309
1582.000000	61.739956
1581.000000	61.840543
1580.000000	62.100454
1579.000000	62.487959
1578.000000	62.965654
1577.000000	63.447151
1576.000000	63.823980
1575.000000	64.061158
1574.000000	64.193444
1573.000000	64.250125
1572.000000	64.299709
1571.000000	64.500695
1570.000000	65.003552
1569.000000	65.791519
1568.000000	66.750957
1567.000000	67.839599
1566.000000	69.037490
1565.000000	70.245546
1564.000000	71.329655
1563.000000	72.231800
1562.000000	73.000108
1561.000000	73.751954
1560.000000	74.700506
1559.000000	75.945678
1558.000000	77.175313
1557.000000	78.139988
1556.000000	78.945597
1555.000000	79.731577
1554.000000	80.514367
1553.000000	81.227521
1552.000000	81.852487
1551.000000	82.434714
1550.000000	82.996092
1549.000000	83.503378
1548.000000	83.932776
1547.000000	84.322508
1546.000000	84.714687
1545.000000	85.100265
1544.000000	85.442141
1543.000000	85.735481
1542.000000	86.013061
1541.000000	86.301700
1540.000000	86.583516
1539.000000	86.840669
1538.000000	87.098481
1537.000000	87.365463
1536.000000	87.617625
1535.000000	87.859012
1534.000000	88.103639
1533.000000	88.331644
1532.000000	88.527568
1531.000000	88.708891
1530.000000	88.892479
1529.000000	89.072252
1528.000000	89.228461
1527.000000	89.359493
1526.000000	89.476698
1525.000000	89.581061
1524.000000	89.673324
1523.000000	89.766199
1522.000000	89.872324
1521.000000	89.974807
1520.000000	90.056408
1519.000000	90.136406
1518.000000	90.218543
1517.000000	90.278618
1516.000000	90.299988
1515.000000	90.301786
1514.000000	90.318145
1513.000000	90.359234
1512.000000	90.415618
1511.000000	90.476614
1510.000000	90.544079
1509.000000	90.619540
1508.000000	90.695065
1507.000000	90.748605
1506.000000	90.773644
1505.000000	90.817973
1504.000000	90.923680
1503.000000	91.063498
1502.000000	91.201680
1501.000000	91.324524
1500.000000	91.427750
1499.000000	91.513774
1498.000000	91.594921
1497.000000	91.691010
1496.000000	91.804074
1495.000000	91.929265
1494.000000	92.074518
1493.000000	92.236133
1492.000000	92.398849
1491.000000	92.555663
1490.000000	92.705743
1489.000000	92.843430
1488.000000	92.961671
1487.000000	93.071542
1486.000000	93.197618
1485.000000	93.334281
1484.000000	93.462862
1483.000000	93.589338
1482.000000	93.720760
1481.000000	93.846092
1480.000000	93.953093
1479.000000	94.055397
1478.000000	94.172842
1477.000000	94.300281
1476.000000	94.416300
1475.000000	94.526056
1474.000000	94.659376
1473.000000	94.817846
1472.000000	94.971695
1471.000000	95.103389
1470.000000	95.214595
1469.000000	95.290409
1468.000000	95.306719
1467.000000	95.246399
1466.000000	95.073713
1465.000000	94.719918
1464.000000	94.145392
1463.000000	93.362024
1462.000000	92.370153
1461.000000	91.149718
1460.000000	89.697042
1459.000000	88.012700
1458.000000	86.083248
1457.000000	84.060345
1456.000000	82.338334
1455.000000	81.117514
1454.000000	80.195886
1453.000000	79.335182
1452.000000	78.504138
1451.000000	77.813426
1450.000000	77.380364
1449.000000	77.274688
1448.000000	77.503893
1447.000000	77.980950
1446.000000	78.581955
1445.000000	79.263732
1444.000000	80.065337
1443.000000	80.988986
1442.000000	81.953858
1441.000000	82.865682
1440.000000	83.678944
1439.000000	84.399804
1438.000000	85.076261
1437.000000	85.765641
1436.000000	86.452446
1435.000000	87.068727
1434.000000	87.603728
1433.000000	88.099124
1432.000000	88.576618
1431.000000	89.013242
1430.000000	89.379478
1429.000000	89.683845
1428.000000	89.947814
1427.000000	90.182699
1426.000000	90.400695
1425.000000	90.619827
1424.000000	90.851589
1423.000000	91.076761
1422.000000	91.276908
1421.000000	91.466939
1420.000000	91.669859
1419.000000	91.866045
1418.000000	92.020144
1417.000000	92.150482
1416.000000	92.280677
1415.000000	92.399216
1414.000000	92.495802
1413.000000	92.583190
1412.000000	92.676773
1411.000000	92.767741
1410.000000	92.842128
1409.000000	92.906885
1408.000000	92.965342
1407.000000	92.992705
1406.000000	92.944713
1405.000000	92.774475
1404.000000	92.459405
1403.000000	92.019870
1402.000000	91.514214
1401.000000	91.011067
1400.000000	90.564116
1399.000000	90.194502
1398.000000	89.894940
1397.000000	89.674201
1396.000000	89.590310
1395.000000	89.721099
1394.000000	90.077441
1393.000000	90.581279
1392.000000	91.137927
1391.000000	91.681198
1390.000000	92.183151
1389.000000	92.662441
1388.000000	93.162515
1387.000000	93.688185
1386.000000	94.173112
1385.000000	94.531967
1384.000000	94.719023
1383.000000	94.737328
1382.000000	94.637559
1381.000000	94.499611
1380.000000	94.386996
1379.000000	94.319946
1378.000000	94.284590
1377.000000	94.253546
1376.000000	94.191461
1375.000000	94.051565
1374.000000	93.779893
1373.000000	93.334699
1372.000000	92.690040
1371.000000	91.811341
1370.000000	90.660287
1369.000000	89.263790
1368.000000	87.789934
1367.000000	86.502656
1366.000000	85.605778
1365.000000	85.145263
1364.000000	85.047787
1363.000000	85.219817
1362.000000	85.616155
1361.000000	86.239423
1360.000000	87.079279
1359.000000	88.063857
1358.000000	89.073688
1357.000000	89.995796
1356.000000	90.771959
1355.000000	91.402028
1354.000000	91.915550
1353.000000	92.346845
1352.000000	92.719208
1351.000000	93.041675
1350.000000	93.315066
1349.000000	93.538288
1348.000000	93.716372
1347.000000	93.859049
1346.000000	93.976322
1345.000000	94.078484
1344.000000	94.177218
1343.000000	94.282667
1342.000000	94.400204
1341.000000	94.529905
1340.000000	94.666311
1339.000000	94.799910
1338.000000	94.923379
1337.000000	95.038697
1336.000000	95.152993
1335.000000	95.269301
1334.000000	95.384803
1333.000000	95.494292
1332.000000	95.591603
1331.000000	95.669708
1330.000000	95.723256
1329.000000	95.751782
1328.000000	95.755257
1327.000000	95.726064
1326.000000	95.641677
1325.000000	95.459064
1324.000000	95.121023
1323.000000	94.568375
1322.000000	93.765597
1321.000000	92.735759
1320.000000	91.579348
1319.000000	90.451437
1318.000000	89.488268
1317.000000	88.741339
1316.000000	88.187189
1315.000000	87.798681
1314.000000	87.589620
1313.000000	87.588673
1312.000000	87.778043
1311.000000	88.070713
1310.000000	88.369388
1309.000000	88.646053
1308.000000	88.961664
1307.000000	89.408951
1306.000000	90.031219
1305.000000	90.790783
1304.000000	91.597422
1303.000000	92.354690
1302.000000	92.995026
1301.000000	93.493791
1300.000000	93.857168
1299.000000	94.100866
1298.000000	94.237327
1297.000000	94.272316
1296.000000	94.206215
1295.000000	94.030499
1294.000000	93.731492
1293.000000	93.300114
1292.000000	92.738898
1291.000000	92.071922
1290.000000	91.340071
1289.000000	90.576112
1288.000000	89.768336
1287.000000	88.845827
1286.000000	87.727642
1285.000000	86.413898
1284.000000	85.038941
1283.000000	83.835043
1282.000000	83.031518
1281.000000	82.755285
1280.000000	83.000013
1279.000000	83.649164
1278.000000	84.521647
1277.000000	85.433992
1276.000000	86.234207
1275.000000	86.813040
1274.000000	87.133567
1273.000000	87.277569
1272.000000	87.443672
1271.000000	87.837163
1270.000000	88.529078
1269.000000	89.421478
1268.000000	90.343298
1267.000000	91.169464
1266.000000	91.862676
1265.000000	92.441398
1264.000000	92.934871
1263.000000	93.363393
1262.000000	93.739229
1261.000000	94.073620
1260.000000	94.378386
1259.000000	94.662463
1258.000000	94.931509
1257.000000	95.188365
1256.000000	95.434142
1255.000000	95.668713
1254.000000	95.890854
1253.000000	96.100153
1252.000000	96.296658
1251.000000	96.479987
1250.000000	96.649896
1249.000000	96.806908
1248.000000	96.952479
1247.000000	97.088246
1246.000000	97.216490
1245.000000	97.340880
1244.000000	97.464646
1243.000000	97.589059
1242.000000	97.715067
1241.000000	97.845249
1240.000000	97.982413
1239.000000	98.127263
1238.000000	98.279192
1237.000000	98.437785
1236.000000	98.600850
1235.000000	98.762078
1234.000000	98.912401
1233.000000	99.043444
1232.000000	99.147694
1231.000000	99.217262
1230.000000	99.247308
1229.000000	99.234763
1228.000000	99.172884
1227.000000	99.042779
1226.000000	98.807302
1225.000000	98.414994
1224.000000	97.799295
1223.000000	96.894161
1222.000000	95.663026
1221.000000	94.122575
1220.000000	92.357509
1219.000000	90.497813
1218.000000	88.672711
1217.000000	86.968573
1216.000000	85.413721
1215.000000	83.991694
1214.000000	82.667620
1213.000000	81.418204
1212.000000	80.251510
1211.000000	79.203795
1210.000000	78.307751
1209.000000	77.581733
1208.000000	77.041072
1207.000000	76.697183
1206.000000	76.549840
1205.000000	76.577690
1204.000000	76.750796
1203.000000	77.040399
1202.000000	77.417745
1201.000000	77.872505
1200.000000	78.420729
1199.000000	79.089728
1198.000000	79.891093
1197.000000	80.809057
1196.000000	81.814973
1195.000000	82.873016
1194.000000	83.941103
1193.000000	84.981555
1192.000000	85.972056
1191.000000	86.902499
1190.000000	87.765648
1189.000000	88.556094
1188.000000	89.271179
1187.000000	89.908859
1186.000000	90.461749
1185.000000	90.923511
1184.000000	91.295740
1183.000000	91.580861
1182.000000	91.779108
1181.000000	91.890884
1180.000000	91.926157
1179.000000	91.905666
1178.000000	91.849647
1177.000000	91.773917
1176.000000	91.690903
1175.000000	91.611157
1174.000000	91.543666
1173.000000	91.497911
1172.000000	91.486274
1171.000000	91.519991
1170.000000	91.602233
1169.000000	91.726875
1168.000000	91.881821
1167.000000	92.047011
1166.000000	92.192317
1165.000000	92.286108
1164.000000	92.311322
1163.000000	92.277704
1162.000000	92.222468
1161.000000	92.200695
1160.000000	92.265990
1159.000000	92.445938
1158.000000	92.731979
1157.000000	93.092361
1156.000000	93.495028
1155.000000	93.917328
1154.000000	94.340866
1153.000000	94.748201
1152.000000	95.122607
1151.000000	95.446521
1150.000000	95.702108
1149.000000	95.880055
1148.000000	95.984990
1147.000000	96.032466
1146.000000	96.041216
1145.000000	96.025989
1144.000000	95.996559
1143.000000	95.951193
1142.000000	95.873830
1141.000000	95.742275
1140.000000	95.533877
1139.000000	95.228144
1138.000000	94.796196
1137.000000	94.199674
1136.000000	93.402266
1135.000000	92.366504
1134.000000	91.055546
1133.000000	89.432199
1132.000000	87.474392
1131.000000	85.201878
1130.000000	82.689022
1129.000000	80.079004
1128.000000	77.585274
1127.000000	75.448360
1126.000000	73.850247
1125.000000	72.863384
1124.000000	72.447947
1123.000000	72.467648
1122.000000	72.707616
1121.000000	72.911136
1120.000000	72.848307
1119.000000	72.349298
1118.000000	71.326665
1117.000000	69.855215
1116.000000	68.263281
1115.000000	67.098676
1114.000000	66.876663
1113.000000	67.791305
1112.000000	69.635336
1111.000000	71.943208
1110.000000	74.225810
1109.000000	76.134709
1108.000000	77.499962
1107.000000	78.281426
1106.000000	78.508728
1105.000000	78.270230
1104.000000	77.755543
1103.000000	77.275617
1102.000000	77.169341
1101.000000	77.638404
1100.000000	78.645659
1099.000000	79.963785
1098.000000	81.327364
1097.000000	82.559396
1096.000000	83.592152
1095.000000	84.426024
1094.000000	85.096813
1093.000000	85.662064
1092.000000	86.182475
1091.000000	86.700474
1090.000000	87.234009
1089.000000	87.787128
1088.000000	88.360769
1087.000000	88.949952
1086.000000	89.543398
1085.000000	90.127648
1084.000000	90.687618
1083.000000	91.206724
1082.000000	91.670327
1081.000000	92.072692
1080.000000	92.415073
1079.000000	92.697323
1078.000000	92.919742
1077.000000	93.084692
1076.000000	93.195266
1075.000000	93.251154
1074.000000	93.243259
1073.000000	93.158149
1072.000000	92.969176
1071.000000	92.632469
1070.000000	92.093915
1069.000000	91.290189
1068.000000	90.163308
1067.000000	88.657992
1066.000000	86.731569
1065.000000	84.384074
1064.000000	81.677536
1063.000000	78.753107
1062.000000	75.795856
1061.000000	72.968696
1060.000000	70.343749
1059.000000	67.861255
1058.000000	65.365802
1057.000000	62.757377
1056.000000	60.173757
1055.000000	58.016694
1054.000000	56.795188
1053.000000	56.852077
1052.000000	58.196221
1051.000000	60.514331
1050.000000	63.306840
1049.000000	66.111865
1048.000000	68.635758
1047.000000	70.766421
1046.000000	72.520464
1045.000000	73.974929
1044.000000	75.214810
1043.000000	76.296986
1042.000000	77.242838
1041.000000	78.053883
1040.000000	78.739945
1039.000000	79.318203
1038.000000	79.808404
1037.000000	80.236264
1036.000000	80.630657
1035.000000	81.017702
1034.000000	81.409313
1033.000000	81.804973
1032.000000	82.198361
1031.000000	82.577010
1030.000000	82.925270
1029.000000	83.232945
1028.000000	83.502478
1027.000000	83.746051
1026.000000	83.978503
1025.000000	84.215933
1024.000000	84.473259
1023.000000	84.756267
1022.000000	85.057546
1021.000000	85.360525
1020.000000	85.646989
1019.000000	85.898337
1018.000000	86.094591
1017.000000	86.217527
1016.000000	86.241273
1015.000000	86.127005
1014.000000	85.820540
1013.000000	85.258735
1012.000000	84.391096
1011.000000	83.194593
1010.000000	81.698134
1009.000000	79.995421
1008.000000	78.235794
1007.000000	76.606739
1006.000000	75.319532
1005.000000	74.575759
1004.000000	74.491726
1003.000000	75.011749
1002.000000	75.890973
1001.000000	76.805078
1000.000000	77.482917
999.000000	77.756199
998.000000	77.546175
997.000000	76.873764
996.000000	75.901865
995.000000	74.918040
994.000000	74.208488
993.000000	73.913793
992.000000	73.993692
991.000000	74.313448
990.000000	74.760592
989.000000	75.303873
988.000000	75.973844
987.000000	76.790880
986.000000	77.723008
985.000000	78.699733
984.000000	79.649499
983.000000	80.523126
982.000000	81.292694
981.000000	81.949569
980.000000	82.503207
979.000000	82.975151
978.000000	83.386310
977.000000	83.754830
976.000000	84.097074
975.000000	84.422012
974.000000	84.728171
973.000000	85.006663
972.000000	85.252241
971.000000	85.467658
970.000000	85.660484
969.000000	85.842966
968.000000	86.030709
967.000000	86.235935
966.000000	86.458609
965.000000	86.686230
964.000000	86.902682
963.000000	87.094074
962.000000	87.251193
961.000000	87.373316
960.000000	87.470728
959.000000	87.561154
958.000000	87.661147
957.000000	87.780487
956.000000	87.920603
955.000000	88.073357
954.000000	88.223170
953.000000	88.354754
952.000000	88.461505
951.000000	88.547214
950.000000	88.621854
949.000000	88.697706
948.000000	88.784838
947.000000	88.884792
946.000000	88.988503
945.000000	89.082406
944.000000	89.157027
943.000000	89.209832
942.000000	89.244582
941.000000	89.272053
940.000000	89.308515
939.000000	89.368137
938.000000	89.454900
937.000000	89.562212
936.000000	89.677851
935.000000	89.786891
934.000000	89.874476
933.000000	89.932570
932.000000	89.965193
931.000000	89.985144
930.000000	90.005841
929.000000	90.036992
928.000000	90.083632
927.000000	90.143972
926.000000	90.208913
925.000000	90.267539
924.000000	90.314568
923.000000	90.352330
922.000000	90.387851
921.000000	90.430346
920.000000	90.488643
919.000000	90.565524
918.000000	90.653371
917.000000	90.737417
916.000000	90.803477
915.000000	90.842396
914.000000	90.851678
913.000000	90.837777
912.000000	90.816262
911.000000	90.806140
910.000000	90.821401
909.000000	90.866697
908.000000	90.937909
907.000000	91.023803
906.000000	91.108969
905.000000	91.180144
904.000000	91.231752
903.000000	91.265834
902.000000	91.287750
901.000000	91.302680
900.000000	91.310989
899.000000	91.301137
898.000000	91.249441
897.000000	91.131611
896.000000	90.943752
895.000000	90.714237
894.000000	90.489293
893.000000	90.298433
892.000000	90.127032
891.000000	89.927217
890.000000	89.664363
889.000000	89.355928
888.000000	89.059147
887.000000	88.824523
886.000000	88.668662
885.000000	88.589053
884.000000	88.585432
883.000000	88.646668
882.000000	88.732685
881.000000	88.794570
880.000000	88.821352
879.000000	88.857626
878.000000	88.965124
877.000000	89.174793
876.000000	89.471104
875.000000	89.810919
874.000000	90.152829
873.000000	90.473742
872.000000	90.768469
871.000000	91.036191
870.000000	91.268471
869.000000	91.448277
868.000000	91.558325
867.000000	91.586387
866.000000	91.527633
865.000000	91.390855
864.000000	91.202290
863.000000	91.002704
862.000000	90.835585
861.000000	90.734900
860.000000	90.717553
859.000000	90.779666
858.000000	90.898949
857.000000	91.047622
856.000000	91.207805
855.000000	91.373253
854.000000	91.541513
853.000000	91.707400
852.000000	91.862241
851.000000	91.994095
850.000000	92.089169
849.000000	92.138247
848.000000	92.144536
847.000000	92.123844
846.000000	92.096574
845.000000	92.082026
844.000000	92.096856
843.000000	92.151595
842.000000	92.244848
841.000000	92.363580
840.000000	92.490681
839.000000	92.611854
838.000000	92.717703
837.000000	92.804369
836.000000	92.873439
835.000000	92.928404
834.000000	92.969160
833.000000	92.991221
832.000000	92.990597
831.000000	92.966780
830.000000	92.922679
829.000000	92.866030
828.000000	92.813048
827.000000	92.786367
826.000000	92.804348
825.000000	92.870754
824.000000	92.974100
823.000000	93.094988
822.000000	93.214068
821.000000	93.317150
820.000000	93.396117
819.000000	93.446926
818.000000	93.467683
817.000000	93.459661
816.000000	93.427788
815.000000	93.378456
814.000000	93.316137
813.000000	93.241964
812.000000	93.154040
811.000000	93.047206
810.000000	92.918462
809.000000	92.780014
808.000000	92.666597
807.000000	92.620330
806.000000	92.662009
805.000000	92.775600
804.000000	92.919559
803.000000	93.049746
802.000000	93.134130
801.000000	93.156501
800.000000	93.114107
799.000000	93.011215
798.000000	92.848800
797.000000	92.621241
796.000000	92.320775
795.000000	91.943197
794.000000	91.489866
793.000000	90.968492
792.000000	90.399824
791.000000	89.819687
790.000000	89.270523
789.000000	88.789507
788.000000	88.403352
787.000000	88.126718
786.000000	87.960490
785.000000	87.893563
784.000000	87.906175
783.000000	87.970975
782.000000	88.050070
781.000000	88.100975
780.000000	88.095063
779.000000	88.033769
778.000000	87.950518
777.000000	87.896816
776.000000	87.922744
775.000000	88.059511
774.000000	88.308752
773.000000	88.645624
772.000000	89.032017
771.000000	89.429989
770.000000	89.808586
769.000000	90.145811
768.000000	90.431115
767.000000	90.666276
766.000000	90.861529
765.000000	91.028063
764.000000	91.173678
763.000000	91.302798
762.000000	91.417643
761.000000	91.518736
760.000000	91.606001
759.000000	91.682030
758.000000	91.753872
757.000000	91.831358
756.000000	91.922804
755.000000	92.030450
754.000000	92.147911
753.000000	92.260556
752.000000	92.349443
751.000000	92.397895
750.000000	92.397518
749.000000	92.351529
748.000000	92.273435
747.000000	92.180916
746.000000	92.088381
745.000000	92.002105
744.000000	91.919437
743.000000	91.830275
742.000000	91.721364
741.000000	91.584543
740.000000	91.425190
739.000000	91.263246
738.000000	91.123896
737.000000	91.024476
736.000000	90.964952
735.000000	90.924506
734.000000	90.865476
733.000000	90.745919
732.000000	90.537172
731.000000	90.238224
730.000000	89.879938
729.000000	89.516104
728.000000	89.207408
727.000000	89.004487
726.000000	88.931564
725.000000	88.977855
724.000000	89.104164
723.000000	89.265283
722.000000	89.435047
721.000000	89.612344
720.000000	89.805241
719.000000	90.014347
718.000000	90.231657
717.000000	90.446645
716.000000	90.646466
715.000000	90.812831
714.000000	90.925454
713.000000	90.972555
712.000000	90.959131
711.000000	90.905550
710.000000	90.840744
709.000000	90.794453
708.000000	90.788987
707.000000	90.833475
706.000000	90.920587
705.000000	91.029623
704.000000	91.137625
703.000000	91.229304
702.000000	91.301001
701.000000	91.358454
700.000000	91.410223
699.000000	91.464516
698.000000	91.524561
697.000000	91.583150
696.000000	91.624725
695.000000	91.632295
694.000000	91.597532
693.000000	91.526032
692.000000	91.435123
691.000000	91.351853
690.000000	91.305702
689.000000	91.315819
688.000000	91.379744
687.000000	91.472658
686.000000	91.561938
685.000000	91.620699
684.000000	91.632696
683.000000	91.596429
682.000000	91.528607
681.000000	91.455943
680.000000	91.402760
679.000000	91.380317
678.000000	91.387528
677.000000	91.418836
676.000000	91.458282
675.000000	91.490013
674.000000	91.532484
673.000000	91.665131
672.000000	91.983483
671.000000	92.491866
670.000000	93.039501
669.000000	93.429520
668.000000	93.472660
667.000000	93.166084
666.000000	92.775959
665.000000	92.485597
664.000000	92.325682
663.000000	92.245329
662.000000	92.198977
661.000000	92.177046
660.000000	92.190606
659.000000	92.246146
658.000000	92.326327
657.000000	92.401352
656.000000	92.451870
655.000000	92.481391
654.000000	92.500393
653.000000	92.518452
652.000000	92.550374
651.000000	92.608348
650.000000	92.687931
649.000000	92.768726
648.000000	92.828216
647.000000	92.848680
646.000000	92.816830
645.000000	92.732968
644.000000	92.620225
643.000000	92.515299
642.000000	92.449241
641.000000	92.437867
640.000000	92.484470
639.000000	92.579006
638.000000	92.693978
637.000000	92.794738
636.000000	92.860302
635.000000	92.888614
634.000000	92.886808
633.000000	92.866692
632.000000	92.845096
631.000000	92.835698
630.000000	92.836899
629.000000	92.833015
628.000000	92.809093
627.000000	92.761523
626.000000	92.695805
625.000000	92.627155
624.000000	92.583214
623.000000	92.593109
622.000000	92.665682
621.000000	92.782847
620.000000	92.916437
619.000000	93.041899
618.000000	93.135857
617.000000	93.174764
616.000000	93.147401
615.000000	93.066215
614.000000	92.961930
613.000000	92.867878
612.000000	92.806699
611.000000	92.783776
610.000000	92.789061
609.000000	92.806267
608.000000	92.823393
607.000000	92.837473
606.000000	92.851686
605.000000	92.875191
604.000000	92.920761
603.000000	92.991253
602.000000	93.066581
601.000000	93.108182
600.000000	93.074826
599.000000	92.935008
598.000000	92.675134
597.000000	92.306025
596.000000	91.865255
595.000000	91.404662
594.000000	90.961555
593.000000	90.534433
592.000000	90.082243
591.000000	89.553647
590.000000	88.937692
589.000000	88.305260
588.000000	87.788342
587.000000	87.489637
586.000000	87.401398
585.000000	87.432112
584.000000	87.520124
583.000000	87.681425
582.000000	87.943799
581.000000	88.281036
580.000000	88.628911
579.000000	88.938019
578.000000	89.188928
577.000000	89.384269
576.000000	89.549400
575.000000	89.724126
574.000000	89.932861
573.000000	90.169322
572.000000	90.412235
571.000000	90.635757
570.000000	90.804207
569.000000	90.877609
568.000000	90.838130
567.000000	90.694284
566.000000	90.448536
565.000000	90.072954
564.000000	89.525813
563.000000	88.799876
562.000000	87.947942
561.000000	87.066622
560.000000	86.258201
559.000000	85.584622
558.000000	85.036917
557.000000	84.569522
556.000000	84.192329
555.000000	84.002499
554.000000	84.102277
553.000000	84.499052
552.000000	85.098798
551.000000	85.762317
550.000000	86.353286
549.000000	86.786378
548.000000	87.058340
547.000000	87.224102
546.000000	87.338164
545.000000	87.427163
544.000000	87.507877
543.000000	87.597062
542.000000	87.693577
541.000000	87.773818
540.000000	87.822626
539.000000	87.850246
538.000000	87.872125
537.000000	87.890614
536.000000	87.901220
535.000000	87.897410
534.000000	87.860506
533.000000	87.765209
532.000000	87.604470
531.000000	87.400081
530.000000	87.184674
529.000000	86.983885
528.000000	86.817472
527.000000	86.696870
526.000000	86.601708
525.000000	86.480152
524.000000	86.290617
523.000000	86.023448
522.000000	85.684089
521.000000	85.285036
520.000000	84.861920
519.000000	84.465338
518.000000	84.113755
517.000000	83.775153
516.000000	83.411721
515.000000	83.017581
514.000000	82.603827
513.000000	82.186480
512.000000	81.809131
511.000000	81.550198
510.000000	81.475008
509.000000	81.597415
508.000000	81.903217
507.000000	82.368263
506.000000	82.938582
505.000000	83.539740
504.000000	84.127328
503.000000	84.696772
502.000000	85.235339
501.000000	85.709718
500.000000	86.110112
499.000000	86.463828
498.000000	86.789503
497.000000	87.076508
496.000000	87.315144
495.000000	87.515012
494.000000	87.685433
493.000000	87.825212
492.000000	87.952134
491.000000	88.110696
490.000000	88.329261
489.000000	88.594988
488.000000	88.876665
487.000000	89.143435
486.000000	89.346147
485.000000	89.409106
484.000000	89.270400
483.000000	88.910382
482.000000	88.339249
481.000000	87.594837
480.000000	86.772246
479.000000	86.015608
478.000000	85.431110
477.000000	85.020427
476.000000	84.718392
475.000000	84.469711
474.000000	84.243125
473.000000	84.032087
472.000000	83.892732
471.000000	83.930510
470.000000	84.200403
469.000000	84.654182
468.000000	85.203722
467.000000	85.775259
466.000000	86.305774
465.000000	86.748919
464.000000	87.099250
463.000000	87.392456
462.000000	87.662686
461.000000	87.914408
460.000000	88.146852
459.000000	88.372211
458.000000	88.588560
457.000000	88.770795
456.000000	88.917624
455.000000	89.064878
454.000000	89.234772
453.000000	89.411360
452.000000	89.575573
451.000000	89.733477
450.000000	89.881585
449.000000	89.982932
448.000000	90.009570
447.000000	89.981861
446.000000	89.939141
445.000000	89.894302
444.000000	89.850139
443.000000	89.835781
442.000000	89.881222
441.000000	89.973452
440.000000	90.079301
439.000000	90.183659
438.000000	90.278102
437.000000	90.343676
436.000000	90.375063
435.000000	90.392329
434.000000	90.396901
433.000000	90.348675
432.000000	90.213737
431.000000	90.006403
430.000000	89.758472
429.000000	89.474695
428.000000	89.170491
427.000000	88.914916
426.000000	88.772832
425.000000	88.738086
424.000000	88.777459
423.000000	88.886940
422.000000	89.047996
421.000000	89.197871
420.000000	89.306754
419.000000	89.441330
418.000000	89.655383
417.000000	89.883454
416.000000	90.076381
415.000000	90.269381
414.000000	90.481056
413.000000	90.662430
412.000000	90.772188
411.000000	90.831015
410.000000	90.856031
409.000000	90.814321
408.000000	90.719374
407.000000	90.676418
406.000000	90.744984
405.000000	90.843374
404.000000	90.907436
403.000000	91.003605
402.000000	91.206399
401.000000	91.414923
400.000000	91.513120
