PE IR       SUBTECH     SPECTRUM    ASCII       PEDS        4.00        
   -1
23ms240cis.asc
24/10/18
15:23:23.00
24/10/18
15:23:23.00
Administrator
Sample 1302 By Administrator Date Friday, October 18 2024
400.000000
#HDR
-1
-1
#GR
cm-1
%T
1.0
0.0
4000.000000
-1.000000
3601
8
93.983533
23.392040
#DATA
4000.000000	78.435116
3999.000000	78.428005
3998.000000	78.423335
3997.000000	78.420398
3996.000000	78.418340
3995.000000	78.416949
3994.000000	78.416839
3993.000000	78.418582
3992.000000	78.421793
3991.000000	78.425447
3990.000000	78.429034
3989.000000	78.433177
3988.000000	78.439116
3987.000000	78.447825
3986.000000	78.459935
3985.000000	78.475724
3984.000000	78.494723
3983.000000	78.515590
3982.000000	78.537005
3981.000000	78.558895
3980.000000	78.582303
3979.000000	78.608165
3978.000000	78.636378
3977.000000	78.665886
3976.000000	78.695678
3975.000000	78.725212
3974.000000	78.754180
3973.000000	78.782383
3972.000000	78.809381
3971.000000	78.834696
3970.000000	78.857902
3969.000000	78.879266
3968.000000	78.900204
3967.000000	78.922422
3966.000000	78.947026
3965.000000	78.974288
3964.000000	79.004003
3963.000000	79.035689
3962.000000	79.069127
3961.000000	79.104473
3960.000000	79.141727
3959.000000	79.180460
3958.000000	79.219222
3957.000000	79.256745
3956.000000	79.293247
3955.000000	79.329730
3954.000000	79.367134
3953.000000	79.405085
3952.000000	79.442025
3951.000000	79.476117
3950.000000	79.506182
3949.000000	79.532734
3948.000000	79.558278
3947.000000	79.586558
3946.000000	79.619725
3945.000000	79.655200
3944.000000	79.686251
3943.000000	79.707616
3942.000000	79.722332
3941.000000	79.739538
3940.000000	79.764199
3939.000000	79.793733
3938.000000	79.822144
3937.000000	79.847316
3936.000000	79.873054
3935.000000	79.902367
3934.000000	79.933983
3933.000000	79.963473
3932.000000	79.988954
3931.000000	80.012530
3930.000000	80.035493
3929.000000	80.058824
3928.000000	80.082609
3927.000000	80.105261
3926.000000	80.122517
3925.000000	80.130145
3924.000000	80.131800
3923.000000	80.136961
3922.000000	80.149263
3921.000000	80.163608
3920.000000	80.174331
3919.000000	80.182337
3918.000000	80.191746
3917.000000	80.204009
3916.000000	80.218622
3915.000000	80.234791
3914.000000	80.250601
3913.000000	80.262662
3912.000000	80.268568
3911.000000	80.272512
3910.000000	80.281769
3909.000000	80.302042
3908.000000	80.335896
3907.000000	80.377855
3906.000000	80.416039
3905.000000	80.438692
3904.000000	80.448284
3903.000000	80.464039
3902.000000	80.499955
3901.000000	80.548340
3900.000000	80.587951
3899.000000	80.606663
3898.000000	80.612384
3897.000000	80.620924
3896.000000	80.639258
3895.000000	80.667400
3894.000000	80.701064
3893.000000	80.734085
3892.000000	80.758210
3891.000000	80.773023
3890.000000	80.792210
3889.000000	80.828786
3888.000000	80.879564
3887.000000	80.924792
3886.000000	80.948220
3885.000000	80.961440
3884.000000	80.991031
3883.000000	81.043217
3882.000000	81.092472
3881.000000	81.109071
3880.000000	81.092539
3879.000000	81.071957
3878.000000	81.073453
3877.000000	81.096502
3876.000000	81.120619
3875.000000	81.128368
3874.000000	81.124310
3873.000000	81.131169
3872.000000	81.161771
3871.000000	81.199895
3870.000000	81.221752
3869.000000	81.234513
3868.000000	81.263835
3867.000000	81.311966
3866.000000	81.352501
3865.000000	81.363244
3864.000000	81.353797
3863.000000	81.350275
3862.000000	81.359652
3861.000000	81.373824
3860.000000	81.390760
3859.000000	81.419573
3858.000000	81.473385
3857.000000	81.555059
3856.000000	81.648558
3855.000000	81.714917
3854.000000	81.729091
3853.000000	81.727226
3852.000000	81.752537
3851.000000	81.789983
3850.000000	81.801386
3849.000000	81.775626
3848.000000	81.729982
3847.000000	81.691802
3846.000000	81.675470
3845.000000	81.678793
3844.000000	81.693875
3843.000000	81.716520
3842.000000	81.748021
3841.000000	81.792020
3840.000000	81.841298
3839.000000	81.882821
3838.000000	81.917035
3837.000000	81.953309
3836.000000	81.994557
3835.000000	82.031590
3834.000000	82.053603
3833.000000	82.057435
3832.000000	82.047394
3831.000000	82.034779
3830.000000	82.032926
3829.000000	82.045985
3828.000000	82.064877
3827.000000	82.078959
3826.000000	82.088827
3825.000000	82.110381
3824.000000	82.155095
3823.000000	82.211398
3822.000000	82.252710
3821.000000	82.270020
3820.000000	82.289349
3819.000000	82.335393
3818.000000	82.397455
3817.000000	82.439563
3816.000000	82.442883
3815.000000	82.431169
3814.000000	82.437272
3813.000000	82.457722
3812.000000	82.466658
3811.000000	82.457913
3810.000000	82.451081
3809.000000	82.462802
3808.000000	82.486794
3807.000000	82.509449
3806.000000	82.536614
3805.000000	82.587592
3804.000000	82.658808
3803.000000	82.721698
3802.000000	82.746588
3801.000000	82.741742
3800.000000	82.747411
3799.000000	82.778213
3798.000000	82.809101
3797.000000	82.812917
3796.000000	82.793376
3795.000000	82.777648
3794.000000	82.783335
3793.000000	82.802229
3792.000000	82.817031
3791.000000	82.823561
3790.000000	82.829280
3789.000000	82.840163
3788.000000	82.856721
3787.000000	82.877510
3786.000000	82.900796
3785.000000	82.924103
3784.000000	82.946170
3783.000000	82.969812
3782.000000	82.996399
3781.000000	83.020440
3780.000000	83.034738
3779.000000	83.042458
3778.000000	83.055693
3777.000000	83.080186
3776.000000	83.107601
3775.000000	83.127424
3774.000000	83.141430
3773.000000	83.160186
3772.000000	83.187613
3771.000000	83.216475
3770.000000	83.241089
3769.000000	83.268913
3768.000000	83.308916
3767.000000	83.355141
3766.000000	83.392375
3765.000000	83.412816
3764.000000	83.426488
3763.000000	83.449699
3762.000000	83.483744
3761.000000	83.516094
3760.000000	83.538093
3759.000000	83.557683
3758.000000	83.586236
3757.000000	83.623824
3756.000000	83.667623
3755.000000	83.715962
3754.000000	83.765008
3753.000000	83.809420
3752.000000	83.851563
3751.000000	83.904913
3750.000000	83.973289
3749.000000	84.045544
3748.000000	84.118965
3747.000000	84.197395
3746.000000	84.266555
3745.000000	84.293360
3744.000000	84.278283
3743.000000	84.268868
3742.000000	84.283968
3741.000000	84.295984
3740.000000	84.283415
3739.000000	84.260004
3738.000000	84.256579
3737.000000	84.284666
3736.000000	84.336595
3735.000000	84.401019
3734.000000	84.467870
3733.000000	84.522538
3732.000000	84.548871
3731.000000	84.548150
3730.000000	84.536941
3729.000000	84.528179
3728.000000	84.523171
3727.000000	84.517261
3726.000000	84.514330
3725.000000	84.524672
3724.000000	84.549170
3723.000000	84.575729
3722.000000	84.592656
3721.000000	84.602327
3720.000000	84.612067
3719.000000	84.625847
3718.000000	84.642972
3717.000000	84.663194
3716.000000	84.691671
3715.000000	84.731061
3714.000000	84.776197
3713.000000	84.821308
3712.000000	84.869089
3711.000000	84.926788
3710.000000	84.991646
3709.000000	85.049567
3708.000000	85.088095
3707.000000	85.105477
3706.000000	85.112712
3705.000000	85.122706
3704.000000	85.141474
3703.000000	85.165625
3702.000000	85.190068
3701.000000	85.214364
3700.000000	85.240304
3699.000000	85.266756
3698.000000	85.288719
3697.000000	85.301948
3696.000000	85.309713
3695.000000	85.322864
3694.000000	85.347265
3693.000000	85.381733
3692.000000	85.422211
3691.000000	85.467138
3690.000000	85.515716
3689.000000	85.566417
3688.000000	85.615526
3687.000000	85.654520
3686.000000	85.675778
3685.000000	85.674205
3684.000000	85.652185
3683.000000	85.623602
3682.000000	85.608732
3681.000000	85.614373
3680.000000	85.634213
3679.000000	85.663444
3678.000000	85.707111
3677.000000	85.766499
3676.000000	85.826181
3675.000000	85.878771
3674.000000	85.931680
3673.000000	85.986795
3672.000000	86.029478
3671.000000	86.043975
3670.000000	86.033827
3669.000000	86.024302
3668.000000	86.030501
3667.000000	86.038972
3666.000000	86.030056
3665.000000	86.003447
3664.000000	85.973652
3663.000000	85.955222
3662.000000	85.952310
3661.000000	85.959068
3660.000000	85.973495
3659.000000	85.996775
3658.000000	86.026255
3657.000000	86.052149
3656.000000	86.068811
3655.000000	86.085557
3654.000000	86.111393
3653.000000	86.141515
3652.000000	86.163144
3651.000000	86.171688
3650.000000	86.183969
3649.000000	86.223982
3648.000000	86.288411
3647.000000	86.344392
3646.000000	86.365052
3645.000000	86.351204
3644.000000	86.319651
3643.000000	86.286492
3642.000000	86.259901
3641.000000	86.243283
3640.000000	86.238258
3639.000000	86.241227
3638.000000	86.245788
3637.000000	86.248698
3636.000000	86.251260
3635.000000	86.253666
3634.000000	86.253977
3633.000000	86.256802
3632.000000	86.270603
3631.000000	86.295232
3630.000000	86.316231
3629.000000	86.322440
3628.000000	86.321545
3627.000000	86.320582
3626.000000	86.304205
3625.000000	86.255596
3624.000000	86.180956
3623.000000	86.104651
3622.000000	86.046760
3621.000000	86.005948
3620.000000	85.964940
3619.000000	85.911821
3618.000000	85.849963
3617.000000	85.786232
3616.000000	85.720926
3615.000000	85.648719
3614.000000	85.565241
3613.000000	85.475448
3612.000000	85.391968
3611.000000	85.321594
3610.000000	85.258463
3609.000000	85.192357
3608.000000	85.117750
3607.000000	85.035419
3606.000000	84.946631
3605.000000	84.849276
3604.000000	84.744062
3603.000000	84.635825
3602.000000	84.531583
3601.000000	84.437360
3600.000000	84.355955
3599.000000	84.284827
3598.000000	84.217198
3597.000000	84.145473
3596.000000	84.066292
3595.000000	83.980250
3594.000000	83.889108
3593.000000	83.797484
3592.000000	83.710306
3591.000000	83.631390
3590.000000	83.563165
3589.000000	83.507149
3588.000000	83.463215
3587.000000	83.428840
3586.000000	83.398379
3585.000000	83.363651
3584.000000	83.317427
3583.000000	83.257148
3582.000000	83.186762
3581.000000	83.113422
3580.000000	83.042212
3579.000000	82.973561
3578.000000	82.904588
3577.000000	82.833448
3576.000000	82.759469
3575.000000	82.683168
3574.000000	82.604579
3573.000000	82.524938
3572.000000	82.446435
3571.000000	82.370079
3570.000000	82.294012
3569.000000	82.215419
3568.000000	82.132934
3567.000000	82.047880
3566.000000	81.960788
3565.000000	81.868320
3564.000000	81.765087
3563.000000	81.649094
3562.000000	81.522871
3561.000000	81.391724
3560.000000	81.259887
3559.000000	81.128361
3558.000000	80.995517
3557.000000	80.859645
3556.000000	80.720088
3555.000000	80.576465
3554.000000	80.427780
3553.000000	80.273429
3552.000000	80.115252
3551.000000	79.955774
3550.000000	79.794052
3549.000000	79.625913
3548.000000	79.447494
3547.000000	79.259050
3546.000000	79.064048
3545.000000	78.866101
3544.000000	78.666204
3543.000000	78.462172
3542.000000	78.250041
3541.000000	78.027198
3540.000000	77.793647
3539.000000	77.549432
3538.000000	77.293264
3537.000000	77.024241
3536.000000	76.744550
3535.000000	76.456958
3534.000000	76.161495
3533.000000	75.855959
3532.000000	75.538423
3531.000000	75.207628
3530.000000	74.861151
3529.000000	74.496914
3528.000000	74.115400
3527.000000	73.718409
3526.000000	73.305720
3525.000000	72.875848
3524.000000	72.429566
3523.000000	71.969871
3522.000000	71.498307
3521.000000	71.012771
3520.000000	70.509381
3519.000000	69.984608
3518.000000	69.437177
3517.000000	68.869144
3516.000000	68.284789
3515.000000	67.687385
3514.000000	67.077974
3513.000000	66.456014
3512.000000	65.818774
3511.000000	65.160965
3510.000000	64.479400
3509.000000	63.779338
3508.000000	63.070784
3507.000000	62.356621
3506.000000	61.628255
3505.000000	60.875908
3504.000000	60.100814
3503.000000	59.314364
3502.000000	58.527431
3501.000000	57.743326
3500.000000	56.958555
3499.000000	56.166421
3498.000000	55.362071
3497.000000	54.547240
3496.000000	53.729667
3495.000000	52.916356
3494.000000	52.109784
3493.000000	51.311068
3492.000000	50.521980
3491.000000	49.742043
3490.000000	48.968379
3489.000000	48.201803
3488.000000	47.450238
3487.000000	46.723339
3486.000000	46.025638
3485.000000	45.355316
3484.000000	44.705593
3483.000000	44.067706
3482.000000	43.437856
3481.000000	42.822948
3480.000000	42.234846
3479.000000	41.676943
3478.000000	41.140808
3477.000000	40.615998
3476.000000	40.097742
3475.000000	39.585411
3474.000000	39.079413
3473.000000	38.582463
3472.000000	38.099980
3471.000000	37.637715
3470.000000	37.203801
3469.000000	36.812312
3468.000000	36.479366
3467.000000	36.214063
3466.000000	36.016413
3465.000000	35.884308
3464.000000	35.816600
3463.000000	35.811251
3462.000000	35.867974
3461.000000	35.991361
3460.000000	36.185954
3459.000000	36.446259
3458.000000	36.756549
3457.000000	37.100868
3456.000000	37.466680
3455.000000	37.840188
3454.000000	38.205328
3453.000000	38.547570
3452.000000	38.854567
3451.000000	39.112823
3450.000000	39.306915
3449.000000	39.424620
3448.000000	39.460120
3447.000000	39.412586
3446.000000	39.286890
3445.000000	39.092120
3444.000000	38.837090
3443.000000	38.528630
3442.000000	38.174786
3441.000000	37.789982
3440.000000	37.392345
3439.000000	36.998118
3438.000000	36.623457
3437.000000	36.287897
3436.000000	36.009943
3435.000000	35.798900
3434.000000	35.654471
3433.000000	35.573462
3432.000000	35.556032
3431.000000	35.605501
3430.000000	35.727877
3429.000000	35.931645
3428.000000	36.221401
3427.000000	36.595809
3426.000000	37.051098
3425.000000	37.585742
3424.000000	38.200019
3423.000000	38.889520
3422.000000	39.647075
3421.000000	40.466133
3420.000000	41.338786
3419.000000	42.253755
3418.000000	43.197517
3417.000000	44.159291
3416.000000	45.130945
3415.000000	46.104363
3414.000000	47.072988
3413.000000	48.032786
3412.000000	48.978758
3411.000000	49.902639
3410.000000	50.797056
3409.000000	51.660039
3408.000000	52.492545
3407.000000	53.292212
3406.000000	54.053874
3405.000000	54.774971
3404.000000	55.456944
3403.000000	56.103955
3402.000000	56.722712
3401.000000	57.321707
3400.000000	57.906340
3399.000000	58.473633
3398.000000	59.015858
3397.000000	59.529126
3396.000000	60.015377
3395.000000	60.478679
3394.000000	60.922797
3393.000000	61.352939
3392.000000	61.775272
3391.000000	62.192261
3390.000000	62.601741
3389.000000	63.000215
3388.000000	63.386139
3387.000000	63.760223
3386.000000	64.124591
3385.000000	64.482317
3384.000000	64.835452
3383.000000	65.183799
3382.000000	65.526733
3381.000000	65.865226
3380.000000	66.200639
3379.000000	66.532591
3378.000000	66.860279
3377.000000	67.185042
3376.000000	67.508703
3375.000000	67.830165
3374.000000	68.146032
3373.000000	68.454545
3372.000000	68.756969
3371.000000	69.055380
3370.000000	69.351624
3369.000000	69.647766
3368.000000	69.945177
3367.000000	70.242881
3366.000000	70.538247
3365.000000	70.829238
3364.000000	71.114815
3363.000000	71.394206
3362.000000	71.667728
3361.000000	71.937431
3360.000000	72.205092
3359.000000	72.469902
3358.000000	72.729769
3357.000000	72.984418
3356.000000	73.234888
3355.000000	73.480936
3354.000000	73.721145
3353.000000	73.955702
3352.000000	74.187161
3351.000000	74.417740
3350.000000	74.647155
3349.000000	74.873158
3348.000000	75.093041
3347.000000	75.304967
3346.000000	75.509225
3345.000000	75.708383
3344.000000	75.904989
3343.000000	76.098661
3342.000000	76.286600
3341.000000	76.466765
3340.000000	76.639786
3339.000000	76.807960
3338.000000	76.973006
3337.000000	77.134913
3336.000000	77.291654
3335.000000	77.440097
3334.000000	77.577986
3333.000000	77.704621
3332.000000	77.819855
3331.000000	77.922648
3330.000000	78.011405
3329.000000	78.085446
3328.000000	78.144734
3327.000000	78.189213
3326.000000	78.218318
3325.000000	78.230311
3324.000000	78.221782
3323.000000	78.187597
3322.000000	78.123621
3321.000000	78.028626
3320.000000	77.902175
3319.000000	77.742818
3318.000000	77.547065
3317.000000	77.311046
3316.000000	77.029901
3315.000000	76.696000
3314.000000	76.301160
3313.000000	75.837793
3312.000000	75.298530
3311.000000	74.675664
3310.000000	73.960948
3309.000000	73.150529
3308.000000	72.242439
3307.000000	71.232735
3306.000000	70.115513
3305.000000	68.881717
3304.000000	67.522973
3303.000000	66.029212
3302.000000	64.391764
3301.000000	62.608734
3300.000000	60.683428
3299.000000	58.626683
3298.000000	56.461182
3297.000000	54.225123
3296.000000	51.968680
3295.000000	49.743050
3294.000000	47.597357
3293.000000	45.579953
3292.000000	43.731299
3291.000000	42.069861
3290.000000	40.591269
3289.000000	39.274023
3288.000000	38.087178
3287.000000	36.996224
3286.000000	35.968143
3285.000000	34.982548
3284.000000	34.030418
3283.000000	33.111496
3282.000000	32.237580
3281.000000	31.432620
3280.000000	30.728685
3279.000000	30.156501
3278.000000	29.744027
3277.000000	29.519152
3276.000000	29.499652
3275.000000	29.685562
3274.000000	30.058719
3273.000000	30.585790
3272.000000	31.221247
3271.000000	31.904996
3270.000000	32.570390
3269.000000	33.154530
3268.000000	33.602281
3267.000000	33.869520
3266.000000	33.932254
3265.000000	33.791555
3264.000000	33.469345
3263.000000	33.003638
3262.000000	32.443616
3261.000000	31.849282
3260.000000	31.281340
3259.000000	30.790712
3258.000000	30.418399
3257.000000	30.197317
3256.000000	30.146114
3255.000000	30.264100
3254.000000	30.535991
3253.000000	30.936394
3252.000000	31.433834
3251.000000	31.989438
3250.000000	32.564105
3249.000000	33.127000
3248.000000	33.652899
3247.000000	34.119493
3246.000000	34.509359
3245.000000	34.813596
3244.000000	35.029639
3243.000000	35.159991
3242.000000	35.213063
3241.000000	35.204447
3240.000000	35.151462
3239.000000	35.065734
3238.000000	34.956697
3237.000000	34.834180
3236.000000	34.706655
3235.000000	34.579533
3234.000000	34.456719
3233.000000	34.341468
3232.000000	34.230010
3231.000000	34.109145
3230.000000	33.964836
3229.000000	33.789538
3228.000000	33.579660
3227.000000	33.329974
3226.000000	33.035956
3225.000000	32.698706
3224.000000	32.321560
3223.000000	31.906884
3222.000000	31.459451
3221.000000	30.990663
3220.000000	30.515225
3219.000000	30.044450
3218.000000	29.586448
3217.000000	29.147633
3216.000000	28.729590
3215.000000	28.327597
3214.000000	27.936355
3213.000000	27.553902
3212.000000	27.177280
3211.000000	26.799722
3210.000000	26.416761
3209.000000	26.031998
3208.000000	25.652280
3207.000000	25.281710
3206.000000	24.924824
3205.000000	24.590166
3204.000000	24.286617
3203.000000	24.018949
3202.000000	23.791234
3201.000000	23.611048
3200.000000	23.484115
3199.000000	23.411120
3198.000000	23.392040
3197.000000	23.429558
3196.000000	23.525220
3195.000000	23.673890
3194.000000	23.869851
3193.000000	24.111205
3192.000000	24.394771
3191.000000	24.713783
3190.000000	25.061651
3189.000000	25.436465
3188.000000	25.836338
3187.000000	26.254481
3186.000000	26.684606
3185.000000	27.125026
3184.000000	27.574986
3183.000000	28.030719
3182.000000	28.488870
3181.000000	28.949948
3180.000000	29.413655
3179.000000	29.875549
3178.000000	30.331609
3177.000000	30.781932
3176.000000	31.226295
3175.000000	31.660398
3174.000000	32.080229
3173.000000	32.486106
3172.000000	32.879351
3171.000000	33.258257
3170.000000	33.621466
3169.000000	33.971069
3168.000000	34.308464
3167.000000	34.631460
3166.000000	34.937601
3165.000000	35.227523
3164.000000	35.501579
3163.000000	35.756522
3162.000000	35.989733
3161.000000	36.202041
3160.000000	36.394579
3159.000000	36.566348
3158.000000	36.717149
3157.000000	36.850562
3156.000000	36.970241
3155.000000	37.077909
3154.000000	37.177698
3153.000000	37.277835
3152.000000	37.385134
3151.000000	37.500608
3150.000000	37.623513
3149.000000	37.755662
3148.000000	37.898686
3147.000000	38.050942
3146.000000	38.210672
3145.000000	38.378649
3144.000000	38.554559
3143.000000	38.734590
3142.000000	38.915208
3141.000000	39.096206
3140.000000	39.277080
3139.000000	39.453999
3138.000000	39.623101
3137.000000	39.783159
3136.000000	39.931900
3135.000000	40.062757
3134.000000	40.168693
3133.000000	40.244727
3132.000000	40.284968
3131.000000	40.280166
3130.000000	40.220812
3129.000000	40.101958
3128.000000	39.920999
3127.000000	39.677303
3126.000000	39.376293
3125.000000	39.030059
3124.000000	38.653367
3123.000000	38.259530
3122.000000	37.862902
3121.000000	37.479094
3120.000000	37.118399
3119.000000	36.782542
3118.000000	36.469905
3117.000000	36.180262
3116.000000	35.911762
3115.000000	35.658763
3114.000000	35.415850
3113.000000	35.180945
3112.000000	34.951910
3111.000000	34.725072
3110.000000	34.501082
3109.000000	34.286979
3108.000000	34.089938
3107.000000	33.913288
3106.000000	33.760723
3105.000000	33.640552
3104.000000	33.560606
3103.000000	33.524647
3102.000000	33.537265
3101.000000	33.605986
3100.000000	33.737307
3099.000000	33.931668
3098.000000	34.187074
3097.000000	34.503397
3096.000000	34.877811
3095.000000	35.303762
3094.000000	35.774910
3093.000000	36.287994
3092.000000	36.839601
3091.000000	37.422305
3090.000000	38.028656
3089.000000	38.652707
3088.000000	39.286662
3087.000000	39.921104
3086.000000	40.550210
3085.000000	41.173717
3084.000000	41.790812
3083.000000	42.396784
3082.000000	42.987657
3081.000000	43.563793
3080.000000	44.126363
3079.000000	44.674257
3078.000000	45.206922
3077.000000	45.725466
3076.000000	46.229328
3075.000000	46.714892
3074.000000	47.180030
3073.000000	47.626761
3072.000000	48.056814
3071.000000	48.469325
3070.000000	48.864213
3069.000000	49.244608
3068.000000	49.613771
3067.000000	49.971852
3066.000000	50.318425
3065.000000	50.654590
3064.000000	50.980881
3063.000000	51.296406
3062.000000	51.601199
3061.000000	51.897286
3060.000000	52.185537
3059.000000	52.464431
3058.000000	52.733813
3057.000000	52.996395
3056.000000	53.254515
3055.000000	53.507919
3054.000000	53.756234
3053.000000	54.000991
3052.000000	54.243201
3051.000000	54.481894
3050.000000	54.716190
3049.000000	54.946253
3048.000000	55.171395
3047.000000	55.389920
3046.000000	55.602349
3045.000000	55.811953
3044.000000	56.020829
3043.000000	56.228458
3042.000000	56.434743
3041.000000	56.641153
3040.000000	56.847191
3039.000000	57.048907
3038.000000	57.243221
3037.000000	57.431228
3036.000000	57.616190
3035.000000	57.800772
3034.000000	57.987164
3033.000000	58.176983
3032.000000	58.369124
3031.000000	58.560275
3030.000000	58.748680
3029.000000	58.934769
3028.000000	59.117735
3027.000000	59.295096
3026.000000	59.466851
3025.000000	59.636463
3024.000000	59.805658
3023.000000	59.971485
3022.000000	60.129955
3021.000000	60.279033
3020.000000	60.416348
3019.000000	60.536405
3018.000000	60.632983
3017.000000	60.702194
3016.000000	60.742128
3015.000000	60.753396
3014.000000	60.742575
3013.000000	60.724332
3012.000000	60.717500
3011.000000	60.739677
3010.000000	60.804305
3009.000000	60.917893
3008.000000	61.076399
3007.000000	61.265469
3006.000000	61.466016
3005.000000	61.658734
3004.000000	61.823521
3003.000000	61.937858
3002.000000	61.978746
3001.000000	61.925493
3000.000000	61.764713
2999.000000	61.499869
2998.000000	61.163275
2997.000000	60.817914
2996.000000	60.541968
2995.000000	60.404735
2994.000000	60.444820
2993.000000	60.659734
2992.000000	61.007526
2991.000000	61.425224
2990.000000	61.853779
2989.000000	62.254204
2988.000000	62.608423
2987.000000	62.911799
2986.000000	63.167847
2985.000000	63.383355
2984.000000	63.563833
2983.000000	63.710832
2982.000000	63.824426
2981.000000	63.904725
2980.000000	63.950386
2979.000000	63.957449
2978.000000	63.921433
2977.000000	63.841495
2976.000000	63.722197
2975.000000	63.575823
2974.000000	63.423373
2973.000000	63.290183
2972.000000	63.196835
2971.000000	63.151040
2970.000000	63.144838
2969.000000	63.153637
2968.000000	63.137424
2967.000000	63.051218
2966.000000	62.864357
2965.000000	62.575631
2964.000000	62.213711
2963.000000	61.825656
2962.000000	61.463283
2961.000000	61.170228
2960.000000	60.973987
2959.000000	60.885404
2958.000000	60.905664
2957.000000	61.029264
2956.000000	61.241081
2955.000000	61.516058
2954.000000	61.824389
2953.000000	62.136377
2952.000000	62.421481
2951.000000	62.651708
2950.000000	62.810579
2949.000000	62.900482
2948.000000	62.938457
2947.000000	62.942513
2946.000000	62.915786
2945.000000	62.831888
2944.000000	62.634800
2943.000000	62.266032
2942.000000	61.716628
2941.000000	61.067287
2940.000000	60.480498
2939.000000	60.138687
2938.000000	60.161422
2937.000000	60.554324
2936.000000	61.215862
2935.000000	61.996443
2934.000000	62.765541
2933.000000	63.447733
2932.000000	64.019008
2931.000000	64.487091
2930.000000	64.874426
2929.000000	65.205001
2928.000000	65.496983
2927.000000	65.760734
2926.000000	66.003365
2925.000000	66.230706
2924.000000	66.445116
2923.000000	66.644904
2922.000000	66.828266
2921.000000	66.995511
2920.000000	67.146590
2919.000000	67.280213
2918.000000	67.396104
2917.000000	67.496011
2916.000000	67.581555
2915.000000	67.653473
2914.000000	67.713872
2913.000000	67.766244
2912.000000	67.812269
2911.000000	67.850798
2910.000000	67.880268
2909.000000	67.899438
2908.000000	67.904751
2907.000000	67.888633
2906.000000	67.841487
2905.000000	67.752374
2904.000000	67.607743
2903.000000	67.393172
2902.000000	67.101127
2901.000000	66.736440
2900.000000	66.318321
2899.000000	65.881574
2898.000000	65.474273
2897.000000	65.149336
2896.000000	64.948019
2895.000000	64.887539
2894.000000	64.960800
2893.000000	65.142486
2892.000000	65.397375
2891.000000	65.689353
2890.000000	65.990724
2889.000000	66.284564
2888.000000	66.560942
2887.000000	66.813543
2886.000000	67.039541
2885.000000	67.239401
2884.000000	67.413576
2883.000000	67.562001
2882.000000	67.686890
2881.000000	67.793623
2880.000000	67.887848
2879.000000	67.973602
2878.000000	68.054620
2877.000000	68.134503
2876.000000	68.214342
2875.000000	68.292099
2874.000000	68.365754
2873.000000	68.435155
2872.000000	68.500829
2871.000000	68.564083
2870.000000	68.629322
2869.000000	68.703680
2868.000000	68.792343
2867.000000	68.895343
2866.000000	69.009100
2865.000000	69.128494
2864.000000	69.246926
2863.000000	69.357815
2862.000000	69.458085
2861.000000	69.548829
2860.000000	69.632131
2859.000000	69.709327
2858.000000	69.782773
2857.000000	69.856328
2856.000000	69.932645
2855.000000	70.012066
2854.000000	70.094846
2853.000000	70.181633
2852.000000	70.270440
2851.000000	70.355580
2850.000000	70.431330
2849.000000	70.495333
2848.000000	70.548182
2847.000000	70.592153
2846.000000	70.631298
2845.000000	70.670355
2844.000000	70.712017
2843.000000	70.756421
2842.000000	70.803810
2841.000000	70.856034
2840.000000	70.914780
2839.000000	70.980217
2838.000000	71.051923
2837.000000	71.129223
2836.000000	71.210135
2835.000000	71.291861
2834.000000	71.372950
2833.000000	71.453620
2832.000000	71.533959
2831.000000	71.613681
2830.000000	71.693707
2829.000000	71.775632
2828.000000	71.859133
2827.000000	71.941937
2826.000000	72.022533
2825.000000	72.100776
2824.000000	72.175693
2823.000000	72.245248
2822.000000	72.309122
2821.000000	72.369620
2820.000000	72.429056
2819.000000	72.488137
2818.000000	72.547227
2817.000000	72.606881
2816.000000	72.666235
2815.000000	72.722790
2814.000000	72.774722
2813.000000	72.821960
2812.000000	72.864823
2811.000000	72.903709
2810.000000	72.940520
2809.000000	72.978224
2808.000000	73.018188
2807.000000	73.059620
2806.000000	73.101828
2805.000000	73.144822
2804.000000	73.187271
2803.000000	73.226377
2802.000000	73.260838
2801.000000	73.292167
2800.000000	73.322540
2799.000000	73.353237
2798.000000	73.385669
2797.000000	73.421441
2796.000000	73.460226
2795.000000	73.499323
2794.000000	73.536212
2793.000000	73.570005
2792.000000	73.600187
2791.000000	73.626255
2790.000000	73.649439
2789.000000	73.672653
2788.000000	73.697597
2787.000000	73.723504
2786.000000	73.749358
2785.000000	73.775473
2784.000000	73.802207
2783.000000	73.829257
2782.000000	73.857268
2781.000000	73.888279
2780.000000	73.923580
2779.000000	73.962675
2778.000000	74.005046
2777.000000	74.051246
2776.000000	74.101286
2775.000000	74.153500
2774.000000	74.205832
2773.000000	74.256795
2772.000000	74.304789
2771.000000	74.348315
2770.000000	74.387661
2769.000000	74.424955
2768.000000	74.461916
2767.000000	74.498816
2766.000000	74.535818
2765.000000	74.573259
2764.000000	74.609930
2763.000000	74.643026
2762.000000	74.670750
2761.000000	74.693776
2760.000000	74.713769
2759.000000	74.732027
2758.000000	74.749966
2757.000000	74.768871
2756.000000	74.788255
2755.000000	74.805987
2754.000000	74.820776
2753.000000	74.833491
2752.000000	74.845896
2751.000000	74.859728
2750.000000	74.877219
2749.000000	74.900306
2748.000000	74.928263
2747.000000	74.957536
2746.000000	74.984631
2745.000000	75.008031
2744.000000	75.027434
2743.000000	75.043138
2742.000000	75.056602
2741.000000	75.069602
2740.000000	75.081961
2739.000000	75.091691
2738.000000	75.098260
2737.000000	75.104668
2736.000000	75.115948
2735.000000	75.136886
2734.000000	75.170962
2733.000000	75.218821
2732.000000	75.276882
2731.000000	75.338987
2730.000000	75.400264
2729.000000	75.458851
2728.000000	75.514276
2727.000000	75.566218
2726.000000	75.615105
2725.000000	75.661673
2724.000000	75.705126
2723.000000	75.743300
2722.000000	75.774842
2721.000000	75.799716
2720.000000	75.817875
2719.000000	75.829474
2718.000000	75.836920
2717.000000	75.844774
2716.000000	75.856650
2715.000000	75.873605
2714.000000	75.895435
2713.000000	75.921430
2712.000000	75.949612
2711.000000	75.977530
2710.000000	76.004657
2709.000000	76.032457
2708.000000	76.061697
2707.000000	76.091422
2706.000000	76.120807
2705.000000	76.149789
2704.000000	76.177101
2703.000000	76.199686
2702.000000	76.214979
2701.000000	76.222193
2700.000000	76.221325
2699.000000	76.212818
2698.000000	76.198852
2697.000000	76.183281
2696.000000	76.169200
2695.000000	76.157986
2694.000000	76.150615
2693.000000	76.147655
2692.000000	76.147507
2691.000000	76.146847
2690.000000	76.143866
2689.000000	76.139729
2688.000000	76.136524
2687.000000	76.135578
2686.000000	76.138211
2685.000000	76.145786
2684.000000	76.158082
2683.000000	76.173479
2682.000000	76.191336
2681.000000	76.212628
2680.000000	76.237684
2679.000000	76.265119
2678.000000	76.293703
2677.000000	76.323162
2676.000000	76.352564
2675.000000	76.379819
2674.000000	76.403455
2673.000000	76.423191
2672.000000	76.438357
2671.000000	76.447802
2670.000000	76.452297
2669.000000	76.455377
2668.000000	76.460987
2667.000000	76.471808
2666.000000	76.490038
2665.000000	76.517303
2664.000000	76.552489
2663.000000	76.591363
2662.000000	76.629205
2661.000000	76.662550
2660.000000	76.688375
2659.000000	76.704071
2658.000000	76.709515
2657.000000	76.707753
2656.000000	76.702666
2655.000000	76.697211
2654.000000	76.694307
2653.000000	76.697219
2652.000000	76.707905
2651.000000	76.726425
2650.000000	76.752548
2649.000000	76.786234
2648.000000	76.826050
2647.000000	76.868707
2646.000000	76.911002
2645.000000	76.951069
2644.000000	76.987400
2643.000000	77.018863
2642.000000	77.046491
2641.000000	77.073499
2640.000000	77.102587
2639.000000	77.134398
2638.000000	77.168866
2637.000000	77.206061
2636.000000	77.244865
2635.000000	77.282417
2634.000000	77.315965
2633.000000	77.344126
2632.000000	77.366075
2631.000000	77.381346
2630.000000	77.391042
2629.000000	77.397883
2628.000000	77.404133
2627.000000	77.410544
2626.000000	77.417636
2625.000000	77.425991
2624.000000	77.434892
2623.000000	77.442327
2622.000000	77.447086
2621.000000	77.449664
2620.000000	77.450585
2619.000000	77.449575
2618.000000	77.446785
2617.000000	77.442959
2616.000000	77.437703
2615.000000	77.428912
2614.000000	77.414772
2613.000000	77.395061
2612.000000	77.370259
2611.000000	77.341414
2610.000000	77.311469
2609.000000	77.285017
2608.000000	77.265873
2607.000000	77.256034
2606.000000	77.256800
2605.000000	77.268957
2604.000000	77.291020
2603.000000	77.319146
2602.000000	77.350069
2601.000000	77.382381
2600.000000	77.415037
2599.000000	77.446530
2598.000000	77.476161
2597.000000	77.504689
2596.000000	77.532765
2595.000000	77.560288
2594.000000	77.587735
2593.000000	77.616297
2592.000000	77.645912
2591.000000	77.674772
2590.000000	77.701325
2589.000000	77.725303
2588.000000	77.746461
2587.000000	77.764045
2586.000000	77.778291
2585.000000	77.790805
2584.000000	77.802874
2583.000000	77.815073
2582.000000	77.829110
2581.000000	77.848151
2580.000000	77.874440
2579.000000	77.907984
2578.000000	77.947969
2577.000000	77.994008
2576.000000	78.045100
2575.000000	78.099024
2574.000000	78.153720
2573.000000	78.207848
2572.000000	78.259862
2571.000000	78.308030
2570.000000	78.352046
2569.000000	78.393236
2568.000000	78.432635
2567.000000	78.470075
2566.000000	78.505537
2565.000000	78.539900
2564.000000	78.573641
2563.000000	78.606326
2562.000000	78.637730
2561.000000	78.668169
2560.000000	78.697450
2559.000000	78.724912
2558.000000	78.750989
2557.000000	78.777172
2556.000000	78.804033
2555.000000	78.830830
2554.000000	78.857396
2553.000000	78.884795
2552.000000	78.913592
2551.000000	78.943030
2550.000000	78.972528
2549.000000	79.002559
2548.000000	79.033467
2547.000000	79.064758
2546.000000	79.095900
2545.000000	79.126428
2544.000000	79.154853
2543.000000	79.179140
2542.000000	79.198719
2541.000000	79.214571
2540.000000	79.227182
2539.000000	79.235721
2538.000000	79.239760
2537.000000	79.240042
2536.000000	79.236728
2535.000000	79.228851
2534.000000	79.215740
2533.000000	79.197831
2532.000000	79.175614
2531.000000	79.149175
2530.000000	79.119708
2529.000000	79.089743
2528.000000	79.061372
2527.000000	79.035523
2526.000000	79.013110
2525.000000	78.995106
2524.000000	78.980748
2523.000000	78.967283
2522.000000	78.952224
2521.000000	78.934456
2520.000000	78.912892
2519.000000	78.885894
2518.000000	78.852919
2517.000000	78.815307
2516.000000	78.774599
2515.000000	78.731664
2514.000000	78.687823
2513.000000	78.645199
2512.000000	78.605344
2511.000000	78.569140
2510.000000	78.538556
2509.000000	78.516882
2508.000000	78.506499
2507.000000	78.507362
2506.000000	78.518476
2505.000000	78.538666
2504.000000	78.565656
2503.000000	78.596500
2502.000000	78.629203
2501.000000	78.663078
2500.000000	78.696934
2499.000000	78.728697
2498.000000	78.757394
2497.000000	78.783471
2496.000000	78.806748
2495.000000	78.825863
2494.000000	78.840236
2493.000000	78.850747
2492.000000	78.858127
2491.000000	78.862412
2490.000000	78.864725
2489.000000	78.867806
2488.000000	78.873792
2487.000000	78.883048
2486.000000	78.895495
2485.000000	78.911219
2484.000000	78.929033
2483.000000	78.946302
2482.000000	78.961151
2481.000000	78.973646
2480.000000	78.984511
2479.000000	78.994414
2478.000000	79.005171
2477.000000	79.019648
2476.000000	79.039645
2475.000000	79.065186
2474.000000	79.096058
2473.000000	79.132408
2472.000000	79.173061
2471.000000	79.215364
2470.000000	79.257654
2469.000000	79.300203
2468.000000	79.343379
2467.000000	79.386389
2466.000000	79.428462
2465.000000	79.469491
2464.000000	79.508720
2463.000000	79.544382
2462.000000	79.575442
2461.000000	79.602336
2460.000000	79.625365
2459.000000	79.644234
2458.000000	79.659548
2457.000000	79.673186
2456.000000	79.686380
2455.000000	79.698689
2454.000000	79.709667
2453.000000	79.719722
2452.000000	79.728868
2451.000000	79.736378
2450.000000	79.742543
2449.000000	79.749403
2448.000000	79.759152
2447.000000	79.773272
2446.000000	79.793492
2445.000000	79.821644
2444.000000	79.857313
2443.000000	79.897248
2442.000000	79.937817
2441.000000	79.976667
2440.000000	80.011842
2439.000000	80.041390
2438.000000	80.065147
2437.000000	80.085382
2436.000000	80.104666
2435.000000	80.124024
2434.000000	80.143539
2433.000000	80.162791
2432.000000	80.179715
2431.000000	80.191024
2430.000000	80.194664
2429.000000	80.191059
2428.000000	80.181280
2427.000000	80.165438
2426.000000	80.143942
2425.000000	80.118280
2424.000000	80.089834
2423.000000	80.059373
2422.000000	80.028651
2421.000000	80.001089
2420.000000	79.979578
2419.000000	79.964876
2418.000000	79.956826
2417.000000	79.955623
2416.000000	79.960593
2415.000000	79.969264
2414.000000	79.978573
2413.000000	79.985764
2412.000000	79.987461
2411.000000	79.979731
2410.000000	79.960418
2409.000000	79.930532
2408.000000	79.892825
2407.000000	79.850121
2406.000000	79.805815
2405.000000	79.763757
2404.000000	79.726180
2403.000000	79.693023
2402.000000	79.664087
2401.000000	79.640405
2400.000000	79.622516
2399.000000	79.609181
2398.000000	79.598889
2397.000000	79.591223
2396.000000	79.585438
2395.000000	79.579197
2394.000000	79.569924
2393.000000	79.556271
2392.000000	79.537232
2391.000000	79.511902
2390.000000	79.481714
2389.000000	79.451192
2388.000000	79.426424
2387.000000	79.412642
2386.000000	79.414852
2385.000000	79.438489
2384.000000	79.485789
2383.000000	79.554515
2382.000000	79.638938
2381.000000	79.732157
2380.000000	79.826306
2379.000000	79.911081
2378.000000	79.977530
2377.000000	80.022519
2376.000000	80.047124
2375.000000	80.054107
2374.000000	80.048005
2373.000000	80.035922
2372.000000	80.024587
2371.000000	80.015938
2370.000000	80.007369
2369.000000	80.001090
2368.000000	80.003519
2367.000000	80.017379
2366.000000	80.041399
2365.000000	80.081502
2364.000000	80.146798
2363.000000	80.228320
2362.000000	80.317019
2361.000000	80.406660
2360.000000	80.483727
2359.000000	80.542446
2358.000000	80.568420
2357.000000	80.561955
2356.000000	80.524950
2355.000000	80.455549
2354.000000	80.371621
2353.000000	80.307468
2352.000000	80.318606
2351.000000	80.403317
2350.000000	80.503182
2349.000000	80.569714
2348.000000	80.592519
2347.000000	80.620230
2346.000000	80.668072
2345.000000	80.723658
2344.000000	80.760029
2343.000000	80.764561
2342.000000	80.765156
2341.000000	80.766331
2340.000000	80.770464
2339.000000	80.764839
2338.000000	80.752435
2337.000000	80.735614
2336.000000	80.724676
2335.000000	80.718876
2334.000000	80.722962
2333.000000	80.718737
2332.000000	80.697379
2331.000000	80.642174
2330.000000	80.557239
2329.000000	80.469202
2328.000000	80.385861
2327.000000	80.327548
2326.000000	80.285885
2325.000000	80.264190
2324.000000	80.251345
2323.000000	80.231650
2322.000000	80.202192
2321.000000	80.154230
2320.000000	80.099589
2319.000000	80.039714
2318.000000	79.991712
2317.000000	79.958813
2316.000000	79.942662
2315.000000	79.932078
2314.000000	79.916967
2313.000000	79.888356
2312.000000	79.839548
2311.000000	79.771407
2310.000000	79.686814
2309.000000	79.593103
2308.000000	79.491505
2307.000000	79.385605
2306.000000	79.279521
2305.000000	79.179507
2304.000000	79.088556
2303.000000	79.004960
2302.000000	78.926329
2301.000000	78.849424
2300.000000	78.770361
2299.000000	78.687805
2298.000000	78.603536
2297.000000	78.524611
2296.000000	78.454642
2295.000000	78.398949
2294.000000	78.359644
2293.000000	78.340669
2292.000000	78.339471
2291.000000	78.352792
2290.000000	78.376261
2289.000000	78.408322
2288.000000	78.447058
2287.000000	78.492062
2286.000000	78.545133
2285.000000	78.608673
2284.000000	78.682306
2283.000000	78.762164
2282.000000	78.844217
2281.000000	78.923877
2280.000000	78.996455
2279.000000	79.057578
2278.000000	79.107466
2277.000000	79.149188
2276.000000	79.186833
2275.000000	79.224262
2274.000000	79.265960
2273.000000	79.315874
2272.000000	79.374406
2271.000000	79.439717
2270.000000	79.510463
2269.000000	79.586383
2268.000000	79.666631
2267.000000	79.750198
2266.000000	79.837753
2265.000000	79.931387
2264.000000	80.030979
2263.000000	80.134636
2262.000000	80.239450
2261.000000	80.342408
2260.000000	80.439471
2259.000000	80.526589
2258.000000	80.602984
2257.000000	80.669984
2256.000000	80.730037
2255.000000	80.785353
2254.000000	80.839521
2253.000000	80.895769
2252.000000	80.954932
2251.000000	81.015875
2250.000000	81.077510
2249.000000	81.138768
2248.000000	81.197039
2247.000000	81.249791
2246.000000	81.296515
2245.000000	81.339054
2244.000000	81.378936
2243.000000	81.416983
2242.000000	81.454132
2241.000000	81.490876
2240.000000	81.525340
2239.000000	81.554099
2238.000000	81.575036
2237.000000	81.588143
2236.000000	81.594340
2235.000000	81.595289
2234.000000	81.594433
2233.000000	81.595797
2232.000000	81.601468
2231.000000	81.611418
2230.000000	81.625390
2229.000000	81.642905
2228.000000	81.661760
2227.000000	81.678761
2226.000000	81.692456
2225.000000	81.703594
2224.000000	81.713043
2223.000000	81.721079
2222.000000	81.728556
2221.000000	81.736781
2220.000000	81.745805
2219.000000	81.754615
2218.000000	81.763109
2217.000000	81.772486
2216.000000	81.783720
2215.000000	81.797366
2214.000000	81.814800
2213.000000	81.837712
2212.000000	81.866106
2211.000000	81.898147
2210.000000	81.931899
2209.000000	81.965578
2208.000000	81.996457
2207.000000	82.021681
2206.000000	82.040570
2205.000000	82.054700
2204.000000	82.065494
2203.000000	82.073181
2202.000000	82.077962
2201.000000	82.080497
2200.000000	82.080955
2199.000000	82.079047
2198.000000	82.075195
2197.000000	82.070417
2196.000000	82.065396
2195.000000	82.061124
2194.000000	82.060413
2193.000000	82.066973
2192.000000	82.082717
2191.000000	82.107113
2190.000000	82.138661
2189.000000	82.175383
2188.000000	82.214153
2187.000000	82.251677
2186.000000	82.286461
2185.000000	82.318712
2184.000000	82.348650
2183.000000	82.376385
2182.000000	82.403134
2181.000000	82.430624
2180.000000	82.459185
2179.000000	82.487625
2178.000000	82.514625
2177.000000	82.538872
2176.000000	82.558290
2175.000000	82.571080
2174.000000	82.577531
2173.000000	82.579536
2172.000000	82.578700
2171.000000	82.576298
2170.000000	82.574372
2169.000000	82.574705
2168.000000	82.576723
2167.000000	82.578094
2166.000000	82.577351
2165.000000	82.574399
2164.000000	82.569095
2163.000000	82.561601
2162.000000	82.554073
2161.000000	82.550019
2160.000000	82.551693
2159.000000	82.559509
2158.000000	82.573457
2157.000000	82.592856
2156.000000	82.614783
2155.000000	82.635026
2154.000000	82.651209
2153.000000	82.663695
2152.000000	82.673791
2151.000000	82.682930
2150.000000	82.693433
2149.000000	82.707775
2148.000000	82.726261
2147.000000	82.746731
2146.000000	82.766492
2145.000000	82.783229
2144.000000	82.794713
2143.000000	82.799748
2142.000000	82.799766
2141.000000	82.798206
2140.000000	82.798125
2139.000000	82.801271
2138.000000	82.808567
2137.000000	82.819486
2136.000000	82.831038
2135.000000	82.839131
2134.000000	82.841195
2133.000000	82.836517
2132.000000	82.824983
2131.000000	82.807496
2130.000000	82.787294
2129.000000	82.768731
2128.000000	82.754286
2127.000000	82.743910
2126.000000	82.736749
2125.000000	82.731782
2124.000000	82.727289
2123.000000	82.722095
2122.000000	82.717590
2121.000000	82.717050
2120.000000	82.723242
2119.000000	82.737781
2118.000000	82.761624
2117.000000	82.793814
2116.000000	82.829939
2115.000000	82.863980
2114.000000	82.891887
2113.000000	82.912284
2112.000000	82.924820
2111.000000	82.930216
2110.000000	82.931421
2109.000000	82.932380
2108.000000	82.935345
2107.000000	82.940686
2106.000000	82.948703
2105.000000	82.959420
2104.000000	82.970822
2103.000000	82.979632
2102.000000	82.984030
2101.000000	82.983930
2100.000000	82.979071
2099.000000	82.968758
2098.000000	82.953563
2097.000000	82.935215
2096.000000	82.914607
2095.000000	82.892115
2094.000000	82.869647
2093.000000	82.850376
2092.000000	82.836787
2091.000000	82.830761
2090.000000	82.835132
2089.000000	82.852626
2088.000000	82.882898
2087.000000	82.922391
2086.000000	82.966528
2085.000000	83.010052
2084.000000	83.046601
2083.000000	83.071064
2082.000000	83.082678
2081.000000	83.084387
2080.000000	83.079573
2079.000000	83.070915
2078.000000	83.061433
2077.000000	83.053267
2076.000000	83.044955
2075.000000	83.032478
2074.000000	83.012501
2073.000000	82.983378
2072.000000	82.944159
2071.000000	82.895101
2070.000000	82.839881
2069.000000	82.784442
2068.000000	82.732599
2067.000000	82.684169
2066.000000	82.637075
2065.000000	82.589209
2064.000000	82.538009
2063.000000	82.480933
2062.000000	82.417167
2061.000000	82.347579
2060.000000	82.273647
2059.000000	82.198276
2058.000000	82.126813
2057.000000	82.064309
2056.000000	82.011476
2055.000000	81.965259
2054.000000	81.922646
2053.000000	81.881765
2052.000000	81.840490
2051.000000	81.797268
2050.000000	81.753909
2049.000000	81.715387
2048.000000	81.685837
2047.000000	81.666643
2046.000000	81.658586
2045.000000	81.661711
2044.000000	81.672198
2043.000000	81.682941
2042.000000	81.688992
2041.000000	81.690747
2040.000000	81.691371
2039.000000	81.694537
2038.000000	81.705263
2037.000000	81.728948
2036.000000	81.767763
2035.000000	81.819510
2034.000000	81.880336
2033.000000	81.946001
2032.000000	82.010694
2031.000000	82.068759
2030.000000	82.118521
2029.000000	82.162806
2028.000000	82.205468
2027.000000	82.249638
2026.000000	82.298522
2025.000000	82.354273
2024.000000	82.415139
2023.000000	82.475526
2022.000000	82.530807
2021.000000	82.579922
2020.000000	82.622925
2019.000000	82.659619
2018.000000	82.692299
2017.000000	82.726873
2016.000000	82.768945
2015.000000	82.820414
2014.000000	82.880231
2013.000000	82.945609
2012.000000	83.011548
2011.000000	83.072531
2010.000000	83.126553
2009.000000	83.175791
2008.000000	83.223096
2007.000000	83.270631
2006.000000	83.321257
2005.000000	83.377568
2004.000000	83.438813
2003.000000	83.500284
2002.000000	83.557596
2001.000000	83.608209
2000.000000	83.650474
1999.000000	83.684746
1998.000000	83.714034
1997.000000	83.743726
1996.000000	83.779208
1995.000000	83.822294
1994.000000	83.869918
1993.000000	83.916916
1992.000000	83.960261
1991.000000	84.000775
1990.000000	84.040638
1989.000000	84.080722
1988.000000	84.121401
1987.000000	84.164317
1986.000000	84.212185
1985.000000	84.266297
1984.000000	84.324713
1983.000000	84.383255
1982.000000	84.438220
1981.000000	84.487110
1980.000000	84.529339
1979.000000	84.567158
1978.000000	84.603932
1977.000000	84.643073
1976.000000	84.687908
1975.000000	84.740205
1974.000000	84.797820
1973.000000	84.855525
1972.000000	84.908927
1971.000000	84.956116
1970.000000	84.995560
1969.000000	85.025550
1968.000000	85.046673
1967.000000	85.063194
1966.000000	85.080647
1965.000000	85.101816
1964.000000	85.125237
1963.000000	85.145841
1962.000000	85.156618
1961.000000	85.152607
1960.000000	85.134759
1959.000000	85.109107
1958.000000	85.082481
1957.000000	85.060356
1956.000000	85.047600
1955.000000	85.048042
1954.000000	85.061412
1953.000000	85.083259
1952.000000	85.107596
1951.000000	85.129240
1950.000000	85.145832
1949.000000	85.156786
1948.000000	85.163252
1947.000000	85.170032
1946.000000	85.183250
1945.000000	85.204304
1944.000000	85.227467
1943.000000	85.245378
1942.000000	85.256163
1941.000000	85.262363
1940.000000	85.265352
1939.000000	85.264449
1938.000000	85.259362
1937.000000	85.252077
1936.000000	85.246638
1935.000000	85.246326
1934.000000	85.250823
1933.000000	85.257287
1932.000000	85.261528
1931.000000	85.260173
1930.000000	85.253857
1929.000000	85.243252
1928.000000	85.229480
1927.000000	85.217612
1926.000000	85.215852
1925.000000	85.227888
1924.000000	85.246009
1923.000000	85.261958
1922.000000	85.277977
1921.000000	85.297958
1920.000000	85.316262
1919.000000	85.322989
1918.000000	85.317840
1917.000000	85.310849
1916.000000	85.306820
1915.000000	85.303414
1914.000000	85.300796
1913.000000	85.301621
1912.000000	85.304128
1911.000000	85.303065
1910.000000	85.297396
1909.000000	85.288767
1908.000000	85.278262
1907.000000	85.267519
1906.000000	85.262338
1905.000000	85.268900
1904.000000	85.284471
1903.000000	85.304784
1902.000000	85.332813
1901.000000	85.370296
1900.000000	85.411377
1899.000000	85.449902
1898.000000	85.487094
1897.000000	85.526238
1896.000000	85.562602
1895.000000	85.591355
1894.000000	85.619226
1893.000000	85.655463
1892.000000	85.697266
1891.000000	85.733895
1890.000000	85.760964
1889.000000	85.783603
1888.000000	85.805516
1887.000000	85.825610
1886.000000	85.845063
1885.000000	85.866098
1884.000000	85.886969
1883.000000	85.907050
1882.000000	85.931630
1881.000000	85.963181
1880.000000	85.996469
1879.000000	86.026200
1878.000000	86.053556
1877.000000	86.082721
1876.000000	86.112091
1875.000000	86.137044
1874.000000	86.160827
1873.000000	86.191360
1872.000000	86.228725
1871.000000	86.265117
1870.000000	86.295057
1869.000000	86.320458
1868.000000	86.344091
1867.000000	86.365813
1866.000000	86.388818
1865.000000	86.416953
1864.000000	86.447225
1863.000000	86.474775
1862.000000	86.501961
1861.000000	86.533911
1860.000000	86.567902
1859.000000	86.597793
1858.000000	86.625241
1857.000000	86.655319
1856.000000	86.685407
1855.000000	86.709315
1854.000000	86.728982
1853.000000	86.749390
1852.000000	86.772439
1851.000000	86.799440
1850.000000	86.830297
1849.000000	86.863641
1848.000000	86.896469
1847.000000	86.927791
1846.000000	86.957518
1845.000000	86.981609
1844.000000	86.998453
1843.000000	87.014946
1842.000000	87.036265
1841.000000	87.061188
1840.000000	87.088579
1839.000000	87.116765
1838.000000	87.144550
1837.000000	87.171253
1836.000000	87.193314
1835.000000	87.210099
1834.000000	87.227009
1833.000000	87.248655
1832.000000	87.275880
1831.000000	87.302747
1830.000000	87.323384
1829.000000	87.345854
1828.000000	87.379582
1827.000000	87.419664
1826.000000	87.453701
1825.000000	87.477634
1824.000000	87.498036
1823.000000	87.518922
1822.000000	87.539279
1821.000000	87.561455
1820.000000	87.589438
1819.000000	87.619479
1818.000000	87.646387
1817.000000	87.672971
1816.000000	87.700089
1815.000000	87.721505
1814.000000	87.731882
1813.000000	87.734597
1812.000000	87.734652
1811.000000	87.728893
1810.000000	87.720418
1809.000000	87.720983
1808.000000	87.730337
1807.000000	87.736970
1806.000000	87.738337
1805.000000	87.742357
1804.000000	87.748676
1803.000000	87.747497
1802.000000	87.735272
1801.000000	87.724355
1800.000000	87.727807
1799.000000	87.742168
1798.000000	87.761683
1797.000000	87.785648
1796.000000	87.809760
1795.000000	87.828333
1794.000000	87.839163
1793.000000	87.845062
1792.000000	87.850214
1791.000000	87.853413
1790.000000	87.856188
1789.000000	87.865431
1788.000000	87.881929
1787.000000	87.897248
1786.000000	87.906561
1785.000000	87.914802
1784.000000	87.924975
1783.000000	87.934686
1782.000000	87.938096
1781.000000	87.933533
1780.000000	87.929762
1779.000000	87.934309
1778.000000	87.948252
1777.000000	87.967185
1776.000000	87.989998
1775.000000	88.021065
1774.000000	88.056005
1773.000000	88.084300
1772.000000	88.112583
1771.000000	88.148796
1770.000000	88.182293
1769.000000	88.208509
1768.000000	88.235591
1767.000000	88.267081
1766.000000	88.297794
1765.000000	88.325883
1764.000000	88.355235
1763.000000	88.381259
1762.000000	88.391785
1761.000000	88.392626
1760.000000	88.400008
1759.000000	88.414630
1758.000000	88.426656
1757.000000	88.427042
1756.000000	88.427687
1755.000000	88.440688
1754.000000	88.455411
1753.000000	88.461387
1752.000000	88.468010
1751.000000	88.491679
1750.000000	88.529804
1749.000000	88.564168
1748.000000	88.590757
1747.000000	88.622971
1746.000000	88.658610
1745.000000	88.685075
1744.000000	88.703920
1743.000000	88.723145
1742.000000	88.743326
1741.000000	88.761380
1740.000000	88.777729
1739.000000	88.795757
1738.000000	88.814107
1737.000000	88.831128
1736.000000	88.847189
1735.000000	88.852136
1734.000000	88.850343
1733.000000	88.864182
1732.000000	88.881912
1731.000000	88.882851
1730.000000	88.873097
1729.000000	88.859491
1728.000000	88.849898
1727.000000	88.848570
1726.000000	88.849939
1725.000000	88.848145
1724.000000	88.844305
1723.000000	88.841721
1722.000000	88.847780
1721.000000	88.866174
1720.000000	88.891964
1719.000000	88.904944
1718.000000	88.895685
1717.000000	88.896740
1716.000000	88.916680
1715.000000	88.925705
1714.000000	88.927024
1713.000000	88.941353
1712.000000	88.965199
1711.000000	88.985168
1710.000000	89.002448
1709.000000	89.024683
1708.000000	89.051932
1707.000000	89.074061
1706.000000	89.086600
1705.000000	89.104139
1704.000000	89.132173
1703.000000	89.167731
1702.000000	89.210833
1701.000000	89.255388
1700.000000	89.298389
1699.000000	89.332415
1698.000000	89.347868
1697.000000	89.360677
1696.000000	89.382359
1695.000000	89.408299
1694.000000	89.433073
1693.000000	89.447861
1692.000000	89.458508
1691.000000	89.469901
1690.000000	89.478312
1689.000000	89.476500
1688.000000	89.469676
1687.000000	89.472642
1686.000000	89.485505
1685.000000	89.480229
1684.000000	89.454763
1683.000000	89.454715
1682.000000	89.467633
1681.000000	89.450852
1680.000000	89.410874
1679.000000	89.372927
1678.000000	89.348968
1677.000000	89.318885
1676.000000	89.265256
1675.000000	89.208335
1674.000000	89.171213
1673.000000	89.139099
1672.000000	89.100682
1671.000000	89.062077
1670.000000	89.023677
1669.000000	88.972398
1668.000000	88.906006
1667.000000	88.841324
1666.000000	88.786829
1665.000000	88.734252
1664.000000	88.670947
1663.000000	88.604302
1662.000000	88.550046
1661.000000	88.489808
1660.000000	88.402656
1659.000000	88.299769
1658.000000	88.197887
1657.000000	88.094343
1656.000000	87.985156
1655.000000	87.858640
1654.000000	87.640541
1653.000000	87.305899
1652.000000	86.969130
1651.000000	86.655923
1650.000000	86.299452
1649.000000	85.832094
1648.000000	85.113071
1647.000000	84.047619
1646.000000	82.700887
1645.000000	81.188074
1644.000000	79.490150
1643.000000	77.512933
1642.000000	75.191689
1641.000000	72.568905
1640.000000	69.849565
1639.000000	67.283790
1638.000000	65.006575
1637.000000	63.062861
1636.000000	61.631148
1635.000000	61.014417
1634.000000	61.225919
1633.000000	61.993494
1632.000000	63.089417
1631.000000	64.395679
1630.000000	65.850707
1629.000000	67.411861
1628.000000	69.021042
1627.000000	70.582007
1626.000000	72.034581
1625.000000	73.429062
1624.000000	74.846319
1623.000000	76.250339
1622.000000	77.498907
1621.000000	78.519525
1620.000000	79.371615
1619.000000	80.145907
1618.000000	80.891927
1617.000000	81.616773
1616.000000	82.283681
1615.000000	82.828591
1614.000000	83.236092
1613.000000	83.562250
1612.000000	83.862803
1611.000000	84.137751
1610.000000	84.345149
1609.000000	84.461739
1608.000000	84.493265
1607.000000	84.432814
1606.000000	84.249557
1605.000000	83.918399
1604.000000	83.436793
1603.000000	82.792428
1602.000000	81.969434
1601.000000	81.002318
1600.000000	79.983256
1599.000000	79.010833
1598.000000	78.145938
1597.000000	77.419761
1596.000000	76.845628
1595.000000	76.400368
1594.000000	76.018336
1593.000000	75.634237
1592.000000	75.222293
1591.000000	74.777388
1590.000000	74.287095
1589.000000	73.743370
1588.000000	73.157725
1587.000000	72.534525
1586.000000	71.852013
1585.000000	71.090596
1584.000000	70.267628
1583.000000	69.411370
1582.000000	68.516632
1581.000000	67.575500
1580.000000	66.612331
1579.000000	65.612895
1578.000000	64.426046
1577.000000	62.821513
1576.000000	60.829232
1575.000000	58.872955
1574.000000	57.256864
1573.000000	55.899303
1572.000000	54.626063
1571.000000	53.358713
1570.000000	52.145135
1569.000000	51.123672
1568.000000	50.423746
1567.000000	50.080956
1566.000000	50.029024
1565.000000	50.163386
1564.000000	50.443937
1563.000000	50.891949
1562.000000	51.525618
1561.000000	52.349845
1560.000000	53.465260
1559.000000	54.964486
1558.000000	56.531973
1557.000000	57.766900
1556.000000	58.709660
1555.000000	59.577746
1554.000000	60.426392
1553.000000	61.187620
1552.000000	61.832403
1551.000000	62.439951
1550.000000	63.088327
1549.000000	63.784658
1548.000000	64.513316
1547.000000	65.307548
1546.000000	66.205403
1545.000000	67.173242
1544.000000	68.132911
1543.000000	69.054808
1542.000000	69.973098
1541.000000	70.916415
1540.000000	71.855302
1539.000000	72.720521
1538.000000	73.444327
1537.000000	74.024220
1536.000000	74.540226
1535.000000	75.087749
1534.000000	75.702682
1533.000000	76.331229
1532.000000	76.907969
1531.000000	77.429047
1530.000000	77.927468
1529.000000	78.412524
1528.000000	78.869952
1527.000000	79.296091
1526.000000	79.689140
1525.000000	80.037552
1524.000000	80.348633
1523.000000	80.655156
1522.000000	80.970891
1521.000000	81.270357
1520.000000	81.533465
1519.000000	81.772233
1518.000000	82.000032
1517.000000	82.207625
1516.000000	82.389444
1515.000000	82.564826
1514.000000	82.743928
1513.000000	82.923039
1512.000000	83.103561
1511.000000	83.291903
1510.000000	83.486698
1509.000000	83.678238
1508.000000	83.856140
1507.000000	84.021436
1506.000000	84.207034
1505.000000	84.396632
1504.000000	84.545686
1503.000000	84.676683
1502.000000	84.814440
1501.000000	84.955345
1500.000000	85.095632
1499.000000	85.241037
1498.000000	85.381189
1497.000000	85.501287
1496.000000	85.609694
1495.000000	85.719926
1494.000000	85.825750
1493.000000	85.918014
1492.000000	86.005925
1491.000000	86.100594
1490.000000	86.192070
1489.000000	86.266514
1488.000000	86.326076
1487.000000	86.374751
1486.000000	86.404540
1485.000000	86.389000
1484.000000	86.317209
1483.000000	86.193240
1482.000000	85.995231
1481.000000	85.696577
1480.000000	85.298647
1479.000000	84.788467
1478.000000	84.079539
1477.000000	83.079908
1476.000000	81.800310
1475.000000	80.312384
1474.000000	78.614656
1473.000000	76.723122
1472.000000	74.899733
1471.000000	73.470319
1470.000000	72.498227
1469.000000	71.883242
1468.000000	71.575362
1467.000000	71.604173
1466.000000	72.026444
1465.000000	72.827366
1464.000000	73.840913
1463.000000	74.812969
1462.000000	75.568188
1461.000000	76.055407
1460.000000	76.262643
1459.000000	76.145938
1458.000000	75.614292
1457.000000	74.736495
1456.000000	73.880282
1455.000000	73.317982
1454.000000	73.004398
1453.000000	72.828204
1452.000000	72.735646
1451.000000	72.711091
1450.000000	72.755128
1449.000000	72.886217
1448.000000	73.117541
1447.000000	73.424632
1446.000000	73.765713
1445.000000	74.130636
1444.000000	74.548734
1443.000000	75.047267
1442.000000	75.641228
1441.000000	76.342016
1440.000000	77.157262
1439.000000	78.090924
1438.000000	79.147444
1437.000000	80.283002
1436.000000	81.341960
1435.000000	82.168346
1434.000000	82.765791
1433.000000	83.239296
1432.000000	83.654489
1431.000000	84.017287
1430.000000	84.324640
1429.000000	84.594165
1428.000000	84.837353
1427.000000	85.054059
1426.000000	85.247474
1425.000000	85.418013
1424.000000	85.568254
1423.000000	85.705285
1422.000000	85.842211
1421.000000	85.986546
1420.000000	86.126412
1419.000000	86.240592
1418.000000	86.330265
1417.000000	86.421432
1416.000000	86.526337
1415.000000	86.637805
1414.000000	86.745435
1413.000000	86.846277
1412.000000	86.941252
1411.000000	87.028949
1410.000000	87.110687
1409.000000	87.197374
1408.000000	87.293859
1407.000000	87.392922
1406.000000	87.486513
1405.000000	87.567941
1404.000000	87.633368
1403.000000	87.675304
1402.000000	87.677627
1401.000000	87.608195
1400.000000	87.426012
1399.000000	87.136503
1398.000000	86.828908
1397.000000	86.618560
1396.000000	86.568032
1395.000000	86.666628
1394.000000	86.839523
1393.000000	87.004836
1392.000000	87.141868
1391.000000	87.285130
1390.000000	87.477068
1389.000000	87.733861
1388.000000	88.037021
1387.000000	88.346855
1386.000000	88.627712
1385.000000	88.859248
1384.000000	89.034246
1383.000000	89.153981
1382.000000	89.231711
1381.000000	89.286205
1380.000000	89.322412
1379.000000	89.331060
1378.000000	89.298742
1377.000000	89.195544
1376.000000	88.934746
1375.000000	88.348309
1374.000000	87.212092
1373.000000	85.341576
1372.000000	82.712211
1371.000000	79.560664
1370.000000	76.441012
1369.000000	74.121182
1368.000000	73.211184
1367.000000	73.735123
1366.000000	75.138566
1365.000000	76.687959
1364.000000	77.781369
1363.000000	78.074982
1362.000000	77.593379
1361.000000	76.763815
1360.000000	76.211270
1359.000000	76.434733
1358.000000	77.575139
1357.000000	79.371193
1356.000000	81.350957
1355.000000	83.115869
1354.000000	84.497843
1353.000000	85.523536
1352.000000	86.284673
1351.000000	86.860642
1350.000000	87.310282
1349.000000	87.670759
1348.000000	87.963038
1347.000000	88.205328
1346.000000	88.418866
1345.000000	88.615923
1344.000000	88.796802
1343.000000	88.959794
1342.000000	89.108260
1341.000000	89.241425
1340.000000	89.350519
1339.000000	89.434574
1338.000000	89.506947
1337.000000	89.580389
1336.000000	89.654178
1335.000000	89.717171
1334.000000	89.751587
1333.000000	89.721046
1332.000000	89.564153
1331.000000	89.211369
1330.000000	88.612562
1329.000000	87.753404
1328.000000	86.637296
1327.000000	85.257518
1326.000000	83.606726
1325.000000	81.754958
1324.000000	79.949530
1323.000000	78.572971
1322.000000	77.911650
1321.000000	77.949555
1320.000000	78.410621
1319.000000	78.990187
1318.000000	79.540705
1317.000000	80.061497
1316.000000	80.583859
1315.000000	81.116465
1314.000000	81.665783
1313.000000	82.261912
1312.000000	82.942886
1311.000000	83.715945
1310.000000	84.534888
1309.000000	85.312077
1308.000000	85.955385
1307.000000	86.407998
1306.000000	86.661827
1305.000000	86.727389
1304.000000	86.605028
1303.000000	86.280499
1302.000000	85.737324
1301.000000	84.982357
1300.000000	84.079938
1299.000000	83.172505
1298.000000	82.438628
1297.000000	81.997525
1296.000000	81.841621
1295.000000	81.847649
1294.000000	81.840904
1293.000000	81.657027
1292.000000	81.178665
1291.000000	80.347793
1290.000000	79.148629
1289.000000	77.598788
1288.000000	75.796682
1287.000000	73.988523
1286.000000	72.533985
1285.000000	71.743479
1284.000000	71.721913
1283.000000	72.354832
1282.000000	73.437893
1281.000000	74.801454
1280.000000	76.318309
1279.000000	77.827995
1278.000000	79.113386
1277.000000	79.987057
1276.000000	80.387429
1275.000000	80.391188
1274.000000	80.160100
1273.000000	79.890029
1272.000000	79.779476
1271.000000	79.989331
1270.000000	80.583094
1269.000000	81.495490
1268.000000	82.570797
1267.000000	83.645581
1266.000000	84.613241
1265.000000	85.437781
1264.000000	86.129060
1263.000000	86.711527
1262.000000	87.205820
1261.000000	87.623493
1260.000000	87.968617
1259.000000	88.244958
1258.000000	88.465392
1257.000000	88.647669
1256.000000	88.806647
1255.000000	88.954428
1254.000000	89.101659
1253.000000	89.254027
1252.000000	89.406456
1251.000000	89.547864
1250.000000	89.670795
1249.000000	89.772802
1248.000000	89.853721
1247.000000	89.917493
1246.000000	89.974803
1245.000000	90.037918
1244.000000	90.111903
1243.000000	90.194048
1242.000000	90.278197
1241.000000	90.354718
1240.000000	90.409720
1239.000000	90.431398
1238.000000	90.418896
1237.000000	90.380579
1236.000000	90.326103
1235.000000	90.264966
1234.000000	90.207137
1233.000000	90.157961
1232.000000	90.111772
1231.000000	90.054534
1230.000000	89.972712
1229.000000	89.854780
1228.000000	89.689686
1227.000000	89.469333
1226.000000	89.190385
1225.000000	88.850525
1224.000000	88.436778
1223.000000	87.924032
1222.000000	87.279146
1221.000000	86.461863
1220.000000	85.438357
1219.000000	84.196911
1218.000000	82.759819
1217.000000	81.181599
1216.000000	79.541620
1215.000000	77.942186
1214.000000	76.502707
1213.000000	75.343689
1212.000000	74.563579
1211.000000	74.212145
1210.000000	74.256043
1209.000000	74.582979
1208.000000	75.041591
1207.000000	75.482841
1206.000000	75.791559
1205.000000	75.895577
1204.000000	75.762855
1203.000000	75.395311
1202.000000	74.829082
1201.000000	74.144102
1200.000000	73.470935
1199.000000	72.970933
1198.000000	72.783693
1197.000000	72.973345
1196.000000	73.519681
1195.000000	74.342475
1194.000000	75.342870
1193.000000	76.440037
1192.000000	77.578242
1191.000000	78.720718
1190.000000	79.836462
1189.000000	80.896065
1188.000000	81.873606
1187.000000	82.749639
1186.000000	83.515295
1185.000000	84.176450
1184.000000	84.750070
1183.000000	85.252773
1182.000000	85.697824
1181.000000	86.091866
1180.000000	86.435516
1179.000000	86.727442
1178.000000	86.964847
1177.000000	87.145257
1176.000000	87.263787
1175.000000	87.316585
1174.000000	87.306737
1173.000000	87.236029
1172.000000	87.096030
1171.000000	86.860356
1170.000000	86.486574
1169.000000	85.925726
1168.000000	85.132566
1167.000000	84.095249
1166.000000	82.865147
1165.000000	81.567268
1164.000000	80.380697
1163.000000	79.492893
1162.000000	79.035952
1161.000000	79.044486
1160.000000	79.457016
1159.000000	80.143124
1158.000000	80.954650
1157.000000	81.764500
1156.000000	82.486898
1155.000000	83.080268
1154.000000	83.537169
1153.000000	83.870835
1152.000000	84.098819
1151.000000	84.230834
1150.000000	84.261819
1149.000000	84.177731
1148.000000	83.952287
1147.000000	83.551104
1146.000000	82.938780
1145.000000	82.071971
1144.000000	80.903747
1143.000000	79.381850
1142.000000	77.469680
1141.000000	75.186662
1140.000000	72.635407
1139.000000	69.998738
1138.000000	67.468297
1137.000000	65.153252
1136.000000	63.039131
1135.000000	61.034329
1134.000000	59.076121
1133.000000	57.261266
1132.000000	55.899329
1131.000000	55.399299
1130.000000	56.073451
1129.000000	57.946765
1128.000000	60.727247
1127.000000	63.914804
1126.000000	66.963181
1125.000000	69.428296
1124.000000	71.026186
1123.000000	71.617715
1122.000000	71.177976
1121.000000	69.784491
1120.000000	67.566791
1119.000000	64.702417
1118.000000	61.478980
1117.000000	58.376774
1116.000000	56.043892
1115.000000	55.078539
1114.000000	55.726459
1113.000000	57.743285
1112.000000	60.519725
1111.000000	63.315095
1110.000000	65.523872
1109.000000	66.883865
1108.000000	67.543924
1107.000000	67.931358
1106.000000	68.470531
1105.000000	69.344378
1104.000000	70.446059
1103.000000	71.487490
1102.000000	72.121422
1101.000000	72.059769
1100.000000	71.192269
1099.000000	69.709692
1098.000000	68.130713
1097.000000	67.128346
1096.000000	67.209449
1095.000000	68.458121
1094.000000	70.525770
1093.000000	72.870704
1092.000000	75.056661
1091.000000	76.881087
1090.000000	78.333895
1089.000000	79.489275
1088.000000	80.424811
1087.000000	81.194104
1086.000000	81.833804
1085.000000	82.371440
1084.000000	82.825649
1083.000000	83.215147
1082.000000	83.558113
1081.000000	83.870224
1080.000000	84.157639
1079.000000	84.411455
1078.000000	84.615676
1077.000000	84.747233
1076.000000	84.776034
1075.000000	84.669751
1074.000000	84.392962
1073.000000	83.910549
1072.000000	83.160337
1071.000000	82.035947
1070.000000	80.382748
1069.000000	77.977720
1068.000000	74.582253
1067.000000	70.061354
1066.000000	64.588490
1065.000000	58.793580
1064.000000	53.652197
1063.000000	50.049832
1062.000000	48.239970
1061.000000	47.623285
1060.000000	47.100104
1059.000000	45.819947
1058.000000	43.755605
1057.000000	41.750257
1056.000000	40.977382
1055.000000	42.164473
1054.000000	45.210732
1053.000000	49.366198
1052.000000	53.754009
1051.000000	57.780922
1050.000000	61.207700
1049.000000	64.043400
1048.000000	66.403880
1047.000000	68.415930
1046.000000	70.160607
1045.000000	71.676452
1044.000000	72.978277
1043.000000	74.086084
1042.000000	75.030202
1041.000000	75.835884
1040.000000	76.527786
1039.000000	77.125899
1038.000000	77.643175
1037.000000	78.084423
1036.000000	78.449097
1035.000000	78.743481
1034.000000	78.979122
1033.000000	79.168257
1032.000000	79.323969
1031.000000	79.459983
1030.000000	79.588726
1029.000000	79.714132
1028.000000	79.830877
1027.000000	79.930297
1026.000000	80.001790
1025.000000	80.033247
1024.000000	80.012304
1023.000000	79.930666
1022.000000	79.786731
1021.000000	79.576658
1020.000000	79.290606
1019.000000	78.909949
1018.000000	78.404062
1017.000000	77.733039
1016.000000	76.849795
1015.000000	75.724584
1014.000000	74.376066
1013.000000	72.896952
1012.000000	71.454625
1011.000000	70.239925
1010.000000	69.370838
1009.000000	68.810557
1008.000000	68.386182
1007.000000	67.920755
1006.000000	67.411305
1005.000000	67.090460
1004.000000	67.296176
1003.000000	68.230805
1002.000000	69.793734
1001.000000	71.643789
1000.000000	73.394565
999.000000	74.775442
998.000000	75.673339
997.000000	76.093598
996.000000	76.119341
995.000000	75.895150
994.000000	75.616466
993.000000	75.493344
992.000000	75.692565
991.000000	76.273261
990.000000	77.160992
989.000000	78.194178
988.000000	79.215945
987.000000	80.133567
986.000000	80.922134
985.000000	81.593758
984.000000	82.169355
983.000000	82.666326
982.000000	83.096612
981.000000	83.465867
980.000000	83.777031
979.000000	84.039511
978.000000	84.267790
977.000000	84.476542
976.000000	84.676690
975.000000	84.875649
974.000000	85.077935
973.000000	85.280586
972.000000	85.473543
971.000000	85.646399
970.000000	85.794325
969.000000	85.918578
968.000000	86.024606
967.000000	86.122864
966.000000	86.227065
965.000000	86.346693
964.000000	86.481961
963.000000	86.626014
962.000000	86.769582
961.000000	86.902123
960.000000	87.012991
959.000000	87.097598
958.000000	87.161933
957.000000	87.219027
956.000000	87.281935
955.000000	87.360842
954.000000	87.462173
953.000000	87.584473
952.000000	87.716004
951.000000	87.840469
950.000000	87.945547
949.000000	88.025881
948.000000	88.082738
947.000000	88.125725
946.000000	88.171959
945.000000	88.237070
944.000000	88.326050
943.000000	88.433254
942.000000	88.548079
941.000000	88.657755
940.000000	88.748677
939.000000	88.812782
938.000000	88.853635
937.000000	88.883295
936.000000	88.914530
935.000000	88.958253
934.000000	89.023178
933.000000	89.110352
932.000000	89.208483
931.000000	89.300387
930.000000	89.373999
929.000000	89.425664
928.000000	89.457272
927.000000	89.476672
926.000000	89.498300
925.000000	89.535650
924.000000	89.592058
923.000000	89.661757
922.000000	89.737108
921.000000	89.809840
920.000000	89.868969
919.000000	89.906541
918.000000	89.926195
917.000000	89.940245
916.000000	89.959313
915.000000	89.989314
914.000000	90.034329
913.000000	90.093813
912.000000	90.156110
911.000000	90.202794
910.000000	90.218030
909.000000	90.187699
908.000000	90.092907
907.000000	89.909718
906.000000	89.618553
905.000000	89.203404
904.000000	88.651121
903.000000	87.976831
902.000000	87.263261
901.000000	86.664317
900.000000	86.345710
899.000000	86.395923
898.000000	86.774790
897.000000	87.347758
896.000000	87.964936
895.000000	88.527583
894.000000	89.005119
893.000000	89.403175
892.000000	89.730609
891.000000	89.988970
890.000000	90.180426
889.000000	90.309897
888.000000	90.383442
887.000000	90.405077
886.000000	90.374003
885.000000	90.277625
884.000000	90.093558
883.000000	89.819184
882.000000	89.493113
881.000000	89.172121
880.000000	88.876418
879.000000	88.570200
878.000000	88.213400
877.000000	87.834365
876.000000	87.547917
875.000000	87.489049
874.000000	87.722030
873.000000	88.195380
872.000000	88.776988
871.000000	89.332149
870.000000	89.781023
869.000000	90.104147
868.000000	90.314509
867.000000	90.439056
866.000000	90.513620
865.000000	90.575747
864.000000	90.650884
863.000000	90.749212
862.000000	90.870215
861.000000	91.002630
860.000000	91.123490
859.000000	91.207235
858.000000	91.242194
857.000000	91.235153
856.000000	91.202766
855.000000	91.166318
854.000000	91.151052
853.000000	91.177698
852.000000	91.248655
851.000000	91.346200
850.000000	91.444905
849.000000	91.521505
848.000000	91.557975
847.000000	91.547896
846.000000	91.504079
845.000000	91.453583
844.000000	91.422831
843.000000	91.428833
842.000000	91.478422
841.000000	91.564832
840.000000	91.664428
839.000000	91.745984
838.000000	91.788109
837.000000	91.786029
836.000000	91.746550
835.000000	91.686781
834.000000	91.635551
833.000000	91.622403
832.000000	91.659281
831.000000	91.736446
830.000000	91.833846
829.000000	91.928528
828.000000	91.994817
827.000000	92.012774
826.000000	91.983931
825.000000	91.932264
824.000000	91.887732
823.000000	91.873370
822.000000	91.903322
821.000000	91.977597
820.000000	92.074592
819.000000	92.158672
818.000000	92.200786
817.000000	92.189439
816.000000	92.127018
815.000000	92.028319
814.000000	91.921961
813.000000	91.838528
812.000000	91.790737
811.000000	91.766661
810.000000	91.739417
809.000000	91.675468
808.000000	91.536177
807.000000	91.290004
806.000000	90.928300
805.000000	90.463622
804.000000	89.911554
803.000000	89.274362
802.000000	88.540416
801.000000	87.679387
800.000000	86.640227
799.000000	85.371493
798.000000	83.848456
797.000000	82.090924
796.000000	80.158011
795.000000	78.141692
794.000000	76.158883
793.000000	74.334699
792.000000	72.781329
791.000000	71.584107
790.000000	70.797903
789.000000	70.437300
788.000000	70.473897
787.000000	70.837653
786.000000	71.438430
785.000000	72.191523
784.000000	73.022670
783.000000	73.868673
782.000000	74.674153
781.000000	75.389632
780.000000	75.964216
779.000000	76.350942
778.000000	76.525690
777.000000	76.498292
776.000000	76.301462
775.000000	75.975835
774.000000	75.574970
773.000000	75.176475
772.000000	74.882763
771.000000	74.801466
770.000000	75.015879
769.000000	75.550728
768.000000	76.355413
767.000000	77.323756
766.000000	78.345005
765.000000	79.348417
764.000000	80.308619
763.000000	81.231692
762.000000	82.138324
761.000000	83.043810
760.000000	83.935375
759.000000	84.771219
758.000000	85.506142
757.000000	86.114594
756.000000	86.593995
755.000000	86.962911
754.000000	87.264940
753.000000	87.557837
752.000000	87.885064
751.000000	88.257354
750.000000	88.656690
749.000000	89.046984
748.000000	89.380337
747.000000	89.614414
746.000000	89.739106
745.000000	89.782859
744.000000	89.792032
743.000000	89.811622
742.000000	89.880007
741.000000	90.018636
740.000000	90.212909
739.000000	90.413536
738.000000	90.565777
737.000000	90.633392
736.000000	90.600325
735.000000	90.472028
734.000000	90.285033
733.000000	90.098277
732.000000	89.961048
731.000000	89.891578
730.000000	89.882449
729.000000	89.907442
728.000000	89.920592
727.000000	89.867866
726.000000	89.715205
725.000000	89.465602
724.000000	89.144338
723.000000	88.771612
722.000000	88.344026
721.000000	87.828363
720.000000	87.170195
719.000000	86.327745
718.000000	85.312334
717.000000	84.200163
716.000000	83.111202
715.000000	82.180681
714.000000	81.537209
713.000000	81.270343
712.000000	81.393128
711.000000	81.838223
710.000000	82.501516
709.000000	83.283050
708.000000	84.093238
707.000000	84.856118
706.000000	85.530279
705.000000	86.120172
704.000000	86.653029
703.000000	87.153677
702.000000	87.646740
701.000000	88.155721
700.000000	88.677744
699.000000	89.176059
698.000000	89.608201
697.000000	89.953646
696.000000	90.209559
695.000000	90.381681
694.000000	90.500182
693.000000	90.618991
692.000000	90.777363
691.000000	90.976383
690.000000	91.197649
689.000000	91.424365
688.000000	91.628282
687.000000	91.764694
686.000000	91.813003
685.000000	91.800615
684.000000	91.769849
683.000000	91.746998
682.000000	91.756577
681.000000	91.828264
680.000000	91.958639
679.000000	92.098038
678.000000	92.198390
677.000000	92.239144
676.000000	92.214879
675.000000	92.128214
674.000000	92.018405
673.000000	91.990497
672.000000	92.181533
671.000000	92.664735
670.000000	93.371923
669.000000	93.983533
668.000000	93.983218
667.000000	93.375751
666.000000	92.739180
665.000000	92.308049
664.000000	92.042150
663.000000	91.886341
662.000000	91.824268
661.000000	91.849773
660.000000	91.939926
659.000000	92.062936
658.000000	92.184619
657.000000	92.258129
656.000000	92.248732
655.000000	92.166443
654.000000	92.045809
653.000000	91.916439
652.000000	91.811718
651.000000	91.770320
650.000000	91.800966
649.000000	91.863349
648.000000	91.907199
647.000000	91.908611
646.000000	91.857762
645.000000	91.746093
644.000000	91.582057
643.000000	91.401714
642.000000	91.247960
641.000000	91.141996
640.000000	91.086666
639.000000	91.078356
638.000000	91.094912
637.000000	91.091115
636.000000	91.028896
635.000000	90.903213
634.000000	90.733300
633.000000	90.542552
632.000000	90.356169
631.000000	90.203683
630.000000	90.101877
629.000000	90.037988
628.000000	89.982849
627.000000	89.912252
626.000000	89.806593
625.000000	89.649767
624.000000	89.439217
623.000000	89.194235
622.000000	88.946293
621.000000	88.722015
620.000000	88.534640
619.000000	88.375858
618.000000	88.209485
617.000000	87.988416
616.000000	87.691942
615.000000	87.335173
614.000000	86.936516
613.000000	86.495576
612.000000	86.011191
611.000000	85.500159
610.000000	84.977668
609.000000	84.430372
608.000000	83.828698
607.000000	83.152271
606.000000	82.386492
605.000000	81.514973
604.000000	80.533658
603.000000	79.462652
602.000000	78.321428
601.000000	77.109778
600.000000	75.831379
599.000000	74.515272
598.000000	73.184708
597.000000	71.829070
596.000000	70.441972
595.000000	69.056954
594.000000	67.711882
593.000000	66.408616
592.000000	65.154044
591.000000	63.999179
590.000000	62.986471
589.000000	62.092886
588.000000	61.266648
587.000000	60.478433
586.000000	59.690755
585.000000	58.830612
584.000000	57.850814
583.000000	56.786882
582.000000	55.715911
581.000000	54.709522
580.000000	53.863670
579.000000	53.319676
578.000000	53.175952
577.000000	53.425161
576.000000	54.000955
575.000000	54.814506
574.000000	55.731990
573.000000	56.591479
572.000000	57.309892
571.000000	57.945059
570.000000	58.630809
569.000000	59.473014
568.000000	60.505573
567.000000	61.683890
566.000000	62.885285
565.000000	63.969367
564.000000	64.871449
563.000000	65.620353
562.000000	66.268476
561.000000	66.841221
560.000000	67.358871
559.000000	67.854788
558.000000	68.347616
557.000000	68.827309
556.000000	69.286742
555.000000	69.743996
554.000000	70.214273
553.000000	70.690197
552.000000	71.166230
551.000000	71.654514
550.000000	72.159186
549.000000	72.657838
548.000000	73.126751
547.000000	73.564314
546.000000	73.978665
545.000000	74.372655
544.000000	74.753711
543.000000	75.138387
542.000000	75.533724
541.000000	75.926557
540.000000	76.301387
539.000000	76.653256
538.000000	76.977248
537.000000	77.264828
536.000000	77.518915
535.000000	77.761192
534.000000	78.010226
533.000000	78.266197
532.000000	78.514165
531.000000	78.733520
530.000000	78.901755
529.000000	78.998169
528.000000	79.009874
527.000000	78.939575
526.000000	78.794833
525.000000	78.575106
524.000000	78.280529
523.000000	77.925283
522.000000	77.541210
521.000000	77.160015
520.000000	76.789851
519.000000	76.392489
518.000000	75.861383
517.000000	75.048198
516.000000	73.841988
515.000000	72.253166
514.000000	70.429294
513.000000	68.611374
512.000000	67.072927
511.000000	66.056162
510.000000	65.689577
509.000000	65.957539
508.000000	66.768109
507.000000	67.994730
506.000000	69.471580
505.000000	71.031376
504.000000	72.570158
503.000000	74.045412
502.000000	75.406387
501.000000	76.586025
500.000000	77.553901
499.000000	78.337892
498.000000	78.986893
497.000000	79.549931
496.000000	80.076376
495.000000	80.606281
494.000000	81.158521
493.000000	81.719193
492.000000	82.247452
491.000000	82.698013
490.000000	83.043459
489.000000	83.294960
488.000000	83.492053
487.000000	83.681154
486.000000	83.899757
485.000000	84.165047
484.000000	84.468489
483.000000	84.779945
482.000000	85.062773
481.000000	85.285764
480.000000	85.430594
479.000000	85.498616
478.000000	85.506534
477.000000	85.480532
476.000000	85.444744
475.000000	85.396477
474.000000	85.283848
473.000000	85.010320
472.000000	84.495913
471.000000	83.765839
470.000000	82.947498
469.000000	82.198550
468.000000	81.657091
467.000000	81.390618
466.000000	81.320960
465.000000	81.236645
464.000000	80.915824
463.000000	80.272383
462.000000	79.451017
461.000000	78.766260
460.000000	78.542457
459.000000	78.977026
458.000000	80.034428
457.000000	81.415007
456.000000	82.756407
455.000000	83.885129
454.000000	84.790243
453.000000	85.479878
452.000000	85.938548
451.000000	86.175600
450.000000	86.225494
449.000000	86.112459
448.000000	85.838915
447.000000	85.407488
446.000000	84.848021
445.000000	84.226598
444.000000	83.646669
443.000000	83.238806
442.000000	83.109049
441.000000	83.269400
440.000000	83.647108
439.000000	84.139818
438.000000	84.659328
437.000000	85.155129
436.000000	85.604487
435.000000	85.985880
434.000000	86.269164
433.000000	86.428101
432.000000	86.447348
431.000000	86.339296
430.000000	86.169165
429.000000	86.023350
428.000000	85.948248
427.000000	85.936342
426.000000	85.958551
425.000000	85.981971
424.000000	85.965824
423.000000	85.883530
422.000000	85.744390
421.000000	85.567986
420.000000	85.353199
419.000000	85.135677
418.000000	85.027241
417.000000	85.069108
416.000000	85.187468
415.000000	85.300212
414.000000	85.368099
413.000000	85.396691
412.000000	85.400994
411.000000	85.369430
410.000000	85.306071
409.000000	85.259294
408.000000	85.288658
407.000000	85.416271
406.000000	85.613569
405.000000	85.829207
404.000000	86.027413
403.000000	86.199516
402.000000	86.359458
401.000000	86.525031
400.000000	86.674230
