PE IR       SUBTECH     SPECTRUM    ASCII       PEDS        4.00        
   -1
23ms052cis.asc
24/10/22
16:34:34.00
24/10/22
16:34:34.00
Administrator
Sample 1339 By Administrator Date Tuesday, October 22 2024
400.000000
#HDR
-1
-1
#GR
cm-1
%T
1.0
0.0
4000.000000
-1.000000
3601
8
85.554777
5.267083
#DATA
4000.000000	57.228747
3999.000000	57.211506
3998.000000	57.197914
3997.000000	57.187551
3996.000000	57.180008
3995.000000	57.174795
3994.000000	57.171440
3993.000000	57.169820
3992.000000	57.170096
3991.000000	57.171948
3990.000000	57.174305
3989.000000	57.177061
3988.000000	57.182793
3987.000000	57.195315
3986.000000	57.216512
3985.000000	57.245072
3984.000000	57.278255
3983.000000	57.314105
3982.000000	57.351864
3981.000000	57.391356
3980.000000	57.432506
3979.000000	57.475989
3978.000000	57.523329
3977.000000	57.574865
3976.000000	57.628393
3975.000000	57.680061
3974.000000	57.727142
3973.000000	57.769761
3972.000000	57.809953
3971.000000	57.850182
3970.000000	57.891588
3969.000000	57.933995
3968.000000	57.977255
3967.000000	58.021686
3966.000000	58.068022
3965.000000	58.117518
3964.000000	58.171694
3963.000000	58.230937
3962.000000	58.294102
3961.000000	58.358393
3960.000000	58.421682
3959.000000	58.485442
3958.000000	58.552041
3957.000000	58.621616
3956.000000	58.692089
3955.000000	58.761138
3954.000000	58.827589
3953.000000	58.889824
3952.000000	58.945738
3951.000000	58.994314
3950.000000	59.036816
3949.000000	59.077305
3948.000000	59.119838
3947.000000	59.164855
3946.000000	59.210134
3945.000000	59.255869
3944.000000	59.305088
3943.000000	59.355688
3942.000000	59.400708
3941.000000	59.436882
3940.000000	59.470426
3939.000000	59.514509
3938.000000	59.573951
3937.000000	59.638070
3936.000000	59.692777
3935.000000	59.735190
3934.000000	59.775355
3933.000000	59.819758
3932.000000	59.864018
3931.000000	59.900371
3930.000000	59.926214
3929.000000	59.948485
3928.000000	59.974057
3927.000000	60.005643
3926.000000	60.042418
3925.000000	60.076101
3924.000000	60.095396
3923.000000	60.096677
3922.000000	60.087850
3921.000000	60.081966
3920.000000	60.085106
3919.000000	60.095144
3918.000000	60.110161
3917.000000	60.131135
3916.000000	60.157354
3915.000000	60.182596
3914.000000	60.206609
3913.000000	60.237825
3912.000000	60.281256
3911.000000	60.334024
3910.000000	60.386022
3909.000000	60.429533
3908.000000	60.464243
3907.000000	60.487507
3906.000000	60.494471
3905.000000	60.480712
3904.000000	60.449184
3903.000000	60.413554
3902.000000	60.389013
3901.000000	60.391319
3900.000000	60.431388
3899.000000	60.500486
3898.000000	60.579151
3897.000000	60.656063
3896.000000	60.732456
3895.000000	60.814964
3894.000000	60.901369
3893.000000	60.984246
3892.000000	61.059159
3891.000000	61.122991
3890.000000	61.162367
3889.000000	61.165525
3888.000000	61.157838
3887.000000	61.191242
3886.000000	61.282585
3885.000000	61.386208
3884.000000	61.442952
3883.000000	61.446529
3882.000000	61.440833
3881.000000	61.463808
3880.000000	61.512081
3879.000000	61.553938
3878.000000	61.567953
3877.000000	61.568069
3876.000000	61.588790
3875.000000	61.642355
3874.000000	61.694661
3873.000000	61.699192
3872.000000	61.659167
3871.000000	61.630795
3870.000000	61.655697
3869.000000	61.711011
3868.000000	61.741035
3867.000000	61.737989
3866.000000	61.752866
3865.000000	61.811351
3864.000000	61.880468
3863.000000	61.924312
3862.000000	61.947296
3861.000000	61.982244
3860.000000	62.048722
3859.000000	62.140154
3858.000000	62.243365
3857.000000	62.344429
3856.000000	62.426562
3855.000000	62.457529
3854.000000	62.423404
3853.000000	62.371292
3852.000000	62.341618
3851.000000	62.322184
3850.000000	62.314009
3849.000000	62.344279
3848.000000	62.414271
3847.000000	62.502605
3846.000000	62.589676
3845.000000	62.665981
3844.000000	62.730506
3843.000000	62.779086
3842.000000	62.803194
3841.000000	62.811255
3840.000000	62.818479
3839.000000	62.832356
3838.000000	62.857282
3837.000000	62.888491
3836.000000	62.913903
3835.000000	62.926492
3834.000000	62.938437
3833.000000	62.974071
3832.000000	63.040362
3831.000000	63.119330
3830.000000	63.190481
3829.000000	63.247191
3828.000000	63.300770
3827.000000	63.367675
3826.000000	63.437734
3825.000000	63.480583
3824.000000	63.485394
3823.000000	63.483839
3822.000000	63.518812
3821.000000	63.586937
3820.000000	63.635582
3819.000000	63.628307
3818.000000	63.599652
3817.000000	63.620561
3816.000000	63.711373
3815.000000	63.816534
3814.000000	63.880654
3813.000000	63.909019
3812.000000	63.939435
3811.000000	63.990252
3810.000000	64.047276
3809.000000	64.093210
3808.000000	64.138816
3807.000000	64.200319
3806.000000	64.257311
3805.000000	64.274677
3804.000000	64.254297
3803.000000	64.254559
3802.000000	64.314538
3801.000000	64.398367
3800.000000	64.441325
3799.000000	64.426305
3798.000000	64.401343
3797.000000	64.419114
3796.000000	64.482573
3795.000000	64.556169
3794.000000	64.618017
3793.000000	64.675499
3792.000000	64.740146
3791.000000	64.811614
3790.000000	64.880689
3789.000000	64.938580
3788.000000	64.983078
3787.000000	65.017048
3786.000000	65.046800
3785.000000	65.076792
3784.000000	65.102448
3783.000000	65.116294
3782.000000	65.121822
3781.000000	65.132834
3780.000000	65.157721
3779.000000	65.192023
3778.000000	65.224583
3777.000000	65.251768
3776.000000	65.283025
3775.000000	65.329174
3774.000000	65.384049
3773.000000	65.427266
3772.000000	65.453416
3771.000000	65.481630
3770.000000	65.524013
3769.000000	65.565542
3768.000000	65.588405
3767.000000	65.605447
3766.000000	65.651709
3765.000000	65.731909
3764.000000	65.810998
3763.000000	65.862272
3762.000000	65.900099
3761.000000	65.953615
3760.000000	66.018661
3759.000000	66.075562
3758.000000	66.123359
3757.000000	66.168749
3756.000000	66.210204
3755.000000	66.243865
3754.000000	66.279571
3753.000000	66.324547
3752.000000	66.359767
3751.000000	66.376594
3750.000000	66.404558
3749.000000	66.455242
3748.000000	66.487763
3747.000000	66.482361
3746.000000	66.487138
3745.000000	66.561721
3744.000000	66.697304
3743.000000	66.818365
3742.000000	66.869915
3741.000000	66.882512
3740.000000	66.911704
3739.000000	66.971119
3738.000000	67.047095
3737.000000	67.129953
3736.000000	67.213541
3735.000000	67.266015
3734.000000	67.273373
3733.000000	67.281668
3732.000000	67.338769
3731.000000	67.432042
3730.000000	67.509531
3729.000000	67.553780
3728.000000	67.599397
3727.000000	67.672083
3726.000000	67.751047
3725.000000	67.801621
3724.000000	67.824557
3723.000000	67.844482
3722.000000	67.874721
3721.000000	67.916945
3720.000000	67.965439
3719.000000	68.024094
3718.000000	68.101396
3717.000000	68.189125
3716.000000	68.264977
3715.000000	68.313332
3714.000000	68.343287
3713.000000	68.373770
3712.000000	68.409105
3711.000000	68.443273
3710.000000	68.482373
3709.000000	68.543694
3708.000000	68.637113
3707.000000	68.750140
3706.000000	68.862286
3705.000000	68.961044
3704.000000	69.046063
3703.000000	69.121199
3702.000000	69.188408
3701.000000	69.250132
3700.000000	69.301894
3699.000000	69.341739
3698.000000	69.385714
3697.000000	69.451320
3696.000000	69.527393
3695.000000	69.587389
3694.000000	69.622759
3693.000000	69.650527
3692.000000	69.680194
3691.000000	69.696814
3690.000000	69.691944
3689.000000	69.694758
3688.000000	69.739170
3687.000000	69.803650
3686.000000	69.851414
3685.000000	69.887461
3684.000000	69.935465
3683.000000	69.999065
3682.000000	70.066421
3681.000000	70.129372
3680.000000	70.183735
3679.000000	70.205634
3678.000000	70.181054
3677.000000	70.146064
3676.000000	70.152582
3675.000000	70.205815
3674.000000	70.243368
3673.000000	70.219702
3672.000000	70.181288
3671.000000	70.207904
3670.000000	70.302058
3669.000000	70.401292
3668.000000	70.470617
3667.000000	70.520761
3666.000000	70.573700
3665.000000	70.641843
3664.000000	70.718563
3663.000000	70.793582
3662.000000	70.860002
3661.000000	70.907617
3660.000000	70.929640
3659.000000	70.926542
3658.000000	70.915295
3657.000000	70.922438
3656.000000	70.957351
3655.000000	70.994487
3654.000000	70.991784
3653.000000	70.945926
3652.000000	70.901615
3651.000000	70.889125
3650.000000	70.885171
3649.000000	70.866458
3648.000000	70.864182
3647.000000	70.910411
3646.000000	70.988211
3645.000000	71.069038
3644.000000	71.150064
3643.000000	71.243580
3642.000000	71.342748
3641.000000	71.423419
3640.000000	71.476416
3639.000000	71.513231
3638.000000	71.542489
3637.000000	71.557618
3636.000000	71.559645
3635.000000	71.565724
3634.000000	71.578268
3633.000000	71.568212
3632.000000	71.505053
3631.000000	71.402806
3630.000000	71.310851
3629.000000	71.263158
3628.000000	71.249874
3627.000000	71.239513
3626.000000	71.213613
3625.000000	71.185784
3624.000000	71.171170
3623.000000	71.156663
3622.000000	71.118263
3621.000000	71.046912
3620.000000	70.943649
3619.000000	70.811719
3618.000000	70.660362
3617.000000	70.499392
3616.000000	70.339453
3615.000000	70.193309
3614.000000	70.061324
3613.000000	69.926584
3612.000000	69.771639
3611.000000	69.597354
3610.000000	69.429021
3609.000000	69.294495
3608.000000	69.190264
3607.000000	69.088429
3606.000000	68.970209
3605.000000	68.838213
3604.000000	68.704805
3603.000000	68.573467
3602.000000	68.440417
3601.000000	68.307405
3600.000000	68.174749
3599.000000	68.036844
3598.000000	67.891659
3597.000000	67.744441
3596.000000	67.603128
3595.000000	67.468361
3594.000000	67.331650
3593.000000	67.185896
3592.000000	67.026423
3591.000000	66.855241
3590.000000	66.692521
3589.000000	66.568905
3588.000000	66.494787
3587.000000	66.449380
3586.000000	66.406758
3585.000000	66.358362
3584.000000	66.307484
3583.000000	66.256151
3582.000000	66.200447
3581.000000	66.135750
3580.000000	66.058945
3579.000000	65.968108
3578.000000	65.864320
3577.000000	65.753923
3576.000000	65.642468
3575.000000	65.531829
3574.000000	65.419146
3573.000000	65.299452
3572.000000	65.164633
3571.000000	65.004202
3570.000000	64.818307
3569.000000	64.626899
3568.000000	64.451253
3567.000000	64.290786
3566.000000	64.130140
3565.000000	63.960835
3564.000000	63.786956
3563.000000	63.616890
3562.000000	63.451891
3561.000000	63.284553
3560.000000	63.105579
3559.000000	62.909791
3558.000000	62.698302
3557.000000	62.476417
3556.000000	62.247608
3555.000000	62.010836
3554.000000	61.764276
3553.000000	61.508430
3552.000000	61.243602
3551.000000	60.964810
3550.000000	60.665919
3549.000000	60.351573
3548.000000	60.034931
3547.000000	59.723269
3546.000000	59.410662
3545.000000	59.088520
3544.000000	58.755218
3543.000000	58.413358
3542.000000	58.063285
3541.000000	57.703484
3540.000000	57.331485
3539.000000	56.942640
3538.000000	56.532912
3537.000000	56.102867
3536.000000	55.656938
3535.000000	55.196533
3534.000000	54.719542
3533.000000	54.225924
3532.000000	53.717396
3531.000000	53.191442
3530.000000	52.640534
3529.000000	52.061612
3528.000000	51.459555
3527.000000	50.839330
3526.000000	50.201081
3525.000000	49.545801
3524.000000	48.878060
3523.000000	48.199602
3522.000000	47.506080
3521.000000	46.793572
3520.000000	46.063471
3519.000000	45.317434
3518.000000	44.553307
3517.000000	43.769357
3516.000000	42.969027
3515.000000	42.157675
3514.000000	41.337679
3513.000000	40.509038
3512.000000	39.671065
3511.000000	38.821687
3510.000000	37.959526
3509.000000	37.089053
3508.000000	36.218121
3507.000000	35.349183
3506.000000	34.478040
3505.000000	33.602048
3504.000000	32.724216
3503.000000	31.848956
3502.000000	30.979113
3501.000000	30.118372
3500.000000	29.270702
3499.000000	28.435482
3498.000000	27.608776
3497.000000	26.790221
3496.000000	25.984390
3495.000000	25.194822
3494.000000	24.422154
3493.000000	23.668978
3492.000000	22.939503
3491.000000	22.233289
3490.000000	21.546176
3489.000000	20.878731
3488.000000	20.237965
3487.000000	19.629307
3486.000000	19.052636
3485.000000	18.506562
3484.000000	17.988971
3483.000000	17.493375
3482.000000	17.012569
3481.000000	16.547580
3480.000000	16.106570
3479.000000	15.692882
3478.000000	15.300947
3477.000000	14.924112
3476.000000	14.558926
3475.000000	14.201793
3474.000000	13.848564
3473.000000	13.499532
3472.000000	13.159722
3471.000000	12.833853
3470.000000	12.527617
3469.000000	12.252498
3468.000000	12.021605
3467.000000	11.839442
3466.000000	11.701204
3465.000000	11.602340
3464.000000	11.541896
3463.000000	11.518021
3462.000000	11.528820
3461.000000	11.577333
3460.000000	11.669143
3459.000000	11.803424
3458.000000	11.971656
3457.000000	12.164952
3456.000000	12.375750
3455.000000	12.593686
3454.000000	12.807106
3453.000000	13.008094
3452.000000	13.190591
3451.000000	13.344759
3450.000000	13.458818
3449.000000	13.526529
3448.000000	13.546639
3447.000000	13.515965
3446.000000	13.431603
3445.000000	13.297997
3444.000000	13.125691
3443.000000	12.923451
3442.000000	12.695960
3441.000000	12.450034
3440.000000	12.196142
3439.000000	11.944118
3438.000000	11.703512
3437.000000	11.487077
3436.000000	11.307682
3435.000000	11.170769
3434.000000	11.074024
3433.000000	11.013875
3432.000000	10.989628
3431.000000	11.002094
3430.000000	11.054496
3429.000000	11.154442
3428.000000	11.308244
3427.000000	11.516103
3426.000000	11.774826
3425.000000	12.084170
3424.000000	12.447174
3423.000000	12.864039
3422.000000	13.333351
3421.000000	13.855008
3420.000000	14.427294
3419.000000	15.044010
3418.000000	15.696897
3417.000000	16.381322
3416.000000	17.093795
3415.000000	17.826948
3414.000000	18.573087
3413.000000	19.328942
3412.000000	20.092943
3411.000000	20.859610
3410.000000	21.621481
3409.000000	22.374871
3408.000000	23.118083
3407.000000	23.845550
3406.000000	24.549393
3405.000000	25.225652
3404.000000	25.875086
3403.000000	26.500267
3402.000000	27.106117
3401.000000	27.701088
3400.000000	28.291854
3399.000000	28.876112
3398.000000	29.444831
3397.000000	29.990843
3396.000000	30.512099
3395.000000	31.010070
3394.000000	31.489491
3393.000000	31.958955
3392.000000	32.426350
3391.000000	32.892881
3390.000000	33.355255
3389.000000	33.811354
3388.000000	34.260845
3387.000000	34.702450
3386.000000	35.135025
3385.000000	35.560498
3384.000000	35.981576
3383.000000	36.398169
3382.000000	36.809689
3381.000000	37.218988
3380.000000	37.630037
3379.000000	38.043169
3378.000000	38.456277
3377.000000	38.869136
3376.000000	39.282213
3375.000000	39.692815
3374.000000	40.096759
3373.000000	40.493351
3372.000000	40.885504
3371.000000	41.276006
3370.000000	41.667071
3369.000000	42.061685
3368.000000	42.461419
3367.000000	42.863582
3366.000000	43.263693
3365.000000	43.659721
3364.000000	44.051459
3363.000000	44.437923
3362.000000	44.818853
3361.000000	45.197017
3360.000000	45.575554
3359.000000	45.954072
3358.000000	46.330266
3357.000000	46.703648
3356.000000	47.074142
3355.000000	47.439321
3354.000000	47.796892
3353.000000	48.148840
3352.000000	48.499638
3351.000000	48.851057
3350.000000	49.201503
3349.000000	49.549192
3348.000000	49.892771
3347.000000	50.230024
3346.000000	50.559569
3345.000000	50.883167
3344.000000	51.203384
3343.000000	51.519508
3342.000000	51.828630
3341.000000	52.129819
3340.000000	52.424727
3339.000000	52.714981
3338.000000	53.001123
3337.000000	53.283342
3336.000000	53.560137
3335.000000	53.827279
3334.000000	54.080801
3333.000000	54.319803
3332.000000	54.544752
3331.000000	54.753726
3330.000000	54.942970
3329.000000	55.110555
3328.000000	55.255938
3327.000000	55.377577
3326.000000	55.472622
3325.000000	55.538068
3324.000000	55.570666
3323.000000	55.565145
3322.000000	55.516373
3321.000000	55.421665
3320.000000	55.277895
3319.000000	55.079679
3318.000000	54.819397
3317.000000	54.491169
3316.000000	54.089654
3315.000000	53.605722
3314.000000	53.028786
3313.000000	52.348896
3312.000000	51.557205
3311.000000	50.645704
3310.000000	49.606723
3309.000000	48.438985
3308.000000	47.143700
3307.000000	45.720438
3306.000000	44.169783
3305.000000	42.493391
3304.000000	40.696268
3303.000000	38.781439
3302.000000	36.753186
3301.000000	34.624361
3300.000000	32.415202
3299.000000	30.152896
3298.000000	27.874582
3297.000000	25.629726
3296.000000	23.472180
3295.000000	21.448899
3294.000000	19.596394
3293.000000	17.943657
3292.000000	16.508011
3291.000000	15.283151
3290.000000	14.245799
3289.000000	13.363555
3288.000000	12.601314
3287.000000	11.925355
3286.000000	11.306653
3285.000000	10.730425
3284.000000	10.190679
3283.000000	9.684220
3282.000000	9.213718
3281.000000	8.789728
3280.000000	8.427228
3279.000000	8.137548
3278.000000	7.929392
3277.000000	7.813902
3276.000000	7.798953
3275.000000	7.883694
3274.000000	8.060056
3273.000000	8.315955
3272.000000	8.633687
3271.000000	8.984711
3270.000000	9.334355
3269.000000	9.649029
3268.000000	9.896881
3267.000000	10.048566
3266.000000	10.086032
3265.000000	10.009281
3264.000000	9.832624
3263.000000	9.578429
3262.000000	9.274445
3261.000000	8.954672
3260.000000	8.651949
3259.000000	8.390621
3258.000000	8.189121
3257.000000	8.063852
3256.000000	8.024598
3255.000000	8.070049
3254.000000	8.192320
3253.000000	8.381277
3252.000000	8.623989
3251.000000	8.901150
3250.000000	9.192413
3249.000000	9.483099
3248.000000	9.761074
3247.000000	10.013461
3246.000000	10.229520
3245.000000	10.404306
3244.000000	10.535543
3243.000000	10.621502
3242.000000	10.664422
3241.000000	10.673209
3240.000000	10.657757
3239.000000	10.622606
3238.000000	10.571306
3237.000000	10.510166
3236.000000	10.445133
3235.000000	10.378971
3234.000000	10.314697
3233.000000	10.257660
3232.000000	10.208254
3231.000000	10.157373
3230.000000	10.094208
3229.000000	10.014440
3228.000000	9.917405
3227.000000	9.800075
3226.000000	9.659660
3225.000000	9.498461
3224.000000	9.320017
3223.000000	9.124748
3222.000000	8.913646
3221.000000	8.693047
3220.000000	8.471031
3219.000000	8.251611
3218.000000	8.036973
3217.000000	7.831041
3216.000000	7.636166
3215.000000	7.449734
3214.000000	7.268406
3213.000000	7.092142
3212.000000	6.920490
3211.000000	6.749413
3210.000000	6.576147
3209.000000	6.403759
3208.000000	6.236581
3207.000000	6.075433
3206.000000	5.921344
3205.000000	5.778950
3204.000000	5.652295
3203.000000	5.541058
3202.000000	5.445099
3201.000000	5.368592
3200.000000	5.314709
3199.000000	5.281598
3198.000000	5.267083
3197.000000	5.273100
3196.000000	5.301915
3195.000000	5.351293
3194.000000	5.418904
3193.000000	5.505756
3192.000000	5.611463
3191.000000	5.731740
3190.000000	5.863338
3189.000000	6.007976
3188.000000	6.166832
3187.000000	6.335804
3186.000000	6.510986
3185.000000	6.693170
3184.000000	6.883456
3183.000000	7.078920
3182.000000	7.276849
3181.000000	7.479033
3180.000000	7.686969
3179.000000	7.897583
3178.000000	8.107566
3177.000000	8.317598
3176.000000	8.528527
3175.000000	8.737611
3174.000000	8.942537
3173.000000	9.144746
3172.000000	9.345175
3171.000000	9.540935
3170.000000	9.729938
3169.000000	9.914279
3168.000000	10.095312
3167.000000	10.270164
3166.000000	10.436389
3165.000000	10.595799
3164.000000	10.749815
3163.000000	10.895331
3162.000000	11.029376
3161.000000	11.152989
3160.000000	11.267357
3159.000000	11.370352
3158.000000	11.460153
3157.000000	11.538841
3156.000000	11.608699
3155.000000	11.669907
3154.000000	11.725186
3153.000000	11.781639
3152.000000	11.844472
3151.000000	11.912688
3150.000000	11.984340
3149.000000	12.061374
3148.000000	12.145886
3147.000000	12.236362
3146.000000	12.331485
3145.000000	12.433095
3144.000000	12.541653
3143.000000	12.653358
3142.000000	12.765013
3141.000000	12.877668
3140.000000	12.991967
3139.000000	13.104338
3138.000000	13.211173
3137.000000	13.312343
3136.000000	13.407198
3135.000000	13.491191
3134.000000	13.559884
3133.000000	13.611171
3132.000000	13.641106
3131.000000	13.641970
3130.000000	13.607500
3129.000000	13.536896
3128.000000	13.429744
3127.000000	13.283826
3126.000000	13.101085
3125.000000	12.890647
3124.000000	12.663572
3123.000000	12.427586
3122.000000	12.190714
3121.000000	11.963634
3120.000000	11.753658
3119.000000	11.560819
3118.000000	11.383122
3117.000000	11.221191
3116.000000	11.074305
3115.000000	10.937559
3114.000000	10.806615
3113.000000	10.681191
3112.000000	10.560508
3111.000000	10.440669
3110.000000	10.320663
3109.000000	10.205533
3108.000000	10.100266
3107.000000	10.005314
3106.000000	9.921179
3105.000000	9.852837
3104.000000	9.805012
3103.000000	9.778627
3102.000000	9.775706
3101.000000	9.801906
3100.000000	9.861837
3099.000000	9.955065
3098.000000	10.080940
3097.000000	10.242281
3096.000000	10.439540
3095.000000	10.668375
3094.000000	10.924984
3093.000000	11.209841
3092.000000	11.523139
3091.000000	11.860325
3090.000000	12.216911
3089.000000	12.591214
3088.000000	12.979788
3087.000000	13.375777
3086.000000	13.774513
3085.000000	14.176903
3084.000000	14.583336
3083.000000	14.989463
3082.000000	15.391342
3081.000000	15.789485
3080.000000	16.184873
3079.000000	16.575442
3078.000000	16.959833
3077.000000	17.339571
3076.000000	17.714550
3075.000000	18.080663
3074.000000	18.435030
3073.000000	18.779361
3072.000000	19.115089
3071.000000	19.440302
3070.000000	19.754078
3069.000000	20.059472
3068.000000	20.359297
3067.000000	20.652606
3066.000000	20.938428
3065.000000	21.218383
3064.000000	21.492988
3063.000000	21.760010
3062.000000	22.018694
3061.000000	22.271823
3060.000000	22.520950
3059.000000	22.764033
3058.000000	23.000435
3057.000000	23.233250
3056.000000	23.464289
3055.000000	23.691096
3054.000000	23.911869
3053.000000	24.129289
3052.000000	24.346271
3051.000000	24.562253
3050.000000	24.776188
3049.000000	24.989024
3048.000000	25.200579
3047.000000	25.407930
3046.000000	25.609920
3045.000000	25.809457
3044.000000	26.008802
3043.000000	26.206784
3042.000000	26.402888
3041.000000	26.599709
3040.000000	26.798382
3039.000000	26.995616
3038.000000	27.188501
3037.000000	27.378387
3036.000000	27.567548
3035.000000	27.755904
3034.000000	27.943651
3033.000000	28.133087
3032.000000	28.324778
3031.000000	28.515746
3030.000000	28.704249
3029.000000	28.892540
3028.000000	29.082349
3027.000000	29.271551
3026.000000	29.457929
3025.000000	29.642352
3024.000000	29.825175
3023.000000	30.003178
3022.000000	30.172789
3021.000000	30.332560
3020.000000	30.480009
3019.000000	30.608590
3018.000000	30.711039
3017.000000	30.782945
3016.000000	30.821820
3015.000000	30.827863
3014.000000	30.808826
3013.000000	30.782350
3012.000000	30.770190
3011.000000	30.791895
3010.000000	30.862922
3009.000000	30.991962
3008.000000	31.175202
3007.000000	31.395450
3006.000000	31.629582
3005.000000	31.854936
3004.000000	32.048226
3003.000000	32.183054
3002.000000	32.232809
3001.000000	32.174400
3000.000000	31.993026
2999.000000	31.692237
2998.000000	31.308161
2997.000000	30.912211
2996.000000	30.593191
2995.000000	30.430001
2994.000000	30.467724
2993.000000	30.705656
2992.000000	31.097532
2991.000000	31.571861
2990.000000	32.061408
2989.000000	32.522042
2988.000000	32.932644
2987.000000	33.286440
2986.000000	33.586478
2985.000000	33.840385
2984.000000	34.053582
2983.000000	34.226046
2982.000000	34.357401
2981.000000	34.449522
2980.000000	34.502267
2979.000000	34.510073
2978.000000	34.465957
2977.000000	34.368694
2976.000000	34.224514
2975.000000	34.048406
2974.000000	33.865533
2973.000000	33.706732
2972.000000	33.596894
2971.000000	33.544638
2970.000000	33.540258
2969.000000	33.555622
2968.000000	33.544343
2967.000000	33.452702
2966.000000	33.243638
2965.000000	32.916521
2964.000000	32.507005
2963.000000	32.071109
2962.000000	31.668001
2961.000000	31.345361
2960.000000	31.131064
2959.000000	31.034330
2958.000000	31.055889
2957.000000	31.191613
2956.000000	31.426840
2955.000000	31.734327
2954.000000	32.080999
2953.000000	32.434339
2952.000000	32.760030
2951.000000	33.024430
2950.000000	33.205856
2949.000000	33.305204
2948.000000	33.342433
2947.000000	33.341067
2946.000000	33.309015
2945.000000	33.218943
2944.000000	33.005353
2943.000000	32.596242
2942.000000	31.975881
2941.000000	31.232219
2940.000000	30.546816
2939.000000	30.125109
2938.000000	30.106146
2937.000000	30.506313
2936.000000	31.222673
2935.000000	32.093654
2934.000000	32.972610
2933.000000	33.769961
2932.000000	34.451460
2931.000000	35.018802
2930.000000	35.493476
2929.000000	35.902366
2928.000000	36.266696
2927.000000	36.597588
2926.000000	36.902187
2925.000000	37.187257
2924.000000	37.456000
2923.000000	37.706746
2922.000000	37.938323
2921.000000	38.152588
2920.000000	38.349663
2919.000000	38.526359
2918.000000	38.681079
2917.000000	38.816445
2916.000000	38.935068
2915.000000	39.037014
2914.000000	39.123624
2913.000000	39.199091
2912.000000	39.265817
2911.000000	39.321850
2910.000000	39.364442
2909.000000	39.392024
2908.000000	39.400412
2907.000000	39.379852
2906.000000	39.318168
2905.000000	39.202536
2904.000000	39.017317
2903.000000	38.745368
2902.000000	38.378273
2901.000000	37.923697
2900.000000	37.406598
2899.000000	36.869179
2898.000000	36.368475
2897.000000	35.967484
2896.000000	35.715485
2895.000000	35.633089
2894.000000	35.712801
2893.000000	35.926608
2892.000000	36.234209
2891.000000	36.592076
2890.000000	36.965148
2889.000000	37.331221
2888.000000	37.676720
2887.000000	37.992436
2886.000000	38.274117
2885.000000	38.522855
2884.000000	38.740102
2883.000000	38.925889
2882.000000	39.082640
2881.000000	39.217240
2880.000000	39.337193
2879.000000	39.447499
2878.000000	39.552455
2877.000000	39.656448
2876.000000	39.760652
2875.000000	39.861749
2874.000000	39.956388
2873.000000	40.044384
2872.000000	40.127170
2871.000000	40.207460
2870.000000	40.292004
2869.000000	40.390589
2868.000000	40.509165
2867.000000	40.646047
2866.000000	40.795832
2865.000000	40.953181
2864.000000	41.111496
2863.000000	41.262844
2862.000000	41.402434
2861.000000	41.530652
2860.000000	41.649252
2859.000000	41.758761
2858.000000	41.861229
2857.000000	41.961626
2856.000000	42.063984
2855.000000	42.169030
2854.000000	42.276921
2853.000000	42.388377
2852.000000	42.501057
2851.000000	42.608396
2850.000000	42.704542
2849.000000	42.788185
2848.000000	42.860714
2847.000000	42.924307
2846.000000	42.983407
2845.000000	43.044247
2844.000000	43.110552
2843.000000	43.181947
2842.000000	43.257727
2841.000000	43.339324
2840.000000	43.427771
2839.000000	43.522015
2838.000000	43.621198
2837.000000	43.725649
2836.000000	43.834417
2835.000000	43.944930
2834.000000	44.056326
2833.000000	44.170219
2832.000000	44.287043
2831.000000	44.404693
2830.000000	44.521955
2829.000000	44.639868
2828.000000	44.758226
2827.000000	44.874006
2826.000000	44.984893
2825.000000	45.091496
2824.000000	45.194757
2823.000000	45.294087
2822.000000	45.389645
2821.000000	45.483461
2820.000000	45.576464
2819.000000	45.666967
2818.000000	45.753432
2817.000000	45.836271
2816.000000	45.915716
2815.000000	45.990577
2814.000000	46.060510
2813.000000	46.126988
2812.000000	46.190915
2811.000000	46.251853
2810.000000	46.310473
2809.000000	46.368907
2808.000000	46.427561
2807.000000	46.484471
2806.000000	46.538993
2805.000000	46.593202
2804.000000	46.648381
2803.000000	46.703054
2802.000000	46.755868
2801.000000	46.807666
2800.000000	46.859472
2799.000000	46.911059
2798.000000	46.962608
2797.000000	47.014975
2796.000000	47.067193
2795.000000	47.116546
2794.000000	47.162283
2793.000000	47.206516
2792.000000	47.250498
2791.000000	47.293032
2790.000000	47.333580
2789.000000	47.373667
2788.000000	47.413733
2787.000000	47.451659
2786.000000	47.486006
2785.000000	47.518168
2784.000000	47.550208
2783.000000	47.583653
2782.000000	47.621608
2781.000000	47.668577
2780.000000	47.726195
2779.000000	47.791558
2778.000000	47.861066
2777.000000	47.933409
2776.000000	48.007654
2775.000000	48.081571
2774.000000	48.153672
2773.000000	48.224293
2772.000000	48.293181
2771.000000	48.358559
2770.000000	48.419869
2769.000000	48.478960
2768.000000	48.537227
2767.000000	48.593907
2766.000000	48.648257
2765.000000	48.700670
2764.000000	48.750442
2763.000000	48.795307
2762.000000	48.834489
2761.000000	48.869796
2760.000000	48.902632
2759.000000	48.932544
2758.000000	48.959787
2757.000000	48.986160
2756.000000	49.011825
2755.000000	49.034262
2754.000000	49.052047
2753.000000	49.067531
2752.000000	49.084540
2751.000000	49.105906
2750.000000	49.134217
2749.000000	49.171607
2748.000000	49.216469
2747.000000	49.262619
2746.000000	49.303677
2745.000000	49.337037
2744.000000	49.363309
2743.000000	49.384633
2742.000000	49.404389
2741.000000	49.425445
2740.000000	49.446720
2739.000000	49.463546
2738.000000	49.473140
2737.000000	49.478687
2736.000000	49.487839
2735.000000	49.509623
2734.000000	49.552546
2733.000000	49.620883
2732.000000	49.710531
2731.000000	49.810641
2730.000000	49.910913
2729.000000	50.006329
2728.000000	50.095078
2727.000000	50.175754
2726.000000	50.248293
2725.000000	50.314468
2724.000000	50.375242
2723.000000	50.429505
2722.000000	50.476179
2721.000000	50.515186
2720.000000	50.545912
2719.000000	50.567215
2718.000000	50.580487
2717.000000	50.590593
2716.000000	50.602449
2715.000000	50.618877
2714.000000	50.642039
2713.000000	50.673804
2712.000000	50.713477
2711.000000	50.757790
2710.000000	50.804354
2709.000000	50.852940
2708.000000	50.902660
2707.000000	50.950657
2706.000000	50.994753
2705.000000	51.034702
2704.000000	51.069609
2703.000000	51.096836
2702.000000	51.114746
2701.000000	51.123856
2700.000000	51.124512
2699.000000	51.115849
2698.000000	51.098366
2697.000000	51.075493
2696.000000	51.051127
2695.000000	51.027874
2694.000000	51.008144
2693.000000	50.993928
2692.000000	50.984420
2691.000000	50.976437
2690.000000	50.968467
2689.000000	50.962213
2688.000000	50.959544
2687.000000	50.960531
2686.000000	50.965349
2685.000000	50.975032
2684.000000	50.989256
2683.000000	51.006453
2682.000000	51.027135
2681.000000	51.054627
2680.000000	51.091074
2679.000000	51.134972
2678.000000	51.183509
2677.000000	51.234144
2676.000000	51.282990
2675.000000	51.324857
2674.000000	51.356713
2673.000000	51.379181
2672.000000	51.393891
2671.000000	51.401916
2670.000000	51.405806
2669.000000	51.410482
2668.000000	51.420558
2667.000000	51.438827
2666.000000	51.467814
2665.000000	51.509534
2664.000000	51.562188
2663.000000	51.619703
2662.000000	51.675703
2661.000000	51.725847
2660.000000	51.766105
2659.000000	51.792223
2658.000000	51.802683
2657.000000	51.800323
2656.000000	51.789926
2655.000000	51.776363
2654.000000	51.765761
2653.000000	51.765155
2652.000000	51.779186
2651.000000	51.808846
2650.000000	51.853690
2649.000000	51.912285
2648.000000	51.980049
2647.000000	52.049628
2646.000000	52.114981
2645.000000	52.173639
2644.000000	52.224804
2643.000000	52.268829
2642.000000	52.309391
2641.000000	52.352683
2640.000000	52.402595
2639.000000	52.458409
2638.000000	52.517620
2637.000000	52.578091
2636.000000	52.636832
2635.000000	52.689960
2634.000000	52.735678
2633.000000	52.774949
2632.000000	52.808305
2631.000000	52.834748
2630.000000	52.854496
2629.000000	52.870177
2628.000000	52.883713
2627.000000	52.894427
2626.000000	52.901691
2625.000000	52.906632
2624.000000	52.910395
2623.000000	52.913037
2622.000000	52.915170
2621.000000	52.918410
2620.000000	52.922733
2619.000000	52.925682
2618.000000	52.924845
2617.000000	52.918759
2616.000000	52.905128
2615.000000	52.880926
2614.000000	52.845781
2613.000000	52.802887
2612.000000	52.755669
2611.000000	52.706357
2610.000000	52.658395
2609.000000	52.617221
2608.000000	52.587312
2607.000000	52.570825
2606.000000	52.569412
2605.000000	52.584718
2604.000000	52.615680
2603.000000	52.657976
2602.000000	52.707826
2601.000000	52.763136
2600.000000	52.820982
2599.000000	52.877134
2598.000000	52.929059
2597.000000	52.977185
2596.000000	53.022050
2595.000000	53.063316
2594.000000	53.102416
2593.000000	53.142813
2592.000000	53.186017
2591.000000	53.229933
2590.000000	53.272083
2589.000000	53.311628
2588.000000	53.347328
2587.000000	53.376536
2586.000000	53.398138
2585.000000	53.414189
2584.000000	53.427624
2583.000000	53.441024
2582.000000	53.458623
2581.000000	53.486330
2580.000000	53.527981
2579.000000	53.583491
2578.000000	53.651130
2577.000000	53.729274
2576.000000	53.814707
2575.000000	53.902380
2574.000000	53.988781
2573.000000	54.073151
2572.000000	54.155002
2571.000000	54.232810
2570.000000	54.306024
2569.000000	54.375731
2568.000000	54.442144
2567.000000	54.503794
2566.000000	54.560331
2565.000000	54.613779
2564.000000	54.665719
2563.000000	54.715850
2562.000000	54.764065
2561.000000	54.811533
2560.000000	54.858716
2559.000000	54.904450
2558.000000	54.948182
2557.000000	54.990783
2556.000000	55.032463
2555.000000	55.072402
2554.000000	55.111316
2553.000000	55.151990
2552.000000	55.196345
2551.000000	55.244229
2550.000000	55.295588
2549.000000	55.351017
2548.000000	55.409090
2547.000000	55.465812
2546.000000	55.517907
2545.000000	55.564600
2544.000000	55.605516
2543.000000	55.639778
2542.000000	55.668068
2541.000000	55.692642
2540.000000	55.714231
2539.000000	55.730693
2538.000000	55.739947
2537.000000	55.741580
2536.000000	55.734399
2535.000000	55.715977
2534.000000	55.685647
2533.000000	55.646140
2532.000000	55.601040
2531.000000	55.552499
2530.000000	55.502886
2529.000000	55.455505
2528.000000	55.412264
2527.000000	55.372718
2526.000000	55.336374
2525.000000	55.303827
2524.000000	55.274522
2523.000000	55.245849
2522.000000	55.215607
2521.000000	55.183018
2520.000000	55.146489
2519.000000	55.102885
2518.000000	55.050329
2517.000000	54.989570
2516.000000	54.921455
2515.000000	54.846060
2514.000000	54.765402
2513.000000	54.684640
2512.000000	54.609328
2511.000000	54.543602
2510.000000	54.491485
2509.000000	54.457009
2508.000000	54.441713
2507.000000	54.443711
2506.000000	54.461001
2505.000000	54.492385
2504.000000	54.534907
2503.000000	54.583940
2502.000000	54.636291
2501.000000	54.691479
2500.000000	54.748362
2499.000000	54.803258
2498.000000	54.852855
2497.000000	54.896057
2496.000000	54.932062
2495.000000	54.959392
2494.000000	54.978011
2493.000000	54.989944
2492.000000	54.997148
2491.000000	55.000890
2490.000000	55.003969
2489.000000	55.010640
2488.000000	55.022862
2487.000000	55.039229
2486.000000	55.058185
2485.000000	55.079551
2484.000000	55.102146
2483.000000	55.123276
2482.000000	55.142042
2481.000000	55.160643
2480.000000	55.181235
2479.000000	55.203878
2478.000000	55.228696
2477.000000	55.257069
2476.000000	55.289711
2475.000000	55.326289
2474.000000	55.367838
2473.000000	55.417245
2472.000000	55.475897
2471.000000	55.542462
2470.000000	55.615660
2469.000000	55.694850
2468.000000	55.777186
2467.000000	55.857045
2466.000000	55.929959
2465.000000	55.994877
2464.000000	56.051877
2463.000000	56.100660
2462.000000	56.142625
2461.000000	56.181476
2460.000000	56.219727
2459.000000	56.256893
2458.000000	56.291548
2457.000000	56.322777
2456.000000	56.348771
2455.000000	56.366800
2454.000000	56.376620
2453.000000	56.381478
2452.000000	56.384943
2451.000000	56.389198
2450.000000	56.397091
2449.000000	56.412591
2448.000000	56.437524
2447.000000	56.470369
2446.000000	56.509562
2445.000000	56.555688
2444.000000	56.608786
2443.000000	56.666462
2442.000000	56.726088
2441.000000	56.786299
2440.000000	56.845226
2439.000000	56.899647
2438.000000	56.947640
2437.000000	56.989970
2436.000000	57.027798
2435.000000	57.060962
2434.000000	57.089595
2433.000000	57.114692
2432.000000	57.135589
2431.000000	57.149681
2430.000000	57.155288
2429.000000	57.152903
2428.000000	57.142384
2427.000000	57.121345
2426.000000	57.088384
2425.000000	57.045001
2424.000000	56.993787
2423.000000	56.937260
2422.000000	56.879824
2421.000000	56.828311
2420.000000	56.788337
2419.000000	56.761948
2418.000000	56.749437
2417.000000	56.750659
2416.000000	56.762748
2415.000000	56.779493
2414.000000	56.794655
2413.000000	56.803891
2412.000000	56.802660
2411.000000	56.785612
2410.000000	56.750024
2409.000000	56.697758
2408.000000	56.632810
2407.000000	56.558994
2406.000000	56.481490
2405.000000	56.406820
2404.000000	56.339061
2403.000000	56.278468
2402.000000	56.225193
2401.000000	56.181584
2400.000000	56.149128
2399.000000	56.126269
2398.000000	56.110902
2397.000000	56.102192
2396.000000	56.097621
2395.000000	56.091153
2394.000000	56.076819
2393.000000	56.052337
2392.000000	56.017250
2391.000000	55.971536
2390.000000	55.918686
2389.000000	55.866566
2388.000000	55.825022
2387.000000	55.801699
2386.000000	55.803424
2385.000000	55.837962
2384.000000	55.908020
2383.000000	56.009915
2382.000000	56.135414
2381.000000	56.275429
2380.000000	56.419300
2379.000000	56.551297
2378.000000	56.656162
2377.000000	56.728536
2376.000000	56.769664
2375.000000	56.781530
2374.000000	56.768744
2373.000000	56.741044
2372.000000	56.710870
2371.000000	56.685192
2370.000000	56.660242
2369.000000	56.638721
2368.000000	56.632582
2367.000000	56.647442
2366.000000	56.675228
2365.000000	56.720717
2364.000000	56.808730
2363.000000	56.921426
2362.000000	57.036840
2361.000000	57.159285
2360.000000	57.269223
2359.000000	57.362987
2358.000000	57.407267
2357.000000	57.389432
2356.000000	57.321644
2355.000000	57.195107
2354.000000	57.052246
2353.000000	56.967432
2352.000000	57.061197
2351.000000	57.322083
2350.000000	57.553951
2349.000000	57.608027
2348.000000	57.470898
2347.000000	57.340310
2346.000000	57.357868
2345.000000	57.503713
2344.000000	57.665928
2343.000000	57.732886
2342.000000	57.758204
2341.000000	57.774094
2340.000000	57.794324
2339.000000	57.800632
2338.000000	57.798672
2337.000000	57.793216
2336.000000	57.796525
2335.000000	57.795345
2334.000000	57.798584
2333.000000	57.778635
2332.000000	57.731463
2331.000000	57.646525
2330.000000	57.513454
2329.000000	57.387434
2328.000000	57.259940
2327.000000	57.164101
2326.000000	57.086209
2325.000000	57.032217
2324.000000	57.007331
2323.000000	56.973272
2322.000000	56.931758
2321.000000	56.857293
2320.000000	56.776116
2319.000000	56.691062
2318.000000	56.624531
2317.000000	56.578468
2316.000000	56.549431
2315.000000	56.526279
2314.000000	56.492605
2313.000000	56.438255
2312.000000	56.348032
2311.000000	56.226787
2310.000000	56.080805
2309.000000	55.925562
2308.000000	55.762851
2307.000000	55.595135
2306.000000	55.425741
2305.000000	55.258544
2304.000000	55.097368
2303.000000	54.940521
2302.000000	54.789513
2301.000000	54.645377
2300.000000	54.504755
2299.000000	54.367648
2298.000000	54.233568
2297.000000	54.110480
2296.000000	53.997368
2295.000000	53.899667
2294.000000	53.820124
2293.000000	53.767966
2292.000000	53.744881
2291.000000	53.751416
2290.000000	53.785605
2289.000000	53.844103
2288.000000	53.920130
2287.000000	54.006710
2286.000000	54.102283
2285.000000	54.206401
2284.000000	54.316674
2283.000000	54.427810
2282.000000	54.539183
2281.000000	54.650551
2280.000000	54.759558
2279.000000	54.859920
2278.000000	54.949560
2277.000000	55.029294
2276.000000	55.100077
2275.000000	55.163830
2274.000000	55.225516
2273.000000	55.293495
2272.000000	55.373133
2271.000000	55.467221
2270.000000	55.578211
2269.000000	55.707135
2268.000000	55.850944
2267.000000	56.004171
2266.000000	56.163045
2265.000000	56.327191
2264.000000	56.494032
2263.000000	56.661351
2262.000000	56.828273
2261.000000	56.994228
2260.000000	57.156366
2259.000000	57.308594
2258.000000	57.448615
2257.000000	57.575518
2256.000000	57.689502
2255.000000	57.790968
2254.000000	57.884471
2253.000000	57.977000
2252.000000	58.072694
2251.000000	58.172717
2250.000000	58.277162
2249.000000	58.385243
2248.000000	58.492454
2247.000000	58.593230
2246.000000	58.684108
2245.000000	58.765374
2244.000000	58.838008
2243.000000	58.903354
2242.000000	58.964060
2241.000000	59.022507
2240.000000	59.077567
2239.000000	59.125474
2238.000000	59.163623
2237.000000	59.190984
2236.000000	59.206640
2235.000000	59.210810
2234.000000	59.207930
2233.000000	59.205169
2232.000000	59.208086
2231.000000	59.219359
2230.000000	59.240577
2229.000000	59.271497
2228.000000	59.307869
2227.000000	59.343377
2226.000000	59.374243
2225.000000	59.399849
2224.000000	59.419703
2223.000000	59.433195
2222.000000	59.441895
2221.000000	59.449155
2220.000000	59.457013
2219.000000	59.466167
2218.000000	59.478399
2217.000000	59.496299
2216.000000	59.520643
2215.000000	59.550667
2214.000000	59.586580
2213.000000	59.628967
2212.000000	59.676324
2211.000000	59.725943
2210.000000	59.777029
2209.000000	59.829993
2208.000000	59.883121
2207.000000	59.932724
2206.000000	59.976174
2205.000000	60.012181
2204.000000	60.038505
2203.000000	60.052709
2202.000000	60.055206
2201.000000	60.049177
2200.000000	60.037735
2199.000000	60.023585
2198.000000	60.010773
2197.000000	60.003413
2196.000000	60.002653
2195.000000	60.007268
2194.000000	60.017172
2193.000000	60.033896
2192.000000	60.058286
2191.000000	60.090652
2190.000000	60.132488
2189.000000	60.185142
2188.000000	60.246858
2187.000000	60.313812
2186.000000	60.383255
2185.000000	60.453060
2184.000000	60.519330
2183.000000	60.577895
2182.000000	60.628178
2181.000000	60.672776
2180.000000	60.713947
2179.000000	60.753031
2178.000000	60.792162
2177.000000	60.832820
2176.000000	60.872612
2175.000000	60.906592
2174.000000	60.931620
2173.000000	60.947144
2172.000000	60.952771
2171.000000	60.948710
2170.000000	60.938502
2169.000000	60.927790
2168.000000	60.919832
2167.000000	60.914531
2166.000000	60.911454
2165.000000	60.910590
2164.000000	60.910336
2163.000000	60.908209
2162.000000	60.904116
2161.000000	60.900655
2160.000000	60.900339
2159.000000	60.904986
2158.000000	60.917257
2157.000000	60.939406
2156.000000	60.970183
2155.000000	61.005357
2154.000000	61.041219
2153.000000	61.075427
2152.000000	61.105563
2151.000000	61.130166
2150.000000	61.151096
2149.000000	61.172001
2148.000000	61.194371
2147.000000	61.217442
2146.000000	61.240901
2145.000000	61.264641
2144.000000	61.286602
2143.000000	61.303982
2142.000000	61.316470
2141.000000	61.325977
2140.000000	61.333720
2139.000000	61.340036
2138.000000	61.346181
2137.000000	61.353303
2136.000000	61.360023
2135.000000	61.363568
2134.000000	61.362732
2133.000000	61.357037
2132.000000	61.344128
2131.000000	61.321453
2130.000000	61.290299
2129.000000	61.255302
2128.000000	61.220454
2127.000000	61.188262
2126.000000	61.161787
2125.000000	61.143704
2124.000000	61.133371
2123.000000	61.128288
2122.000000	61.128518
2121.000000	61.137006
2120.000000	61.156157
2119.000000	61.186739
2118.000000	61.229039
2117.000000	61.281544
2116.000000	61.338691
2115.000000	61.393155
2114.000000	61.440641
2113.000000	61.480138
2112.000000	61.510648
2111.000000	61.531097
2110.000000	61.542991
2109.000000	61.550059
2108.000000	61.555250
2107.000000	61.560395
2106.000000	61.568252
2105.000000	61.581571
2104.000000	61.599865
2103.000000	61.619525
2102.000000	61.636624
2101.000000	61.647431
2100.000000	61.647269
2099.000000	61.632176
2098.000000	61.602094
2097.000000	61.560220
2096.000000	61.510167
2095.000000	61.456917
2094.000000	61.408865
2093.000000	61.374640
2092.000000	61.358036
2091.000000	61.358629
2090.000000	61.376412
2089.000000	61.412175
2088.000000	61.463715
2087.000000	61.525553
2086.000000	61.592188
2085.000000	61.658565
2084.000000	61.718842
2083.000000	61.768290
2082.000000	61.805575
2081.000000	61.830960
2080.000000	61.843244
2079.000000	61.841183
2078.000000	61.826838
2077.000000	61.803604
2076.000000	61.772122
2075.000000	61.731698
2074.000000	61.683809
2073.000000	61.630865
2072.000000	61.572394
2071.000000	61.505846
2070.000000	61.431367
2069.000000	61.351581
2068.000000	61.266548
2067.000000	61.172734
2066.000000	61.067922
2065.000000	60.954786
2064.000000	60.838641
2063.000000	60.724367
2062.000000	60.614726
2061.000000	60.508286
2060.000000	60.399408
2059.000000	60.283221
2058.000000	60.160726
2057.000000	60.036915
2056.000000	59.915814
2055.000000	59.800515
2054.000000	59.695837
2053.000000	59.606254
2052.000000	59.531384
2051.000000	59.466827
2050.000000	59.409296
2049.000000	59.358054
2048.000000	59.311762
2047.000000	59.269011
2046.000000	59.233028
2045.000000	59.210037
2044.000000	59.201705
2043.000000	59.203458
2042.000000	59.210676
2041.000000	59.222682
2040.000000	59.239916
2039.000000	59.262613
2038.000000	59.293183
2037.000000	59.335268
2036.000000	59.390394
2035.000000	59.458575
2034.000000	59.541347
2033.000000	59.639407
2032.000000	59.747677
2031.000000	59.857660
2030.000000	59.963947
2029.000000	60.064589
2028.000000	60.157418
2027.000000	60.241528
2026.000000	60.321350
2025.000000	60.403763
2024.000000	60.490779
2023.000000	60.579406
2022.000000	60.668858
2021.000000	60.761570
2020.000000	60.855639
2019.000000	60.942781
2018.000000	61.016792
2017.000000	61.080458
2016.000000	61.142795
2015.000000	61.213355
2014.000000	61.299189
2013.000000	61.401576
2012.000000	61.513444
2011.000000	61.624425
2010.000000	61.729707
2009.000000	61.830245
2008.000000	61.926349
2007.000000	62.017398
2006.000000	62.106568
2005.000000	62.199362
2004.000000	62.296580
2003.000000	62.393838
2002.000000	62.488226
2001.000000	62.579161
2000.000000	62.664303
1999.000000	62.740371
1998.000000	62.807608
1997.000000	62.872151
1996.000000	62.942193
1995.000000	63.020401
1994.000000	63.100876
1993.000000	63.174374
1992.000000	63.237942
1991.000000	63.299357
1990.000000	63.369769
1989.000000	63.453060
1988.000000	63.544017
1987.000000	63.634950
1986.000000	63.723066
1985.000000	63.810653
1984.000000	63.899496
1983.000000	63.988925
1982.000000	64.078715
1981.000000	64.170280
1980.000000	64.265027
1979.000000	64.362063
1978.000000	64.457366
1977.000000	64.547367
1976.000000	64.632839
1975.000000	64.716848
1974.000000	64.800677
1973.000000	64.884876
1972.000000	64.973006
1971.000000	65.069060
1970.000000	65.169826
1969.000000	65.263300
1968.000000	65.335685
1967.000000	65.380609
1966.000000	65.403353
1965.000000	65.415857
1964.000000	65.427570
1963.000000	65.439128
1962.000000	65.444026
1961.000000	65.438182
1960.000000	65.425373
1959.000000	65.411412
1958.000000	65.396635
1957.000000	65.378143
1956.000000	65.357427
1955.000000	65.340701
1954.000000	65.333395
1953.000000	65.338972
1952.000000	65.360091
1951.000000	65.397194
1950.000000	65.446536
1949.000000	65.500154
1948.000000	65.550562
1947.000000	65.595850
1946.000000	65.637128
1945.000000	65.671306
1944.000000	65.688907
1943.000000	65.682917
1942.000000	65.661379
1941.000000	65.644313
1940.000000	65.647140
1939.000000	65.670811
1938.000000	65.702743
1937.000000	65.726799
1936.000000	65.735666
1935.000000	65.731609
1934.000000	65.718694
1933.000000	65.699719
1932.000000	65.677326
1931.000000	65.656911
1930.000000	65.644906
1929.000000	65.641847
1928.000000	65.645090
1927.000000	65.657051
1926.000000	65.683112
1925.000000	65.717888
1924.000000	65.741217
1923.000000	65.741286
1922.000000	65.733245
1921.000000	65.739297
1920.000000	65.763084
1919.000000	65.790980
1918.000000	65.810147
1917.000000	65.818925
1916.000000	65.818489
1915.000000	65.811641
1914.000000	65.805188
1913.000000	65.800245
1912.000000	65.789335
1911.000000	65.768877
1910.000000	65.746336
1909.000000	65.729114
1908.000000	65.717227
1907.000000	65.711118
1906.000000	65.717695
1905.000000	65.738579
1904.000000	65.761959
1903.000000	65.781754
1902.000000	65.809974
1901.000000	65.858271
1900.000000	65.924583
1899.000000	66.004071
1898.000000	66.097609
1897.000000	66.198873
1896.000000	66.286258
1895.000000	66.346471
1894.000000	66.393798
1893.000000	66.448268
1892.000000	66.509329
1891.000000	66.563309
1890.000000	66.604988
1889.000000	66.643194
1888.000000	66.686358
1887.000000	66.736554
1886.000000	66.794540
1885.000000	66.852415
1884.000000	66.894671
1883.000000	66.920534
1882.000000	66.949521
1881.000000	66.995454
1880.000000	67.052759
1879.000000	67.112959
1878.000000	67.178332
1877.000000	67.251159
1876.000000	67.320688
1875.000000	67.376615
1874.000000	67.426474
1873.000000	67.483588
1872.000000	67.546728
1871.000000	67.603928
1870.000000	67.646412
1869.000000	67.674866
1868.000000	67.696644
1867.000000	67.723065
1866.000000	67.770252
1865.000000	67.843634
1864.000000	67.925766
1863.000000	67.996576
1862.000000	68.056784
1861.000000	68.117247
1860.000000	68.176438
1859.000000	68.228550
1858.000000	68.281209
1857.000000	68.343467
1856.000000	68.407627
1855.000000	68.463124
1854.000000	68.513510
1853.000000	68.564673
1852.000000	68.616111
1851.000000	68.669859
1850.000000	68.731461
1849.000000	68.798125
1848.000000	68.857585
1847.000000	68.907297
1846.000000	68.957433
1845.000000	69.008385
1844.000000	69.050500
1843.000000	69.082927
1842.000000	69.111846
1841.000000	69.148056
1840.000000	69.199914
1839.000000	69.259057
1838.000000	69.312599
1837.000000	69.359882
1836.000000	69.409335
1835.000000	69.469108
1834.000000	69.538912
1833.000000	69.608978
1832.000000	69.667567
1831.000000	69.699632
1830.000000	69.703779
1829.000000	69.711339
1828.000000	69.752822
1827.000000	69.827160
1826.000000	69.913759
1825.000000	69.994536
1824.000000	70.065014
1823.000000	70.126765
1822.000000	70.183639
1821.000000	70.243173
1820.000000	70.304422
1819.000000	70.354233
1818.000000	70.389682
1817.000000	70.428562
1816.000000	70.485174
1815.000000	70.552987
1814.000000	70.616093
1813.000000	70.662124
1812.000000	70.677350
1811.000000	70.651213
1810.000000	70.603005
1809.000000	70.568911
1808.000000	70.558213
1807.000000	70.560551
1806.000000	70.583298
1805.000000	70.640826
1804.000000	70.714589
1803.000000	70.756977
1802.000000	70.738984
1801.000000	70.683380
1800.000000	70.636166
1799.000000	70.623171
1798.000000	70.650145
1797.000000	70.707420
1796.000000	70.771171
1795.000000	70.826085
1794.000000	70.873219
1793.000000	70.912305
1792.000000	70.930133
1791.000000	70.917004
1790.000000	70.893297
1789.000000	70.895983
1788.000000	70.937609
1787.000000	70.996657
1786.000000	71.049645
1785.000000	71.091907
1784.000000	71.126679
1783.000000	71.152348
1782.000000	71.162874
1781.000000	71.156758
1780.000000	71.141834
1779.000000	71.133265
1778.000000	71.145005
1777.000000	71.178478
1776.000000	71.226232
1775.000000	71.283949
1774.000000	71.343832
1773.000000	71.399832
1772.000000	71.469740
1771.000000	71.557826
1770.000000	71.637399
1769.000000	71.702783
1768.000000	71.769343
1767.000000	71.838655
1766.000000	71.905307
1765.000000	71.979883
1764.000000	72.076395
1763.000000	72.171108
1762.000000	72.221528
1761.000000	72.235411
1760.000000	72.248236
1759.000000	72.266953
1758.000000	72.277375
1757.000000	72.272185
1756.000000	72.280447
1755.000000	72.326609
1754.000000	72.397330
1753.000000	72.478230
1752.000000	72.560251
1751.000000	72.624888
1750.000000	72.652622
1749.000000	72.649306
1748.000000	72.659506
1747.000000	72.722117
1746.000000	72.820199
1745.000000	72.915163
1744.000000	72.994146
1743.000000	73.055966
1742.000000	73.095967
1741.000000	73.121825
1740.000000	73.155190
1739.000000	73.200851
1738.000000	73.233489
1737.000000	73.249589
1736.000000	73.277127
1735.000000	73.308907
1734.000000	73.336751
1733.000000	73.383025
1732.000000	73.416562
1731.000000	73.412845
1730.000000	73.399345
1729.000000	73.383038
1728.000000	73.368548
1727.000000	73.366178
1726.000000	73.378718
1725.000000	73.397424
1724.000000	73.414814
1723.000000	73.434671
1722.000000	73.467838
1721.000000	73.516086
1720.000000	73.568597
1719.000000	73.588375
1718.000000	73.553633
1717.000000	73.518248
1716.000000	73.504349
1715.000000	73.483536
1714.000000	73.489600
1713.000000	73.556955
1712.000000	73.651383
1711.000000	73.730230
1710.000000	73.794278
1709.000000	73.854485
1708.000000	73.899956
1707.000000	73.918072
1706.000000	73.929910
1705.000000	73.974135
1704.000000	74.036542
1703.000000	74.092274
1702.000000	74.156409
1701.000000	74.240110
1700.000000	74.341775
1699.000000	74.419807
1698.000000	74.440594
1697.000000	74.471265
1696.000000	74.563868
1695.000000	74.681363
1694.000000	74.764163
1693.000000	74.801995
1692.000000	74.854529
1691.000000	74.946424
1690.000000	75.037713
1689.000000	75.084330
1688.000000	75.093414
1687.000000	75.105113
1686.000000	75.128649
1685.000000	75.102887
1684.000000	75.037223
1683.000000	75.041593
1682.000000	75.087752
1681.000000	75.101221
1680.000000	75.099390
1679.000000	75.096985
1678.000000	75.083467
1677.000000	75.026018
1676.000000	74.920617
1675.000000	74.817373
1674.000000	74.748070
1673.000000	74.676940
1672.000000	74.599353
1671.000000	74.549413
1670.000000	74.527726
1669.000000	74.504584
1668.000000	74.463853
1667.000000	74.410864
1666.000000	74.345642
1665.000000	74.256863
1664.000000	74.138416
1663.000000	74.020724
1662.000000	73.938102
1661.000000	73.858164
1660.000000	73.743592
1659.000000	73.613644
1658.000000	73.481093
1657.000000	73.317301
1656.000000	73.100455
1655.000000	72.806143
1654.000000	72.301745
1653.000000	71.628706
1652.000000	71.043857
1651.000000	70.471792
1650.000000	69.752057
1649.000000	68.834438
1648.000000	67.509488
1647.000000	65.615858
1646.000000	63.267981
1645.000000	60.670640
1644.000000	57.811339
1643.000000	54.582636
1642.000000	50.938900
1641.000000	46.989619
1640.000000	43.045993
1639.000000	39.452176
1638.000000	36.375500
1637.000000	33.842978
1636.000000	32.009603
1635.000000	31.158686
1634.000000	31.268748
1633.000000	32.038075
1632.000000	33.234353
1631.000000	34.741748
1630.000000	36.494970
1629.000000	38.442906
1628.000000	40.517341
1627.000000	42.595809
1626.000000	44.590123
1625.000000	46.556036
1624.000000	48.600568
1623.000000	50.681465
1622.000000	52.594391
1621.000000	54.208185
1620.000000	55.590994
1619.000000	56.892804
1618.000000	58.214399
1617.000000	59.566272
1616.000000	60.849794
1615.000000	61.912599
1614.000000	62.716752
1613.000000	63.372848
1612.000000	63.989689
1611.000000	64.571269
1610.000000	65.049502
1609.000000	65.386815
1608.000000	65.587317
1607.000000	65.622617
1606.000000	65.415407
1605.000000	64.898416
1604.000000	64.051997
1603.000000	62.865231
1602.000000	61.346527
1601.000000	59.595971
1600.000000	57.801447
1599.000000	56.145076
1598.000000	54.722411
1597.000000	53.554160
1596.000000	52.624372
1595.000000	51.876290
1594.000000	51.209866
1593.000000	50.539377
1592.000000	49.845999
1591.000000	49.143732
1590.000000	48.426553
1589.000000	47.676403
1588.000000	46.891494
1587.000000	46.060368
1586.000000	45.134601
1585.000000	44.073375
1584.000000	42.903465
1583.000000	41.685492
1582.000000	40.440212
1581.000000	39.169764
1580.000000	37.907208
1579.000000	36.648952
1578.000000	35.243472
1577.000000	33.449847
1576.000000	31.296146
1575.000000	29.207695
1574.000000	27.486545
1573.000000	26.061367
1572.000000	24.778732
1571.000000	23.571500
1570.000000	22.463905
1569.000000	21.540509
1568.000000	20.897205
1567.000000	20.576418
1566.000000	20.524152
1565.000000	20.631421
1564.000000	20.846058
1563.000000	21.193377
1562.000000	21.708817
1561.000000	22.411530
1560.000000	23.383287
1559.000000	24.695077
1558.000000	26.103797
1557.000000	27.267923
1556.000000	28.206565
1555.000000	29.114979
1554.000000	30.016288
1553.000000	30.804878
1552.000000	31.446998
1551.000000	32.042947
1550.000000	32.685279
1549.000000	33.386510
1548.000000	34.151232
1547.000000	35.039043
1546.000000	36.090398
1545.000000	37.235808
1544.000000	38.357901
1543.000000	39.424575
1542.000000	40.495212
1541.000000	41.618208
1540.000000	42.786484
1539.000000	43.942375
1538.000000	44.963333
1537.000000	45.795579
1536.000000	46.551340
1535.000000	47.378328
1534.000000	48.313879
1533.000000	49.257056
1532.000000	50.109212
1531.000000	50.880563
1530.000000	51.634976
1529.000000	52.392628
1528.000000	53.131115
1527.000000	53.837979
1526.000000	54.500486
1525.000000	55.093578
1524.000000	55.627917
1523.000000	56.160945
1522.000000	56.709591
1521.000000	57.215309
1520.000000	57.637234
1519.000000	58.010846
1518.000000	58.396009
1517.000000	58.800514
1516.000000	59.196973
1515.000000	59.584172
1514.000000	59.971858
1513.000000	60.365386
1512.000000	60.757616
1511.000000	61.132966
1510.000000	61.476708
1509.000000	61.779476
1508.000000	62.018788
1507.000000	62.217654
1506.000000	62.529869
1505.000000	62.957859
1504.000000	63.339685
1503.000000	63.666107
1502.000000	63.980817
1501.000000	64.275442
1500.000000	64.538173
1499.000000	64.788111
1498.000000	65.038000
1497.000000	65.289286
1496.000000	65.558108
1495.000000	65.844973
1494.000000	66.120504
1493.000000	66.374241
1492.000000	66.626427
1491.000000	66.875202
1490.000000	67.077266
1489.000000	67.218791
1488.000000	67.342621
1487.000000	67.488726
1486.000000	67.646119
1485.000000	67.750280
1484.000000	67.760345
1483.000000	67.669634
1482.000000	67.437589
1481.000000	67.012149
1480.000000	66.390130
1479.000000	65.554234
1478.000000	64.369545
1477.000000	62.681320
1476.000000	60.505307
1475.000000	57.982068
1474.000000	55.156102
1473.000000	52.088717
1472.000000	49.182917
1471.000000	46.914214
1470.000000	45.359312
1469.000000	44.351275
1468.000000	43.798651
1467.000000	43.732825
1466.000000	44.233165
1465.000000	45.296874
1464.000000	46.721090
1463.000000	48.154756
1462.000000	49.315696
1461.000000	50.086720
1460.000000	50.424017
1459.000000	50.252883
1458.000000	49.437300
1457.000000	48.085165
1456.000000	46.751805
1455.000000	45.847662
1454.000000	45.320752
1453.000000	45.019536
1452.000000	44.854168
1451.000000	44.776763
1450.000000	44.770652
1449.000000	44.861639
1448.000000	45.079849
1447.000000	45.405375
1446.000000	45.792542
1445.000000	46.241376
1444.000000	46.801351
1443.000000	47.507480
1442.000000	48.365537
1441.000000	49.382087
1440.000000	50.576500
1439.000000	51.974072
1438.000000	53.594605
1437.000000	55.374725
1436.000000	57.087503
1435.000000	58.493132
1434.000000	59.575083
1433.000000	60.482243
1432.000000	61.306210
1431.000000	62.028994
1430.000000	62.622537
1429.000000	63.118124
1428.000000	63.556941
1427.000000	63.954268
1426.000000	64.319510
1425.000000	64.659422
1424.000000	64.981278
1423.000000	65.291263
1422.000000	65.602802
1421.000000	65.927267
1420.000000	66.238237
1419.000000	66.478925
1418.000000	66.643229
1417.000000	66.796231
1416.000000	66.992052
1415.000000	67.236941
1414.000000	67.505781
1413.000000	67.776589
1412.000000	68.039554
1411.000000	68.283474
1410.000000	68.502505
1409.000000	68.715028
1408.000000	68.938615
1407.000000	69.165355
1406.000000	69.374693
1405.000000	69.555626
1404.000000	69.715341
1403.000000	69.850807
1402.000000	69.927485
1401.000000	69.875353
1400.000000	69.604632
1399.000000	69.101876
1398.000000	68.515577
1397.000000	68.071116
1396.000000	67.920002
1395.000000	68.073743
1394.000000	68.403102
1393.000000	68.747078
1392.000000	69.053458
1391.000000	69.380132
1390.000000	69.800187
1389.000000	70.328534
1388.000000	70.911787
1387.000000	71.473172
1386.000000	71.971601
1385.000000	72.411360
1384.000000	72.814224
1383.000000	73.192183
1382.000000	73.547685
1381.000000	73.879805
1380.000000	74.172182
1379.000000	74.392120
1378.000000	74.503208
1377.000000	74.447908
1376.000000	74.075756
1375.000000	73.087220
1374.000000	71.085559
1373.000000	67.776883
1372.000000	63.183396
1371.000000	57.764524
1370.000000	52.443529
1369.000000	48.417831
1368.000000	46.609921
1367.000000	47.063420
1366.000000	48.969460
1365.000000	51.233083
1364.000000	52.906234
1363.000000	53.383805
1362.000000	52.614387
1361.000000	51.204737
1360.000000	50.130268
1359.000000	50.229729
1358.000000	51.817046
1357.000000	54.565755
1356.000000	57.765454
1355.000000	60.760581
1354.000000	63.230395
1353.000000	65.171359
1352.000000	66.702852
1351.000000	67.933649
1350.000000	68.940619
1349.000000	69.770244
1348.000000	70.450833
1347.000000	71.013157
1346.000000	71.499208
1345.000000	71.944754
1344.000000	72.371372
1343.000000	72.792161
1342.000000	73.215132
1341.000000	73.626613
1340.000000	73.990150
1339.000000	74.285539
1338.000000	74.530695
1337.000000	74.755068
1336.000000	74.967659
1335.000000	75.155824
1334.000000	75.293302
1333.000000	75.319196
1332.000000	75.119333
1331.000000	74.550316
1330.000000	73.496542
1329.000000	71.917779
1328.000000	69.825663
1327.000000	67.226990
1326.000000	64.127638
1325.000000	60.662943
1324.000000	57.274625
1323.000000	54.643901
1322.000000	53.294555
1321.000000	53.227885
1320.000000	53.974109
1319.000000	54.978428
1318.000000	55.937860
1317.000000	56.815553
1316.000000	57.656604
1315.000000	58.483897
1314.000000	59.322822
1313.000000	60.250871
1312.000000	61.374085
1311.000000	62.743924
1310.000000	64.294635
1309.000000	65.854800
1308.000000	67.220569
1307.000000	68.240623
1306.000000	68.855836
1305.000000	69.062034
1304.000000	68.863481
1303.000000	68.254250
1302.000000	67.227281
1301.000000	65.815642
1300.000000	64.152107
1299.000000	62.501520
1298.000000	61.183540
1297.000000	60.405818
1296.000000	60.147728
1295.000000	60.182292
1294.000000	60.195440
1293.000000	59.903830
1292.000000	59.122270
1291.000000	57.777124
1290.000000	55.867781
1289.000000	53.442424
1288.000000	50.659198
1287.000000	47.876647
1286.000000	45.602795
1285.000000	44.269280
1284.000000	44.021224
1283.000000	44.709891
1282.000000	46.081556
1281.000000	47.944765
1280.000000	50.160229
1279.000000	52.504116
1278.000000	54.613042
1277.000000	56.120268
1276.000000	56.841210
1275.000000	56.837530
1274.000000	56.354266
1273.000000	55.732454
1272.000000	55.343011
1271.000000	55.505922
1270.000000	56.377234
1269.000000	57.881212
1268.000000	59.762371
1267.000000	61.724575
1266.000000	63.550767
1265.000000	65.143873
1264.000000	66.499148
1263.000000	67.652229
1262.000000	68.641539
1261.000000	69.493994
1260.000000	70.225691
1259.000000	70.849897
1258.000000	71.387412
1257.000000	71.859404
1256.000000	72.279439
1255.000000	72.657555
1254.000000	73.004328
1253.000000	73.328931
1252.000000	73.632318
1251.000000	73.912801
1250.000000	74.175613
1249.000000	74.429873
1248.000000	74.681291
1247.000000	74.931754
1246.000000	75.181914
1245.000000	75.428037
1244.000000	75.658125
1243.000000	75.859702
1242.000000	76.029704
1241.000000	76.172416
1240.000000	76.292050
1239.000000	76.392404
1238.000000	76.480413
1237.000000	76.559416
1236.000000	76.620361
1235.000000	76.647244
1234.000000	76.627857
1233.000000	76.557685
1232.000000	76.437815
1231.000000	76.276588
1230.000000	76.090991
1229.000000	75.892126
1228.000000	75.670860
1227.000000	75.396995
1226.000000	75.025016
1225.000000	74.501640
1224.000000	73.764296
1223.000000	72.753412
1222.000000	71.424389
1221.000000	69.744283
1220.000000	67.703907
1219.000000	65.328435
1218.000000	62.684155
1217.000000	59.871450
1216.000000	57.015789
1215.000000	54.268597
1214.000000	51.801282
1213.000000	49.785173
1212.000000	48.363216
1211.000000	47.616608
1210.000000	47.509784
1209.000000	47.888498
1208.000000	48.531170
1207.000000	49.204419
1206.000000	49.710419
1205.000000	49.907964
1204.000000	49.722412
1203.000000	49.145919
1202.000000	48.236375
1201.000000	47.125015
1200.000000	46.020356
1199.000000	45.174419
1198.000000	44.802918
1197.000000	45.007386
1196.000000	45.765174
1195.000000	46.963647
1194.000000	48.455788
1193.000000	50.114641
1192.000000	51.852284
1191.000000	53.620269
1190.000000	55.387733
1189.000000	57.127428
1188.000000	58.813134
1187.000000	60.416153
1186.000000	61.905773
1185.000000	63.258832
1184.000000	64.466820
1183.000000	65.528371
1182.000000	66.445954
1181.000000	67.222679
1180.000000	67.869702
1179.000000	68.413541
1178.000000	68.883285
1177.000000	69.296718
1176.000000	69.647821
1175.000000	69.913221
1174.000000	70.066381
1173.000000	70.071612
1172.000000	69.883474
1171.000000	69.444767
1170.000000	68.692541
1169.000000	67.571214
1168.000000	66.042941
1167.000000	64.127794
1166.000000	61.939735
1165.000000	59.693950
1164.000000	57.674667
1163.000000	56.167486
1162.000000	55.365615
1161.000000	55.313405
1160.000000	55.918743
1159.000000	56.995485
1158.000000	58.333907
1157.000000	59.746758
1156.000000	61.094605
1155.000000	62.290276
1154.000000	63.283449
1153.000000	64.047532
1152.000000	64.570570
1151.000000	64.851450
1150.000000	64.891726
1149.000000	64.696911
1148.000000	64.258092
1147.000000	63.546127
1146.000000	62.512432
1145.000000	61.076726
1144.000000	59.149036
1143.000000	56.650249
1142.000000	53.558649
1141.000000	49.966637
1140.000000	46.102052
1139.000000	42.291921
1138.000000	38.838544
1137.000000	35.890883
1136.000000	33.405820
1135.000000	31.229189
1134.000000	29.225238
1133.000000	27.421002
1132.000000	26.068179
1131.000000	25.538821
1130.000000	26.150570
1129.000000	27.983323
1128.000000	30.833316
1127.000000	34.273281
1126.000000	37.754009
1125.000000	40.729215
1124.000000	42.750939
1123.000000	43.526079
1122.000000	42.950770
1121.000000	41.131781
1120.000000	38.320021
1119.000000	34.851000
1118.000000	31.136024
1117.000000	27.698410
1116.000000	25.155379
1115.000000	24.049684
1114.000000	24.605576
1113.000000	26.614850
1112.000000	29.525057
1111.000000	32.594367
1110.000000	35.123767
1109.000000	36.725360
1108.000000	37.496642
1107.000000	37.931209
1106.000000	38.574250
1105.000000	39.690477
1104.000000	41.167542
1103.000000	42.628732
1102.000000	43.581008
1101.000000	43.588281
1100.000000	42.464573
1099.000000	40.451477
1098.000000	38.235458
1097.000000	36.704633
1096.000000	36.547685
1095.000000	37.943485
1094.000000	40.530281
1093.000000	43.661154
1092.000000	46.759082
1091.000000	49.497176
1090.000000	51.785930
1089.000000	53.669682
1088.000000	55.235605
1087.000000	56.572545
1086.000000	57.756595
1085.000000	58.840833
1084.000000	59.849758
1083.000000	60.793444
1082.000000	61.669610
1081.000000	62.468334
1080.000000	63.177764
1079.000000	63.787321
1078.000000	64.293977
1077.000000	64.686480
1076.000000	64.935821
1075.000000	64.995992
1074.000000	64.791836
1073.000000	64.222755
1072.000000	63.139237
1071.000000	61.347678
1070.000000	58.635148
1069.000000	54.780433
1068.000000	49.661896
1067.000000	43.401104
1066.000000	36.496336
1065.000000	29.805580
1064.000000	24.301112
1063.000000	20.651833
1062.000000	18.861298
1061.000000	18.245185
1060.000000	17.820284
1059.000000	16.895143
1058.000000	15.416910
1057.000000	13.943265
1056.000000	13.266539
1055.000000	13.915770
1054.000000	15.920707
1053.000000	18.892481
1052.000000	22.308669
1051.000000	25.747253
1050.000000	28.949050
1049.000000	31.818712
1048.000000	34.380299
1047.000000	36.708148
1046.000000	38.854382
1045.000000	40.830164
1044.000000	42.623403
1043.000000	44.224669
1042.000000	45.634906
1041.000000	46.861896
1040.000000	47.930479
1039.000000	48.872904
1038.000000	49.716278
1037.000000	50.477114
1036.000000	51.160565
1035.000000	51.767782
1034.000000	52.292568
1033.000000	52.726944
1032.000000	53.074657
1031.000000	53.354215
1030.000000	53.594506
1029.000000	53.823356
1028.000000	54.059797
1027.000000	54.308151
1026.000000	54.549973
1025.000000	54.749923
1024.000000	54.868701
1023.000000	54.874982
1022.000000	54.752626
1021.000000	54.494486
1020.000000	54.100319
1019.000000	53.563707
1018.000000	52.853299
1017.000000	51.913074
1016.000000	50.671068
1015.000000	49.079759
1014.000000	47.161173
1013.000000	45.044183
1012.000000	42.966582
1011.000000	41.200042
1010.000000	39.913462
1009.000000	39.061253
1008.000000	38.409193
1007.000000	37.707327
1006.000000	36.923187
1005.000000	36.334993
1004.000000	36.384945
1003.000000	37.378534
1002.000000	39.249525
1001.000000	41.606241
1000.000000	43.956070
999.000000	45.908345
998.000000	47.247793
997.000000	47.915827
996.000000	47.983848
995.000000	47.638767
994.000000	47.161095
993.000000	46.868648
992.000000	47.031719
991.000000	47.774918
990.000000	49.025324
989.000000	50.564251
988.000000	52.156387
987.000000	53.642099
986.000000	54.955378
985.000000	56.092433
984.000000	57.076511
983.000000	57.936725
982.000000	58.696876
981.000000	59.370537
980.000000	59.965431
979.000000	60.494251
978.000000	60.970908
977.000000	61.407793
976.000000	61.815987
975.000000	62.206090
974.000000	62.586677
973.000000	62.958189
972.000000	63.315252
971.000000	63.652710
970.000000	63.967474
969.000000	64.258384
968.000000	64.527556
967.000000	64.783744
966.000000	65.039672
965.000000	65.303419
964.000000	65.574558
963.000000	65.846480
962.000000	66.110219
961.000000	66.356602
960.000000	66.579397
959.000000	66.780414
958.000000	66.969585
957.000000	67.159108
956.000000	67.358150
955.000000	67.571663
954.000000	67.799889
953.000000	68.035981
952.000000	68.267503
951.000000	68.483908
950.000000	68.682061
949.000000	68.864780
948.000000	69.037539
947.000000	69.208386
946.000000	69.386955
945.000000	69.578518
944.000000	69.780249
943.000000	69.984712
942.000000	70.185185
941.000000	70.376103
940.000000	70.551979
939.000000	70.711144
938.000000	70.859046
937.000000	71.004136
936.000000	71.151806
935.000000	71.304195
934.000000	71.462924
933.000000	71.627686
932.000000	71.794204
931.000000	71.957864
930.000000	72.117190
929.000000	72.270749
928.000000	72.413798
927.000000	72.543312
926.000000	72.664543
925.000000	72.787362
924.000000	72.917999
923.000000	73.058256
922.000000	73.209204
921.000000	73.368847
920.000000	73.527386
919.000000	73.671825
918.000000	73.796183
917.000000	73.903266
916.000000	73.999712
915.000000	74.095637
914.000000	74.205345
913.000000	74.338717
912.000000	74.488225
911.000000	74.630784
910.000000	74.736591
909.000000	74.767519
908.000000	74.672445
907.000000	74.388526
906.000000	73.858294
905.000000	73.033698
904.000000	71.883751
903.000000	70.445612
902.000000	68.896548
901.000000	67.561989
900.000000	66.800143
899.000000	66.815515
898.000000	67.539811
897.000000	68.696273
896.000000	69.968291
895.000000	71.141612
894.000000	72.140350
893.000000	72.966461
892.000000	73.640715
891.000000	74.178622
890.000000	74.595935
889.000000	74.911023
888.000000	75.145948
887.000000	75.314322
886.000000	75.400880
885.000000	75.344917
884.000000	75.060998
883.000000	74.519748
882.000000	73.804189
881.000000	73.066028
880.000000	72.399584
879.000000	71.767248
878.000000	71.079088
877.000000	70.352793
876.000000	69.787567
875.000000	69.648280
874.000000	70.068487
873.000000	70.945897
872.000000	72.017948
871.000000	73.028071
870.000000	73.840672
869.000000	74.448834
868.000000	74.911206
867.000000	75.295621
866.000000	75.647854
865.000000	75.982379
864.000000	76.285159
863.000000	76.534043
862.000000	76.718738
861.000000	76.845780
860.000000	76.934662
859.000000	77.013178
858.000000	77.111508
857.000000	77.247022
856.000000	77.412140
855.000000	77.582074
854.000000	77.731792
853.000000	77.845160
852.000000	77.916443
851.000000	77.954712
850.000000	77.985450
849.000000	78.037415
848.000000	78.124473
847.000000	78.241568
846.000000	78.373270
845.000000	78.500076
844.000000	78.602025
843.000000	78.669493
842.000000	78.712624
841.000000	78.753519
840.000000	78.809313
839.000000	78.886509
838.000000	78.985066
837.000000	79.097598
836.000000	79.206341
835.000000	79.292863
834.000000	79.353888
833.000000	79.402992
832.000000	79.457743
831.000000	79.531441
830.000000	79.632379
829.000000	79.759096
828.000000	79.895482
827.000000	80.020537
826.000000	80.125493
825.000000	80.216491
824.000000	80.304499
823.000000	80.401547
822.000000	80.521547
821.000000	80.669698
820.000000	80.829613
819.000000	80.970993
818.000000	81.071086
817.000000	81.123714
816.000000	81.133600
815.000000	81.115478
814.000000	81.094792
813.000000	81.091180
812.000000	81.097103
811.000000	81.076814
810.000000	80.986234
809.000000	80.788054
808.000000	80.451619
807.000000	79.959738
806.000000	79.312179
805.000000	78.509811
804.000000	77.532218
803.000000	76.327370
802.000000	74.829760
801.000000	72.970391
800.000000	70.689254
799.000000	67.969003
798.000000	64.858746
797.000000	61.474469
796.000000	57.966361
795.000000	54.492794
794.000000	51.206437
793.000000	48.247392
792.000000	45.735774
791.000000	43.765469
790.000000	42.402595
789.000000	41.670942
788.000000	41.549248
787.000000	41.963712
786.000000	42.802210
785.000000	43.938696
784.000000	45.240792
783.000000	46.579401
782.000000	47.833170
781.000000	48.898526
780.000000	49.693963
779.000000	50.172928
778.000000	50.339635
777.000000	50.244176
776.000000	49.949385
775.000000	49.500898
774.000000	48.938665
773.000000	48.329540
772.000000	47.791099
771.000000	47.478929
770.000000	47.546932
769.000000	48.089680
768.000000	49.102473
767.000000	50.487678
766.000000	52.106904
765.000000	53.838147
764.000000	55.591633
763.000000	57.306880
762.000000	58.949585
761.000000	60.505774
760.000000	61.964815
759.000000	63.312561
758.000000	64.544244
757.000000	65.670191
756.000000	66.703820
755.000000	67.653086
754.000000	68.530460
753.000000	69.354473
752.000000	70.135226
751.000000	70.869644
750.000000	71.552903
749.000000	72.183090
748.000000	72.749868
747.000000	73.236362
746.000000	73.641867
745.000000	73.989639
744.000000	74.307758
743.000000	74.614573
742.000000	74.923938
741.000000	75.244069
740.000000	75.561122
739.000000	75.840235
738.000000	76.051010
737.000000	76.180149
736.000000	76.220500
735.000000	76.170349
734.000000	76.051569
733.000000	75.906519
732.000000	75.767524
731.000000	75.644091
730.000000	75.539442
729.000000	75.451825
728.000000	75.356949
727.000000	75.210665
726.000000	74.977598
725.000000	74.649361
724.000000	74.223758
723.000000	73.671669
722.000000	72.922204
721.000000	71.874494
720.000000	70.436234
719.000000	68.586553
718.000000	66.420399
717.000000	64.136652
716.000000	61.985854
715.000000	60.213066
714.000000	59.015745
713.000000	58.500633
712.000000	58.648825
711.000000	59.330817
710.000000	60.381657
709.000000	61.661781
708.000000	63.057850
707.000000	64.474773
706.000000	65.852214
705.000000	67.172131
704.000000	68.425998
703.000000	69.592794
702.000000	70.666534
701.000000	71.671691
700.000000	72.624873
699.000000	73.516088
698.000000	74.337628
697.000000	75.102359
696.000000	75.811055
695.000000	76.429856
694.000000	76.938745
693.000000	77.365042
692.000000	77.742250
691.000000	78.080188
690.000000	78.394183
689.000000	78.727214
688.000000	79.101010
687.000000	79.475375
686.000000	79.802988
685.000000	80.074865
684.000000	80.278711
683.000000	80.381023
682.000000	80.395877
681.000000	80.411975
680.000000	80.499228
679.000000	80.651351
678.000000	80.843994
677.000000	81.052711
676.000000	81.239420
675.000000	81.338083
674.000000	81.349729
673.000000	81.430560
672.000000	81.835338
671.000000	82.736745
670.000000	84.070484
669.000000	85.330822
668.000000	85.554777
667.000000	84.600211
666.000000	83.440056
665.000000	82.550321
664.000000	81.957527
663.000000	81.621643
662.000000	81.482848
661.000000	81.471614
660.000000	81.536550
659.000000	81.675036
658.000000	81.873810
657.000000	82.041896
656.000000	82.108202
655.000000	82.090312
654.000000	82.025380
653.000000	81.914935
652.000000	81.789525
651.000000	81.730264
650.000000	81.767396
649.000000	81.827158
648.000000	81.834931
647.000000	81.792430
646.000000	81.712339
645.000000	81.573839
644.000000	81.379329
643.000000	81.182532
642.000000	81.025243
641.000000	80.888354
640.000000	80.747468
639.000000	80.620616
638.000000	80.516722
637.000000	80.397907
636.000000	80.237905
635.000000	80.058718
634.000000	79.878256
633.000000	79.674910
632.000000	79.433128
631.000000	79.177797
630.000000	78.929071
629.000000	78.668526
628.000000	78.386140
627.000000	78.112882
626.000000	77.865466
625.000000	77.614118
624.000000	77.325984
623.000000	76.999437
622.000000	76.634605
621.000000	76.215189
620.000000	75.745604
619.000000	75.256736
618.000000	74.754419
617.000000	74.204048
616.000000	73.592306
615.000000	72.947053
614.000000	72.264613
613.000000	71.480023
612.000000	70.543374
611.000000	69.476786
610.000000	68.323040
609.000000	67.087088
608.000000	65.769119
607.000000	64.395171
606.000000	62.959201
605.000000	61.397157
604.000000	59.660204
603.000000	57.770875
602.000000	55.764349
601.000000	53.640665
600.000000	51.424937
599.000000	49.211246
598.000000	47.074272
597.000000	45.001293
596.000000	42.974685
595.000000	41.041650
594.000000	39.239362
593.000000	37.527477
592.000000	35.885595
591.000000	34.386893
590.000000	33.093557
589.000000	31.965439
588.000000	30.942822
587.000000	30.024659
586.000000	29.180662
585.000000	28.291274
584.000000	27.270163
583.000000	26.165258
582.000000	25.066452
581.000000	24.019149
580.000000	23.101258
579.000000	22.481657
578.000000	22.281905
577.000000	22.476663
576.000000	22.987895
575.000000	23.754654
574.000000	24.654447
573.000000	25.481164
572.000000	26.115731
571.000000	26.643435
570.000000	27.243925
569.000000	28.034798
568.000000	29.061571
567.000000	30.321494
566.000000	31.709420
565.000000	33.034650
564.000000	34.171100
563.000000	35.130269
562.000000	35.959062
561.000000	36.660634
560.000000	37.259147
559.000000	37.840727
558.000000	38.463534
557.000000	39.103841
556.000000	39.736667
555.000000	40.395423
554.000000	41.095825
553.000000	41.788294
552.000000	42.441106
551.000000	43.095611
550.000000	43.786288
549.000000	44.479635
548.000000	45.145593
547.000000	45.813522
546.000000	46.505595
545.000000	47.182091
544.000000	47.807051
543.000000	48.400767
542.000000	48.985048
541.000000	49.540047
540.000000	50.061470
539.000000	50.594787
538.000000	51.166466
537.000000	51.738885
536.000000	52.269491
535.000000	52.761942
534.000000	53.215967
533.000000	53.600929
532.000000	53.905978
531.000000	54.171096
530.000000	54.429776
529.000000	54.660509
528.000000	54.817179
527.000000	54.873563
526.000000	54.788541
525.000000	54.488257
524.000000	53.942521
523.000000	53.212807
522.000000	52.412284
521.000000	51.645868
520.000000	50.988818
519.000000	50.437064
518.000000	49.808727
517.000000	48.776381
516.000000	47.086928
515.000000	44.760433
514.000000	42.068924
513.000000	39.400658
512.000000	37.159910
511.000000	35.687678
510.000000	35.136471
509.000000	35.439293
508.000000	36.450944
507.000000	38.021475
506.000000	39.939256
505.000000	41.954029
504.000000	43.914150
503.000000	45.805398
502.000000	47.615321
501.000000	49.277736
500.000000	50.765844
499.000000	52.135965
498.000000	53.425052
497.000000	54.595253
496.000000	55.606841
495.000000	56.480174
494.000000	57.264255
493.000000	57.985062
492.000000	58.670261
491.000000	59.375829
490.000000	60.126643
489.000000	60.884579
488.000000	61.589967
487.000000	62.213213
486.000000	62.744412
485.000000	63.174706
484.000000	63.528896
483.000000	63.878500
482.000000	64.277731
481.000000	64.711693
480.000000	65.141511
479.000000	65.556643
478.000000	65.927403
477.000000	66.179191
476.000000	66.258938
475.000000	66.164977
474.000000	65.863608
473.000000	65.240861
472.000000	64.225618
471.000000	62.938983
470.000000	61.607635
469.000000	60.432404
468.000000	59.595361
467.000000	59.207165
466.000000	59.111720
465.000000	58.883296
464.000000	58.121678
463.000000	56.750292
462.000000	55.100230
461.000000	53.730498
460.000000	53.199077
459.000000	53.876990
458.000000	55.713795
457.000000	58.143037
456.000000	60.502197
455.000000	62.517535
454.000000	64.181286
453.000000	65.464598
452.000000	66.333137
451.000000	66.887942
450.000000	67.250339
449.000000	67.400520
448.000000	67.221349
447.000000	66.622112
446.000000	65.586959
445.000000	64.200624
444.000000	62.726022
443.000000	61.584170
442.000000	61.109488
441.000000	61.329042
440.000000	62.087430
439.000000	63.219941
438.000000	64.522416
437.000000	65.724646
436.000000	66.620292
435.000000	67.177830
434.000000	67.454602
433.000000	67.496484
432.000000	67.387212
431.000000	67.285416
430.000000	67.310640
429.000000	67.428199
428.000000	67.543367
427.000000	67.618814
426.000000	67.614023
425.000000	67.411698
424.000000	66.954029
423.000000	66.403021
422.000000	65.978153
421.000000	65.722781
420.000000	65.579630
419.000000	65.580602
418.000000	65.734981
417.000000	65.844038
416.000000	65.784414
415.000000	65.657825
414.000000	65.564002
413.000000	65.472271
412.000000	65.387427
411.000000	65.456681
410.000000	65.783190
409.000000	66.215945
408.000000	66.547551
407.000000	66.771609
406.000000	66.954984
405.000000	67.037865
404.000000	67.008195
403.000000	67.070313
402.000000	67.410674
401.000000	67.942876
400.000000	68.452247
