PE IR       SUBTECH     SPECTRUM    ASCII       PEDS        4.00        
   -1
23ms080.asc
24/10/22
14:45:15.00
24/10/22
14:45:15.00
Administrator
Sample 1324 By Administrator Date Tuesday, October 22 2024
400.000000
#HDR
-1
-1
#GR
cm-1
%T
1.0
0.0
4000.000000
-1.000000
3601
8
73.577381
1.773254
#DATA
4000.000000	40.030122
3999.000000	40.015446
3998.000000	40.004008
3997.000000	39.994707
3996.000000	39.987128
3995.000000	39.981777
3994.000000	39.979415
3993.000000	39.980080
3992.000000	39.982810
3991.000000	39.986774
3990.000000	39.992569
3989.000000	40.001926
3988.000000	40.016299
3987.000000	40.036047
3986.000000	40.060991
3985.000000	40.090979
3984.000000	40.125558
3983.000000	40.163782
3982.000000	40.204752
3981.000000	40.248281
3980.000000	40.294765
3979.000000	40.344214
3978.000000	40.395658
3977.000000	40.447494
3976.000000	40.498410
3975.000000	40.547777
3974.000000	40.595438
3973.000000	40.641479
3972.000000	40.685873
3971.000000	40.728359
3970.000000	40.768727
3969.000000	40.807800
3968.000000	40.847664
3967.000000	40.890901
3966.000000	40.939430
3965.000000	40.993543
3964.000000	41.051870
3963.000000	41.112498
3962.000000	41.174500
3961.000000	41.238492
3960.000000	41.305265
3959.000000	41.374122
3958.000000	41.443023
3957.000000	41.510874
3956.000000	41.578144
3955.000000	41.645617
3954.000000	41.713165
3953.000000	41.779375
3952.000000	41.842405
3951.000000	41.900587
3950.000000	41.953306
3949.000000	42.001618
3948.000000	42.048260
3947.000000	42.096894
3946.000000	42.149104
3945.000000	42.201127
3944.000000	42.245715
3943.000000	42.279906
3942.000000	42.310200
3941.000000	42.346717
3940.000000	42.393369
3939.000000	42.446676
3938.000000	42.501703
3937.000000	42.557865
3936.000000	42.616912
3935.000000	42.676905
3934.000000	42.731416
3933.000000	42.774746
3932.000000	42.807699
3931.000000	42.835542
3930.000000	42.862619
3929.000000	42.891069
3928.000000	42.921339
3927.000000	42.951405
3926.000000	42.975513
3925.000000	42.990251
3924.000000	43.001389
3923.000000	43.017570
3922.000000	43.039462
3921.000000	43.060739
3920.000000	43.076927
3919.000000	43.089225
3918.000000	43.099184
3917.000000	43.106908
3916.000000	43.114790
3915.000000	43.127450
3914.000000	43.146286
3913.000000	43.168759
3912.000000	43.192550
3911.000000	43.219882
3910.000000	43.253353
3909.000000	43.294147
3908.000000	43.340826
3907.000000	43.388643
3906.000000	43.429547
3905.000000	43.456014
3904.000000	43.471911
3903.000000	43.491051
3902.000000	43.521172
3901.000000	43.556091
3900.000000	43.585782
3899.000000	43.612198
3898.000000	43.647940
3897.000000	43.700434
3896.000000	43.766027
3895.000000	43.838043
3894.000000	43.909796
3893.000000	43.974823
3892.000000	44.026622
3891.000000	44.068992
3890.000000	44.116230
3889.000000	44.179743
3888.000000	44.254734
3887.000000	44.320407
3886.000000	44.362733
3885.000000	44.395794
3884.000000	44.440986
3883.000000	44.496392
3882.000000	44.538329
3881.000000	44.549171
3880.000000	44.540631
3879.000000	44.540899
3878.000000	44.563355
3877.000000	44.599043
3876.000000	44.628208
3875.000000	44.638362
3874.000000	44.639782
3873.000000	44.656297
3872.000000	44.693526
3871.000000	44.727010
3870.000000	44.738284
3869.000000	44.748029
3868.000000	44.784139
3867.000000	44.842971
3866.000000	44.894932
3865.000000	44.921472
3864.000000	44.935799
3863.000000	44.958642
3862.000000	44.991932
3861.000000	45.031147
3860.000000	45.074903
3859.000000	45.126347
3858.000000	45.189175
3857.000000	45.264435
3856.000000	45.340479
3855.000000	45.383628
3854.000000	45.377579
3853.000000	45.363802
3852.000000	45.378497
3851.000000	45.408537
3850.000000	45.433969
3849.000000	45.454462
3848.000000	45.481393
3847.000000	45.523931
3846.000000	45.578715
3845.000000	45.635913
3844.000000	45.687938
3843.000000	45.734659
3842.000000	45.782668
3841.000000	45.836006
3840.000000	45.883900
3839.000000	45.916168
3838.000000	45.938137
3837.000000	45.961563
3836.000000	45.990073
3835.000000	46.020387
3834.000000	46.050669
3833.000000	46.080016
3832.000000	46.108531
3831.000000	46.142166
3830.000000	46.186935
3829.000000	46.240517
3828.000000	46.292052
3827.000000	46.332356
3826.000000	46.365596
3825.000000	46.409292
3824.000000	46.472318
3823.000000	46.539118
3822.000000	46.581794
3821.000000	46.599542
3820.000000	46.624423
3819.000000	46.675756
3818.000000	46.738429
3817.000000	46.779025
3816.000000	46.788053
3815.000000	46.794496
3814.000000	46.821953
3813.000000	46.859954
3812.000000	46.890231
3811.000000	46.915444
3810.000000	46.952986
3809.000000	47.008310
3808.000000	47.064934
3807.000000	47.109053
3806.000000	47.151544
3805.000000	47.210706
3804.000000	47.283866
3803.000000	47.345180
3802.000000	47.370374
3801.000000	47.377338
3800.000000	47.400433
3799.000000	47.439861
3798.000000	47.472592
3797.000000	47.484413
3796.000000	47.487433
3795.000000	47.504313
3794.000000	47.542123
3793.000000	47.588270
3792.000000	47.630636
3791.000000	47.669773
3790.000000	47.711365
3789.000000	47.756267
3788.000000	47.801309
3787.000000	47.843292
3786.000000	47.879700
3785.000000	47.908994
3784.000000	47.934442
3783.000000	47.964121
3782.000000	48.000659
3781.000000	48.035802
3780.000000	48.059602
3779.000000	48.075795
3778.000000	48.097421
3777.000000	48.130444
3776.000000	48.168182
3775.000000	48.203750
3774.000000	48.240378
3773.000000	48.286066
3772.000000	48.339643
3771.000000	48.390467
3770.000000	48.435173
3769.000000	48.483368
3768.000000	48.541062
3767.000000	48.602117
3766.000000	48.656493
3765.000000	48.702948
3764.000000	48.752497
3763.000000	48.815060
3762.000000	48.885653
3761.000000	48.950369
3760.000000	49.004659
3759.000000	49.059266
3758.000000	49.119291
3757.000000	49.180182
3756.000000	49.242142
3755.000000	49.310515
3754.000000	49.384484
3753.000000	49.452734
3752.000000	49.510463
3751.000000	49.569556
3750.000000	49.635974
3749.000000	49.699676
3748.000000	49.759087
3747.000000	49.826311
3746.000000	49.895102
3745.000000	49.945269
3744.000000	49.994098
3743.000000	50.067903
3742.000000	50.150614
3741.000000	50.217403
3740.000000	50.267967
3739.000000	50.325232
3738.000000	50.403420
3737.000000	50.486261
3736.000000	50.548698
3735.000000	50.587325
3734.000000	50.619232
3733.000000	50.653186
3732.000000	50.686155
3731.000000	50.718276
3730.000000	50.754698
3729.000000	50.798100
3728.000000	50.842310
3727.000000	50.878327
3726.000000	50.909216
3725.000000	50.943526
3724.000000	50.978916
3723.000000	51.005216
3722.000000	51.021918
3721.000000	51.042260
3720.000000	51.077557
3719.000000	51.129814
3718.000000	51.189553
3717.000000	51.248521
3716.000000	51.309740
3715.000000	51.379708
3714.000000	51.460385
3713.000000	51.544439
3712.000000	51.625413
3711.000000	51.703240
3710.000000	51.779641
3709.000000	51.854316
3708.000000	51.924329
3707.000000	51.988294
3706.000000	52.049237
3705.000000	52.111333
3704.000000	52.174195
3703.000000	52.233636
3702.000000	52.287869
3701.000000	52.341465
3700.000000	52.397401
3699.000000	52.455072
3698.000000	52.510435
3697.000000	52.559869
3696.000000	52.606810
3695.000000	52.657552
3694.000000	52.712864
3693.000000	52.768046
3692.000000	52.820749
3691.000000	52.871404
3690.000000	52.922617
3689.000000	52.979353
3688.000000	53.041844
3687.000000	53.099408
3686.000000	53.142712
3685.000000	53.172454
3684.000000	53.195551
3683.000000	53.224859
3682.000000	53.270412
3681.000000	53.326494
3680.000000	53.379363
3679.000000	53.427722
3678.000000	53.486153
3677.000000	53.554716
3676.000000	53.615653
3675.000000	53.670002
3674.000000	53.726873
3673.000000	53.782762
3672.000000	53.829678
3671.000000	53.859903
3670.000000	53.881966
3669.000000	53.918240
3668.000000	53.969104
3667.000000	54.015080
3666.000000	54.046916
3665.000000	54.071874
3664.000000	54.101957
3663.000000	54.143560
3662.000000	54.191994
3661.000000	54.237524
3660.000000	54.278466
3659.000000	54.320415
3658.000000	54.368517
3657.000000	54.420465
3656.000000	54.474140
3655.000000	54.529466
3654.000000	54.583318
3653.000000	54.633738
3652.000000	54.682044
3651.000000	54.731575
3650.000000	54.791887
3649.000000	54.870981
3648.000000	54.957534
3647.000000	55.031428
3646.000000	55.085843
3645.000000	55.128578
3644.000000	55.169588
3643.000000	55.214522
3642.000000	55.264451
3641.000000	55.320366
3640.000000	55.381832
3639.000000	55.443693
3638.000000	55.501758
3637.000000	55.557516
3636.000000	55.614587
3635.000000	55.668383
3634.000000	55.708423
3633.000000	55.732099
3632.000000	55.749097
3631.000000	55.769655
3630.000000	55.791782
3629.000000	55.816916
3628.000000	55.853670
3627.000000	55.885656
3626.000000	55.883001
3625.000000	55.839841
3624.000000	55.773868
3623.000000	55.706476
3622.000000	55.647501
3621.000000	55.590968
3620.000000	55.526619
3619.000000	55.455268
3618.000000	55.383052
3617.000000	55.308055
3616.000000	55.222665
3615.000000	55.120129
3614.000000	55.001336
3613.000000	54.877743
3612.000000	54.763168
3611.000000	54.659549
3610.000000	54.557172
3609.000000	54.446843
3608.000000	54.327072
3607.000000	54.199974
3606.000000	54.063550
3605.000000	53.916075
3604.000000	53.761868
3603.000000	53.610304
3602.000000	53.470725
3601.000000	53.347650
3600.000000	53.240322
3599.000000	53.142947
3598.000000	53.046866
3597.000000	52.945415
3596.000000	52.837388
3595.000000	52.720784
3594.000000	52.593200
3593.000000	52.454256
3592.000000	52.308967
3591.000000	52.171169
3590.000000	52.062280
3589.000000	52.002370
3588.000000	51.999231
3587.000000	52.042578
3586.000000	52.104642
3585.000000	52.154053
3584.000000	52.171714
3583.000000	52.156980
3582.000000	52.120189
3581.000000	52.072410
3580.000000	52.019776
3579.000000	51.962979
3578.000000	51.901060
3577.000000	51.833969
3576.000000	51.762943
3575.000000	51.688936
3574.000000	51.611322
3573.000000	51.528297
3572.000000	51.437106
3571.000000	51.336387
3570.000000	51.227740
3569.000000	51.113425
3568.000000	50.994280
3567.000000	50.871226
3566.000000	50.743882
3565.000000	50.606968
3564.000000	50.454427
3563.000000	50.285504
3562.000000	50.104554
3561.000000	49.917021
3560.000000	49.725965
3559.000000	49.531488
3558.000000	49.332106
3557.000000	49.126995
3556.000000	48.916508
3555.000000	48.700806
3554.000000	48.478286
3553.000000	48.247342
3552.000000	48.008792
3551.000000	47.763884
3550.000000	47.511138
3549.000000	47.247538
3548.000000	46.972136
3547.000000	46.687114
3546.000000	46.394631
3545.000000	46.094620
3544.000000	45.785255
3543.000000	45.464277
3542.000000	45.129970
3541.000000	44.782217
3540.000000	44.421995
3539.000000	44.048994
3538.000000	43.660787
3537.000000	43.255794
3536.000000	42.836059
3535.000000	42.404415
3534.000000	41.960984
3533.000000	41.503174
3532.000000	41.028730
3531.000000	40.536196
3530.000000	40.023854
3529.000000	39.491075
3528.000000	38.939956
3527.000000	38.373450
3526.000000	37.791543
3525.000000	37.191869
3524.000000	36.574161
3523.000000	35.941708
3522.000000	35.298063
3521.000000	34.643793
3520.000000	33.976665
3519.000000	33.294079
3518.000000	32.595718
3517.000000	31.884630
3516.000000	31.165228
3515.000000	30.439913
3514.000000	29.709089
3513.000000	28.972772
3512.000000	28.230001
3511.000000	27.478102
3510.000000	26.716362
3509.000000	25.950834
3508.000000	25.191054
3507.000000	24.440276
3506.000000	23.692432
3505.000000	22.940331
3504.000000	22.184501
3503.000000	21.432904
3502.000000	20.694258
3501.000000	19.973265
3500.000000	19.269442
3499.000000	18.578162
3498.000000	17.895098
3497.000000	17.221232
3496.000000	16.562262
3495.000000	15.922898
3494.000000	15.304243
3493.000000	14.706958
3492.000000	14.132180
3491.000000	13.578448
3490.000000	13.042350
3489.000000	12.523494
3488.000000	12.026345
3487.000000	11.555625
3486.000000	11.112119
3485.000000	10.693549
3484.000000	10.295515
3483.000000	9.912041
3482.000000	9.539645
3481.000000	9.181499
3480.000000	8.844315
3479.000000	8.529873
3478.000000	8.233196
3477.000000	7.948582
3476.000000	7.673044
3475.000000	7.404582
3474.000000	7.141347
3473.000000	6.883908
3472.000000	6.635138
3471.000000	6.397463
3470.000000	6.174210
3469.000000	5.972539
3468.000000	5.800640
3467.000000	5.661483
3466.000000	5.552092
3465.000000	5.468845
3464.000000	5.409482
3463.000000	5.371624
3462.000000	5.354714
3461.000000	5.362630
3460.000000	5.400280
3459.000000	5.466876
3458.000000	5.556131
3457.000000	5.662640
3456.000000	5.783238
3455.000000	5.913273
3454.000000	6.046263
3453.000000	6.177005
3452.000000	6.301411
3451.000000	6.413226
3450.000000	6.504366
3449.000000	6.569040
3448.000000	6.604560
3447.000000	6.609007
3446.000000	6.582215
3445.000000	6.527222
3444.000000	6.447868
3443.000000	6.346029
3442.000000	6.223515
3441.000000	6.086009
3440.000000	5.941021
3439.000000	5.793669
3438.000000	5.648822
3437.000000	5.515263
3436.000000	5.402930
3435.000000	5.316209
3434.000000	5.253248
3433.000000	5.211063
3432.000000	5.188747
3431.000000	5.186506
3430.000000	5.206284
3429.000000	5.252991
3428.000000	5.330698
3427.000000	5.439562
3426.000000	5.578091
3425.000000	5.747377
3424.000000	5.950445
3423.000000	6.187825
3422.000000	6.459255
3421.000000	6.766782
3420.000000	7.112539
3419.000000	7.495200
3418.000000	7.910236
3417.000000	8.354155
3416.000000	8.824373
3415.000000	9.317014
3414.000000	9.829173
3413.000000	10.360282
3412.000000	10.909132
3411.000000	11.470640
3410.000000	12.038607
3409.000000	12.610429
3408.000000	13.184920
3407.000000	13.757551
3406.000000	14.321514
3405.000000	14.872310
3404.000000	15.408809
3403.000000	15.931887
3402.000000	16.445360
3401.000000	16.956182
3400.000000	17.469037
3399.000000	17.980614
3398.000000	18.482564
3397.000000	18.969167
3396.000000	19.439353
3395.000000	19.893840
3394.000000	20.334592
3393.000000	20.766953
3392.000000	21.197737
3391.000000	21.629766
3390.000000	22.060951
3389.000000	22.488057
3388.000000	22.909237
3387.000000	23.323621
3386.000000	23.731389
3385.000000	24.134730
3384.000000	24.536303
3383.000000	24.936921
3382.000000	25.336375
3381.000000	25.735565
3380.000000	26.135908
3379.000000	26.537409
3378.000000	26.939435
3377.000000	27.342490
3376.000000	27.746895
3375.000000	28.150613
3374.000000	28.550706
3373.000000	28.946602
3372.000000	29.340140
3371.000000	29.733214
3370.000000	30.127233
3369.000000	30.523700
3368.000000	30.922999
3367.000000	31.323179
3366.000000	31.721769
3365.000000	32.118071
3364.000000	32.512218
3363.000000	32.903375
3362.000000	33.290946
3361.000000	33.676439
3360.000000	34.061897
3359.000000	34.447039
3358.000000	34.829876
3357.000000	35.209466
3356.000000	35.585879
3355.000000	35.958403
3354.000000	36.326068
3353.000000	36.689690
3352.000000	37.051426
3351.000000	37.412101
3350.000000	37.770534
3349.000000	38.125220
3348.000000	38.475132
3347.000000	38.819446
3346.000000	39.157940
3345.000000	39.491616
3344.000000	39.821493
3343.000000	40.146727
3342.000000	40.465575
3341.000000	40.777659
3340.000000	41.083997
3339.000000	41.385040
3338.000000	41.679715
3337.000000	41.966660
3336.000000	42.244530
3335.000000	42.511288
3334.000000	42.764680
3333.000000	43.002957
3332.000000	43.224880
3331.000000	43.428240
3330.000000	43.609694
3329.000000	43.766537
3328.000000	43.896591
3327.000000	43.997439
3326.000000	44.065558
3325.000000	44.096336
3324.000000	44.085550
3323.000000	44.028541
3322.000000	43.921250
3321.000000	43.760387
3320.000000	43.541412
3319.000000	43.259045
3318.000000	42.906713
3317.000000	42.478601
3316.000000	41.968908
3315.000000	41.368752
3314.000000	40.669347
3313.000000	39.863178
3312.000000	38.944921
3311.000000	37.911253
3310.000000	36.759301
3309.000000	35.492281
3308.000000	34.117583
3307.000000	32.643511
3306.000000	31.079426
3305.000000	29.434170
3304.000000	27.718469
3303.000000	25.942516
3302.000000	24.117889
3301.000000	22.262062
3300.000000	20.397244
3299.000000	18.549097
3298.000000	16.747976
3297.000000	15.029949
3296.000000	13.429621
3295.000000	11.973378
3294.000000	10.676495
3293.000000	9.547053
3292.000000	8.585982
3291.000000	7.779955
3290.000000	7.107271
3289.000000	6.542144
3288.000000	6.058402
3287.000000	5.632681
3286.000000	5.245650
3285.000000	4.888004
3284.000000	4.556083
3283.000000	4.247780
3282.000000	3.964764
3281.000000	3.712975
3280.000000	3.500041
3279.000000	3.330312
3278.000000	3.206464
3277.000000	3.133241
3276.000000	3.113771
3275.000000	3.146389
3274.000000	3.226309
3273.000000	3.348019
3272.000000	3.503627
3271.000000	3.679089
3270.000000	3.856926
3269.000000	4.020420
3268.000000	4.153207
3267.000000	4.239367
3266.000000	4.268787
3265.000000	4.241037
3264.000000	4.162567
3263.000000	4.042880
3262.000000	3.894372
3261.000000	3.733728
3260.000000	3.577438
3259.000000	3.437227
3258.000000	3.322151
3257.000000	3.241073
3256.000000	3.199611
3255.000000	3.197478
3254.000000	3.231728
3253.000000	3.299566
3252.000000	3.396692
3251.000000	3.514467
3250.000000	3.643485
3249.000000	3.777832
3248.000000	3.912422
3247.000000	4.040353
3246.000000	4.155022
3245.000000	4.252885
3244.000000	4.331685
3243.000000	4.389016
3242.000000	4.425081
3241.000000	4.444482
3240.000000	4.452187
3239.000000	4.449563
3238.000000	4.437475
3237.000000	4.419168
3236.000000	4.398238
3235.000000	4.376818
3234.000000	4.357670
3233.000000	4.344881
3232.000000	4.338524
3231.000000	4.331870
3230.000000	4.317198
3229.000000	4.291427
3228.000000	4.254118
3227.000000	4.203499
3226.000000	4.138087
3225.000000	4.059377
3224.000000	3.969123
3223.000000	3.867118
3222.000000	3.754228
3221.000000	3.634932
3220.000000	3.514050
3219.000000	3.393239
3218.000000	3.273663
3217.000000	3.158535
3216.000000	3.050004
3215.000000	2.946536
3214.000000	2.846228
3213.000000	2.749660
3212.000000	2.656886
3211.000000	2.565155
3210.000000	2.472650
3209.000000	2.381620
3208.000000	2.294713
3207.000000	2.211582
3206.000000	2.132010
3205.000000	2.058655
3204.000000	1.993892
3203.000000	1.936867
3202.000000	1.886673
3201.000000	1.845333
3200.000000	1.814362
3199.000000	1.792269
3198.000000	1.777945
3197.000000	1.773254
3196.000000	1.779625
3195.000000	1.795001
3194.000000	1.817796
3193.000000	1.849857
3192.000000	1.892584
3191.000000	1.943986
3190.000000	2.001760
3189.000000	2.066486
3188.000000	2.138602
3187.000000	2.215635
3186.000000	2.295880
3185.000000	2.380993
3184.000000	2.472344
3183.000000	2.567852
3182.000000	2.665131
3181.000000	2.764786
3180.000000	2.867457
3179.000000	2.971198
3178.000000	3.074437
3177.000000	3.178238
3176.000000	3.283065
3175.000000	3.386447
3174.000000	3.486556
3173.000000	3.584734
3172.000000	3.682055
3171.000000	3.776725
3170.000000	3.867564
3169.000000	3.956530
3168.000000	4.045016
3167.000000	4.131091
3166.000000	4.212899
3165.000000	4.291613
3164.000000	4.368283
3163.000000	4.441021
3162.000000	4.508176
3161.000000	4.570739
3160.000000	4.629265
3159.000000	4.681615
3158.000000	4.726245
3157.000000	4.764951
3156.000000	4.799752
3155.000000	4.830606
3154.000000	4.858623
3153.000000	4.887878
3152.000000	4.921439
3151.000000	4.958555
3150.000000	4.998178
3149.000000	5.041793
3148.000000	5.090344
3147.000000	5.141889
3146.000000	5.195083
3145.000000	5.251564
3144.000000	5.312240
3143.000000	5.374724
3142.000000	5.436853
3141.000000	5.499494
3140.000000	5.563187
3139.000000	5.625375
3138.000000	5.683624
3137.000000	5.738309
3136.000000	5.789373
3135.000000	5.833465
3134.000000	5.867108
3133.000000	5.889192
3132.000000	5.898297
3131.000000	5.890505
3130.000000	5.862231
3129.000000	5.813006
3128.000000	5.742512
3127.000000	5.649303
3126.000000	5.534828
3125.000000	5.405446
3124.000000	5.268640
3123.000000	5.129217
3122.000000	4.991491
3121.000000	4.861086
3120.000000	4.741620
3119.000000	4.632758
3118.000000	4.533736
3117.000000	4.445540
3116.000000	4.367405
3115.000000	4.295121
3114.000000	4.225169
3113.000000	4.157535
3112.000000	4.092328
3111.000000	4.027507
3110.000000	3.962637
3109.000000	3.900785
3108.000000	3.844345
3107.000000	3.792409
3106.000000	3.744547
3105.000000	3.703820
3104.000000	3.673129
3103.000000	3.652551
3102.000000	3.642813
3101.000000	3.647327
3100.000000	3.668867
3099.000000	3.706831
3098.000000	3.760586
3097.000000	3.832058
3096.000000	3.922018
3095.000000	4.028453
3094.000000	4.149989
3093.000000	4.287839
3092.000000	4.442471
3091.000000	4.611254
3090.000000	4.792333
3089.000000	4.986114
3088.000000	5.191256
3087.000000	5.403457
3086.000000	5.619875
3085.000000	5.841647
3084.000000	6.069305
3083.000000	6.299778
3082.000000	6.530404
3081.000000	6.761756
3080.000000	6.994544
3079.000000	7.227156
3078.000000	7.458585
3077.000000	7.690050
3076.000000	7.921390
3075.000000	8.149424
3074.000000	8.372071
3073.000000	8.590694
3072.000000	8.806279
3071.000000	9.017017
3070.000000	9.221803
3069.000000	9.422637
3068.000000	9.621365
3067.000000	9.817066
3066.000000	10.008916
3065.000000	10.198194
3064.000000	10.385415
3063.000000	10.568899
3062.000000	10.747983
3061.000000	10.924646
3060.000000	11.099929
3059.000000	11.272029
3058.000000	11.439964
3057.000000	11.605712
3056.000000	11.770912
3055.000000	11.934501
3054.000000	12.095559
3053.000000	12.255468
3052.000000	12.415247
3051.000000	12.573819
3050.000000	12.730589
3049.000000	12.886746
3048.000000	13.042447
3047.000000	13.195687
3046.000000	13.345726
3045.000000	13.494597
3044.000000	13.643803
3043.000000	13.792687
3042.000000	13.941323
3041.000000	14.091521
3040.000000	14.243164
3039.000000	14.392990
3038.000000	14.538992
3037.000000	14.683020
3036.000000	14.827514
3035.000000	14.972727
3034.000000	15.118653
3033.000000	15.266355
3032.000000	15.415595
3031.000000	15.564322
3030.000000	15.712081
3029.000000	15.860672
3028.000000	16.010052
3027.000000	16.157117
3026.000000	16.300207
3025.000000	16.441364
3024.000000	16.582007
3023.000000	16.719713
3022.000000	16.851119
3021.000000	16.974503
3020.000000	17.087605
3019.000000	17.185396
3018.000000	17.262838
3017.000000	17.317543
3016.000000	17.348692
3015.000000	17.357161
3014.000000	17.348862
3013.000000	17.336303
3012.000000	17.334514
3011.000000	17.356988
3010.000000	17.414733
3009.000000	17.514005
3008.000000	17.651743
3007.000000	17.815232
3006.000000	17.987840
3005.000000	18.153116
3004.000000	18.293041
3003.000000	18.386510
3002.000000	18.412880
3001.000000	18.355745
3000.000000	18.206447
2999.000000	17.970708
2998.000000	17.678205
2997.000000	17.383351
2996.000000	17.151537
2995.000000	17.039652
2994.000000	17.079785
2993.000000	17.270560
2992.000000	17.576353
2991.000000	17.941738
2990.000000	18.314212
2989.000000	18.659671
2988.000000	18.963169
2987.000000	19.222074
2986.000000	19.441370
2985.000000	19.628495
2984.000000	19.787819
2983.000000	19.918580
2982.000000	20.019009
2981.000000	20.088382
2980.000000	20.124365
2979.000000	20.121622
2978.000000	20.075496
2977.000000	19.987068
2976.000000	19.863694
2975.000000	19.719538
2974.000000	19.575926
2973.000000	19.456652
2972.000000	19.378418
2971.000000	19.343752
2970.000000	19.341022
2969.000000	19.345826
2968.000000	19.322126
2967.000000	19.231259
2966.000000	19.049391
2965.000000	18.780420
2964.000000	18.453808
2963.000000	18.112601
2962.000000	17.801610
2961.000000	17.556957
2960.000000	17.399111
2959.000000	17.333286
2958.000000	17.357709
2957.000000	17.467406
2956.000000	17.650585
2955.000000	17.886888
2954.000000	18.151611
2953.000000	18.419776
2952.000000	18.664861
2951.000000	18.862156
2950.000000	18.997809
2949.000000	19.075231
2948.000000	19.110330
2947.000000	19.119655
2946.000000	19.107977
2945.000000	19.055976
2944.000000	18.918643
2943.000000	18.646603
2942.000000	18.228215
2941.000000	17.721272
2940.000000	17.247814
2939.000000	16.950575
2938.000000	16.933815
2937.000000	17.221113
2936.000000	17.749744
2935.000000	18.407397
2934.000000	19.084794
2933.000000	19.710231
2932.000000	20.252535
2931.000000	20.708954
2930.000000	21.093506
2929.000000	21.425551
2928.000000	21.720623
2927.000000	21.986904
2926.000000	22.230060
2925.000000	22.455975
2924.000000	22.667821
2923.000000	22.864860
2922.000000	23.046725
2921.000000	23.215620
2920.000000	23.372533
2919.000000	23.515771
2918.000000	23.644481
2917.000000	23.760651
2916.000000	23.865946
2915.000000	23.959841
2914.000000	24.042437
2913.000000	24.115607
2912.000000	24.179717
2911.000000	24.232301
2910.000000	24.270797
2909.000000	24.293452
2908.000000	24.296090
2907.000000	24.270178
2906.000000	24.205684
2905.000000	24.092445
2904.000000	23.918322
2903.000000	23.671144
2902.000000	23.346201
2901.000000	22.952261
2900.000000	22.511924
2899.000000	22.060698
2898.000000	21.644837
2897.000000	21.313733
2896.000000	21.104984
2895.000000	21.034122
2894.000000	21.096144
2893.000000	21.270772
2892.000000	21.527400
2891.000000	21.831468
2890.000000	22.153776
2889.000000	22.474252
2888.000000	22.779176
2887.000000	23.058742
2886.000000	23.308137
2885.000000	23.527666
2884.000000	23.718364
2883.000000	23.880634
2882.000000	24.017217
2881.000000	24.134200
2880.000000	24.237610
2879.000000	24.331440
2878.000000	24.419666
2877.000000	24.506444
2876.000000	24.592744
2875.000000	24.675469
2874.000000	24.751843
2873.000000	24.822260
2872.000000	24.888690
2871.000000	24.954174
2870.000000	25.024998
2869.000000	25.109588
2868.000000	25.212532
2867.000000	25.331611
2866.000000	25.461495
2865.000000	25.597118
2864.000000	25.732552
2863.000000	25.860939
2862.000000	25.978231
2861.000000	26.084740
2860.000000	26.181859
2859.000000	26.269924
2858.000000	26.350526
2857.000000	26.427610
2856.000000	26.504350
2855.000000	26.581483
2854.000000	26.659787
2853.000000	26.740986
2852.000000	26.824608
2851.000000	26.906951
2850.000000	26.984769
2849.000000	27.057691
2848.000000	27.126289
2847.000000	27.190891
2846.000000	27.253604
2845.000000	27.318371
2844.000000	27.387436
2843.000000	27.460053
2842.000000	27.535596
2841.000000	27.615347
2840.000000	27.700168
2839.000000	27.789127
2838.000000	27.881580
2837.000000	27.978023
2836.000000	28.077955
2835.000000	28.179509
2834.000000	28.282097
2833.000000	28.386920
2832.000000	28.493992
2831.000000	28.601284
2830.000000	28.707663
2829.000000	28.813891
2828.000000	28.919688
2827.000000	29.022647
2826.000000	29.121175
2825.000000	29.215933
2824.000000	29.307401
2823.000000	29.394638
2822.000000	29.477702
2821.000000	29.558672
2820.000000	29.638795
2819.000000	29.716921
2818.000000	29.791773
2817.000000	29.863527
2816.000000	29.932126
2815.000000	29.996438
2814.000000	30.056321
2813.000000	30.113349
2812.000000	30.168439
2811.000000	30.220966
2810.000000	30.271082
2809.000000	30.320565
2808.000000	30.370388
2807.000000	30.419653
2806.000000	30.467836
2805.000000	30.515746
2804.000000	30.563383
2803.000000	30.609325
2802.000000	30.653295
2801.000000	30.697041
2800.000000	30.741671
2799.000000	30.786358
2798.000000	30.830519
2797.000000	30.874803
2796.000000	30.918898
2795.000000	30.960805
2794.000000	30.999503
2793.000000	31.036177
2792.000000	31.071881
2791.000000	31.106193
2790.000000	31.139081
2789.000000	31.171650
2788.000000	31.203914
2787.000000	31.234083
2786.000000	31.261269
2785.000000	31.287036
2784.000000	31.313527
2783.000000	31.342378
2782.000000	31.376243
2781.000000	31.418621
2780.000000	31.470751
2779.000000	31.530477
2778.000000	31.594956
2777.000000	31.662564
2776.000000	31.731550
2775.000000	31.799462
2774.000000	31.865157
2773.000000	31.929228
2772.000000	31.991565
2771.000000	32.050658
2770.000000	32.106087
2769.000000	32.159452
2768.000000	32.211819
2767.000000	32.262217
2766.000000	32.309590
2765.000000	32.354029
2764.000000	32.395151
2763.000000	32.431573
2762.000000	32.463016
2761.000000	32.491136
2760.000000	32.517358
2759.000000	32.541601
2758.000000	32.563765
2757.000000	32.584266
2756.000000	32.602463
2755.000000	32.616863
2754.000000	32.627756
2753.000000	32.638011
2752.000000	32.650794
2751.000000	32.668381
2750.000000	32.693163
2749.000000	32.726678
2748.000000	32.766449
2747.000000	32.806195
2746.000000	32.840538
2745.000000	32.868094
2744.000000	32.890099
2743.000000	32.908692
2742.000000	32.926866
2741.000000	32.946869
2740.000000	32.966972
2739.000000	32.982076
2738.000000	32.989317
2737.000000	32.992201
2736.000000	32.999003
2735.000000	33.019103
2734.000000	33.060448
2733.000000	33.126262
2732.000000	33.212107
2731.000000	33.307911
2730.000000	33.404181
2729.000000	33.495726
2728.000000	33.579985
2727.000000	33.655221
2726.000000	33.721618
2725.000000	33.781359
2724.000000	33.835793
2723.000000	33.884136
2722.000000	33.925313
2721.000000	33.958858
2720.000000	33.983829
2719.000000	33.999163
2718.000000	34.006459
2717.000000	34.010621
2716.000000	34.016674
2715.000000	34.027815
2714.000000	34.046558
2713.000000	34.074822
2712.000000	34.111793
2711.000000	34.154014
2710.000000	34.198615
2709.000000	34.244663
2708.000000	34.290838
2707.000000	34.334272
2706.000000	34.372787
2705.000000	34.406100
2704.000000	34.433794
2703.000000	34.454229
2702.000000	34.466301
2701.000000	34.469941
2700.000000	34.464533
2699.000000	34.449013
2698.000000	34.424545
2697.000000	34.395339
2696.000000	34.365685
2695.000000	34.338222
2694.000000	34.315233
2693.000000	34.298668
2692.000000	34.287895
2691.000000	34.279890
2690.000000	34.272822
2689.000000	34.267616
2688.000000	34.265426
2687.000000	34.265993
2686.000000	34.269504
2685.000000	34.277424
2684.000000	34.290333
2683.000000	34.307430
2682.000000	34.328953
2681.000000	34.356975
2680.000000	34.392468
2679.000000	34.433533
2678.000000	34.477519
2677.000000	34.522431
2676.000000	34.565500
2675.000000	34.602840
2674.000000	34.631833
2673.000000	34.652201
2672.000000	34.664260
2671.000000	34.668439
2670.000000	34.667534
2669.000000	34.667324
2668.000000	34.673584
2667.000000	34.689909
2666.000000	34.718461
2665.000000	34.759901
2664.000000	34.811250
2663.000000	34.866156
2662.000000	34.918393
2661.000000	34.963579
2660.000000	34.997638
2659.000000	35.016674
2658.000000	35.019850
2657.000000	35.010697
2656.000000	34.994640
2655.000000	34.977003
2654.000000	34.963920
2653.000000	34.962104
2652.000000	34.975905
2651.000000	35.006060
2650.000000	35.051677
2649.000000	35.110880
2648.000000	35.179111
2647.000000	35.249303
2646.000000	35.315318
2645.000000	35.374252
2644.000000	35.425135
2643.000000	35.468301
2642.000000	35.506885
2641.000000	35.546323
2640.000000	35.590730
2639.000000	35.640839
2638.000000	35.695515
2637.000000	35.752899
2636.000000	35.809510
2635.000000	35.860795
2634.000000	35.904059
2633.000000	35.939272
2632.000000	35.966700
2631.000000	35.986168
2630.000000	35.998998
2629.000000	36.008391
2628.000000	36.016509
2627.000000	36.023000
2626.000000	36.027340
2625.000000	36.030125
2624.000000	36.031600
2623.000000	36.031110
2622.000000	36.028940
2621.000000	36.026775
2620.000000	36.025130
2619.000000	36.022299
2618.000000	36.016293
2617.000000	36.005632
2616.000000	35.987906
2615.000000	35.959881
2614.000000	35.920532
2613.000000	35.872257
2612.000000	35.818560
2611.000000	35.763047
2610.000000	35.711034
2609.000000	35.669274
2608.000000	35.642469
2607.000000	35.631782
2606.000000	35.636828
2605.000000	35.657094
2604.000000	35.690529
2603.000000	35.733292
2602.000000	35.782710
2601.000000	35.837621
2600.000000	35.895696
2599.000000	35.952812
2598.000000	36.005874
2597.000000	36.054481
2596.000000	36.098892
2595.000000	36.139041
2594.000000	36.176491
2593.000000	36.214733
2592.000000	36.255934
2591.000000	36.299137
2590.000000	36.342187
2589.000000	36.383201
2588.000000	36.419641
2587.000000	36.448495
2586.000000	36.469067
2585.000000	36.483906
2584.000000	36.496401
2583.000000	36.509715
2582.000000	36.528608
2581.000000	36.559252
2580.000000	36.605500
2579.000000	36.666875
2578.000000	36.740548
2577.000000	36.823470
2576.000000	36.911610
2575.000000	37.000010
2574.000000	37.085533
2573.000000	37.167755
2572.000000	37.246786
2571.000000	37.321902
2570.000000	37.392896
2569.000000	37.460525
2568.000000	37.524717
2567.000000	37.584162
2566.000000	37.638644
2565.000000	37.690005
2564.000000	37.739776
2563.000000	37.787983
2562.000000	37.834710
2561.000000	37.880802
2560.000000	37.926250
2559.000000	37.969705
2558.000000	38.010661
2557.000000	38.050176
2556.000000	38.088928
2555.000000	38.126709
2554.000000	38.164562
2553.000000	38.205233
2552.000000	38.250470
2551.000000	38.299646
2550.000000	38.351635
2549.000000	38.405918
2548.000000	38.460926
2547.000000	38.513591
2546.000000	38.561706
2545.000000	38.605118
2544.000000	38.643689
2543.000000	38.676228
2542.000000	38.702380
2541.000000	38.723402
2540.000000	38.740128
2539.000000	38.751223
2538.000000	38.754695
2537.000000	38.749468
2536.000000	38.734430
2535.000000	38.708502
2534.000000	38.672174
2533.000000	38.627947
2532.000000	38.578420
2531.000000	38.525060
2530.000000	38.469889
2529.000000	38.416028
2528.000000	38.365883
2527.000000	38.320240
2526.000000	38.279533
2525.000000	38.244116
2524.000000	38.212583
2523.000000	38.181747
2522.000000	38.149011
2521.000000	38.113018
2520.000000	38.071713
2519.000000	38.022095
2518.000000	37.962843
2517.000000	37.895417
2516.000000	37.821657
2515.000000	37.742834
2514.000000	37.661611
2513.000000	37.582820
2512.000000	37.511219
2511.000000	37.450349
2510.000000	37.403795
2509.000000	37.375066
2508.000000	37.365340
2507.000000	37.372649
2506.000000	37.395013
2505.000000	37.431316
2504.000000	37.478973
2503.000000	37.533630
2502.000000	37.591362
2501.000000	37.649980
2500.000000	37.706907
2499.000000	37.758445
2498.000000	37.802174
2497.000000	37.837871
2496.000000	37.865397
2495.000000	37.883968
2494.000000	37.894376
2493.000000	37.899440
2492.000000	37.901759
2491.000000	37.902659
2490.000000	37.904112
2489.000000	37.909202
2488.000000	37.919511
2487.000000	37.934245
2486.000000	37.952596
2485.000000	37.974679
2484.000000	37.999336
2483.000000	38.023708
2482.000000	38.046160
2481.000000	38.067743
2480.000000	38.089917
2479.000000	38.112847
2478.000000	38.137105
2477.000000	38.164658
2476.000000	38.197272
2475.000000	38.235843
2474.000000	38.281769
2473.000000	38.337113
2472.000000	38.402011
2471.000000	38.473960
2470.000000	38.550366
2469.000000	38.629477
2468.000000	38.708640
2467.000000	38.783861
2466.000000	38.852390
2465.000000	38.913904
2464.000000	38.968642
2463.000000	39.016425
2462.000000	39.058324
2461.000000	39.097033
2460.000000	39.134111
2459.000000	39.168896
2458.000000	39.200312
2457.000000	39.227984
2456.000000	39.250937
2455.000000	39.267265
2454.000000	39.276711
2453.000000	39.281620
2452.000000	39.284854
2451.000000	39.288528
2450.000000	39.295278
2449.000000	39.308445
2448.000000	39.329871
2447.000000	39.359343
2446.000000	39.396747
2445.000000	39.443016
2444.000000	39.497586
2443.000000	39.557157
2442.000000	39.617844
2441.000000	39.676898
2440.000000	39.732097
2439.000000	39.781437
2438.000000	39.824648
2437.000000	39.863179
2436.000000	39.897981
2435.000000	39.928437
2434.000000	39.954001
2433.000000	39.974829
2432.000000	39.990060
2431.000000	39.997831
2430.000000	39.997124
2429.000000	39.988296
2428.000000	39.971139
2427.000000	39.944088
2426.000000	39.906657
2425.000000	39.860211
2424.000000	39.806613
2423.000000	39.748177
2422.000000	39.689630
2421.000000	39.637938
2420.000000	39.598677
2419.000000	39.574049
2418.000000	39.564298
2417.000000	39.568675
2416.000000	39.583509
2415.000000	39.601985
2414.000000	39.616975
2413.000000	39.622952
2412.000000	39.615070
2411.000000	39.589252
2410.000000	39.544546
2409.000000	39.483752
2408.000000	39.411278
2407.000000	39.331267
2406.000000	39.248591
2405.000000	39.168413
2404.000000	39.093823
2403.000000	39.025773
2402.000000	38.966025
2401.000000	38.917953
2400.000000	38.883398
2399.000000	38.860833
2398.000000	38.846969
2397.000000	38.838439
2396.000000	38.830618
2395.000000	38.817928
2394.000000	38.796453
2393.000000	38.765300
2392.000000	38.725336
2391.000000	38.679017
2390.000000	38.632407
2389.000000	38.594434
2388.000000	38.573960
2387.000000	38.577895
2386.000000	38.612531
2385.000000	38.682892
2384.000000	38.788440
2383.000000	38.921998
2382.000000	39.072249
2381.000000	39.226379
2380.000000	39.369164
2379.000000	39.484565
2378.000000	39.563775
2377.000000	39.607166
2376.000000	39.620650
2375.000000	39.610249
2374.000000	39.583755
2373.000000	39.554278
2372.000000	39.532584
2371.000000	39.519793
2370.000000	39.515225
2369.000000	39.527727
2368.000000	39.562932
2367.000000	39.611843
2366.000000	39.675279
2365.000000	39.766049
2364.000000	39.879956
2363.000000	40.001256
2362.000000	40.152454
2361.000000	40.242968
2360.000000	40.408735
2359.000000	40.359974
2358.000000	40.576632
2357.000000	39.997466
2356.000000	35.660808
2355.000000	36.188893
2354.000000	36.186308
2353.000000	36.414986
2352.000000	36.522816
2351.000000	36.666523
2350.000000	36.792216
2349.000000	36.824618
2348.000000	36.958286
2347.000000	36.806606
2346.000000	37.255426
2345.000000	41.038315
2344.000000	40.757998
2343.000000	40.870819
2342.000000	40.789084
2341.000000	40.815999
2340.000000	40.788363
2339.000000	40.783806
2338.000000	40.762856
2337.000000	40.749255
2336.000000	40.745005
2335.000000	40.747378
2334.000000	40.734223
2333.000000	40.693265
2332.000000	40.610445
2331.000000	40.473612
2330.000000	40.323602
2329.000000	40.168980
2328.000000	40.055135
2327.000000	39.968621
2326.000000	39.919520
2325.000000	39.895269
2324.000000	39.870088
2323.000000	39.829658
2322.000000	39.756408
2321.000000	39.670533
2320.000000	39.582771
2319.000000	39.511479
2318.000000	39.465467
2317.000000	39.444524
2316.000000	39.440848
2315.000000	39.425458
2314.000000	39.384125
2313.000000	39.299044
2312.000000	39.181651
2311.000000	39.031731
2310.000000	38.868179
2309.000000	38.692657
2308.000000	38.517025
2307.000000	38.338342
2306.000000	38.165126
2305.000000	37.999145
2304.000000	37.844292
2303.000000	37.694051
2302.000000	37.548484
2301.000000	37.404128
2300.000000	37.264657
2299.000000	37.126223
2298.000000	36.995676
2297.000000	36.874716
2296.000000	36.772097
2295.000000	36.687419
2294.000000	36.627488
2293.000000	36.595010
2292.000000	36.593060
2291.000000	36.616968
2290.000000	36.663241
2289.000000	36.728936
2288.000000	36.811198
2287.000000	36.906547
2286.000000	37.012371
2285.000000	37.128015
2284.000000	37.249257
2283.000000	37.370916
2282.000000	37.488072
2281.000000	37.599515
2280.000000	37.702580
2279.000000	37.795326
2278.000000	37.877574
2277.000000	37.952363
2276.000000	38.022737
2275.000000	38.090411
2274.000000	38.159741
2273.000000	38.236159
2272.000000	38.323774
2271.000000	38.423390
2270.000000	38.536327
2269.000000	38.664700
2268.000000	38.808236
2267.000000	38.963366
2266.000000	39.127193
2265.000000	39.297495
2264.000000	39.471114
2263.000000	39.642465
2262.000000	39.807609
2261.000000	39.965832
2260.000000	40.115638
2259.000000	40.255093
2258.000000	40.382791
2257.000000	40.500469
2256.000000	40.609374
2255.000000	40.709981
2254.000000	40.804345
2253.000000	40.896445
2252.000000	40.989897
2251.000000	41.085403
2250.000000	41.183564
2249.000000	41.284543
2248.000000	41.386676
2247.000000	41.485196
2246.000000	41.576153
2245.000000	41.658143
2244.000000	41.731166
2243.000000	41.795360
2242.000000	41.852188
2241.000000	41.904253
2240.000000	41.952299
2239.000000	41.994221
2238.000000	42.027565
2237.000000	42.051386
2236.000000	42.065352
2235.000000	42.069707
2234.000000	42.067452
2233.000000	42.064659
2232.000000	42.067177
2231.000000	42.078372
2230.000000	42.099617
2229.000000	42.130378
2228.000000	42.166824
2227.000000	42.202996
2226.000000	42.234736
2225.000000	42.261072
2224.000000	42.281873
2223.000000	42.296753
2222.000000	42.307137
2221.000000	42.316616
2220.000000	42.328087
2219.000000	42.342277
2218.000000	42.359791
2217.000000	42.382210
2216.000000	42.410380
2215.000000	42.443780
2214.000000	42.482575
2213.000000	42.527858
2212.000000	42.579202
2211.000000	42.633935
2210.000000	42.689706
2209.000000	42.745392
2208.000000	42.798973
2207.000000	42.846931
2206.000000	42.886688
2205.000000	42.917720
2204.000000	42.939496
2203.000000	42.950881
2202.000000	42.952420
2201.000000	42.947202
2200.000000	42.938402
2199.000000	42.927892
2198.000000	42.917807
2197.000000	42.910932
2196.000000	42.908778
2195.000000	42.911395
2194.000000	42.920206
2193.000000	42.938568
2192.000000	42.968525
2191.000000	43.009138
2190.000000	43.058641
2189.000000	43.116045
2188.000000	43.179687
2187.000000	43.246737
2186.000000	43.315113
2185.000000	43.383950
2184.000000	43.451503
2183.000000	43.514697
2182.000000	43.571790
2181.000000	43.623366
2180.000000	43.670282
2179.000000	43.712641
2178.000000	43.751316
2177.000000	43.787938
2176.000000	43.822171
2175.000000	43.851155
2174.000000	43.872427
2173.000000	43.885661
2172.000000	43.891040
2171.000000	43.888557
2170.000000	43.879999
2169.000000	43.869328
2168.000000	43.859798
2167.000000	43.852345
2166.000000	43.847364
2165.000000	43.845654
2164.000000	43.846697
2163.000000	43.848516
2162.000000	43.850431
2161.000000	43.854181
2160.000000	43.861555
2159.000000	43.873106
2158.000000	43.889927
2157.000000	43.914013
2156.000000	43.945550
2155.000000	43.981754
2154.000000	44.019352
2153.000000	44.056204
2152.000000	44.090131
2151.000000	44.118911
2150.000000	44.142720
2149.000000	44.164495
2148.000000	44.186579
2147.000000	44.208929
2146.000000	44.231028
2145.000000	44.253125
2144.000000	44.274420
2143.000000	44.292377
2142.000000	44.305260
2141.000000	44.313775
2140.000000	44.319368
2139.000000	44.322926
2138.000000	44.325836
2137.000000	44.329896
2136.000000	44.334812
2135.000000	44.337449
2134.000000	44.334586
2133.000000	44.324623
2132.000000	44.306416
2131.000000	44.279075
2130.000000	44.244130
2129.000000	44.205744
2128.000000	44.167835
2127.000000	44.132777
2126.000000	44.103234
2125.000000	44.082557
2124.000000	44.072058
2123.000000	44.070541
2122.000000	44.077586
2121.000000	44.094971
2120.000000	44.123975
2119.000000	44.163653
2118.000000	44.212425
2117.000000	44.268660
2116.000000	44.328504
2115.000000	44.385683
2114.000000	44.435176
2113.000000	44.475265
2112.000000	44.505505
2111.000000	44.525370
2110.000000	44.536094
2109.000000	44.541496
2108.000000	44.545551
2107.000000	44.550666
2106.000000	44.559011
2105.000000	44.572804
2104.000000	44.591750
2103.000000	44.612058
2102.000000	44.628926
2101.000000	44.638285
2100.000000	44.635822
2099.000000	44.617426
2098.000000	44.582386
2097.000000	44.534455
2096.000000	44.479111
2095.000000	44.422190
2094.000000	44.371383
2093.000000	44.335577
2092.000000	44.320586
2091.000000	44.327121
2090.000000	44.353623
2089.000000	44.398391
2088.000000	44.457714
2087.000000	44.525218
2086.000000	44.594772
2085.000000	44.661958
2084.000000	44.722322
2083.000000	44.770664
2082.000000	44.803478
2081.000000	44.820556
2080.000000	44.823044
2079.000000	44.811782
2078.000000	44.788699
2077.000000	44.757254
2076.000000	44.719853
2075.000000	44.676491
2074.000000	44.626364
2073.000000	44.569117
2072.000000	44.503633
2071.000000	44.428153
2070.000000	44.343133
2069.000000	44.251391
2068.000000	44.154455
2067.000000	44.051466
2066.000000	43.942635
2065.000000	43.831219
2064.000000	43.720243
2063.000000	43.609595
2062.000000	43.497867
2061.000000	43.384312
2060.000000	43.267860
2059.000000	43.147082
2058.000000	43.022999
2057.000000	42.899797
2056.000000	42.781631
2055.000000	42.670890
2054.000000	42.570260
2053.000000	42.482742
2052.000000	42.408179
2051.000000	42.343187
2050.000000	42.285717
2049.000000	42.236895
2048.000000	42.197468
2047.000000	42.166137
2046.000000	42.142812
2045.000000	42.129236
2044.000000	42.125250
2043.000000	42.128215
2042.000000	42.137212
2041.000000	42.154772
2040.000000	42.182789
2039.000000	42.220683
2038.000000	42.268823
2037.000000	42.329575
2036.000000	42.404074
2035.000000	42.490828
2034.000000	42.588598
2033.000000	42.697207
2032.000000	42.813979
2031.000000	42.933088
2030.000000	43.049560
2029.000000	43.161086
2028.000000	43.266007
2027.000000	43.363003
2026.000000	43.453711
2025.000000	43.542259
2024.000000	43.630860
2023.000000	43.718686
2022.000000	43.805477
2021.000000	43.892469
2020.000000	43.979007
2019.000000	44.062272
2018.000000	44.141827
2017.000000	44.221416
2016.000000	44.304956
2015.000000	44.393715
2014.000000	44.488199
2013.000000	44.589261
2012.000000	44.695785
2011.000000	44.804311
2010.000000	44.912274
2009.000000	45.019105
2008.000000	45.123825
2007.000000	45.224518
2006.000000	45.321224
2005.000000	45.416559
2004.000000	45.512276
2003.000000	45.607638
2002.000000	45.701578
2001.000000	45.793631
2000.000000	45.881872
1999.000000	45.962812
1998.000000	46.035179
1997.000000	46.101994
1996.000000	46.167093
1995.000000	46.231506
1994.000000	46.295099
1993.000000	46.359935
1992.000000	46.429963
1991.000000	46.508154
1990.000000	46.595252
1989.000000	46.689813
1988.000000	46.788276
1987.000000	46.886405
1986.000000	46.982059
1985.000000	47.075840
1984.000000	47.168740
1983.000000	47.261212
1982.000000	47.354491
1981.000000	47.450642
1980.000000	47.550069
1979.000000	47.650305
1978.000000	47.748527
1977.000000	47.843871
1976.000000	47.936508
1975.000000	48.026393
1974.000000	48.114531
1973.000000	48.203658
1972.000000	48.295538
1971.000000	48.388063
1970.000000	48.475767
1969.000000	48.552849
1968.000000	48.615349
1967.000000	48.662289
1966.000000	48.696197
1965.000000	48.720466
1964.000000	48.735864
1963.000000	48.740402
1962.000000	48.732709
1961.000000	48.714591
1960.000000	48.689250
1959.000000	48.659653
1958.000000	48.629319
1957.000000	48.602399
1956.000000	48.582102
1955.000000	48.570297
1954.000000	48.569274
1953.000000	48.581781
1952.000000	48.608676
1951.000000	48.647742
1950.000000	48.694894
1949.000000	48.745147
1948.000000	48.793295
1947.000000	48.835401
1946.000000	48.869174
1945.000000	48.892105
1944.000000	48.901354
1943.000000	48.898812
1942.000000	48.894318
1941.000000	48.898877
1940.000000	48.914725
1939.000000	48.935119
1938.000000	48.952309
1937.000000	48.962278
1936.000000	48.963155
1935.000000	48.953615
1934.000000	48.935058
1933.000000	48.911891
1932.000000	48.887968
1931.000000	48.865676
1930.000000	48.847753
1929.000000	48.837765
1928.000000	48.837662
1927.000000	48.846598
1926.000000	48.861565
1925.000000	48.877430
1924.000000	48.890304
1923.000000	48.903621
1922.000000	48.926986
1921.000000	48.964400
1920.000000	49.006081
1919.000000	49.036864
1918.000000	49.052217
1917.000000	49.058841
1916.000000	49.060918
1915.000000	49.055333
1914.000000	49.039122
1913.000000	49.014385
1912.000000	48.985097
1911.000000	48.954501
1910.000000	48.927321
1909.000000	48.910100
1908.000000	48.905657
1907.000000	48.911398
1906.000000	48.924732
1905.000000	48.945131
1904.000000	48.972431
1903.000000	49.006943
1902.000000	49.051598
1901.000000	49.110743
1900.000000	49.185186
1899.000000	49.271364
1898.000000	49.364017
1897.000000	49.456679
1896.000000	49.542121
1895.000000	49.617036
1894.000000	49.684959
1893.000000	49.750267
1892.000000	49.810856
1891.000000	49.861509
1890.000000	49.904470
1889.000000	49.949905
1888.000000	50.003898
1887.000000	50.062499
1886.000000	50.118465
1885.000000	50.168182
1884.000000	50.212177
1883.000000	50.253248
1882.000000	50.295383
1881.000000	50.342746
1880.000000	50.397431
1879.000000	50.458901
1878.000000	50.526161
1877.000000	50.597421
1876.000000	50.667773
1875.000000	50.732325
1874.000000	50.791531
1873.000000	50.849264
1872.000000	50.905152
1871.000000	50.952630
1870.000000	50.988704
1869.000000	51.023086
1868.000000	51.069641
1867.000000	51.132725
1866.000000	51.207692
1865.000000	51.286678
1864.000000	51.361603
1863.000000	51.427534
1862.000000	51.485520
1861.000000	51.540868
1860.000000	51.598350
1859.000000	51.660237
1858.000000	51.727540
1857.000000	51.799814
1856.000000	51.873217
1855.000000	51.942282
1854.000000	52.003555
1853.000000	52.057520
1852.000000	52.107025
1851.000000	52.153964
1850.000000	52.200830
1849.000000	52.253975
1848.000000	52.320591
1847.000000	52.400359
1846.000000	52.480289
1845.000000	52.544502
1844.000000	52.593147
1843.000000	52.638256
1842.000000	52.686397
1841.000000	52.737501
1840.000000	52.789053
1839.000000	52.839637
1838.000000	52.891358
1837.000000	52.946470
1836.000000	53.004754
1835.000000	53.065669
1834.000000	53.129106
1833.000000	53.192076
1832.000000	53.245523
1831.000000	53.282028
1830.000000	53.311726
1829.000000	53.356005
1828.000000	53.423442
1827.000000	53.503651
1826.000000	53.582472
1825.000000	53.657203
1824.000000	53.732410
1823.000000	53.807528
1822.000000	53.877383
1821.000000	53.939242
1820.000000	53.993500
1819.000000	54.041895
1818.000000	54.088218
1817.000000	54.137773
1816.000000	54.193315
1815.000000	54.250318
1814.000000	54.298983
1813.000000	54.329822
1812.000000	54.337823
1811.000000	54.326055
1810.000000	54.304907
1809.000000	54.285617
1808.000000	54.274954
1807.000000	54.276051
1806.000000	54.290500
1805.000000	54.315928
1804.000000	54.344208
1803.000000	54.364966
1802.000000	54.373810
1801.000000	54.376670
1800.000000	54.382770
1799.000000	54.397261
1798.000000	54.422241
1797.000000	54.459986
1796.000000	54.512190
1795.000000	54.574413
1794.000000	54.632103
1793.000000	54.671015
1792.000000	54.691670
1791.000000	54.704841
1790.000000	54.719694
1789.000000	54.740824
1788.000000	54.767419
1787.000000	54.794702
1786.000000	54.820604
1785.000000	54.848903
1784.000000	54.883153
1783.000000	54.917509
1782.000000	54.940279
1781.000000	54.948299
1780.000000	54.951466
1779.000000	54.962701
1778.000000	54.987484
1777.000000	55.028091
1776.000000	55.090118
1775.000000	55.175665
1774.000000	55.273160
1773.000000	55.370127
1772.000000	55.467546
1771.000000	55.563205
1770.000000	55.648060
1769.000000	55.719180
1768.000000	55.783121
1767.000000	55.849948
1766.000000	55.924791
1765.000000	56.006019
1764.000000	56.084387
1763.000000	56.145524
1762.000000	56.186155
1761.000000	56.217852
1760.000000	56.249191
1759.000000	56.278518
1758.000000	56.300354
1757.000000	56.321049
1756.000000	56.359525
1755.000000	56.423547
1754.000000	56.503869
1753.000000	56.586094
1752.000000	56.658062
1751.000000	56.716508
1750.000000	56.763888
1749.000000	56.804832
1748.000000	56.850778
1747.000000	56.910757
1746.000000	56.981914
1745.000000	57.057804
1744.000000	57.137947
1743.000000	57.223197
1742.000000	57.305998
1741.000000	57.371573
1740.000000	57.414566
1739.000000	57.445538
1738.000000	57.474607
1737.000000	57.507723
1736.000000	57.537108
1735.000000	57.546705
1734.000000	57.561646
1733.000000	57.604975
1732.000000	57.648556
1731.000000	57.670092
1730.000000	57.672711
1729.000000	57.665337
1728.000000	57.656018
1727.000000	57.649711
1726.000000	57.649383
1725.000000	57.658185
1724.000000	57.679906
1723.000000	57.718501
1722.000000	57.771553
1721.000000	57.827709
1720.000000	57.869978
1719.000000	57.886983
1718.000000	57.894954
1717.000000	57.919622
1716.000000	57.955785
1715.000000	57.991333
1714.000000	58.036338
1713.000000	58.100918
1712.000000	58.178403
1711.000000	58.258944
1710.000000	58.340841
1709.000000	58.422170
1708.000000	58.492531
1707.000000	58.545005
1706.000000	58.593034
1705.000000	58.659350
1704.000000	58.748078
1703.000000	58.858488
1702.000000	58.975122
1701.000000	59.075024
1700.000000	59.178471
1699.000000	59.282079
1698.000000	59.365642
1697.000000	59.443379
1696.000000	59.536970
1695.000000	59.655942
1694.000000	59.774275
1693.000000	59.867850
1692.000000	59.947011
1691.000000	60.025363
1690.000000	60.098230
1689.000000	60.152982
1688.000000	60.191123
1687.000000	60.232418
1686.000000	60.275619
1685.000000	60.300002
1684.000000	60.330879
1683.000000	60.385723
1682.000000	60.431716
1681.000000	60.454143
1680.000000	60.468987
1679.000000	60.489094
1678.000000	60.505509
1677.000000	60.492064
1676.000000	60.441179
1675.000000	60.390683
1674.000000	60.368834
1673.000000	60.358687
1672.000000	60.346292
1671.000000	60.341079
1670.000000	60.353419
1669.000000	60.373754
1668.000000	60.382297
1667.000000	60.375951
1666.000000	60.360567
1665.000000	60.329116
1664.000000	60.275029
1663.000000	60.219019
1662.000000	60.179309
1661.000000	60.131761
1660.000000	60.048033
1659.000000	59.931031
1658.000000	59.787300
1657.000000	59.607249
1656.000000	59.377132
1655.000000	59.058391
1654.000000	58.574936
1653.000000	57.953145
1652.000000	57.309859
1651.000000	56.654541
1650.000000	55.898042
1649.000000	54.891208
1648.000000	53.416435
1647.000000	51.330149
1646.000000	48.719753
1645.000000	45.791646
1644.000000	42.639315
1643.000000	39.221234
1642.000000	35.512134
1641.000000	31.642394
1640.000000	27.931065
1639.000000	24.690991
1638.000000	22.035494
1637.000000	19.951676
1636.000000	18.534925
1635.000000	17.973487
1634.000000	18.232430
1633.000000	19.086664
1632.000000	20.356912
1631.000000	21.945448
1630.000000	23.784218
1629.000000	25.808823
1628.000000	27.938722
1627.000000	30.044673
1626.000000	32.027934
1625.000000	33.919262
1624.000000	35.809871
1623.000000	37.686879
1622.000000	39.412670
1621.000000	40.905626
1620.000000	42.221395
1619.000000	43.459111
1618.000000	44.682906
1617.000000	45.912210
1616.000000	47.089656
1615.000000	48.093015
1614.000000	48.877442
1613.000000	49.517359
1612.000000	50.095785
1611.000000	50.612648
1610.000000	51.005094
1609.000000	51.240217
1608.000000	51.317308
1607.000000	51.195901
1606.000000	50.796886
1605.000000	50.063904
1604.000000	48.984314
1603.000000	47.555503
1602.000000	45.807449
1601.000000	43.862015
1600.000000	41.913383
1599.000000	40.144183
1598.000000	38.662080
1597.000000	37.505467
1596.000000	36.664174
1595.000000	36.071689
1594.000000	35.606337
1593.000000	35.153910
1592.000000	34.663803
1591.000000	34.122693
1590.000000	33.514456
1589.000000	32.830127
1588.000000	32.084234
1587.000000	31.279886
1586.000000	30.385004
1585.000000	29.375157
1584.000000	28.277127
1583.000000	27.133732
1582.000000	25.956770
1581.000000	24.756058
1580.000000	23.569758
1579.000000	22.398091
1578.000000	21.121639
1577.000000	19.571183
1576.000000	17.794760
1575.000000	16.127823
1574.000000	14.803289
1573.000000	13.752403
1572.000000	12.832592
1571.000000	11.991958
1570.000000	11.264001
1569.000000	10.705875
1568.000000	10.355434
1567.000000	10.219863
1566.000000	10.256444
1565.000000	10.395629
1564.000000	10.608364
1563.000000	10.914843
1562.000000	11.333077
1561.000000	11.859041
1560.000000	12.535138
1559.000000	13.430004
1558.000000	14.409831
1557.000000	15.245105
1556.000000	15.913759
1555.000000	16.507372
1554.000000	17.055852
1553.000000	17.525869
1552.000000	17.911281
1551.000000	18.274628
1550.000000	18.687995
1549.000000	19.181987
1548.000000	19.765792
1547.000000	20.464063
1546.000000	21.291903
1545.000000	22.214050
1544.000000	23.169796
1543.000000	24.131432
1542.000000	25.106874
1541.000000	26.098794
1540.000000	27.095468
1539.000000	28.068033
1538.000000	28.966549
1537.000000	29.771884
1536.000000	30.531970
1535.000000	31.317399
1534.000000	32.154976
1533.000000	33.000932
1532.000000	33.801714
1531.000000	34.563153
1530.000000	35.309941
1529.000000	36.035815
1528.000000	36.730784
1527.000000	37.406637
1526.000000	38.063829
1525.000000	38.675461
1524.000000	39.233617
1523.000000	39.765158
1522.000000	40.280770
1521.000000	40.757818
1520.000000	41.190327
1519.000000	41.607213
1518.000000	42.025509
1517.000000	42.433807
1516.000000	42.831948
1515.000000	43.238942
1514.000000	43.653642
1513.000000	44.050461
1512.000000	44.419306
1511.000000	44.778375
1510.000000	45.137584
1509.000000	45.480780
1508.000000	45.803663
1507.000000	46.146386
1506.000000	46.536773
1505.000000	46.930646
1504.000000	47.293618
1503.000000	47.647833
1502.000000	48.002653
1501.000000	48.332911
1500.000000	48.627339
1499.000000	48.909258
1498.000000	49.194724
1497.000000	49.472679
1496.000000	49.749967
1495.000000	50.054085
1494.000000	50.376241
1493.000000	50.679385
1492.000000	50.951230
1491.000000	51.209130
1490.000000	51.457053
1489.000000	51.674359
1488.000000	51.865831
1487.000000	52.059740
1486.000000	52.236188
1485.000000	52.332873
1484.000000	52.318668
1483.000000	52.186379
1482.000000	51.896063
1481.000000	51.396900
1480.000000	50.683516
1479.000000	49.730780
1478.000000	48.403819
1477.000000	46.566443
1476.000000	44.265894
1475.000000	41.667855
1474.000000	38.846541
1473.000000	35.889183
1472.000000	33.150850
1471.000000	31.034401
1470.000000	29.606128
1469.000000	28.705937
1468.000000	28.231847
1467.000000	28.195791
1466.000000	28.649790
1465.000000	29.580202
1464.000000	30.817180
1463.000000	32.072147
1462.000000	33.095544
1461.000000	33.758393
1460.000000	34.006192
1459.000000	33.788797
1458.000000	33.046598
1457.000000	31.904130
1456.000000	30.787986
1455.000000	30.028587
1454.000000	29.591850
1453.000000	29.320031
1452.000000	29.129048
1451.000000	29.007663
1450.000000	28.972170
1449.000000	29.046615
1448.000000	29.251306
1447.000000	29.569265
1446.000000	29.954248
1445.000000	30.387191
1444.000000	30.891835
1443.000000	31.505254
1442.000000	32.263613
1441.000000	33.202391
1440.000000	34.345625
1439.000000	35.705782
1438.000000	37.289930
1437.000000	39.040406
1436.000000	40.751881
1435.000000	42.198907
1434.000000	43.355323
1433.000000	44.332083
1432.000000	45.198853
1431.000000	45.956956
1430.000000	46.606489
1429.000000	47.171842
1428.000000	47.668485
1427.000000	48.102815
1426.000000	48.494948
1425.000000	48.869834
1424.000000	49.232784
1423.000000	49.577018
1422.000000	49.910845
1421.000000	50.241894
1420.000000	50.547888
1419.000000	50.810839
1418.000000	51.056793
1417.000000	51.317934
1416.000000	51.593124
1415.000000	51.868489
1414.000000	52.146970
1413.000000	52.439073
1412.000000	52.737107
1411.000000	53.023445
1410.000000	53.299190
1409.000000	53.575159
1408.000000	53.843415
1407.000000	54.088709
1406.000000	54.316804
1405.000000	54.544443
1404.000000	54.763246
1403.000000	54.938437
1402.000000	55.025043
1401.000000	54.948643
1400.000000	54.612620
1399.000000	54.013831
1398.000000	53.332376
1397.000000	52.825002
1396.000000	52.656448
1395.000000	52.830997
1394.000000	53.210089
1393.000000	53.619449
1392.000000	53.981013
1391.000000	54.335371
1390.000000	54.761080
1389.000000	55.292657
1388.000000	55.895481
1387.000000	56.500121
1386.000000	57.062006
1385.000000	57.584941
1384.000000	58.091663
1383.000000	58.592795
1382.000000	59.083019
1381.000000	59.542901
1380.000000	59.940325
1379.000000	60.235922
1378.000000	60.387084
1377.000000	60.318736
1376.000000	59.849839
1375.000000	58.651551
1374.000000	56.326028
1373.000000	52.625009
1372.000000	47.675420
1371.000000	42.066390
1370.000000	36.785429
1369.000000	32.956743
1368.000000	31.324967
1367.000000	31.803555
1366.000000	33.580217
1365.000000	35.629171
1364.000000	37.094774
1363.000000	37.461573
1362.000000	36.699298
1361.000000	35.336565
1360.000000	34.251891
1359.000000	34.255000
1358.000000	35.706717
1357.000000	38.360124
1356.000000	41.561186
1355.000000	44.657900
1354.000000	47.292028
1353.000000	49.413613
1352.000000	51.115881
1351.000000	52.502149
1350.000000	53.651339
1349.000000	54.617259
1348.000000	55.429888
1347.000000	56.115263
1346.000000	56.711324
1345.000000	57.254237
1344.000000	57.761575
1343.000000	58.237653
1342.000000	58.691505
1341.000000	59.133635
1340.000000	59.560816
1339.000000	59.962892
1338.000000	60.338705
1337.000000	60.692196
1336.000000	61.013918
1335.000000	61.278077
1334.000000	61.448421
1333.000000	61.453372
1332.000000	61.162352
1331.000000	60.411677
1330.000000	59.076963
1329.000000	57.136108
1328.000000	54.640948
1327.000000	51.644038
1326.000000	48.196620
1325.000000	44.479319
1324.000000	40.965190
1323.000000	38.345537
1322.000000	37.133530
1321.000000	37.296391
1320.000000	38.303719
1319.000000	39.528920
1318.000000	40.621697
1317.000000	41.544603
1316.000000	42.375511
1315.000000	43.174383
1314.000000	43.993576
1313.000000	44.926734
1312.000000	46.082968
1311.000000	47.502902
1310.000000	49.104747
1309.000000	50.707059
1308.000000	52.104578
1307.000000	53.145321
1306.000000	53.764750
1305.000000	53.950368
1304.000000	53.694418
1303.000000	52.979012
1302.000000	51.794961
1301.000000	50.193755
1300.000000	48.346686
1299.000000	46.564534
1298.000000	45.199181
1297.000000	44.456507
1296.000000	44.276544
1295.000000	44.375289
1294.000000	44.395190
1293.000000	44.040960
1292.000000	43.145429
1291.000000	41.673248
1290.000000	39.674750
1289.000000	37.249448
1288.000000	34.583764
1287.000000	32.018768
1286.000000	29.998622
1285.000000	28.873002
1284.000000	28.723057
1283.000000	29.376128
1282.000000	30.592123
1281.000000	32.214283
1280.000000	34.146642
1279.000000	36.214897
1278.000000	38.102929
1277.000000	39.469971
1276.000000	40.126467
1275.000000	40.109612
1274.000000	39.639966
1273.000000	39.043528
1272.000000	38.686820
1271.000000	38.894585
1270.000000	39.833536
1269.000000	41.435013
1268.000000	43.437809
1267.000000	45.531353
1266.000000	47.486695
1265.000000	49.200020
1264.000000	50.661211
1263.000000	51.904256
1262.000000	52.974660
1261.000000	53.911305
1260.000000	54.736226
1259.000000	55.459696
1258.000000	56.097944
1257.000000	56.668626
1256.000000	57.179984
1255.000000	57.636864
1254.000000	58.050156
1253.000000	58.434901
1252.000000	58.798384
1251.000000	59.143889
1250.000000	59.481180
1249.000000	59.819571
1248.000000	60.155947
1247.000000	60.479170
1246.000000	60.783702
1245.000000	61.068646
1244.000000	61.328116
1243.000000	61.557521
1242.000000	61.764335
1241.000000	61.959834
1240.000000	62.143369
1239.000000	62.303874
1238.000000	62.434141
1237.000000	62.529883
1236.000000	62.580885
1235.000000	62.579244
1234.000000	62.530680
1233.000000	62.447798
1232.000000	62.334127
1231.000000	62.185228
1230.000000	62.001126
1229.000000	61.777498
1228.000000	61.493082
1227.000000	61.113719
1226.000000	60.600988
1225.000000	59.912756
1224.000000	58.989312
1223.000000	57.766961
1222.000000	56.199981
1221.000000	54.261665
1220.000000	51.955880
1219.000000	49.330176
1218.000000	46.482674
1217.000000	43.544499
1216.000000	40.658454
1215.000000	37.974946
1214.000000	35.650418
1213.000000	33.828215
1212.000000	32.612559
1211.000000	32.048315
1210.000000	32.079182
1209.000000	32.544897
1208.000000	33.222326
1207.000000	33.877408
1206.000000	34.317672
1205.000000	34.415988
1204.000000	34.117266
1203.000000	33.437294
1202.000000	32.458663
1201.000000	31.328326
1200.000000	30.250389
1199.000000	29.454787
1198.000000	29.130273
1197.000000	29.357278
1196.000000	30.102827
1195.000000	31.256371
1194.000000	32.683437
1193.000000	34.271562
1192.000000	35.941405
1191.000000	37.648460
1190.000000	39.366676
1189.000000	41.073659
1188.000000	42.745380
1187.000000	44.353380
1186.000000	45.867368
1185.000000	47.261192
1184.000000	48.519208
1183.000000	49.638349
1182.000000	50.631517
1181.000000	51.514890
1180.000000	52.297918
1179.000000	52.988678
1178.000000	53.596178
1177.000000	54.128641
1176.000000	54.578135
1175.000000	54.920431
1174.000000	55.126902
1173.000000	55.156122
1172.000000	54.954687
1171.000000	54.459783
1170.000000	53.611089
1169.000000	52.363159
1168.000000	50.691704
1167.000000	48.635762
1166.000000	46.335948
1165.000000	44.032752
1164.000000	42.020448
1163.000000	40.574934
1162.000000	39.865382
1161.000000	39.908084
1160.000000	40.588101
1159.000000	41.708811
1158.000000	43.063564
1157.000000	44.473259
1156.000000	45.802272
1155.000000	46.964935
1154.000000	47.917241
1153.000000	48.642443
1152.000000	49.134618
1151.000000	49.391048
1150.000000	49.405142
1149.000000	49.170008
1148.000000	48.661869
1147.000000	47.842278
1146.000000	46.665175
1145.000000	45.061995
1144.000000	42.960689
1143.000000	40.312462
1142.000000	37.142782
1141.000000	33.595386
1140.000000	29.929982
1139.000000	26.467277
1138.000000	23.471456
1137.000000	21.044675
1136.000000	19.112327
1135.000000	17.516234
1134.000000	16.123552
1133.000000	14.930818
1132.000000	14.098282
1131.000000	13.871239
1130.000000	14.467461
1129.000000	15.953630
1128.000000	18.206771
1127.000000	20.937210
1126.000000	23.735601
1125.000000	26.151282
1124.000000	27.779517
1123.000000	28.340092
1122.000000	27.739839
1121.000000	26.099885
1120.000000	23.688777
1119.000000	20.843629
1118.000000	17.928824
1117.000000	15.340052
1116.000000	13.499393
1115.000000	12.763638
1114.000000	13.273014
1113.000000	14.868990
1112.000000	17.135976
1111.000000	19.495194
1110.000000	21.388639
1109.000000	22.514727
1108.000000	22.981137
1107.000000	23.224167
1106.000000	23.710336
1105.000000	24.654009
1104.000000	25.941335
1103.000000	27.227175
1102.000000	28.067222
1101.000000	28.075039
1100.000000	27.099885
1099.000000	25.373208
1098.000000	23.494590
1097.000000	22.204593
1096.000000	22.060197
1095.000000	23.210355
1094.000000	25.383982
1093.000000	28.078094
1092.000000	30.824167
1091.000000	33.333495
1090.000000	35.504725
1089.000000	37.355374
1088.000000	38.948912
1087.000000	40.360153
1086.000000	41.657992
1085.000000	42.888141
1084.000000	44.064031
1083.000000	45.184370
1082.000000	46.243995
1081.000000	47.236294
1080.000000	48.150801
1079.000000	48.971321
1078.000000	49.685877
1077.000000	50.269804
1076.000000	50.676142
1075.000000	50.840005
1074.000000	50.669745
1073.000000	50.053067
1072.000000	48.830554
1071.000000	46.810237
1070.000000	43.812081
1069.000000	39.707511
1068.000000	34.536586
1067.000000	28.615107
1066.000000	22.553596
1065.000000	17.115435
1064.000000	12.964031
1063.000000	10.403775
1062.000000	9.246118
1061.000000	8.900616
1060.000000	8.668558
1059.000000	8.107451
1058.000000	7.195410
1057.000000	6.273544
1056.000000	5.812223
1055.000000	6.128684
1054.000000	7.270868
1053.000000	9.057771
1052.000000	11.223648
1051.000000	13.534511
1050.000000	15.821285
1049.000000	17.998066
1048.000000	20.049750
1047.000000	21.995284
1046.000000	23.846512
1045.000000	25.593755
1044.000000	27.216824
1043.000000	28.700138
1042.000000	30.039637
1041.000000	31.239354
1040.000000	32.314113
1039.000000	33.280894
1038.000000	34.153359
1037.000000	34.939753
1036.000000	35.639577
1035.000000	36.251683
1034.000000	36.776477
1033.000000	37.219197
1032.000000	37.592805
1031.000000	37.914781
1030.000000	38.206543
1029.000000	38.485421
1028.000000	38.757815
1027.000000	39.019392
1026.000000	39.254998
1025.000000	39.443099
1024.000000	39.556870
1023.000000	39.568619
1022.000000	39.459451
1021.000000	39.214059
1020.000000	38.819040
1019.000000	38.254798
1018.000000	37.487983
1017.000000	36.474794
1016.000000	35.163215
1015.000000	33.527294
1014.000000	31.610809
1013.000000	29.557365
1012.000000	27.600058
1011.000000	25.985920
1010.000000	24.855741
1009.000000	24.153421
1008.000000	23.655783
1007.000000	23.125917
1006.000000	22.519788
1005.000000	22.068300
1004.000000	22.151064
1003.000000	23.036038
1002.000000	24.673079
1001.000000	26.727891
1000.000000	28.773264
999.000000	30.467480
998.000000	31.623993
997.000000	32.193929
996.000000	32.238849
995.000000	31.920674
994.000000	31.490684
993.000000	31.243335
992.000000	31.431145
991.000000	32.167540
990.000000	33.376696
989.000000	34.846169
988.000000	36.352128
987.000000	37.750270
986.000000	38.992443
985.000000	40.090226
984.000000	41.070942
983.000000	41.955753
982.000000	42.755672
981.000000	43.473780
980.000000	44.112001
979.000000	44.681763
978.000000	45.200207
977.000000	45.683157
976.000000	46.140442
975.000000	46.577222
974.000000	46.998268
973.000000	47.403492
972.000000	47.787639
971.000000	48.145903
970.000000	48.478249
969.000000	48.788692
968.000000	49.082034
967.000000	49.365876
966.000000	49.650499
965.000000	49.941267
964.000000	50.234158
963.000000	50.520070
962.000000	50.791923
961.000000	51.045390
960.000000	51.277732
959.000000	51.492771
958.000000	51.703196
957.000000	51.922525
956.000000	52.155467
955.000000	52.398715
954.000000	52.647405
953.000000	52.895532
952.000000	53.135057
951.000000	53.362029
950.000000	53.581283
949.000000	53.799619
948.000000	54.016777
947.000000	54.228831
946.000000	54.437451
945.000000	54.648521
944.000000	54.864729
943.000000	55.085629
942.000000	55.311471
941.000000	55.539209
940.000000	55.756917
939.000000	55.951557
938.000000	56.122438
937.000000	56.281624
936.000000	56.443469
935.000000	56.619289
934.000000	56.816840
933.000000	57.033661
932.000000	57.251915
931.000000	57.449959
930.000000	57.619837
929.000000	57.769462
928.000000	57.911608
927.000000	58.058193
926.000000	58.220311
925.000000	58.400819
924.000000	58.587106
923.000000	58.761078
922.000000	58.916920
921.000000	59.062195
920.000000	59.204689
919.000000	59.347658
918.000000	59.494521
917.000000	59.646004
916.000000	59.794131
915.000000	59.930197
914.000000	60.058406
913.000000	60.192360
912.000000	60.335353
911.000000	60.475525
910.000000	60.589613
909.000000	60.636041
908.000000	60.546959
907.000000	60.235343
906.000000	59.623387
905.000000	58.652807
904.000000	57.295516
903.000000	55.613339
902.000000	53.835288
901.000000	52.348888
900.000000	51.553476
899.000000	51.653650
898.000000	52.547481
897.000000	53.914563
896.000000	55.399007
895.000000	56.756595
894.000000	57.894321
893.000000	58.813567
892.000000	59.550469
891.000000	60.146977
890.000000	60.643944
889.000000	61.069083
888.000000	61.428659
887.000000	61.698715
886.000000	61.819116
885.000000	61.697594
884.000000	61.249257
883.000000	60.488310
882.000000	59.568605
881.000000	58.696888
880.000000	57.967610
879.000000	57.295044
878.000000	56.540789
877.000000	55.717952
876.000000	55.066462
875.000000	54.902323
874.000000	55.384204
873.000000	56.397643
872.000000	57.645586
871.000000	58.840068
870.000000	59.829760
869.000000	60.600666
868.000000	61.200768
867.000000	61.684645
866.000000	62.095391
865.000000	62.460370
864.000000	62.786684
863.000000	63.071890
862.000000	63.319694
861.000000	63.539316
860.000000	63.737028
859.000000	63.914777
858.000000	64.078209
857.000000	64.234451
856.000000	64.384296
855.000000	64.527399
854.000000	64.671095
853.000000	64.824092
852.000000	64.982184
851.000000	65.130546
850.000000	65.259907
849.000000	65.371344
848.000000	65.469620
847.000000	65.563436
846.000000	65.669408
845.000000	65.802083
844.000000	65.957838
843.000000	66.117317
842.000000	66.263419
841.000000	66.389104
840.000000	66.492744
839.000000	66.579742
838.000000	66.667515
837.000000	66.774727
836.000000	66.903188
835.000000	67.039583
834.000000	67.174096
833.000000	67.308172
832.000000	67.445814
831.000000	67.589262
830.000000	67.742458
829.000000	67.906828
828.000000	68.073421
827.000000	68.231342
826.000000	68.385078
825.000000	68.552304
824.000000	68.744623
823.000000	68.959707
822.000000	69.188101
821.000000	69.413065
820.000000	69.607726
819.000000	69.750906
818.000000	69.848633
817.000000	69.928947
816.000000	70.014543
815.000000	70.108981
814.000000	70.202207
813.000000	70.271613
812.000000	70.281728
811.000000	70.197050
810.000000	70.000912
809.000000	69.691616
808.000000	69.255244
807.000000	68.659988
806.000000	67.864854
805.000000	66.823869
804.000000	65.486173
803.000000	63.798171
802.000000	61.721398
801.000000	59.229090
800.000000	56.306309
799.000000	52.977730
798.000000	49.330480
797.000000	45.511791
796.000000	41.694211
795.000000	38.047274
794.000000	34.720257
793.000000	31.835748
792.000000	29.483077
791.000000	27.719347
790.000000	26.577207
789.000000	26.058345
788.000000	26.133208
787.000000	26.729601
786.000000	27.740177
785.000000	29.039985
784.000000	30.489010
783.000000	31.940236
782.000000	33.251268
781.000000	34.305296
780.000000	35.023756
779.000000	35.377100
778.000000	35.390646
777.000000	35.131360
776.000000	34.673349
775.000000	34.072028
774.000000	33.378424
773.000000	32.672307
772.000000	32.081396
771.000000	31.763034
770.000000	31.862559
769.000000	32.462824
768.000000	33.553475
767.000000	35.037621
766.000000	36.775431
765.000000	38.635433
764.000000	40.513721
763.000000	42.337376
762.000000	44.065010
761.000000	45.681914
760.000000	47.184310
759.000000	48.570264
758.000000	49.847449
757.000000	51.035731
756.000000	52.155650
755.000000	53.218927
754.000000	54.234503
753.000000	55.210079
752.000000	56.142999
751.000000	57.021157
750.000000	57.837054
749.000000	58.593397
748.000000	59.290068
747.000000	59.918476
746.000000	60.475636
745.000000	60.972781
744.000000	61.426891
743.000000	61.853097
742.000000	62.267244
741.000000	62.681429
740.000000	63.087176
739.000000	63.452300
738.000000	63.740556
737.000000	63.929448
736.000000	64.012250
735.000000	63.997310
734.000000	63.910842
733.000000	63.787998
732.000000	63.654309
731.000000	63.521319
730.000000	63.396973
729.000000	63.286294
728.000000	63.177734
727.000000	63.035575
726.000000	62.813233
725.000000	62.471088
724.000000	61.973457
723.000000	61.267472
722.000000	60.265995
721.000000	58.863320
720.000000	56.991059
719.000000	54.681419
718.000000	52.083908
717.000000	49.433894
716.000000	47.005314
715.000000	45.059322
714.000000	43.796278
713.000000	43.313150
712.000000	43.580801
711.000000	44.465707
710.000000	45.794060
709.000000	47.404105
708.000000	49.154575
707.000000	50.922861
706.000000	52.623595
705.000000	54.221030
704.000000	55.706341
703.000000	57.078386
702.000000	58.350872
701.000000	59.549581
700.000000	60.687012
699.000000	61.752887
698.000000	62.735712
697.000000	63.636843
696.000000	64.453495
695.000000	65.171516
694.000000	65.790382
693.000000	66.336713
692.000000	66.843932
691.000000	67.332746
690.000000	67.819364
689.000000	68.306237
688.000000	68.814112
687.000000	69.243612
686.000000	69.690571
685.000000	69.915146
684.000000	70.357836
683.000000	70.051530
682.000000	69.218606
681.000000	69.620406
680.000000	69.741937
679.000000	70.042047
678.000000	70.256894
677.000000	70.513543
676.000000	70.730551
675.000000	70.918167
674.000000	71.055916
673.000000	71.149097
672.000000	71.183617
671.000000	71.131417
670.000000	71.008902
669.000000	70.937531
668.000000	71.095217
667.000000	71.489363
666.000000	71.904108
665.000000	72.173465
664.000000	72.256472
663.000000	72.256930
662.000000	72.160603
661.000000	72.200223
660.000000	72.092304
659.000000	72.539760
658.000000	73.435013
657.000000	73.414120
656.000000	73.573145
655.000000	73.564371
654.000000	73.577381
653.000000	73.542536
652.000000	73.525164
651.000000	73.498315
650.000000	73.453961
649.000000	73.379259
648.000000	73.281327
647.000000	73.185363
646.000000	73.113137
645.000000	73.055666
644.000000	72.968927
643.000000	72.807053
642.000000	72.564579
641.000000	72.282474
640.000000	72.018661
639.000000	71.818076
638.000000	71.693465
637.000000	71.615609
636.000000	71.523822
635.000000	71.359780
634.000000	71.103596
633.000000	70.778235
632.000000	70.423961
631.000000	70.076260
630.000000	69.755384
629.000000	69.458829
628.000000	69.165051
627.000000	68.850369
626.000000	68.504806
625.000000	68.128980
624.000000	67.716306
623.000000	67.252242
622.000000	66.732607
621.000000	66.171719
620.000000	65.584169
619.000000	64.963929
618.000000	64.286866
617.000000	63.532182
616.000000	62.699890
615.000000	61.796603
614.000000	60.805782
613.000000	59.689932
612.000000	58.429353
611.000000	57.049628
610.000000	55.590671
609.000000	54.059810
608.000000	52.438973
607.000000	50.716256
606.000000	48.885104
605.000000	46.929463
604.000000	44.844634
603.000000	42.665833
602.000000	40.438718
601.000000	38.180489
600.000000	35.908369
599.000000	33.679624
598.000000	31.553016
597.000000	29.539582
596.000000	27.636318
595.000000	25.871458
594.000000	24.268358
593.000000	22.800479
592.000000	21.447686
591.000000	20.246243
590.000000	19.225595
589.000000	18.347097
588.000000	17.552227
587.000000	16.822226
586.000000	16.132527
585.000000	15.409813
584.000000	14.604707
583.000000	13.757981
582.000000	12.944671
581.000000	12.207540
580.000000	11.597305
579.000000	11.217064
578.000000	11.144294
577.000000	11.362406
576.000000	11.811689
575.000000	12.435837
574.000000	13.138483
573.000000	13.769495
572.000000	14.236939
571.000000	14.598886
570.000000	15.003482
569.000000	15.571855
568.000000	16.358821
567.000000	17.358207
566.000000	18.483940
565.000000	19.596697
564.000000	20.603735
563.000000	21.503295
562.000000	22.321004
561.000000	23.056591
560.000000	23.718435
559.000000	24.353669
558.000000	25.002392
557.000000	25.659770
556.000000	26.312448
555.000000	26.974814
554.000000	27.655187
553.000000	28.329280
552.000000	28.980605
551.000000	29.631175
550.000000	30.302090
549.000000	30.976759
548.000000	31.632814
547.000000	32.277182
546.000000	32.921313
545.000000	33.551622
544.000000	34.152809
543.000000	34.734400
542.000000	35.310349
541.000000	35.874633
540.000000	36.420610
539.000000	36.960671
538.000000	37.504884
537.000000	38.039724
536.000000	38.545542
535.000000	39.018830
534.000000	39.458580
533.000000	39.849894
532.000000	40.180593
531.000000	40.457767
530.000000	40.692109
529.000000	40.872410
528.000000	40.965658
527.000000	40.935246
526.000000	40.737752
525.000000	40.326591
524.000000	39.687925
523.000000	38.877003
522.000000	38.015449
521.000000	37.232968
520.000000	36.595558
519.000000	36.042495
518.000000	35.354778
517.000000	34.238367
516.000000	32.508265
515.000000	30.234400
514.000000	27.714015
513.000000	25.325374
512.000000	23.404903
511.000000	22.189134
510.000000	21.761332
509.000000	22.048257
508.000000	22.922025
507.000000	24.252212
506.000000	25.881549
505.000000	27.638575
504.000000	29.405680
503.000000	31.140063
502.000000	32.802472
501.000000	34.334484
500.000000	35.716230
499.000000	36.988899
498.000000	38.194772
497.000000	39.335046
496.000000	40.393434
495.000000	41.367817
494.000000	42.270182
493.000000	43.111947
492.000000	43.912221
491.000000	44.700158
490.000000	45.492350
489.000000	46.281755
488.000000	47.047816
487.000000	47.771148
486.000000	48.435423
485.000000	49.028935
484.000000	49.555961
483.000000	50.035619
482.000000	50.488880
481.000000	50.931356
480.000000	51.372770
479.000000	51.814163
478.000000	52.231761
477.000000	52.572851
476.000000	52.767775
475.000000	52.726149
474.000000	52.335749
473.000000	51.490642
472.000000	50.179266
471.000000	48.563103
470.000000	46.933421
469.000000	45.595492
468.000000	44.771716
467.000000	44.484328
466.000000	44.446555
465.000000	44.162773
464.000000	43.236080
463.000000	41.646365
462.000000	39.823631
461.000000	38.424893
460.000000	38.018065
459.000000	38.888120
458.000000	40.902280
457.000000	43.486076
456.000000	45.977634
455.000000	48.068704
454.000000	49.771266
453.000000	51.151074
452.000000	52.221285
451.000000	52.994459
450.000000	53.484638
449.000000	53.642775
448.000000	53.342139
447.000000	52.465071
446.000000	51.043919
445.000000	49.312337
444.000000	47.666779
443.000000	46.554969
442.000000	46.266584
441.000000	46.772946
440.000000	47.824099
439.000000	49.140741
438.000000	50.486021
437.000000	51.669907
436.000000	52.565397
435.000000	53.145091
434.000000	53.469173
433.000000	53.622733
432.000000	53.669368
431.000000	53.662009
430.000000	53.644794
429.000000	53.625290
428.000000	53.577249
427.000000	53.472820
426.000000	53.298210
425.000000	53.036509
424.000000	52.681114
423.000000	52.283920
422.000000	51.936372
421.000000	51.689059
420.000000	51.531686
419.000000	51.449634
418.000000	51.433306
417.000000	51.434074
416.000000	51.400566
415.000000	51.329378
414.000000	51.249925
413.000000	51.191879
412.000000	51.185451
411.000000	51.273909
410.000000	51.485038
409.000000	51.783939
408.000000	52.096153
407.000000	52.378975
406.000000	52.632886
405.000000	52.860366
404.000000	53.039595
403.000000	53.175486
402.000000	53.316702
401.000000	53.556245
400.000000	53.927684
