PE IR       SUBTECH     SPECTRUM    ASCII       PEDS        4.00        
   -1
23MS137.asc
24/10/17
15:43:10.00
24/10/17
15:43:10.00
Administrator
Sample 1291 By Administrator Date Thursday, October 17 2024
400.000000
#HDR
-1
-1
#GR
cm-1
%T
1.0
0.0
4000.000000
-1.000000
3601
8
80.004239
7.437292
#DATA
4000.000000	50.086682
3999.000000	50.043903
3998.000000	50.005452
3997.000000	49.971316
3996.000000	49.940520
3995.000000	49.911748
3994.000000	49.883831
3993.000000	49.855528
3992.000000	49.825172
3991.000000	49.790823
3990.000000	49.751001
3989.000000	49.705456
3988.000000	49.655188
3987.000000	49.602145
3986.000000	49.549233
3985.000000	49.500084
3984.000000	49.458237
3983.000000	49.426219
3982.000000	49.405361
3981.000000	49.396334
3980.000000	49.399701
3979.000000	49.416138
3978.000000	49.446407
3977.000000	49.490359
3976.000000	49.546360
3975.000000	49.611551
3974.000000	49.682819
3973.000000	49.758491
3972.000000	49.838295
3971.000000	49.922143
3970.000000	50.008664
3969.000000	50.095329
3968.000000	50.179502
3967.000000	50.259056
3966.000000	50.332934
3965.000000	50.401318
3964.000000	50.465132
3963.000000	50.524686
3962.000000	50.579638
3961.000000	50.629924
3960.000000	50.676670
3959.000000	50.722129
3958.000000	50.767777
3957.000000	50.814423
3956.000000	50.862895
3955.000000	50.913738
3954.000000	50.967049
3953.000000	51.021886
3952.000000	51.077165
3951.000000	51.132461
3950.000000	51.188622
3949.000000	51.247421
3948.000000	51.309555
3947.000000	51.374276
3946.000000	51.440260
3945.000000	51.505830
3944.000000	51.568116
3943.000000	51.623437
3942.000000	51.672008
3941.000000	51.718615
3940.000000	51.767545
3939.000000	51.820010
3938.000000	51.872894
3937.000000	51.922157
3936.000000	51.967469
3935.000000	52.011402
3934.000000	52.056852
3933.000000	52.102876
3932.000000	52.146483
3931.000000	52.184944
3930.000000	52.215997
3929.000000	52.241234
3928.000000	52.264992
3927.000000	52.291736
3926.000000	52.320263
3925.000000	52.343083
3924.000000	52.356921
3923.000000	52.366273
3922.000000	52.375548
3921.000000	52.385453
3920.000000	52.396402
3919.000000	52.412338
3918.000000	52.436454
3917.000000	52.466715
3916.000000	52.498864
3915.000000	52.530348
3914.000000	52.562248
3913.000000	52.597128
3912.000000	52.636181
3911.000000	52.680557
3910.000000	52.727793
3909.000000	52.774226
3908.000000	52.818179
3907.000000	52.856532
3906.000000	52.884363
3905.000000	52.895040
3904.000000	52.891111
3903.000000	52.888360
3902.000000	52.901379
3901.000000	52.933955
3900.000000	52.979239
3899.000000	53.027779
3898.000000	53.076701
3897.000000	53.126394
3896.000000	53.175132
3895.000000	53.223116
3894.000000	53.271035
3893.000000	53.320051
3892.000000	53.365726
3891.000000	53.399950
3890.000000	53.418758
3889.000000	53.428393
3888.000000	53.445872
3887.000000	53.483004
3886.000000	53.531078
3885.000000	53.572934
3884.000000	53.600782
3883.000000	53.618492
3882.000000	53.632197
3881.000000	53.644107
3880.000000	53.655873
3879.000000	53.669619
3878.000000	53.685747
3877.000000	53.706820
3876.000000	53.735501
3875.000000	53.764145
3874.000000	53.779457
3873.000000	53.781930
3872.000000	53.788045
3871.000000	53.806641
3870.000000	53.829055
3869.000000	53.849143
3868.000000	53.869038
3867.000000	53.893326
3866.000000	53.921788
3865.000000	53.946470
3864.000000	53.965591
3863.000000	53.986244
3862.000000	54.011334
3861.000000	54.044084
3860.000000	54.086364
3859.000000	54.137319
3858.000000	54.197330
3857.000000	54.265511
3856.000000	54.332406
3855.000000	54.367717
3854.000000	54.354881
3853.000000	54.332442
3852.000000	54.330868
3851.000000	54.331188
3850.000000	54.319257
3849.000000	54.308185
3848.000000	54.311802
3847.000000	54.335412
3846.000000	54.373128
3845.000000	54.415046
3844.000000	54.453152
3843.000000	54.480906
3842.000000	54.499126
3841.000000	54.519509
3840.000000	54.543261
3839.000000	54.562738
3838.000000	54.578990
3837.000000	54.595846
3836.000000	54.611529
3835.000000	54.622964
3834.000000	54.636632
3833.000000	54.662488
3832.000000	54.699682
3831.000000	54.741051
3830.000000	54.782680
3829.000000	54.824641
3828.000000	54.867542
3827.000000	54.907733
3826.000000	54.935506
3825.000000	54.950248
3824.000000	54.963629
3823.000000	54.988725
3822.000000	55.024394
3821.000000	55.055332
3820.000000	55.075052
3819.000000	55.091264
3818.000000	55.117301
3817.000000	55.156736
3816.000000	55.199461
3815.000000	55.238426
3814.000000	55.275891
3813.000000	55.309867
3812.000000	55.334422
3811.000000	55.352708
3810.000000	55.377023
3809.000000	55.417063
3808.000000	55.469198
3807.000000	55.517298
3806.000000	55.548376
3805.000000	55.567365
3804.000000	55.587700
3803.000000	55.621555
3802.000000	55.657689
3801.000000	55.679438
3800.000000	55.687636
3799.000000	55.688545
3798.000000	55.690942
3797.000000	55.702488
3796.000000	55.727042
3795.000000	55.764271
3794.000000	55.810662
3793.000000	55.858281
3792.000000	55.900852
3791.000000	55.939854
3790.000000	55.978410
3789.000000	56.015124
3788.000000	56.047931
3787.000000	56.078352
3786.000000	56.109140
3785.000000	56.138266
3784.000000	56.160238
3783.000000	56.175546
3782.000000	56.190613
3781.000000	56.209378
3780.000000	56.228945
3779.000000	56.247655
3778.000000	56.268668
3777.000000	56.295099
3776.000000	56.324136
3775.000000	56.350029
3774.000000	56.369867
3773.000000	56.385523
3772.000000	56.400834
3771.000000	56.416372
3770.000000	56.429322
3769.000000	56.438861
3768.000000	56.447189
3767.000000	56.459993
3766.000000	56.482591
3765.000000	56.509725
3764.000000	56.533157
3763.000000	56.554584
3762.000000	56.581185
3761.000000	56.614137
3760.000000	56.646925
3759.000000	56.680697
3758.000000	56.718070
3757.000000	56.754171
3756.000000	56.787379
3755.000000	56.823158
3754.000000	56.867490
3753.000000	56.915176
3752.000000	56.957006
3751.000000	57.001136
3750.000000	57.056927
3749.000000	57.109383
3748.000000	57.144424
3747.000000	57.181232
3746.000000	57.247499
3745.000000	57.344244
3744.000000	57.458132
3743.000000	57.572997
3742.000000	57.668034
3741.000000	57.739300
3740.000000	57.800198
3739.000000	57.870399
3738.000000	57.962643
3737.000000	58.066818
3736.000000	58.158583
3735.000000	58.217404
3734.000000	58.250917
3733.000000	58.281652
3732.000000	58.315067
3731.000000	58.337814
3730.000000	58.337130
3729.000000	58.318529
3728.000000	58.296446
3727.000000	58.271608
3726.000000	58.235204
3725.000000	58.183857
3724.000000	58.121234
3723.000000	58.052152
3722.000000	57.988500
3721.000000	57.955282
3720.000000	57.975700
3719.000000	58.059802
3718.000000	58.195168
3717.000000	58.351752
3716.000000	58.503870
3715.000000	58.637126
3714.000000	58.746262
3713.000000	58.828380
3712.000000	58.880551
3711.000000	58.909045
3710.000000	58.927311
3709.000000	58.949225
3708.000000	58.976634
3707.000000	59.000849
3706.000000	59.016266
3705.000000	59.025080
3704.000000	59.031963
3703.000000	59.036974
3702.000000	59.038530
3701.000000	59.037340
3700.000000	59.033109
3699.000000	59.025794
3698.000000	59.020955
3697.000000	59.020788
3696.000000	59.022617
3695.000000	59.023555
3694.000000	59.023652
3693.000000	59.027534
3692.000000	59.036035
3691.000000	59.043770
3690.000000	59.046440
3689.000000	59.055562
3688.000000	59.080329
3687.000000	59.106235
3686.000000	59.119251
3685.000000	59.124396
3684.000000	59.131224
3683.000000	59.145789
3682.000000	59.173229
3681.000000	59.209238
3680.000000	59.239769
3679.000000	59.250618
3678.000000	59.248981
3677.000000	59.251212
3676.000000	59.258113
3675.000000	59.265767
3674.000000	59.266571
3673.000000	59.257214
3672.000000	59.251888
3671.000000	59.263222
3670.000000	59.285783
3669.000000	59.314147
3668.000000	59.345979
3667.000000	59.373591
3666.000000	59.393092
3665.000000	59.409977
3664.000000	59.429941
3663.000000	59.455270
3662.000000	59.480063
3661.000000	59.492634
3660.000000	59.490136
3659.000000	59.478860
3658.000000	59.469192
3657.000000	59.465041
3656.000000	59.462066
3655.000000	59.451348
3654.000000	59.423618
3653.000000	59.382513
3652.000000	59.342460
3651.000000	59.308036
3650.000000	59.272639
3649.000000	59.240826
3648.000000	59.228008
3647.000000	59.235579
3646.000000	59.249934
3645.000000	59.263945
3644.000000	59.282054
3643.000000	59.310379
3642.000000	59.344281
3641.000000	59.375418
3640.000000	59.401877
3639.000000	59.423588
3638.000000	59.437303
3637.000000	59.440253
3636.000000	59.437686
3635.000000	59.434448
3634.000000	59.423428
3633.000000	59.392882
3632.000000	59.339052
3631.000000	59.268069
3630.000000	59.183975
3629.000000	59.092933
3628.000000	59.008677
3627.000000	58.929632
3626.000000	58.837071
3625.000000	58.725661
3624.000000	58.604458
3623.000000	58.481074
3622.000000	58.355958
3621.000000	58.223188
3620.000000	58.078123
3619.000000	57.931346
3618.000000	57.806340
3617.000000	57.717627
3616.000000	57.663643
3615.000000	57.630087
3614.000000	57.596653
3613.000000	57.549902
3612.000000	57.487844
3611.000000	57.414007
3610.000000	57.332524
3609.000000	57.247533
3608.000000	57.158556
3607.000000	57.062795
3606.000000	56.959476
3605.000000	56.850250
3604.000000	56.738238
3603.000000	56.622579
3602.000000	56.501674
3601.000000	56.375980
3600.000000	56.247521
3599.000000	56.116338
3598.000000	55.981798
3597.000000	55.843595
3596.000000	55.705009
3595.000000	55.567000
3594.000000	55.429185
3593.000000	55.294038
3592.000000	55.161644
3591.000000	55.030374
3590.000000	54.900169
3589.000000	54.772244
3588.000000	54.644860
3587.000000	54.517887
3586.000000	54.396263
3585.000000	54.284271
3584.000000	54.181273
3583.000000	54.083394
3582.000000	53.988461
3581.000000	53.896093
3580.000000	53.806109
3579.000000	53.715925
3578.000000	53.623854
3577.000000	53.531547
3576.000000	53.441770
3575.000000	53.355659
3574.000000	53.271851
3573.000000	53.188835
3572.000000	53.103856
3571.000000	53.013600
3570.000000	52.919297
3569.000000	52.827691
3568.000000	52.743086
3567.000000	52.663609
3566.000000	52.586775
3565.000000	52.512106
3564.000000	52.439820
3563.000000	52.370445
3562.000000	52.304056
3561.000000	52.239817
3560.000000	52.175508
3559.000000	52.108263
3558.000000	52.036718
3557.000000	51.961922
3556.000000	51.884775
3555.000000	51.804370
3554.000000	51.718883
3553.000000	51.627941
3552.000000	51.532860
3551.000000	51.433901
3550.000000	51.329721
3549.000000	51.220639
3548.000000	51.108316
3547.000000	50.993291
3546.000000	50.874072
3545.000000	50.750314
3544.000000	50.623722
3543.000000	50.495788
3542.000000	50.366286
3541.000000	50.234542
3540.000000	50.098967
3539.000000	49.955919
3538.000000	49.801782
3537.000000	49.636067
3536.000000	49.461395
3535.000000	49.278820
3534.000000	49.087215
3533.000000	48.885732
3532.000000	48.674427
3531.000000	48.452009
3530.000000	48.215409
3529.000000	47.963411
3528.000000	47.697761
3527.000000	47.420181
3526.000000	47.130343
3525.000000	46.827689
3524.000000	46.512562
3523.000000	46.184844
3522.000000	45.843367
3521.000000	45.487319
3520.000000	45.116364
3519.000000	44.728895
3518.000000	44.323037
3517.000000	43.899428
3516.000000	43.460961
3515.000000	43.009133
3514.000000	42.543753
3513.000000	42.064968
3512.000000	41.572408
3511.000000	41.063269
3510.000000	40.535709
3509.000000	39.994152
3508.000000	39.446094
3507.000000	38.893220
3506.000000	38.329664
3505.000000	37.749954
3504.000000	37.155807
3503.000000	36.554484
3502.000000	35.953151
3501.000000	35.355593
3500.000000	34.761244
3499.000000	34.165689
3498.000000	33.564654
3497.000000	32.958708
3496.000000	32.352797
3495.000000	31.751139
3494.000000	31.155517
3493.000000	30.568189
3492.000000	29.991858
3491.000000	29.426484
3490.000000	28.870501
3489.000000	28.326013
3488.000000	27.799424
3487.000000	27.296192
3486.000000	26.817784
3485.000000	26.363155
3484.000000	25.928906
3483.000000	25.509027
3482.000000	25.099746
3481.000000	24.705057
3480.000000	24.332936
3479.000000	23.985101
3478.000000	23.654742
3477.000000	23.333730
3476.000000	23.017239
3475.000000	22.702434
3474.000000	22.387645
3473.000000	22.074173
3472.000000	21.765825
3471.000000	21.466598
3470.000000	21.182816
3469.000000	20.925803
3468.000000	20.707545
3467.000000	20.533454
3466.000000	20.402401
3465.000000	20.312889
3464.000000	20.264559
3463.000000	20.256137
3462.000000	20.288087
3461.000000	20.365628
3460.000000	20.494426
3459.000000	20.672590
3458.000000	20.890766
3457.000000	21.139398
3456.000000	21.410577
3455.000000	21.694679
3454.000000	21.980626
3453.000000	22.258401
3452.000000	22.518185
3451.000000	22.748105
3450.000000	22.935983
3449.000000	23.073589
3448.000000	23.156124
3447.000000	23.179157
3446.000000	23.141303
3445.000000	23.046413
3444.000000	22.900573
3443.000000	22.708991
3442.000000	22.477426
3441.000000	22.216528
3440.000000	21.939899
3439.000000	21.659486
3438.000000	21.386960
3437.000000	21.136495
3436.000000	20.921829
3435.000000	20.750466
3434.000000	20.623509
3433.000000	20.540020
3432.000000	20.500824
3431.000000	20.508880
3430.000000	20.570225
3429.000000	20.693829
3428.000000	20.885377
3427.000000	21.144883
3426.000000	21.469853
3425.000000	21.859507
3424.000000	22.314545
3423.000000	22.832346
3422.000000	23.408897
3421.000000	24.040719
3420.000000	24.721897
3419.000000	25.442299
3418.000000	26.189628
3417.000000	26.954391
3416.000000	27.729566
3415.000000	28.507963
3414.000000	29.283494
3413.000000	30.052038
3412.000000	30.808771
3411.000000	31.546753
3410.000000	32.260433
3409.000000	32.948447
3408.000000	33.610657
3407.000000	34.243640
3406.000000	34.842641
3405.000000	35.406354
3404.000000	35.936965
3403.000000	36.438411
3402.000000	36.916979
3401.000000	37.381160
3400.000000	37.836889
3399.000000	38.282165
3398.000000	38.709834
3397.000000	39.115044
3396.000000	39.497504
3395.000000	39.859469
3394.000000	40.204647
3393.000000	40.539113
3392.000000	40.869414
3391.000000	41.198446
3390.000000	41.525425
3389.000000	41.848389
3388.000000	42.165442
3387.000000	42.474843
3386.000000	42.776297
3385.000000	43.071927
3384.000000	43.363845
3383.000000	43.651881
3382.000000	43.935481
3381.000000	44.216181
3380.000000	44.496203
3379.000000	44.775864
3378.000000	45.054636
3377.000000	45.333430
3376.000000	45.612980
3375.000000	45.891137
3374.000000	46.164226
3373.000000	46.430660
3372.000000	46.691515
3371.000000	46.948657
3370.000000	47.204509
3369.000000	47.462278
3368.000000	47.723932
3367.000000	47.988359
3366.000000	48.252941
3365.000000	48.515963
3364.000000	48.776352
3363.000000	49.032859
3362.000000	49.285432
3361.000000	49.536020
3360.000000	49.786225
3359.000000	50.035243
3358.000000	50.281622
3357.000000	50.525505
3356.000000	50.767140
3355.000000	51.005097
3354.000000	51.238179
3353.000000	51.468176
3352.000000	51.698636
3351.000000	51.931370
3350.000000	52.165447
3349.000000	52.398504
3348.000000	52.627422
3347.000000	52.849037
3346.000000	53.062311
3345.000000	53.269269
3344.000000	53.472512
3343.000000	53.672272
3342.000000	53.867307
3341.000000	54.057350
3340.000000	54.243127
3339.000000	54.424854
3338.000000	54.601787
3337.000000	54.772675
3336.000000	54.934918
3335.000000	55.084461
3334.000000	55.218106
3333.000000	55.334608
3332.000000	55.433135
3331.000000	55.511126
3330.000000	55.565209
3329.000000	55.593755
3328.000000	55.595888
3327.000000	55.570047
3326.000000	55.513816
3325.000000	55.424355
3324.000000	55.298382
3323.000000	55.130426
3322.000000	54.914391
3321.000000	54.645368
3320.000000	54.317809
3319.000000	53.925448
3318.000000	53.460229
3317.000000	52.914423
3316.000000	52.279676
3315.000000	51.544919
3314.000000	50.700345
3313.000000	49.739060
3312.000000	48.657384
3311.000000	47.455438
3310.000000	46.137108
3309.000000	44.715120
3308.000000	43.207137
3307.000000	41.630885
3306.000000	40.004600
3305.000000	38.345826
3304.000000	36.670656
3303.000000	34.989929
3302.000000	33.311863
3301.000000	31.646732
3300.000000	30.005728
3299.000000	28.398833
3298.000000	26.838218
3297.000000	25.341618
3296.000000	23.926253
3295.000000	22.602940
3294.000000	21.376540
3293.000000	20.251642
3292.000000	19.232101
3291.000000	18.312838
3290.000000	17.482765
3289.000000	16.727984
3288.000000	16.033329
3287.000000	15.383244
3286.000000	14.763732
3285.000000	14.167020
3284.000000	13.587257
3283.000000	13.018060
3282.000000	12.458220
3281.000000	11.915933
3280.000000	11.406034
3279.000000	10.943822
3278.000000	10.546182
3277.000000	10.234551
3276.000000	10.027707
3275.000000	9.934982
3274.000000	9.956180
3273.000000	10.083890
3272.000000	10.303675
3271.000000	10.590882
3270.000000	10.915865
3269.000000	11.249444
3268.000000	11.561841
3267.000000	11.824220
3266.000000	12.015288
3265.000000	12.125694
3264.000000	12.153982
3263.000000	12.102729
3262.000000	11.979861
3261.000000	11.802004
3260.000000	11.588446
3259.000000	11.354190
3258.000000	11.112042
3257.000000	10.872769
3256.000000	10.640485
3255.000000	10.407622
3254.000000	10.158908
3253.000000	9.879981
3252.000000	9.560316
3251.000000	9.197158
3250.000000	8.803361
3249.000000	8.409807
3248.000000	8.054110
3247.000000	7.766934
3246.000000	7.566973
3245.000000	7.462416
3244.000000	7.452793
3243.000000	7.530123
3242.000000	7.685453
3241.000000	7.907707
3240.000000	8.175451
3239.000000	8.456675
3238.000000	8.718939
3237.000000	8.941185
3236.000000	9.114648
3235.000000	9.239855
3234.000000	9.326002
3233.000000	9.386922
3232.000000	9.430692
3231.000000	9.455408
3230.000000	9.458187
3229.000000	9.442723
3228.000000	9.416504
3227.000000	9.384635
3226.000000	9.350887
3225.000000	9.320546
3224.000000	9.296531
3223.000000	9.276310
3222.000000	9.255842
3221.000000	9.233469
3220.000000	9.206935
3219.000000	9.170392
3218.000000	9.118520
3217.000000	9.050037
3216.000000	8.964689
3215.000000	8.861291
3214.000000	8.741328
3213.000000	8.610882
3212.000000	8.475145
3211.000000	8.335074
3210.000000	8.192475
3209.000000	8.053329
3208.000000	7.923232
3207.000000	7.803718
3206.000000	7.696421
3205.000000	7.605914
3204.000000	7.535396
3203.000000	7.483678
3202.000000	7.449907
3201.000000	7.437292
3200.000000	7.448080
3199.000000	7.480501
3198.000000	7.533067
3197.000000	7.607495
3196.000000	7.704451
3195.000000	7.819769
3194.000000	7.949705
3193.000000	8.094350
3192.000000	8.252866
3191.000000	8.420721
3190.000000	8.593997
3189.000000	8.773148
3188.000000	8.958858
3187.000000	9.148447
3186.000000	9.339841
3185.000000	9.534085
3184.000000	9.731155
3183.000000	9.927518
3182.000000	10.120852
3181.000000	10.312901
3180.000000	10.504688
3179.000000	10.693649
3178.000000	10.878448
3177.000000	11.062197
3176.000000	11.247922
3175.000000	11.435217
3174.000000	11.624295
3173.000000	11.818806
3172.000000	12.021712
3171.000000	12.233277
3170.000000	12.455685
3169.000000	12.694999
3168.000000	12.955249
3167.000000	13.234061
3166.000000	13.527438
3165.000000	13.833756
3164.000000	14.150498
3163.000000	14.471931
3162.000000	14.792938
3161.000000	15.111407
3160.000000	15.423650
3159.000000	15.721875
3158.000000	15.998563
3157.000000	16.249858
3156.000000	16.471658
3155.000000	16.657141
3154.000000	16.801476
3153.000000	16.904610
3152.000000	16.969078
3151.000000	16.997833
3150.000000	16.997732
3149.000000	16.980943
3148.000000	16.957796
3147.000000	16.932053
3146.000000	16.902903
3145.000000	16.867203
3144.000000	16.817677
3143.000000	16.742779
3142.000000	16.633940
3141.000000	16.489819
3140.000000	16.312314
3139.000000	16.103927
3138.000000	15.870414
3137.000000	15.622583
3136.000000	15.370914
3135.000000	15.121827
3134.000000	14.881874
3133.000000	14.660052
3132.000000	14.462998
3131.000000	14.291415
3130.000000	14.144151
3129.000000	14.021022
3128.000000	13.919924
3127.000000	13.835534
3126.000000	13.764288
3125.000000	13.707143
3124.000000	13.664195
3123.000000	13.632494
3122.000000	13.610962
3121.000000	13.602689
3120.000000	13.609608
3119.000000	13.628423
3118.000000	13.655217
3117.000000	13.688746
3116.000000	13.726386
3115.000000	13.761479
3114.000000	13.787686
3113.000000	13.801902
3112.000000	13.800524
3111.000000	13.778289
3110.000000	13.733336
3109.000000	13.669659
3108.000000	13.591103
3107.000000	13.497456
3106.000000	13.389166
3105.000000	13.270795
3104.000000	13.147835
3103.000000	13.024421
3102.000000	12.907658
3101.000000	12.809165
3100.000000	12.739541
3099.000000	12.704269
3098.000000	12.707443
3097.000000	12.754903
3096.000000	12.849140
3095.000000	12.987244
3094.000000	13.165015
3093.000000	13.379850
3092.000000	13.627665
3091.000000	13.900195
3090.000000	14.189633
3089.000000	14.490303
3088.000000	14.794869
3087.000000	15.094541
3086.000000	15.385225
3085.000000	15.669868
3084.000000	15.951690
3083.000000	16.229826
3082.000000	16.503831
3081.000000	16.777383
3080.000000	17.054707
3079.000000	17.337351
3078.000000	17.626792
3077.000000	17.925630
3076.000000	18.233514
3075.000000	18.546072
3074.000000	18.860315
3073.000000	19.177085
3072.000000	19.496448
3071.000000	19.814969
3070.000000	20.130199
3069.000000	20.443714
3068.000000	20.757265
3067.000000	21.069375
3066.000000	21.377781
3065.000000	21.681641
3064.000000	21.979370
3063.000000	22.268220
3062.000000	22.547643
3061.000000	22.820025
3060.000000	23.086477
3059.000000	23.345406
3058.000000	23.596762
3057.000000	23.843385
3056.000000	24.086912
3055.000000	24.325877
3054.000000	24.559454
3053.000000	24.789542
3052.000000	25.017284
3051.000000	25.241384
3050.000000	25.461057
3049.000000	25.676944
3048.000000	25.888061
3047.000000	26.091575
3046.000000	26.287432
3045.000000	26.479420
3044.000000	26.670199
3043.000000	26.859318
3042.000000	27.047190
3041.000000	27.236762
3040.000000	27.429030
3039.000000	27.620849
3038.000000	27.809610
3037.000000	27.996697
3036.000000	28.184737
3035.000000	28.374701
3034.000000	28.567264
3033.000000	28.763411
3032.000000	28.961770
3031.000000	29.158807
3030.000000	29.353297
3029.000000	29.547294
3028.000000	29.741618
3027.000000	29.934293
3026.000000	30.124805
3025.000000	30.315754
3024.000000	30.508132
3023.000000	30.698632
3022.000000	30.883580
3021.000000	31.061941
3020.000000	31.232676
3019.000000	31.391975
3018.000000	31.535591
3017.000000	31.661186
3016.000000	31.767061
3015.000000	31.852479
3014.000000	31.921561
3013.000000	31.985232
3012.000000	32.057100
3011.000000	32.148690
3010.000000	32.267989
3009.000000	32.417403
3008.000000	32.590131
3007.000000	32.770612
3006.000000	32.938899
3005.000000	33.072290
3004.000000	33.140548
3003.000000	33.105362
3002.000000	32.933194
3001.000000	32.614213
3000.000000	32.175161
2999.000000	31.674737
2998.000000	31.185918
2997.000000	30.775165
2996.000000	30.491831
2995.000000	30.369958
2994.000000	30.428192
2993.000000	30.660242
2992.000000	31.024657
2991.000000	31.456287
2990.000000	31.892372
2989.000000	32.290897
2988.000000	32.630144
2987.000000	32.900473
2986.000000	33.099318
2985.000000	33.226053
2984.000000	33.278532
2983.000000	33.257772
2982.000000	33.180566
2981.000000	33.082470
2980.000000	33.003796
2979.000000	32.969485
2978.000000	32.980717
2977.000000	33.022019
2976.000000	33.075528
2975.000000	33.134657
2974.000000	33.207910
2973.000000	33.309660
2972.000000	33.445817
2971.000000	33.608495
2970.000000	33.779878
2969.000000	33.935775
2968.000000	34.044342
2967.000000	34.070278
2966.000000	33.986722
2965.000000	33.782423
2964.000000	33.457392
2963.000000	33.012210
2962.000000	32.448650
2961.000000	31.782736
2960.000000	31.062336
2959.000000	30.368963
2958.000000	29.792577
2957.000000	29.391769
2956.000000	29.171386
2955.000000	29.101708
2954.000000	29.152059
2953.000000	29.301947
2952.000000	29.523681
2951.000000	29.773499
2950.000000	30.008359
2949.000000	30.207244
2948.000000	30.375596
2947.000000	30.531822
2946.000000	30.689136
2945.000000	30.835641
2944.000000	30.926390
2943.000000	30.904500
2942.000000	30.747155
2941.000000	30.501557
2940.000000	30.279870
2939.000000	30.214395
2938.000000	30.399069
2937.000000	30.850161
2936.000000	31.504652
2935.000000	32.258580
2934.000000	33.016550
2933.000000	33.719386
2932.000000	34.341956
2931.000000	34.881600
2930.000000	35.349797
2929.000000	35.762803
2928.000000	36.132739
2927.000000	36.465370
2926.000000	36.766351
2925.000000	37.042876
2924.000000	37.298822
2923.000000	37.533349
2922.000000	37.746522
2921.000000	37.941508
2920.000000	38.119702
2919.000000	38.279293
2918.000000	38.419679
2917.000000	38.543404
2916.000000	38.652348
2915.000000	38.746204
2914.000000	38.826176
2913.000000	38.895689
2912.000000	38.956169
2911.000000	39.005936
2910.000000	39.044158
2909.000000	39.072072
2908.000000	39.089024
2907.000000	39.090534
2906.000000	39.071401
2905.000000	39.026219
2904.000000	38.946068
2903.000000	38.818996
2902.000000	38.637682
2901.000000	38.404099
2900.000000	38.129594
2899.000000	37.836014
2898.000000	37.556429
2897.000000	37.329570
2896.000000	37.185797
2895.000000	37.137432
2894.000000	37.179961
2893.000000	37.296300
2892.000000	37.460527
2891.000000	37.644311
2890.000000	37.826394
2889.000000	37.995535
2888.000000	38.146038
2887.000000	38.274625
2886.000000	38.381832
2885.000000	38.471702
2884.000000	38.546866
2883.000000	38.607362
2882.000000	38.654800
2881.000000	38.693875
2880.000000	38.728247
2879.000000	38.758358
2878.000000	38.784427
2877.000000	38.808177
2876.000000	38.830858
2875.000000	38.853306
2874.000000	38.879483
2873.000000	38.915742
2872.000000	38.965085
2871.000000	39.025994
2870.000000	39.098600
2869.000000	39.188663
2868.000000	39.303610
2867.000000	39.447262
2866.000000	39.618821
2865.000000	39.812551
2864.000000	40.016581
2863.000000	40.216315
2862.000000	40.401748
2861.000000	40.569998
2860.000000	40.721436
2859.000000	40.857150
2858.000000	40.981022
2857.000000	41.099859
2856.000000	41.219167
2855.000000	41.341324
2854.000000	41.467966
2853.000000	41.600001
2852.000000	41.734193
2851.000000	41.863783
2850.000000	41.984224
2849.000000	42.095642
2848.000000	42.199422
2847.000000	42.296174
2846.000000	42.388039
2845.000000	42.479027
2844.000000	42.571305
2843.000000	42.663861
2842.000000	42.755887
2841.000000	42.848741
2840.000000	42.943663
2839.000000	43.040551
2838.000000	43.139878
2837.000000	43.242919
2836.000000	43.349279
2835.000000	43.456934
2834.000000	43.565360
2833.000000	43.675917
2832.000000	43.788589
2831.000000	43.901236
2830.000000	44.012622
2829.000000	44.123162
2828.000000	44.232051
2827.000000	44.336818
2826.000000	44.436563
2825.000000	44.532798
2824.000000	44.626427
2823.000000	44.716636
2822.000000	44.803497
2821.000000	44.888581
2820.000000	44.972008
2819.000000	45.051710
2818.000000	45.126461
2817.000000	45.197034
2816.000000	45.263645
2815.000000	45.324980
2814.000000	45.380754
2813.000000	45.432761
2812.000000	45.482688
2811.000000	45.531360
2810.000000	45.580530
2809.000000	45.632554
2808.000000	45.687535
2807.000000	45.743328
2806.000000	45.798960
2805.000000	45.855430
2804.000000	45.912583
2803.000000	45.968215
2802.000000	46.021169
2801.000000	46.072745
2800.000000	46.124343
2799.000000	46.176217
2798.000000	46.229127
2797.000000	46.284422
2796.000000	46.341589
2795.000000	46.398149
2794.000000	46.452711
2793.000000	46.505809
2792.000000	46.557397
2791.000000	46.606173
2790.000000	46.651943
2789.000000	46.696030
2788.000000	46.738664
2787.000000	46.778495
2786.000000	46.815351
2785.000000	46.851124
2784.000000	46.887484
2783.000000	46.925194
2782.000000	46.965925
2781.000000	47.011843
2780.000000	47.062561
2779.000000	47.114845
2778.000000	47.165868
2777.000000	47.214658
2776.000000	47.260427
2775.000000	47.302364
2774.000000	47.341568
2773.000000	47.380473
2772.000000	47.419681
2771.000000	47.457813
2770.000000	47.494585
2769.000000	47.531239
2768.000000	47.567573
2767.000000	47.601292
2766.000000	47.630955
2765.000000	47.657066
2764.000000	47.679932
2763.000000	47.699330
2762.000000	47.716809
2761.000000	47.735609
2760.000000	47.757604
2759.000000	47.782588
2758.000000	47.810743
2757.000000	47.842920
2756.000000	47.877951
2755.000000	47.912428
2754.000000	47.943890
2753.000000	47.972069
2752.000000	47.996950
2751.000000	48.018435
2750.000000	48.038208
2749.000000	48.058943
2748.000000	48.080978
2747.000000	48.102217
2746.000000	48.121626
2745.000000	48.140180
2744.000000	48.158148
2743.000000	48.174472
2742.000000	48.189386
2741.000000	48.204769
2740.000000	48.221353
2739.000000	48.238393
2738.000000	48.256706
2737.000000	48.279675
2736.000000	48.310759
2735.000000	48.352455
2734.000000	48.407659
2733.000000	48.478220
2732.000000	48.561221
2731.000000	48.649460
2730.000000	48.736328
2729.000000	48.818271
2728.000000	48.892647
2727.000000	48.956613
2726.000000	49.009189
2725.000000	49.051710
2724.000000	49.085272
2723.000000	49.110453
2722.000000	49.129952
2721.000000	49.148387
2720.000000	49.168692
2719.000000	49.190874
2718.000000	49.214860
2717.000000	49.241901
2716.000000	49.272304
2715.000000	49.304566
2714.000000	49.337703
2713.000000	49.372087
2712.000000	49.407325
2711.000000	49.441752
2710.000000	49.474647
2709.000000	49.506582
2708.000000	49.537051
2707.000000	49.564067
2706.000000	49.586578
2705.000000	49.605117
2704.000000	49.619776
2703.000000	49.630153
2702.000000	49.637792
2701.000000	49.645885
2700.000000	49.655973
2699.000000	49.667212
2698.000000	49.679159
2697.000000	49.692768
2696.000000	49.708191
2695.000000	49.724241
2694.000000	49.740534
2693.000000	49.757605
2692.000000	49.774418
2691.000000	49.788423
2690.000000	49.798785
2689.000000	49.807259
2688.000000	49.815503
2687.000000	49.823978
2686.000000	49.833728
2685.000000	49.846454
2684.000000	49.862206
2683.000000	49.879473
2682.000000	49.898039
2681.000000	49.919406
2680.000000	49.944024
2679.000000	49.970663
2678.000000	49.998955
2677.000000	50.029789
2676.000000	50.062844
2675.000000	50.096252
2674.000000	50.129136
2673.000000	50.162091
2672.000000	50.194828
2671.000000	50.226008
2670.000000	50.255868
2669.000000	50.286505
2668.000000	50.319206
2667.000000	50.353863
2666.000000	50.391212
2665.000000	50.432872
2664.000000	50.478623
2663.000000	50.526142
2662.000000	50.573655
2661.000000	50.620322
2660.000000	50.664036
2659.000000	50.701774
2658.000000	50.732633
2657.000000	50.758154
2656.000000	50.779311
2655.000000	50.795833
2654.000000	50.808910
2653.000000	50.821622
2652.000000	50.836283
2651.000000	50.853783
2650.000000	50.875610
2649.000000	50.903561
2648.000000	50.936923
2647.000000	50.972585
2646.000000	51.008548
2645.000000	51.045005
2644.000000	51.081811
2643.000000	51.118095
2642.000000	51.154815
2641.000000	51.194736
2640.000000	51.239057
2639.000000	51.286228
2638.000000	51.334440
2637.000000	51.382527
2636.000000	51.428015
2635.000000	51.467229
2634.000000	51.498512
2633.000000	51.523271
2632.000000	51.543590
2631.000000	51.561310
2630.000000	51.579490
2629.000000	51.601853
2628.000000	51.629702
2627.000000	51.661366
2626.000000	51.695015
2625.000000	51.729540
2624.000000	51.762677
2623.000000	51.791207
2622.000000	51.813821
2621.000000	51.831605
2620.000000	51.845192
2619.000000	51.853974
2618.000000	51.858223
2617.000000	51.859117
2616.000000	51.856305
2615.000000	51.847612
2614.000000	51.831992
2613.000000	51.810488
2612.000000	51.783978
2611.000000	51.753040
2610.000000	51.720432
2609.000000	51.691099
2608.000000	51.668936
2607.000000	51.655619
2606.000000	51.652536
2605.000000	51.661254
2604.000000	51.681334
2603.000000	51.710151
2602.000000	51.745682
2601.000000	51.786576
2600.000000	51.829717
2599.000000	51.870631
2598.000000	51.906865
2597.000000	51.938942
2596.000000	51.967640
2595.000000	51.993114
2594.000000	52.016926
2593.000000	52.041894
2592.000000	52.069025
2591.000000	52.096959
2590.000000	52.124611
2589.000000	52.151736
2588.000000	52.176728
2587.000000	52.196762
2586.000000	52.211017
2585.000000	52.221419
2584.000000	52.229980
2583.000000	52.238165
2582.000000	52.249154
2581.000000	52.267549
2580.000000	52.295892
2579.000000	52.333660
2578.000000	52.379681
2577.000000	52.432989
2576.000000	52.490807
2575.000000	52.548864
2574.000000	52.604760
2573.000000	52.658478
2572.000000	52.709604
2571.000000	52.756805
2570.000000	52.800556
2569.000000	52.843534
2568.000000	52.887411
2567.000000	52.931748
2566.000000	52.976524
2565.000000	53.023029
2564.000000	53.071394
2563.000000	53.119881
2562.000000	53.167490
2561.000000	53.214919
2560.000000	53.262326
2559.000000	53.308579
2558.000000	53.353517
2557.000000	53.398622
2556.000000	53.444746
2555.000000	53.491263
2554.000000	53.537946
2553.000000	53.585410
2552.000000	53.633084
2551.000000	53.678898
2550.000000	53.721532
2549.000000	53.760794
2548.000000	53.795729
2547.000000	53.824730
2546.000000	53.848030
2545.000000	53.868086
2544.000000	53.886840
2543.000000	53.904874
2542.000000	53.923242
2541.000000	53.943479
2540.000000	53.965410
2539.000000	53.987096
2538.000000	54.007416
2537.000000	54.026461
2536.000000	54.043165
2535.000000	54.055425
2534.000000	54.062927
2533.000000	54.067518
2532.000000	54.070279
2531.000000	54.070593
2530.000000	54.068749
2529.000000	54.066678
2528.000000	54.065479
2527.000000	54.064528
2526.000000	54.063438
2525.000000	54.062635
2524.000000	54.061159
2523.000000	54.056253
2522.000000	54.045867
2521.000000	54.029207
2520.000000	54.004932
2519.000000	53.971095
2518.000000	53.927662
2517.000000	53.877084
2516.000000	53.821522
2515.000000	53.762270
2514.000000	53.701957
2513.000000	53.644674
2512.000000	53.593259
2511.000000	53.548763
2510.000000	53.512915
2509.000000	53.488438
2508.000000	53.476218
2507.000000	53.474237
2506.000000	53.480590
2505.000000	53.494671
2504.000000	53.515185
2503.000000	53.539828
2502.000000	53.567156
2501.000000	53.596970
2500.000000	53.628060
2499.000000	53.657903
2498.000000	53.685454
2497.000000	53.711501
2496.000000	53.736085
2495.000000	53.758217
2494.000000	53.778455
2493.000000	53.799269
2492.000000	53.822137
2491.000000	53.846756
2490.000000	53.873464
2489.000000	53.903836
2488.000000	53.938253
2487.000000	53.975222
2486.000000	54.013672
2485.000000	54.053422
2484.000000	54.092872
2483.000000	54.129015
2482.000000	54.160603
2481.000000	54.189255
2480.000000	54.217051
2479.000000	54.245267
2478.000000	54.275799
2477.000000	54.310984
2476.000000	54.351116
2475.000000	54.394208
2474.000000	54.438649
2473.000000	54.484051
2472.000000	54.529238
2471.000000	54.572026
2470.000000	54.611591
2469.000000	54.648833
2468.000000	54.684077
2467.000000	54.716781
2466.000000	54.747784
2465.000000	54.779237
2464.000000	54.811808
2463.000000	54.844150
2462.000000	54.875519
2461.000000	54.906435
2460.000000	54.936219
2459.000000	54.962620
2458.000000	54.984413
2457.000000	55.002313
2456.000000	55.016899
2455.000000	55.028015
2454.000000	55.036933
2453.000000	55.046647
2452.000000	55.059368
2451.000000	55.075679
2450.000000	55.096352
2449.000000	55.122448
2448.000000	55.153273
2447.000000	55.186681
2446.000000	55.221867
2445.000000	55.259786
2444.000000	55.300297
2443.000000	55.341538
2442.000000	55.382449
2441.000000	55.423324
2440.000000	55.463429
2439.000000	55.500535
2438.000000	55.533491
2437.000000	55.562953
2436.000000	55.589239
2435.000000	55.611651
2434.000000	55.630509
2433.000000	55.647255
2432.000000	55.661793
2431.000000	55.672358
2430.000000	55.678214
2429.000000	55.680360
2428.000000	55.678935
2427.000000	55.672382
2426.000000	55.660248
2425.000000	55.644195
2424.000000	55.625834
2423.000000	55.605836
2422.000000	55.585826
2421.000000	55.568748
2420.000000	55.556341
2419.000000	55.548393
2418.000000	55.544961
2417.000000	55.547007
2416.000000	55.554062
2415.000000	55.563798
2414.000000	55.574503
2413.000000	55.585557
2412.000000	55.594875
2411.000000	55.598543
2410.000000	55.593840
2409.000000	55.580409
2408.000000	55.558096
2407.000000	55.525989
2406.000000	55.484862
2405.000000	55.437792
2404.000000	55.387454
2403.000000	55.335340
2402.000000	55.283975
2401.000000	55.237301
2400.000000	55.197231
2399.000000	55.161723
2398.000000	55.127059
2397.000000	55.088963
2396.000000	55.041026
2395.000000	54.975441
2394.000000	54.887137
2393.000000	54.776487
2392.000000	54.647069
2391.000000	54.504805
2390.000000	54.360756
2389.000000	54.230968
2388.000000	54.132445
2387.000000	54.078447
2386.000000	54.078216
2385.000000	54.135987
2384.000000	54.244738
2383.000000	54.384434
2382.000000	54.524881
2381.000000	54.633223
2380.000000	54.680407
2379.000000	54.648326
2378.000000	54.539919
2377.000000	54.380732
2376.000000	54.210045
2375.000000	54.066800
2374.000000	53.981182
2373.000000	53.969964
2372.000000	54.032182
2371.000000	54.151695
2370.000000	54.308551
2369.000000	54.492243
2368.000000	54.690577
2367.000000	54.875239
2366.000000	55.029269
2365.000000	55.156403
2364.000000	55.262032
2363.000000	55.337971
2362.000000	55.368887
2361.000000	55.375012
2360.000000	55.389813
2359.000000	55.417807
2358.000000	55.451247
2357.000000	55.459887
2356.000000	55.354948
2355.000000	55.063105
2354.000000	54.723054
2353.000000	54.674709
2352.000000	55.186703
2351.000000	56.291114
2350.000000	57.718958
2349.000000	58.911128
2348.000000	59.295950
2347.000000	58.770377
2346.000000	57.782731
2345.000000	56.816464
2344.000000	56.070704
2343.000000	55.536370
2342.000000	55.151814
2341.000000	54.863437
2340.000000	54.621066
2339.000000	54.402609
2338.000000	54.234183
2337.000000	54.159150
2336.000000	54.173624
2335.000000	54.196153
2334.000000	54.121659
2333.000000	53.919930
2332.000000	53.634645
2331.000000	53.359875
2330.000000	53.174565
2329.000000	53.114460
2328.000000	53.161091
2327.000000	53.238849
2326.000000	53.272032
2325.000000	53.206074
2324.000000	53.041598
2323.000000	52.816218
2322.000000	52.591072
2321.000000	52.431746
2320.000000	52.384764
2319.000000	52.463486
2318.000000	52.628949
2317.000000	52.808592
2316.000000	52.926968
2315.000000	52.951696
2314.000000	52.897614
2313.000000	52.804083
2312.000000	52.699820
2311.000000	52.597040
2310.000000	52.503614
2309.000000	52.430106
2308.000000	52.387383
2307.000000	52.378739
2306.000000	52.399121
2305.000000	52.433690
2304.000000	52.463089
2303.000000	52.474839
2302.000000	52.468941
2301.000000	52.452135
2300.000000	52.427572
2299.000000	52.395301
2298.000000	52.356044
2297.000000	52.311718
2296.000000	52.263064
2295.000000	52.209989
2294.000000	52.155973
2293.000000	52.105632
2292.000000	52.062061
2291.000000	52.026261
2290.000000	52.002118
2289.000000	51.995671
2288.000000	52.013739
2287.000000	52.063007
2286.000000	52.148365
2285.000000	52.265721
2284.000000	52.399435
2283.000000	52.531860
2282.000000	52.655014
2281.000000	52.770403
2280.000000	52.880321
2279.000000	52.984975
2278.000000	53.085081
2277.000000	53.183197
2276.000000	53.281083
2275.000000	53.380545
2274.000000	53.485631
2273.000000	53.600136
2272.000000	53.723433
2271.000000	53.851206
2270.000000	53.980263
2269.000000	54.108981
2268.000000	54.234473
2267.000000	54.354124
2266.000000	54.468897
2265.000000	54.582440
2264.000000	54.697414
2263.000000	54.814813
2262.000000	54.936677
2261.000000	55.064597
2260.000000	55.196761
2259.000000	55.329222
2258.000000	55.459478
2257.000000	55.586602
2256.000000	55.708672
2255.000000	55.824242
2254.000000	55.935090
2253.000000	56.044992
2252.000000	56.156239
2251.000000	56.269828
2250.000000	56.388405
2249.000000	56.514317
2248.000000	56.646380
2247.000000	56.780502
2246.000000	56.912531
2245.000000	57.038816
2244.000000	57.154595
2243.000000	57.255805
2242.000000	57.342089
2241.000000	57.415961
2240.000000	57.479345
2239.000000	57.533464
2238.000000	57.580870
2237.000000	57.624260
2236.000000	57.663907
2235.000000	57.698447
2234.000000	57.727941
2233.000000	57.753540
2232.000000	57.774976
2231.000000	57.791430
2230.000000	57.804152
2229.000000	57.815701
2228.000000	57.826999
2227.000000	57.837718
2226.000000	57.848919
2225.000000	57.862318
2224.000000	57.877273
2223.000000	57.891098
2222.000000	57.901876
2221.000000	57.908705
2220.000000	57.910079
2219.000000	57.905114
2218.000000	57.896082
2217.000000	57.887138
2216.000000	57.880954
2215.000000	57.878939
2214.000000	57.883888
2213.000000	57.899094
2212.000000	57.924985
2211.000000	57.959018
2210.000000	57.998418
2209.000000	58.040516
2208.000000	58.081318
2207.000000	58.116838
2206.000000	58.145606
2205.000000	58.167526
2204.000000	58.180950
2203.000000	58.183757
2202.000000	58.177084
2201.000000	58.165814
2200.000000	58.156039
2199.000000	58.154412
2198.000000	58.168237
2197.000000	58.202149
2196.000000	58.254253
2195.000000	58.317893
2194.000000	58.386988
2193.000000	58.457543
2192.000000	58.525640
2191.000000	58.587588
2190.000000	58.642159
2189.000000	58.689918
2188.000000	58.730612
2187.000000	58.763798
2186.000000	58.791486
2185.000000	58.817516
2184.000000	58.844417
2183.000000	58.872968
2182.000000	58.903964
2181.000000	58.937586
2180.000000	58.971465
2179.000000	59.001882
2178.000000	59.026733
2177.000000	59.045383
2176.000000	59.056833
2175.000000	59.060924
2174.000000	59.060813
2173.000000	59.061592
2172.000000	59.066631
2171.000000	59.077288
2170.000000	59.094965
2169.000000	59.120458
2168.000000	59.151728
2167.000000	59.185030
2166.000000	59.217919
2165.000000	59.249021
2164.000000	59.276071
2163.000000	59.297278
2162.000000	59.314166
2161.000000	59.330481
2160.000000	59.348819
2159.000000	59.370607
2158.000000	59.398099
2157.000000	59.433040
2156.000000	59.473591
2155.000000	59.515180
2154.000000	59.553985
2153.000000	59.587346
2152.000000	59.612173
2151.000000	59.626375
2150.000000	59.631784
2149.000000	59.633001
2148.000000	59.633494
2147.000000	59.635017
2146.000000	59.639470
2145.000000	59.647928
2144.000000	59.658127
2143.000000	59.665696
2142.000000	59.667864
2141.000000	59.664156
2140.000000	59.654573
2139.000000	59.639941
2138.000000	59.623822
2137.000000	59.611385
2136.000000	59.606447
2135.000000	59.611328
2134.000000	59.628169
2133.000000	59.657205
2132.000000	59.694133
2131.000000	59.731822
2130.000000	59.764521
2129.000000	59.788676
2128.000000	59.801366
2127.000000	59.801425
2126.000000	59.791812
2125.000000	59.777970
2124.000000	59.763917
2123.000000	59.751812
2122.000000	59.743875
2121.000000	59.741682
2120.000000	59.744116
2119.000000	59.748550
2118.000000	59.753603
2117.000000	59.758492
2116.000000	59.760863
2115.000000	59.758251
2114.000000	59.751115
2113.000000	59.741749
2112.000000	59.730874
2111.000000	59.717943
2110.000000	59.704009
2109.000000	59.691450
2108.000000	59.681497
2107.000000	59.674594
2106.000000	59.672490
2105.000000	59.677234
2104.000000	59.688508
2103.000000	59.704318
2102.000000	59.723474
2101.000000	59.744830
2100.000000	59.765237
2099.000000	59.781072
2098.000000	59.791325
2097.000000	59.796750
2096.000000	59.797198
2095.000000	59.792959
2094.000000	59.787277
2093.000000	59.784120
2092.000000	59.784481
2091.000000	59.787889
2090.000000	59.796686
2089.000000	59.815570
2088.000000	59.847556
2087.000000	59.893426
2086.000000	59.953407
2085.000000	60.025954
2084.000000	60.106279
2083.000000	60.188732
2082.000000	60.269462
2081.000000	60.344717
2080.000000	60.409134
2079.000000	60.459421
2078.000000	60.498247
2077.000000	60.530489
2076.000000	60.557091
2075.000000	60.576142
2074.000000	60.587529
2073.000000	60.593069
2072.000000	60.593142
2071.000000	60.586924
2070.000000	60.576255
2069.000000	60.564961
2068.000000	60.553869
2067.000000	60.539580
2066.000000	60.518382
2065.000000	60.489459
2064.000000	60.454305
2063.000000	60.415503
2062.000000	60.375877
2061.000000	60.336442
2060.000000	60.295708
2059.000000	60.252855
2058.000000	60.210618
2057.000000	60.172807
2056.000000	60.140460
2055.000000	60.112888
2054.000000	60.090718
2053.000000	60.075036
2052.000000	60.064674
2051.000000	60.057148
2050.000000	60.051860
2049.000000	60.049899
2048.000000	60.050929
2047.000000	60.053678
2046.000000	60.059708
2045.000000	60.072384
2044.000000	60.091703
2043.000000	60.113756
2042.000000	60.135768
2041.000000	60.158719
2040.000000	60.184659
2039.000000	60.215036
2038.000000	60.251622
2037.000000	60.295497
2036.000000	60.345192
2035.000000	60.398580
2034.000000	60.456225
2033.000000	60.519798
2032.000000	60.588142
2031.000000	60.658327
2030.000000	60.729140
2029.000000	60.800177
2028.000000	60.868383
2027.000000	60.929631
2026.000000	60.983096
2025.000000	61.030979
2024.000000	61.074666
2023.000000	61.114477
2022.000000	61.153925
2021.000000	61.199007
2020.000000	61.251369
2019.000000	61.305820
2018.000000	61.356291
2017.000000	61.401840
2016.000000	61.446288
2015.000000	61.494848
2014.000000	61.551365
2013.000000	61.615741
2012.000000	61.682949
2011.000000	61.747273
2010.000000	61.807587
2009.000000	61.865899
2008.000000	61.922313
2007.000000	61.975695
2006.000000	62.027504
2005.000000	62.080779
2004.000000	62.136133
2003.000000	62.191922
2002.000000	62.248350
2001.000000	62.305965
2000.000000	62.362342
1999.000000	62.413750
1998.000000	62.458349
1997.000000	62.498307
1996.000000	62.537860
1995.000000	62.578045
1994.000000	62.613398
1993.000000	62.635101
1992.000000	62.639909
1991.000000	62.635864
1990.000000	62.635829
1989.000000	62.646528
1988.000000	62.666136
1987.000000	62.690475
1986.000000	62.718998
1985.000000	62.753739
1984.000000	62.794903
1983.000000	62.840803
1982.000000	62.891144
1981.000000	62.946974
1980.000000	63.009192
1979.000000	63.077448
1978.000000	63.149288
1977.000000	63.221940
1976.000000	63.294286
1975.000000	63.366083
1974.000000	63.435610
1973.000000	63.500316
1972.000000	63.559939
1971.000000	63.616302
1970.000000	63.668491
1969.000000	63.710243
1968.000000	63.733285
1967.000000	63.734616
1966.000000	63.720881
1965.000000	63.703109
1964.000000	63.687462
1963.000000	63.671593
1962.000000	63.649292
1961.000000	63.618757
1960.000000	63.585241
1959.000000	63.555630
1958.000000	63.533121
1957.000000	63.518170
1956.000000	63.511818
1955.000000	63.515692
1954.000000	63.529535
1953.000000	63.551780
1952.000000	63.580657
1951.000000	63.614212
1950.000000	63.651019
1949.000000	63.688847
1948.000000	63.725717
1947.000000	63.763766
1946.000000	63.807966
1945.000000	63.858767
1944.000000	63.906971
1943.000000	63.940599
1942.000000	63.959766
1941.000000	63.978600
1940.000000	64.010325
1939.000000	64.055586
1938.000000	64.103779
1937.000000	64.143126
1936.000000	64.169575
1935.000000	64.185301
1934.000000	64.192461
1933.000000	64.192553
1932.000000	64.187023
1931.000000	64.178842
1930.000000	64.172486
1929.000000	64.168024
1928.000000	64.163939
1927.000000	64.163518
1926.000000	64.173348
1925.000000	64.191027
1924.000000	64.199117
1923.000000	64.186177
1922.000000	64.165253
1921.000000	64.157181
1920.000000	64.165431
1919.000000	64.175801
1918.000000	64.175818
1917.000000	64.167634
1916.000000	64.157563
1915.000000	64.148277
1914.000000	64.141755
1913.000000	64.137852
1912.000000	64.131661
1911.000000	64.118808
1910.000000	64.101120
1909.000000	64.082022
1908.000000	64.064050
1907.000000	64.051153
1906.000000	64.049894
1905.000000	64.061138
1904.000000	64.074425
1903.000000	64.083856
1902.000000	64.096669
1901.000000	64.119329
1900.000000	64.150615
1899.000000	64.191049
1898.000000	64.247334
1897.000000	64.319492
1896.000000	64.391498
1895.000000	64.450567
1894.000000	64.505494
1893.000000	64.570809
1892.000000	64.643445
1891.000000	64.705585
1890.000000	64.743918
1889.000000	64.762896
1888.000000	64.778307
1887.000000	64.804621
1886.000000	64.849197
1885.000000	64.906705
1884.000000	64.962899
1883.000000	65.011899
1882.000000	65.060060
1881.000000	65.108593
1880.000000	65.148481
1879.000000	65.173918
1878.000000	65.190261
1877.000000	65.205227
1876.000000	65.217189
1875.000000	65.222940
1874.000000	65.230564
1873.000000	65.250999
1872.000000	65.282958
1871.000000	65.315191
1870.000000	65.335691
1869.000000	65.338482
1868.000000	65.329381
1867.000000	65.326056
1866.000000	65.349300
1865.000000	65.405879
1864.000000	65.482306
1863.000000	65.561713
1862.000000	65.640248
1861.000000	65.719544
1860.000000	65.792829
1859.000000	65.852915
1858.000000	65.904665
1857.000000	65.955300
1856.000000	66.001951
1855.000000	66.041286
1854.000000	66.080313
1853.000000	66.126039
1852.000000	66.180708
1851.000000	66.247515
1850.000000	66.328217
1849.000000	66.416306
1848.000000	66.496770
1847.000000	66.560772
1846.000000	66.608442
1845.000000	66.634756
1844.000000	66.637267
1843.000000	66.634956
1842.000000	66.648692
1841.000000	66.683159
1840.000000	66.735358
1839.000000	66.795687
1838.000000	66.853051
1837.000000	66.901646
1836.000000	66.941740
1835.000000	66.981670
1834.000000	67.031919
1833.000000	67.096494
1832.000000	67.170922
1831.000000	67.235312
1830.000000	67.271271
1829.000000	67.296802
1828.000000	67.344917
1827.000000	67.421081
1826.000000	67.503981
1825.000000	67.571782
1824.000000	67.622870
1823.000000	67.669595
1822.000000	67.723061
1821.000000	67.788904
1820.000000	67.862964
1819.000000	67.931493
1818.000000	67.987844
1817.000000	68.039604
1816.000000	68.093975
1815.000000	68.151895
1814.000000	68.212106
1813.000000	68.271282
1812.000000	68.315889
1811.000000	68.329236
1810.000000	68.320585
1809.000000	68.315486
1808.000000	68.319841
1807.000000	68.326522
1806.000000	68.343422
1805.000000	68.385536
1804.000000	68.446186
1803.000000	68.498794
1802.000000	68.522214
1801.000000	68.519913
1800.000000	68.509204
1799.000000	68.503214
1798.000000	68.512920
1797.000000	68.538971
1796.000000	68.567915
1795.000000	68.592942
1794.000000	68.620330
1793.000000	68.651160
1792.000000	68.671842
1791.000000	68.675149
1790.000000	68.678322
1789.000000	68.702311
1788.000000	68.748142
1787.000000	68.798721
1786.000000	68.840189
1785.000000	68.873311
1784.000000	68.906773
1783.000000	68.948542
1782.000000	68.994997
1781.000000	69.035235
1780.000000	69.065940
1779.000000	69.096555
1778.000000	69.141215
1777.000000	69.199143
1776.000000	69.258908
1775.000000	69.316687
1774.000000	69.373425
1773.000000	69.426642
1772.000000	69.484089
1771.000000	69.553881
1770.000000	69.626090
1769.000000	69.694379
1768.000000	69.761375
1767.000000	69.825476
1766.000000	69.886128
1765.000000	69.951334
1764.000000	70.026921
1763.000000	70.092539
1762.000000	70.118569
1761.000000	70.121408
1760.000000	70.138916
1759.000000	70.174357
1758.000000	70.204214
1757.000000	70.207518
1756.000000	70.201754
1755.000000	70.212178
1754.000000	70.236677
1753.000000	70.271681
1752.000000	70.320916
1751.000000	70.375966
1750.000000	70.414355
1749.000000	70.421130
1748.000000	70.411158
1747.000000	70.414759
1746.000000	70.434816
1745.000000	70.454744
1744.000000	70.465563
1743.000000	70.464586
1742.000000	70.453438
1741.000000	70.442272
1740.000000	70.444947
1739.000000	70.467790
1738.000000	70.498619
1737.000000	70.526677
1736.000000	70.560224
1735.000000	70.585696
1734.000000	70.588195
1733.000000	70.608830
1732.000000	70.656480
1731.000000	70.692274
1730.000000	70.703753
1729.000000	70.694787
1728.000000	70.687595
1727.000000	70.699921
1726.000000	70.728284
1725.000000	70.756586
1724.000000	70.771712
1723.000000	70.777245
1722.000000	70.792806
1721.000000	70.827563
1720.000000	70.873368
1719.000000	70.900215
1718.000000	70.888010
1717.000000	70.878975
1716.000000	70.896438
1715.000000	70.910407
1714.000000	70.927196
1713.000000	70.969768
1712.000000	71.026666
1711.000000	71.079491
1710.000000	71.134371
1709.000000	71.204993
1708.000000	71.289344
1707.000000	71.371893
1706.000000	71.447339
1705.000000	71.527589
1704.000000	71.603596
1703.000000	71.665287
1702.000000	71.736620
1701.000000	71.824945
1700.000000	71.907308
1699.000000	71.969344
1698.000000	72.004081
1697.000000	72.029274
1696.000000	72.066856
1695.000000	72.131207
1694.000000	72.224607
1693.000000	72.317770
1692.000000	72.407971
1691.000000	72.504471
1690.000000	72.594255
1689.000000	72.649899
1688.000000	72.669269
1687.000000	72.684219
1686.000000	72.727385
1685.000000	72.761047
1684.000000	72.745569
1683.000000	72.754712
1682.000000	72.801121
1681.000000	72.823287
1680.000000	72.825511
1679.000000	72.831218
1678.000000	72.846338
1677.000000	72.849193
1676.000000	72.825795
1675.000000	72.793705
1674.000000	72.774087
1673.000000	72.753285
1672.000000	72.722890
1671.000000	72.689834
1670.000000	72.644103
1669.000000	72.576729
1668.000000	72.513412
1667.000000	72.479644
1666.000000	72.465365
1665.000000	72.444238
1664.000000	72.391196
1663.000000	72.302424
1662.000000	72.195594
1661.000000	72.072128
1660.000000	71.932420
1659.000000	71.799048
1658.000000	71.681285
1657.000000	71.553308
1656.000000	71.388115
1655.000000	71.163912
1654.000000	70.746885
1653.000000	70.108695
1652.000000	69.551914
1651.000000	69.154096
1650.000000	68.719825
1649.000000	68.110005
1648.000000	67.140389
1647.000000	65.707265
1646.000000	63.950476
1645.000000	62.094990
1644.000000	60.147559
1643.000000	57.991401
1642.000000	55.553250
1641.000000	52.889595
1640.000000	50.209280
1639.000000	47.741523
1638.000000	45.604806
1637.000000	43.848395
1636.000000	42.646321
1635.000000	42.258414
1634.000000	42.649895
1633.000000	43.538249
1632.000000	44.718165
1631.000000	46.100527
1630.000000	47.640437
1629.000000	49.299290
1628.000000	51.023809
1627.000000	52.725219
1626.000000	54.343640
1625.000000	55.927452
1624.000000	57.558073
1623.000000	59.193586
1622.000000	60.671099
1621.000000	61.893059
1620.000000	62.913060
1619.000000	63.843069
1618.000000	64.760493
1617.000000	65.675789
1616.000000	66.528259
1615.000000	67.213416
1614.000000	67.672476
1613.000000	67.940318
1612.000000	68.075366
1611.000000	68.079377
1610.000000	67.886569
1609.000000	67.440337
1608.000000	66.724614
1607.000000	65.710028
1606.000000	64.312861
1605.000000	62.414779
1604.000000	59.923838
1603.000000	56.788313
1602.000000	53.044412
1601.000000	48.902257
1600.000000	44.743093
1599.000000	40.965053
1598.000000	37.734237
1597.000000	34.911321
1596.000000	32.278918
1595.000000	29.826737
1594.000000	27.755134
1593.000000	26.259083
1592.000000	25.402160
1591.000000	25.139467
1590.000000	25.367447
1589.000000	25.922021
1588.000000	26.600610
1587.000000	27.195372
1586.000000	27.524706
1585.000000	27.523642
1584.000000	27.305612
1583.000000	27.076442
1582.000000	26.963546
1581.000000	26.963670
1580.000000	27.031591
1579.000000	27.130843
1578.000000	27.180988
1577.000000	27.027869
1576.000000	26.599528
1575.000000	26.044253
1574.000000	25.516649
1573.000000	25.015557
1572.000000	24.522617
1571.000000	24.096007
1570.000000	23.826671
1569.000000	23.756334
1568.000000	23.890320
1567.000000	24.241850
1566.000000	24.789972
1565.000000	25.444133
1564.000000	26.121636
1563.000000	26.809765
1562.000000	27.554133
1561.000000	28.432909
1560.000000	29.602505
1559.000000	31.139906
1558.000000	32.734966
1557.000000	34.030732
1556.000000	35.064781
1555.000000	36.042443
1554.000000	37.013649
1553.000000	37.898155
1552.000000	38.646311
1551.000000	39.318963
1550.000000	39.985607
1549.000000	40.658477
1548.000000	41.342923
1547.000000	42.093718
1546.000000	42.958607
1545.000000	43.896821
1544.000000	44.816094
1543.000000	45.685197
1542.000000	46.552125
1541.000000	47.449944
1540.000000	48.349240
1539.000000	49.221015
1538.000000	50.023763
1537.000000	50.715845
1536.000000	51.340738
1535.000000	51.986789
1534.000000	52.681511
1533.000000	53.358899
1532.000000	53.964564
1531.000000	54.520217
1530.000000	55.075379
1529.000000	55.636796
1528.000000	56.173633
1527.000000	56.670672
1526.000000	57.127872
1525.000000	57.539385
1524.000000	57.911078
1523.000000	58.272008
1522.000000	58.626508
1521.000000	58.945796
1520.000000	59.232547
1519.000000	59.514868
1518.000000	59.796878
1517.000000	60.049846
1516.000000	60.260648
1515.000000	60.466608
1514.000000	60.698639
1513.000000	60.960971
1512.000000	61.244139
1511.000000	61.533822
1510.000000	61.813570
1509.000000	62.062836
1508.000000	62.234206
1507.000000	62.284038
1506.000000	62.336681
1505.000000	62.514769
1504.000000	62.753752
1503.000000	63.000565
1502.000000	63.247208
1501.000000	63.483137
1500.000000	63.699004
1499.000000	63.894788
1498.000000	64.067784
1497.000000	64.220853
1496.000000	64.381305
1495.000000	64.576775
1494.000000	64.802279
1493.000000	65.041232
1492.000000	65.293578
1491.000000	65.550366
1490.000000	65.772186
1489.000000	65.936793
1488.000000	66.066645
1487.000000	66.195820
1486.000000	66.334879
1485.000000	66.451057
1484.000000	66.520662
1483.000000	66.543462
1482.000000	66.496776
1481.000000	66.349496
1480.000000	66.106568
1479.000000	65.778424
1478.000000	65.303875
1477.000000	64.585953
1476.000000	63.604455
1475.000000	62.419825
1474.000000	61.045587
1473.000000	59.489031
1472.000000	57.969522
1471.000000	56.789209
1470.000000	56.016352
1469.000000	55.553641
1468.000000	55.348215
1467.000000	55.423346
1466.000000	55.805648
1465.000000	56.422887
1464.000000	57.077078
1463.000000	57.530103
1462.000000	57.622634
1461.000000	57.308169
1460.000000	56.593748
1459.000000	55.455454
1458.000000	53.786993
1457.000000	51.712850
1456.000000	49.810326
1455.000000	48.439876
1454.000000	47.404129
1453.000000	46.443242
1452.000000	45.487862
1451.000000	44.570699
1450.000000	43.672140
1449.000000	42.722743
1448.000000	41.747003
1447.000000	40.935087
1446.000000	40.536785
1445.000000	40.741794
1444.000000	41.633853
1443.000000	43.132603
1442.000000	44.994782
1441.000000	46.937800
1440.000000	48.776827
1439.000000	50.464166
1438.000000	52.045853
1437.000000	53.561328
1436.000000	54.962868
1435.000000	56.177515
1434.000000	57.229398
1433.000000	58.216082
1432.000000	59.180108
1431.000000	60.073346
1430.000000	60.839325
1429.000000	61.486987
1428.000000	62.052505
1427.000000	62.559303
1426.000000	63.026528
1425.000000	63.465676
1424.000000	63.871859
1423.000000	64.231544
1422.000000	64.558923
1421.000000	64.890573
1420.000000	65.228140
1419.000000	65.517954
1418.000000	65.740077
1417.000000	65.947329
1416.000000	66.177896
1415.000000	66.431820
1414.000000	66.700625
1413.000000	66.979896
1412.000000	67.255730
1411.000000	67.502637
1410.000000	67.711244
1409.000000	67.898892
1408.000000	68.070429
1407.000000	68.199701
1406.000000	68.249451
1405.000000	68.190868
1404.000000	68.023566
1403.000000	67.777231
1402.000000	67.491384
1401.000000	67.180007
1400.000000	66.819114
1399.000000	66.398449
1398.000000	65.978503
1397.000000	65.658430
1396.000000	65.508247
1395.000000	65.540645
1394.000000	65.692449
1393.000000	65.859953
1392.000000	65.977907
1391.000000	66.048635
1390.000000	66.115444
1389.000000	66.219958
1388.000000	66.381250
1387.000000	66.610620
1386.000000	66.927963
1385.000000	67.343756
1384.000000	67.844644
1383.000000	68.396738
1382.000000	68.961218
1381.000000	69.506365
1380.000000	70.000536
1379.000000	70.410271
1378.000000	70.710854
1377.000000	70.873633
1376.000000	70.809296
1375.000000	70.325519
1374.000000	69.154178
1373.000000	67.054880
1372.000000	63.912520
1371.000000	59.823736
1370.000000	55.226187
1369.000000	50.947560
1368.000000	47.929240
1367.000000	46.671910
1366.000000	46.977771
1365.000000	48.218421
1364.000000	49.705157
1363.000000	50.908977
1362.000000	51.628943
1361.000000	52.082612
1360.000000	52.735195
1359.000000	53.974274
1358.000000	55.883659
1357.000000	58.213522
1356.000000	60.556803
1355.000000	62.589794
1354.000000	64.198829
1353.000000	65.440797
1352.000000	66.418970
1351.000000	67.211753
1350.000000	67.873591
1349.000000	68.443459
1348.000000	68.947740
1347.000000	69.403237
1346.000000	69.823667
1345.000000	70.216220
1344.000000	70.581478
1343.000000	70.918085
1342.000000	71.227555
1341.000000	71.504074
1340.000000	71.730285
1339.000000	71.901307
1338.000000	72.042170
1337.000000	72.188652
1336.000000	72.357305
1335.000000	72.540816
1334.000000	72.720179
1333.000000	72.859813
1332.000000	72.895110
1331.000000	72.744903
1330.000000	72.348073
1329.000000	71.688647
1328.000000	70.770889
1327.000000	69.582246
1326.000000	68.100473
1325.000000	66.363941
1324.000000	64.559044
1323.000000	62.975031
1322.000000	61.799242
1321.000000	60.941021
1320.000000	60.090037
1319.000000	58.988696
1318.000000	57.669598
1317.000000	56.426102
1316.000000	55.576811
1315.000000	55.270220
1314.000000	55.458681
1313.000000	56.021316
1312.000000	56.888256
1311.000000	58.044781
1310.000000	59.448245
1309.000000	60.969823
1308.000000	62.440631
1307.000000	63.742772
1306.000000	64.837946
1305.000000	65.716116
1304.000000	66.349288
1303.000000	66.700918
1302.000000	66.757959
1301.000000	66.546443
1300.000000	66.132943
1299.000000	65.633039
1298.000000	65.174716
1297.000000	64.794120
1296.000000	64.371835
1295.000000	63.710400
1294.000000	62.711983
1293.000000	61.473338
1292.000000	60.199119
1291.000000	59.023935
1290.000000	57.903692
1289.000000	56.674451
1288.000000	55.216412
1287.000000	53.583738
1286.000000	52.000798
1285.000000	50.747780
1284.000000	50.037539
1283.000000	49.959169
1282.000000	50.499350
1281.000000	51.577745
1280.000000	53.040933
1279.000000	54.611554
1278.000000	55.881358
1277.000000	56.429779
1276.000000	56.019125
1275.000000	54.748020
1274.000000	53.073409
1273.000000	51.674786
1272.000000	51.195396
1271.000000	51.952283
1270.000000	53.800856
1269.000000	56.265248
1268.000000	58.823010
1267.000000	61.131629
1266.000000	63.067821
1265.000000	64.648577
1264.000000	65.942899
1263.000000	67.018610
1262.000000	67.923600
1261.000000	68.689570
1260.000000	69.340833
1259.000000	69.898236
1258.000000	70.384745
1257.000000	70.819487
1256.000000	71.214520
1255.000000	71.578361
1254.000000	71.916818
1253.000000	72.233337
1252.000000	72.527280
1251.000000	72.798078
1250.000000	73.049643
1249.000000	73.288180
1248.000000	73.520021
1247.000000	73.752573
1246.000000	73.993876
1245.000000	74.247790
1244.000000	74.509531
1243.000000	74.768593
1242.000000	75.013321
1241.000000	75.230917
1240.000000	75.407745
1239.000000	75.534739
1238.000000	75.613699
1237.000000	75.653602
1236.000000	75.663240
1235.000000	75.651332
1234.000000	75.625356
1233.000000	75.585478
1232.000000	75.518806
1231.000000	75.402687
1230.000000	75.214554
1229.000000	74.929872
1228.000000	74.520910
1227.000000	73.959784
1226.000000	73.217435
1225.000000	72.262429
1224.000000	71.048922
1223.000000	69.524617
1222.000000	67.647582
1221.000000	65.396945
1220.000000	62.799261
1219.000000	59.935008
1218.000000	56.921167
1217.000000	53.881045
1216.000000	50.927428
1215.000000	48.160784
1214.000000	45.663531
1213.000000	43.496853
1212.000000	41.709210
1211.000000	40.343796
1210.000000	39.409969
1209.000000	38.885013
1208.000000	38.738474
1207.000000	38.925423
1206.000000	39.366610
1205.000000	39.936770
1204.000000	40.505171
1203.000000	40.981094
1202.000000	41.329288
1201.000000	41.585128
1200.000000	41.853741
1199.000000	42.279588
1198.000000	42.987247
1197.000000	44.031978
1196.000000	45.399207
1195.000000	47.020568
1194.000000	48.797295
1193.000000	50.632733
1192.000000	52.454890
1191.000000	54.221110
1190.000000	55.905257
1189.000000	57.490856
1188.000000	58.970101
1187.000000	60.340416
1186.000000	61.594851
1185.000000	62.723987
1184.000000	63.722862
1183.000000	64.587460
1182.000000	65.315371
1181.000000	65.903797
1180.000000	66.357895
1179.000000	66.699245
1178.000000	66.956701
1177.000000	67.157141
1176.000000	67.317158
1175.000000	67.445167
1174.000000	67.545134
1173.000000	67.610178
1172.000000	67.623123
1171.000000	67.557003
1170.000000	67.375882
1169.000000	67.037976
1168.000000	66.500909
1167.000000	65.744220
1166.000000	64.792313
1165.000000	63.729458
1164.000000	62.700113
1163.000000	61.883684
1162.000000	61.435907
1161.000000	61.434528
1160.000000	61.863707
1159.000000	62.627337
1158.000000	63.590495
1157.000000	64.618438
1156.000000	65.608397
1155.000000	66.502503
1154.000000	67.275183
1153.000000	67.914401
1152.000000	68.409255
1151.000000	68.749384
1150.000000	68.925590
1149.000000	68.936256
1148.000000	68.781387
1147.000000	68.460838
1146.000000	67.967946
1145.000000	67.267781
1144.000000	66.300023
1143.000000	64.986088
1142.000000	63.259253
1141.000000	61.111182
1140.000000	58.623033
1139.000000	55.966936
1138.000000	53.325814
1137.000000	50.790399
1136.000000	48.319343
1135.000000	45.784757
1134.000000	43.080383
1133.000000	40.242517
1132.000000	37.513110
1131.000000	35.261862
1130.000000	33.801018
1129.000000	33.204250
1128.000000	33.284031
1127.000000	33.696111
1126.000000	34.055698
1125.000000	34.029718
1124.000000	33.400963
1123.000000	32.127833
1122.000000	30.374338
1121.000000	28.446673
1120.000000	26.618618
1119.000000	24.963244
1118.000000	23.372614
1117.000000	21.815324
1116.000000	20.574205
1115.000000	20.191107
1114.000000	21.101340
1113.000000	23.316198
1112.000000	26.418141
1111.000000	29.761089
1110.000000	32.725360
1109.000000	34.912286
1108.000000	36.214626
1107.000000	36.714053
1106.000000	36.504774
1105.000000	35.635614
1104.000000	34.278175
1103.000000	32.899287
1102.000000	32.110702
1101.000000	32.263537
1100.000000	33.200251
1099.000000	34.445997
1098.000000	35.658542
1097.000000	36.900181
1096.000000	38.475813
1095.000000	40.582649
1094.000000	43.119771
1093.000000	45.781288
1092.000000	48.274611
1091.000000	50.445025
1090.000000	52.277133
1089.000000	53.835765
1088.000000	55.206437
1087.000000	56.454374
1086.000000	57.620182
1085.000000	58.726823
1084.000000	59.777904
1083.000000	60.763192
1082.000000	61.665494
1081.000000	62.474929
1080.000000	63.189876
1079.000000	63.808768
1078.000000	64.336701
1077.000000	64.782312
1076.000000	65.146384
1075.000000	65.410915
1074.000000	65.530937
1073.000000	65.445056
1072.000000	65.056020
1071.000000	64.222658
1070.000000	62.769611
1069.000000	60.475807
1068.000000	57.125234
1067.000000	52.603505
1066.000000	47.072708
1065.000000	41.097695
1064.000000	35.534707
1063.000000	31.160533
1062.000000	28.231593
1061.000000	26.331525
1060.000000	24.667388
1059.000000	22.606086
1058.000000	20.027208
1057.000000	17.335325
1056.000000	15.177183
1055.000000	14.058477
1054.000000	14.168068
1053.000000	15.412846
1052.000000	17.575983
1051.000000	20.409373
1050.000000	23.615225
1049.000000	26.899574
1048.000000	30.044473
1047.000000	32.941740
1046.000000	35.563990
1045.000000	37.922674
1044.000000	40.047028
1043.000000	41.966106
1042.000000	43.694069
1041.000000	45.230509
1040.000000	46.585680
1039.000000	47.777848
1038.000000	48.822531
1037.000000	49.731699
1036.000000	50.517819
1035.000000	51.202045
1034.000000	51.805337
1033.000000	52.347731
1032.000000	52.854621
1031.000000	53.350999
1030.000000	53.852552
1029.000000	54.361745
1028.000000	54.874954
1027.000000	55.386886
1026.000000	55.885948
1025.000000	56.355973
1024.000000	56.783186
1023.000000	57.158971
1022.000000	57.477960
1021.000000	57.732303
1020.000000	57.913250
1019.000000	58.002468
1018.000000	57.953813
1017.000000	57.691073
1016.000000	57.106110
1015.000000	56.089532
1014.000000	54.567634
1013.000000	52.537589
1012.000000	50.093056
1011.000000	47.372830
1010.000000	44.485625
1009.000000	41.479216
1008.000000	38.425330
1007.000000	35.550000
1006.000000	33.280374
1005.000000	32.109162
1004.000000	32.346215
1003.000000	33.922641
1002.000000	36.366521
1001.000000	39.005636
1000.000000	41.205674
999.000000	42.504182
998.000000	42.667004
997.000000	41.752551
996.000000	40.166010
995.000000	38.569633
994.000000	37.604690
993.000000	37.599556
992.000000	38.495378
991.000000	39.996165
990.000000	41.782963
989.000000	43.638446
988.000000	45.461811
987.000000	47.206645
986.000000	48.840474
985.000000	50.337600
984.000000	51.688097
983.000000	52.899910
982.000000	53.992734
981.000000	54.985558
980.000000	55.886164
979.000000	56.695255
978.000000	57.408504
977.000000	58.024888
976.000000	58.550209
975.000000	58.997947
974.000000	59.391979
973.000000	59.758803
972.000000	60.120671
971.000000	60.491429
970.000000	60.875124
969.000000	61.267118
968.000000	61.653891
967.000000	62.018226
966.000000	62.346788
965.000000	62.633334
964.000000	62.878965
963.000000	63.091865
962.000000	63.287490
961.000000	63.483824
960.000000	63.693181
959.000000	63.919936
958.000000	64.162434
957.000000	64.414006
956.000000	64.663027
955.000000	64.896666
954.000000	65.107544
953.000000	65.295099
952.000000	65.462308
951.000000	65.614994
950.000000	65.762872
949.000000	65.916453
948.000000	66.080322
947.000000	66.251786
946.000000	66.425891
945.000000	66.597935
944.000000	66.762773
943.000000	66.916920
942.000000	67.062718
941.000000	67.206724
940.000000	67.353567
939.000000	67.504866
938.000000	67.662576
937.000000	67.827613
936.000000	67.994789
935.000000	68.153910
934.000000	68.297381
933.000000	68.423349
932.000000	68.532704
931.000000	68.629567
930.000000	68.724554
929.000000	68.831193
928.000000	68.956736
927.000000	69.099687
926.000000	69.255101
925.000000	69.415564
924.000000	69.567947
923.000000	69.697571
922.000000	69.798702
921.000000	69.876808
920.000000	69.941486
919.000000	70.004148
918.000000	70.081298
917.000000	70.189950
916.000000	70.335995
915.000000	70.511707
914.000000	70.703642
913.000000	70.896024
912.000000	71.066709
911.000000	71.192635
910.000000	71.262729
909.000000	71.277653
908.000000	71.235203
907.000000	71.118408
906.000000	70.901719
905.000000	70.558351
904.000000	70.074005
903.000000	69.480755
902.000000	68.883773
901.000000	68.433679
900.000000	68.246065
899.000000	68.332197
898.000000	68.599248
897.000000	68.912757
896.000000	69.168911
895.000000	69.338603
894.000000	69.445365
893.000000	69.473572
892.000000	69.293732
891.000000	68.734953
890.000000	67.791237
889.000000	66.745374
888.000000	66.018364
887.000000	65.861201
886.000000	66.184787
885.000000	66.682002
884.000000	67.089141
883.000000	67.317975
882.000000	67.413894
881.000000	67.458680
880.000000	67.511489
879.000000	67.595389
878.000000	67.706347
877.000000	67.845067
876.000000	68.048316
875.000000	68.373602
874.000000	68.844501
873.000000	69.416506
872.000000	70.003530
871.000000	70.532649
870.000000	70.974755
869.000000	71.336051
868.000000	71.634304
867.000000	71.882201
866.000000	72.080896
865.000000	72.224726
864.000000	72.309700
863.000000	72.344439
862.000000	72.351694
861.000000	72.358936
860.000000	72.387916
859.000000	72.449360
858.000000	72.543787
857.000000	72.664890
856.000000	72.805229
855.000000	72.960388
854.000000	73.128238
853.000000	73.303535
852.000000	73.475640
851.000000	73.632990
850.000000	73.768339
849.000000	73.878493
848.000000	73.962475
847.000000	74.023448
846.000000	74.069848
845.000000	74.111668
844.000000	74.156264
843.000000	74.210405
842.000000	74.282789
841.000000	74.379625
840.000000	74.498796
839.000000	74.631778
838.000000	74.769192
837.000000	74.900808
836.000000	75.013178
835.000000	75.095146
834.000000	75.146609
833.000000	75.177595
832.000000	75.199605
831.000000	75.222903
830.000000	75.260527
829.000000	75.326435
828.000000	75.427036
827.000000	75.558273
826.000000	75.710618
825.000000	75.870715
824.000000	76.018867
823.000000	76.133589
822.000000	76.203350
821.000000	76.229844
820.000000	76.221567
819.000000	76.189987
818.000000	76.146918
817.000000	76.095921
816.000000	76.014376
815.000000	75.843385
814.000000	75.489259
813.000000	74.833582
812.000000	73.778017
811.000000	72.320768
810.000000	70.626032
809.000000	69.003029
808.000000	67.781429
807.000000	67.157188
806.000000	67.114905
805.000000	67.466298
804.000000	67.960870
803.000000	68.387656
802.000000	68.611954
801.000000	68.561261
800.000000	68.193745
799.000000	67.488368
798.000000	66.447143
797.000000	65.100776
796.000000	63.502948
795.000000	61.727505
794.000000	59.869812
793.000000	58.041112
792.000000	56.362213
791.000000	54.951832
790.000000	53.911854
789.000000	53.303790
788.000000	53.136396
787.000000	53.361068
786.000000	53.887260
785.000000	54.610291
784.000000	55.428266
783.000000	56.254728
782.000000	57.021308
781.000000	57.680345
780.000000	58.202206
779.000000	58.575875
778.000000	58.813996
777.000000	58.948871
776.000000	59.012630
775.000000	59.018024
774.000000	58.965462
773.000000	58.869787
772.000000	58.785645
771.000000	58.806739
770.000000	59.037988
769.000000	59.549063
768.000000	60.340041
767.000000	61.343332
766.000000	62.461984
765.000000	63.612912
764.000000	64.741322
763.000000	65.816447
762.000000	66.823783
761.000000	67.757390
760.000000	68.609124
759.000000	69.368135
758.000000	70.032065
757.000000	70.611073
756.000000	71.118804
755.000000	71.566104
754.000000	71.967882
753.000000	72.343682
752.000000	72.706203
751.000000	73.055575
750.000000	73.386760
749.000000	73.694729
748.000000	73.968451
747.000000	74.191084
746.000000	74.352803
745.000000	74.456078
744.000000	74.507622
743.000000	74.515769
742.000000	74.498772
741.000000	74.483433
740.000000	74.488043
739.000000	74.514024
738.000000	74.554508
737.000000	74.595245
736.000000	74.601685
735.000000	74.518741
734.000000	74.294073
733.000000	73.896420
732.000000	73.315780
731.000000	72.571166
730.000000	71.729302
729.000000	70.907083
728.000000	70.231425
727.000000	69.786589
726.000000	69.600827
725.000000	69.658272
724.000000	69.890498
723.000000	70.165040
722.000000	70.321361
721.000000	70.245059
720.000000	69.911750
719.000000	69.359657
718.000000	68.641918
717.000000	67.823101
716.000000	67.004520
715.000000	66.321517
714.000000	65.901874
713.000000	65.815192
712.000000	66.046607
711.000000	66.514209
710.000000	67.117779
709.000000	67.777798
708.000000	68.444655
707.000000	69.091296
706.000000	69.715805
705.000000	70.342589
704.000000	70.991244
703.000000	71.655475
702.000000	72.321377
701.000000	72.978102
700.000000	73.607519
699.000000	74.176818
698.000000	74.660288
697.000000	75.064608
696.000000	75.403153
695.000000	75.679811
694.000000	75.913477
693.000000	76.140858
692.000000	76.392437
691.000000	76.668320
690.000000	76.958185
689.000000	77.270266
688.000000	77.596930
687.000000	77.895780
686.000000	78.137250
685.000000	78.329602
684.000000	78.487004
683.000000	78.599136
682.000000	78.667675
681.000000	78.732451
680.000000	78.821079
679.000000	78.908521
678.000000	78.948282
677.000000	78.987278
676.000000	79.034637
675.000000	79.041683
674.000000	79.098327
673.000000	79.334243
672.000000	79.614602
671.000000	79.712037
670.000000	79.567102
669.000000	78.067754
668.000000	75.248709
667.000000	74.482498
666.000000	76.236282
665.000000	78.090367
664.000000	78.993625
663.000000	79.281129
662.000000	79.458187
661.000000	79.626956
660.000000	79.746989
659.000000	79.855453
658.000000	79.952709
657.000000	80.004239
656.000000	79.998076
655.000000	79.957672
654.000000	79.914740
653.000000	79.872195
652.000000	79.830366
651.000000	79.792204
650.000000	79.723018
649.000000	79.577142
648.000000	79.386114
647.000000	79.236430
646.000000	79.161200
645.000000	79.109527
644.000000	79.026514
643.000000	78.917256
642.000000	78.802443
641.000000	78.669040
640.000000	78.514149
639.000000	78.375637
638.000000	78.283444
637.000000	78.229195
636.000000	78.196201
635.000000	78.185220
634.000000	78.192712
633.000000	78.190775
632.000000	78.156593
631.000000	78.096208
630.000000	78.016835
629.000000	77.908279
628.000000	77.772868
627.000000	77.638919
626.000000	77.531542
625.000000	77.447770
624.000000	77.376918
623.000000	77.331443
622.000000	77.326430
621.000000	77.337262
620.000000	77.303067
619.000000	77.167918
618.000000	76.918438
617.000000	76.593085
616.000000	76.256174
615.000000	75.950029
614.000000	75.668384
613.000000	75.381840
612.000000	75.082546
611.000000	74.783480
610.000000	74.475011
609.000000	74.110217
608.000000	73.645414
607.000000	73.062315
606.000000	72.348004
605.000000	71.484787
604.000000	70.474263
603.000000	69.353022
602.000000	68.150585
601.000000	66.859614
600.000000	65.469071
599.000000	63.996361
598.000000	62.450103
597.000000	60.788717
596.000000	58.963332
595.000000	56.961697
594.000000	54.755820
593.000000	52.244706
592.000000	49.329739
591.000000	46.079941
590.000000	42.809499
589.000000	40.010604
588.000000	38.175665
587.000000	37.543777
586.000000	37.888344
585.000000	38.623908
584.000000	39.236981
583.000000	39.553555
582.000000	39.619312
581.000000	39.505099
580.000000	39.304770
579.000000	39.189795
578.000000	39.314058
577.000000	39.719884
576.000000	40.388721
575.000000	41.292413
574.000000	42.342048
573.000000	43.376226
572.000000	44.280881
571.000000	45.074451
570.000000	45.847469
569.000000	46.665823
568.000000	47.556721
567.000000	48.509543
566.000000	49.438602
565.000000	50.211583
564.000000	50.755395
563.000000	51.101790
562.000000	51.315866
561.000000	51.438794
560.000000	51.519907
559.000000	51.625229
558.000000	51.771956
557.000000	51.918866
556.000000	52.065488
555.000000	52.304303
554.000000	52.729986
553.000000	53.351503
552.000000	54.126019
551.000000	55.010131
550.000000	55.934549
549.000000	56.802635
548.000000	57.562528
547.000000	58.234953
546.000000	58.845348
545.000000	59.379166
544.000000	59.831147
543.000000	60.239642
542.000000	60.640547
541.000000	61.028813
540.000000	61.397750
539.000000	61.766930
538.000000	62.142257
537.000000	62.494221
536.000000	62.802690
535.000000	63.087309
534.000000	63.362784
533.000000	63.613102
532.000000	63.823666
531.000000	64.008046
530.000000	64.177472
529.000000	64.311979
528.000000	64.376873
527.000000	64.348577
526.000000	64.193973
525.000000	63.867021
524.000000	63.356181
523.000000	62.691711
522.000000	61.903931
521.000000	60.990516
520.000000	59.934320
519.000000	58.710296
518.000000	57.250485
517.000000	55.472226
516.000000	53.387247
515.000000	51.156743
514.000000	49.009415
513.000000	47.159895
512.000000	45.806723
511.000000	45.130776
510.000000	45.206808
509.000000	45.960392
508.000000	47.263103
507.000000	48.976450
506.000000	50.911287
505.000000	52.863027
504.000000	54.721865
503.000000	56.479840
502.000000	58.113442
501.000000	59.559821
500.000000	60.812457
499.000000	61.950594
498.000000	63.036432
497.000000	64.059104
496.000000	64.985188
495.000000	65.803282
494.000000	66.507470
493.000000	67.072986
492.000000	67.494837
491.000000	67.819969
490.000000	68.103346
489.000000	68.378791
488.000000	68.671028
487.000000	69.000819
486.000000	69.343719
485.000000	69.605726
484.000000	69.676560
483.000000	69.476523
482.000000	68.947731
481.000000	68.052810
480.000000	66.817578
479.000000	65.341385
478.000000	63.710400
477.000000	61.973697
476.000000	60.233277
475.000000	58.692147
474.000000	57.544045
473.000000	56.871954
472.000000	56.675408
471.000000	56.919928
470.000000	57.513949
469.000000	58.311182
468.000000	59.205297
467.000000	60.151976
466.000000	61.069782
465.000000	61.805115
464.000000	62.225010
463.000000	62.328459
462.000000	62.269900
461.000000	62.288546
460.000000	62.634218
459.000000	63.488440
458.000000	64.808930
457.000000	66.270877
456.000000	67.544875
455.000000	68.566226
454.000000	69.421683
453.000000	70.157629
452.000000	70.775573
451.000000	71.314122
450.000000	71.797604
449.000000	72.162025
448.000000	72.293564
447.000000	72.121967
446.000000	71.659094
445.000000	70.985751
444.000000	70.261578
443.000000	69.720051
442.000000	69.548917
441.000000	69.762166
440.000000	70.263018
439.000000	70.951762
438.000000	71.720054
437.000000	72.422382
436.000000	72.934955
435.000000	73.235439
434.000000	73.372835
433.000000	73.385562
432.000000	73.294206
431.000000	73.140156
430.000000	72.975987
429.000000	72.820876
428.000000	72.687707
427.000000	72.622570
426.000000	72.646352
425.000000	72.690747
424.000000	72.673115
423.000000	72.617516
422.000000	72.600580
421.000000	72.621515
420.000000	72.617925
419.000000	72.587570
418.000000	72.600448
417.000000	72.651334
416.000000	72.697476
415.000000	72.768337
414.000000	72.905815
413.000000	73.083109
412.000000	73.255392
411.000000	73.425066
410.000000	73.594182
409.000000	73.673990
408.000000	73.577521
407.000000	73.361241
406.000000	73.172460
405.000000	73.099525
404.000000	73.178997
403.000000	73.455124
402.000000	73.906459
401.000000	74.392009
400.000000	74.783997
