PE IR       SUBTECH     SPECTRUM    ASCII       PEDS        4.00        
   -1
23ms026-cis.asc
24/10/21
15:28:03.00
24/10/21
15:28:03.00
Administrator
Sample 1315 By Administrator Date Monday, October 21 2024
400.000000
#HDR
-1
-1
#GR
cm-1
%T
1.0
0.0
4000.000000
-1.000000
3601
8
86.804601
11.873793
#DATA
4000.000000	67.854266
3999.000000	67.842827
3998.000000	67.833173
3997.000000	67.825158
3996.000000	67.819259
3995.000000	67.816114
3994.000000	67.815794
3993.000000	67.817570
3992.000000	67.820362
3991.000000	67.823568
3990.000000	67.827530
3989.000000	67.833244
3988.000000	67.841792
3987.000000	67.853994
3986.000000	67.870332
3985.000000	67.890871
3984.000000	67.915160
3983.000000	67.942492
3982.000000	67.972211
3981.000000	68.003761
3980.000000	68.036519
3979.000000	68.069722
3978.000000	68.102835
3977.000000	68.135949
3976.000000	68.169818
3975.000000	68.205177
3974.000000	68.241854
3973.000000	68.278508
3972.000000	68.313252
3971.000000	68.344827
3970.000000	68.373399
3969.000000	68.400494
3968.000000	68.428151
3967.000000	68.457927
3966.000000	68.490587
3965.000000	68.526338
3964.000000	68.565061
3963.000000	68.606488
3962.000000	68.650252
3961.000000	68.695941
3960.000000	68.743144
3959.000000	68.791286
3958.000000	68.839636
3957.000000	68.887737
3956.000000	68.935589
3955.000000	68.983417
3954.000000	69.031204
3953.000000	69.078358
3952.000000	69.123746
3951.000000	69.166153
3950.000000	69.204907
3949.000000	69.240313
3948.000000	69.273624
3947.000000	69.306395
3946.000000	69.339436
3945.000000	69.372152
3944.000000	69.403672
3943.000000	69.434655
3942.000000	69.467090
3941.000000	69.502095
3940.000000	69.538747
3939.000000	69.575581
3938.000000	69.612396
3937.000000	69.650089
3936.000000	69.688794
3935.000000	69.727093
3934.000000	69.763312
3933.000000	69.796986
3932.000000	69.828535
3931.000000	69.857955
3930.000000	69.884648
3929.000000	69.908334
3928.000000	69.929189
3927.000000	69.947235
3926.000000	69.962533
3925.000000	69.976322
3924.000000	69.991222
3923.000000	70.008875
3922.000000	70.027774
3921.000000	70.044791
3920.000000	70.058361
3919.000000	70.069097
3918.000000	70.078056
3917.000000	70.086099
3916.000000	70.094878
3915.000000	70.106531
3914.000000	70.121757
3913.000000	70.139354
3912.000000	70.158262
3911.000000	70.178984
3910.000000	70.202226
3909.000000	70.227822
3908.000000	70.254437
3907.000000	70.280113
3906.000000	70.303289
3905.000000	70.324317
3904.000000	70.345957
3903.000000	70.371221
3902.000000	70.399796
3901.000000	70.427730
3900.000000	70.451918
3899.000000	70.474614
3898.000000	70.501734
3897.000000	70.536644
3896.000000	70.578166
3895.000000	70.623163
3894.000000	70.668358
3893.000000	70.711075
3892.000000	70.750412
3891.000000	70.788457
3890.000000	70.828984
3889.000000	70.873004
3888.000000	70.915050
3887.000000	70.948896
3886.000000	70.976914
3885.000000	71.008332
3884.000000	71.047862
3883.000000	71.089513
3882.000000	71.121429
3881.000000	71.138275
3880.000000	71.146798
3879.000000	71.157894
3878.000000	71.175932
3877.000000	71.196021
3876.000000	71.210905
3875.000000	71.219879
3874.000000	71.229380
3873.000000	71.245503
3872.000000	71.266607
3871.000000	71.285492
3870.000000	71.300857
3869.000000	71.321397
3868.000000	71.354348
3867.000000	71.394431
3866.000000	71.429215
3865.000000	71.454023
3864.000000	71.474363
3863.000000	71.494976
3862.000000	71.515021
3861.000000	71.533988
3860.000000	71.554787
3859.000000	71.579311
3858.000000	71.604477
3857.000000	71.625029
3856.000000	71.639733
3855.000000	71.655440
3854.000000	71.680041
3853.000000	71.708239
3852.000000	71.730039
3851.000000	71.749098
3850.000000	71.773694
3849.000000	71.806514
3848.000000	71.846353
3847.000000	71.888778
3846.000000	71.929301
3845.000000	71.966513
3844.000000	72.001947
3843.000000	72.037718
3842.000000	72.074445
3841.000000	72.110189
3840.000000	72.141300
3839.000000	72.167437
3838.000000	72.192530
3837.000000	72.219211
3836.000000	72.246409
3835.000000	72.272250
3834.000000	72.295306
3833.000000	72.314704
3832.000000	72.331816
3831.000000	72.350992
3830.000000	72.375800
3829.000000	72.404842
3828.000000	72.433816
3827.000000	72.461394
3826.000000	72.491796
3825.000000	72.530424
3824.000000	72.576096
3823.000000	72.620188
3822.000000	72.655211
3821.000000	72.682850
3820.000000	72.711646
3819.000000	72.745789
3818.000000	72.775785
3817.000000	72.789159
3816.000000	72.788899
3815.000000	72.789327
3814.000000	72.798963
3813.000000	72.814817
3812.000000	72.832595
3811.000000	72.854875
3810.000000	72.884937
3809.000000	72.920620
3808.000000	72.957849
3807.000000	72.995900
3806.000000	73.038701
3805.000000	73.088748
3804.000000	73.138557
3803.000000	73.174663
3802.000000	73.193619
3801.000000	73.207136
3800.000000	73.227837
3799.000000	73.254899
3798.000000	73.276620
3797.000000	73.287230
3796.000000	73.293072
3795.000000	73.302549
3794.000000	73.317396
3793.000000	73.333744
3792.000000	73.349455
3791.000000	73.366984
3790.000000	73.389302
3789.000000	73.416561
3788.000000	73.447009
3787.000000	73.478272
3786.000000	73.507973
3785.000000	73.534980
3784.000000	73.560869
3783.000000	73.588498
3782.000000	73.617636
3781.000000	73.643776
3780.000000	73.663187
3779.000000	73.677474
3778.000000	73.691478
3777.000000	73.707744
3776.000000	73.725445
3775.000000	73.745100
3774.000000	73.770431
3773.000000	73.803758
3772.000000	73.842200
3771.000000	73.880715
3770.000000	73.917826
3769.000000	73.956030
3768.000000	73.996190
3767.000000	74.034525
3766.000000	74.067480
3765.000000	74.097888
3764.000000	74.132853
3763.000000	74.175564
3762.000000	74.221705
3761.000000	74.264887
3760.000000	74.303813
3759.000000	74.341792
3758.000000	74.380547
3757.000000	74.418932
3756.000000	74.456541
3755.000000	74.494026
3754.000000	74.531664
3753.000000	74.570853
3752.000000	74.614464
3751.000000	74.662272
3750.000000	74.708319
3749.000000	74.748807
3748.000000	74.786772
3747.000000	74.822340
3746.000000	74.848936
3745.000000	74.866233
3744.000000	74.884521
3743.000000	74.913315
3742.000000	74.954833
3741.000000	75.004319
3740.000000	75.055842
3739.000000	75.105986
3738.000000	75.152070
3737.000000	75.193316
3736.000000	75.230111
3735.000000	75.262414
3734.000000	75.289610
3733.000000	75.310118
3732.000000	75.324676
3731.000000	75.340014
3730.000000	75.361900
3729.000000	75.387802
3728.000000	75.411539
3727.000000	75.431802
3726.000000	75.453354
3725.000000	75.479643
3724.000000	75.507957
3723.000000	75.533570
3722.000000	75.555870
3721.000000	75.577307
3720.000000	75.598800
3719.000000	75.619525
3718.000000	75.639616
3717.000000	75.662106
3716.000000	75.691953
3715.000000	75.732438
3714.000000	75.783891
3713.000000	75.844351
3712.000000	75.908314
3711.000000	75.967162
3710.000000	76.013979
3709.000000	76.048167
3708.000000	76.074659
3707.000000	76.100744
3706.000000	76.131773
3705.000000	76.167768
3704.000000	76.204974
3703.000000	76.239773
3702.000000	76.271157
3701.000000	76.300206
3700.000000	76.329013
3699.000000	76.358942
3698.000000	76.389261
3697.000000	76.419062
3696.000000	76.450640
3695.000000	76.487659
3694.000000	76.530090
3693.000000	76.573601
3692.000000	76.613712
3691.000000	76.649300
3690.000000	76.681125
3689.000000	76.708397
3688.000000	76.729091
3687.000000	76.744641
3686.000000	76.759373
3685.000000	76.775842
3684.000000	76.794855
3683.000000	76.817794
3682.000000	76.845295
3681.000000	76.875162
3680.000000	76.904917
3679.000000	76.935906
3678.000000	76.971931
3677.000000	77.012412
3676.000000	77.050286
3675.000000	77.079183
3674.000000	77.102492
3673.000000	77.126576
3672.000000	77.148026
3671.000000	77.160650
3670.000000	77.165954
3669.000000	77.169187
3668.000000	77.173155
3667.000000	77.177734
3666.000000	77.182913
3665.000000	77.189762
3664.000000	77.198384
3663.000000	77.208719
3662.000000	77.220877
3661.000000	77.234689
3660.000000	77.250311
3659.000000	77.267735
3658.000000	77.285858
3657.000000	77.302997
3656.000000	77.319357
3655.000000	77.338385
3654.000000	77.363208
3653.000000	77.391576
3652.000000	77.418635
3651.000000	77.444225
3650.000000	77.471863
3649.000000	77.498217
3648.000000	77.512288
3647.000000	77.510103
3646.000000	77.500901
3645.000000	77.495337
3644.000000	77.495583
3643.000000	77.498672
3642.000000	77.502705
3641.000000	77.507991
3640.000000	77.514617
3639.000000	77.521423
3638.000000	77.527646
3637.000000	77.533593
3636.000000	77.538758
3635.000000	77.540417
3634.000000	77.535591
3633.000000	77.523724
3632.000000	77.506476
3631.000000	77.486273
3630.000000	77.466055
3629.000000	77.446253
3628.000000	77.422337
3627.000000	77.391131
3626.000000	77.353074
3625.000000	77.308802
3624.000000	77.258783
3623.000000	77.202122
3622.000000	77.137684
3621.000000	77.066530
3620.000000	76.991953
3619.000000	76.916978
3618.000000	76.841496
3617.000000	76.762648
3616.000000	76.676580
3615.000000	76.580110
3614.000000	76.473411
3613.000000	76.360655
3612.000000	76.246548
3611.000000	76.132612
3610.000000	76.017120
3609.000000	75.898489
3608.000000	75.777577
3607.000000	75.656115
3606.000000	75.534203
3605.000000	75.410789
3604.000000	75.286090
3603.000000	75.162398
3602.000000	75.042988
3601.000000	74.930355
3600.000000	74.825190
3599.000000	74.725587
3598.000000	74.627336
3597.000000	74.526682
3596.000000	74.422691
3595.000000	74.315847
3594.000000	74.205917
3593.000000	74.092337
3592.000000	73.975560
3591.000000	73.858311
3590.000000	73.746618
3589.000000	73.650111
3588.000000	73.577258
3587.000000	73.526303
3586.000000	73.484345
3585.000000	73.437349
3584.000000	73.378118
3583.000000	73.306544
3582.000000	73.226006
3581.000000	73.140125
3580.000000	73.051716
3579.000000	72.962350
3578.000000	72.872312
3577.000000	72.781136
3576.000000	72.688056
3575.000000	72.591876
3574.000000	72.491110
3573.000000	72.385076
3572.000000	72.274006
3571.000000	72.157957
3570.000000	72.036877
3569.000000	71.912810
3568.000000	71.790693
3567.000000	71.673565
3566.000000	71.557609
3565.000000	71.435279
3564.000000	71.301615
3563.000000	71.156245
3562.000000	71.001657
3561.000000	70.841211
3560.000000	70.677748
3559.000000	70.512409
3558.000000	70.344429
3557.000000	70.172530
3556.000000	69.996027
3555.000000	69.814334
3554.000000	69.626644
3553.000000	69.433298
3552.000000	69.236385
3551.000000	69.036823
3550.000000	68.831777
3549.000000	68.616967
3548.000000	68.391521
3547.000000	68.159138
3546.000000	67.923854
3545.000000	67.686317
3544.000000	67.444311
3543.000000	67.195069
3542.000000	66.936516
3541.000000	66.667447
3540.000000	66.387112
3539.000000	66.094480
3538.000000	65.788801
3537.000000	65.471437
3536.000000	65.145252
3535.000000	64.810936
3534.000000	64.465395
3533.000000	64.104886
3532.000000	63.728371
3531.000000	63.336421
3530.000000	62.928659
3529.000000	62.504415
3528.000000	62.064184
3527.000000	61.608105
3526.000000	61.133910
3525.000000	60.639430
3524.000000	60.126595
3523.000000	59.599853
3522.000000	59.061051
3521.000000	58.507741
3520.000000	57.936279
3519.000000	57.344648
3518.000000	56.732552
3517.000000	56.101073
3516.000000	55.452122
3515.000000	54.787277
3514.000000	54.107383
3513.000000	53.412657
3512.000000	52.702261
3511.000000	51.974410
3510.000000	51.229303
3509.000000	50.472042
3508.000000	49.708499
3507.000000	48.937303
3506.000000	48.149691
3505.000000	47.339521
3504.000000	46.511298
3503.000000	45.676191
3502.000000	44.842653
3501.000000	44.012570
3500.000000	43.182878
3499.000000	42.348315
3498.000000	41.505471
3497.000000	40.656768
3496.000000	39.808952
3495.000000	38.966690
3494.000000	38.130733
3493.000000	37.302667
3492.000000	36.486242
3491.000000	35.682899
3490.000000	34.891220
3489.000000	34.113037
3488.000000	33.356067
3487.000000	32.627509
3486.000000	31.928159
3485.000000	31.254219
3484.000000	30.600314
3483.000000	29.960786
3482.000000	29.333477
3481.000000	28.723812
3480.000000	28.140605
3479.000000	27.585307
3478.000000	27.049932
3477.000000	26.525883
3476.000000	26.009728
3475.000000	25.500688
3474.000000	24.997885
3473.000000	24.502674
3472.000000	24.019773
3471.000000	23.555120
3470.000000	23.117727
3469.000000	22.722334
3468.000000	22.384366
3467.000000	22.110581
3466.000000	21.897979
3465.000000	21.742546
3464.000000	21.643284
3463.000000	21.599761
3462.000000	21.613076
3461.000000	21.688036
3460.000000	21.829083
3459.000000	22.032038
3458.000000	22.284437
3457.000000	22.574074
3456.000000	22.890618
3455.000000	23.221078
3454.000000	23.550353
3453.000000	23.865821
3452.000000	24.156854
3451.000000	24.410353
3450.000000	24.611736
3449.000000	24.752000
3448.000000	24.828829
3447.000000	24.840527
3446.000000	24.785358
3445.000000	24.664882
3444.000000	24.484864
3443.000000	24.253502
3442.000000	23.980536
3441.000000	23.679140
3440.000000	23.363536
3439.000000	23.045789
3438.000000	22.739227
3437.000000	22.461699
3436.000000	22.230052
3435.000000	22.051710
3434.000000	21.924997
3433.000000	21.846613
3432.000000	21.817028
3431.000000	21.839368
3430.000000	21.919521
3429.000000	22.066737
3428.000000	22.287280
3427.000000	22.581151
3426.000000	22.945243
3425.000000	23.378739
3424.000000	23.883185
3423.000000	24.456769
3422.000000	25.096588
3421.000000	25.801101
3420.000000	26.565986
3419.000000	27.381093
3418.000000	28.232996
3417.000000	29.111804
3416.000000	30.010698
3415.000000	30.921833
3414.000000	31.838257
3413.000000	32.755900
3412.000000	33.670402
3411.000000	34.574099
3410.000000	35.459816
3409.000000	36.325594
3408.000000	37.171459
3407.000000	37.992961
3406.000000	38.782566
3405.000000	39.535802
3404.000000	40.252362
3403.000000	40.934640
3402.000000	41.588564
3401.000000	42.223697
3400.000000	42.847625
3399.000000	43.459192
3398.000000	44.051126
3397.000000	44.617896
3396.000000	45.157976
3395.000000	45.672079
3394.000000	46.163094
3393.000000	46.637849
3392.000000	47.104289
3391.000000	47.565416
3390.000000	48.019334
3389.000000	48.463647
3388.000000	48.897905
3387.000000	49.322742
3386.000000	49.739234
3385.000000	50.149294
3384.000000	50.553718
3383.000000	50.950996
3382.000000	51.340114
3381.000000	51.723373
3380.000000	52.104562
3379.000000	52.485232
3378.000000	52.865120
3377.000000	53.244786
3376.000000	53.624727
3375.000000	54.002699
3374.000000	54.374491
3373.000000	54.737436
3372.000000	55.091813
3371.000000	55.439662
3370.000000	55.784440
3369.000000	56.130613
3368.000000	56.481010
3367.000000	56.834536
3366.000000	57.187495
3365.000000	57.536506
3364.000000	57.879000
3363.000000	58.212777
3362.000000	58.537550
3361.000000	58.855919
3360.000000	59.171010
3359.000000	59.483637
3358.000000	59.793236
3357.000000	60.100383
3356.000000	60.405750
3355.000000	60.707625
3354.000000	61.002729
3353.000000	61.289457
3352.000000	61.569003
3351.000000	61.843396
3350.000000	62.113978
3349.000000	62.381273
3348.000000	62.644706
3347.000000	62.902922
3346.000000	63.155231
3345.000000	63.402439
3344.000000	63.645147
3343.000000	63.881733
3342.000000	64.109705
3341.000000	64.328275
3340.000000	64.538716
3339.000000	64.742804
3338.000000	64.941699
3337.000000	65.135937
3336.000000	65.324580
3335.000000	65.504846
3334.000000	65.673896
3333.000000	65.830126
3332.000000	65.972490
3331.000000	66.098809
3330.000000	66.206324
3329.000000	66.293905
3328.000000	66.361731
3327.000000	66.409940
3326.000000	66.437596
3325.000000	66.442253
3324.000000	66.420201
3323.000000	66.366124
3322.000000	66.275376
3321.000000	66.145426
3320.000000	65.974035
3319.000000	65.758556
3318.000000	65.495387
3317.000000	65.181400
3316.000000	64.812534
3315.000000	64.380922
3314.000000	63.877506
3313.000000	63.293470
3312.000000	62.620602
3311.000000	61.850873
3310.000000	60.975631
3309.000000	59.990731
3308.000000	58.894027
3307.000000	57.682454
3306.000000	56.352888
3305.000000	54.900596
3304.000000	53.321831
3303.000000	51.610634
3302.000000	49.762273
3301.000000	47.780190
3300.000000	45.675011
3299.000000	43.466127
3298.000000	41.184806
3297.000000	38.876767
3296.000000	36.596667
3295.000000	34.397075
3294.000000	32.324210
3293.000000	30.419143
3292.000000	28.711389
3291.000000	27.206290
3290.000000	25.888033
3289.000000	24.727160
3288.000000	23.688640
3287.000000	22.737543
3286.000000	21.843012
3285.000000	20.988088
3284.000000	20.166673
3283.000000	19.379671
3282.000000	18.638117
3281.000000	17.963085
3280.000000	17.381294
3279.000000	16.915851
3278.000000	16.585833
3277.000000	16.410226
3276.000000	16.400157
3275.000000	16.553019
3274.000000	16.853049
3273.000000	17.274311
3272.000000	17.781757
3271.000000	18.328025
3270.000000	18.860013
3269.000000	19.327704
3268.000000	19.686761
3267.000000	19.901151
3266.000000	19.951877
3265.000000	19.841260
3264.000000	19.587876
3263.000000	19.221237
3262.000000	18.779177
3261.000000	18.308691
3260.000000	17.856906
3259.000000	17.461394
3258.000000	17.151418
3257.000000	16.951477
3256.000000	16.876821
3255.000000	16.928763
3254.000000	17.098173
3253.000000	17.369004
3252.000000	17.719840
3251.000000	18.121915
3250.000000	18.545565
3249.000000	18.967872
3248.000000	19.369772
3247.000000	19.733162
3246.000000	20.043081
3245.000000	20.291198
3244.000000	20.473889
3243.000000	20.591087
3242.000000	20.648440
3241.000000	20.658775
3240.000000	20.636267
3239.000000	20.589452
3238.000000	20.524550
3237.000000	20.448586
3236.000000	20.367990
3235.000000	20.287576
3234.000000	20.212584
3233.000000	20.148381
3232.000000	20.092598
3231.000000	20.032125
3230.000000	19.952292
3229.000000	19.845092
3228.000000	19.706804
3227.000000	19.532339
3226.000000	19.317476
3225.000000	19.063564
3224.000000	18.774267
3223.000000	18.452384
3222.000000	18.102834
3221.000000	17.735791
3220.000000	17.362772
3219.000000	16.991093
3218.000000	16.626079
3217.000000	16.273764
3216.000000	15.937347
3215.000000	15.614498
3214.000000	15.301945
3213.000000	14.999094
3212.000000	14.704040
3211.000000	14.410980
3210.000000	14.115937
3209.000000	13.821963
3208.000000	13.534458
3207.000000	13.255965
3206.000000	12.989653
3205.000000	12.742470
3204.000000	12.521021
3203.000000	12.327362
3202.000000	12.162995
3201.000000	12.033228
3200.000000	11.942144
3199.000000	11.889267
3198.000000	11.873793
3197.000000	11.898047
3196.000000	11.963605
3195.000000	12.066438
3194.000000	12.202620
3193.000000	12.372454
3192.000000	12.575388
3191.000000	12.807024
3190.000000	13.062565
3189.000000	13.340864
3188.000000	13.640363
3187.000000	13.955333
3186.000000	14.281270
3185.000000	14.618094
3184.000000	14.965541
3183.000000	15.319419
3182.000000	15.676000
3181.000000	16.036087
3180.000000	16.400159
3179.000000	16.764317
3178.000000	17.124342
3177.000000	17.479583
3176.000000	17.829455
3175.000000	18.170478
3174.000000	18.500326
3173.000000	18.820623
3172.000000	19.132631
3171.000000	19.433785
3170.000000	19.722190
3169.000000	20.000064
3168.000000	20.269218
3167.000000	20.527747
3166.000000	20.773651
3165.000000	21.008187
3164.000000	21.232057
3163.000000	21.441974
3162.000000	21.635027
3161.000000	21.811766
3160.000000	21.972802
3159.000000	22.116255
3158.000000	22.241294
3157.000000	22.351364
3156.000000	22.450113
3155.000000	22.538776
3154.000000	22.620591
3153.000000	22.703158
3152.000000	22.793172
3151.000000	22.891748
3150.000000	22.998010
3149.000000	23.113215
3148.000000	23.238189
3147.000000	23.370622
3146.000000	23.508571
3145.000000	23.653143
3144.000000	23.804657
3143.000000	23.960018
3142.000000	24.116291
3141.000000	24.273410
3140.000000	24.430382
3139.000000	24.582618
3138.000000	24.725793
3137.000000	24.858725
3136.000000	24.979727
3135.000000	25.083494
3134.000000	25.164684
3133.000000	25.219553
3132.000000	25.242243
3131.000000	25.222919
3130.000000	25.152365
3129.000000	25.027237
3128.000000	24.846882
3127.000000	24.611705
3126.000000	24.327221
3125.000000	24.005557
3124.000000	23.661447
3123.000000	23.307544
3122.000000	22.956612
3121.000000	22.622148
3120.000000	22.312483
3119.000000	22.027771
3118.000000	21.765443
3117.000000	21.524974
3116.000000	21.304553
3115.000000	21.098380
3114.000000	20.900351
3113.000000	20.707601
3112.000000	20.517770
3111.000000	20.327675
3110.000000	20.138435
3109.000000	19.956863
3108.000000	19.788992
3107.000000	19.636281
3106.000000	19.500492
3105.000000	19.388412
3104.000000	19.307300
3103.000000	19.261050
3102.000000	19.254251
3101.000000	19.293790
3100.000000	19.384852
3099.000000	19.527151
3098.000000	19.719592
3097.000000	19.964333
3096.000000	20.261175
3095.000000	20.605394
3094.000000	20.991675
3093.000000	21.417507
3092.000000	21.880334
3091.000000	22.374019
3090.000000	22.892927
3089.000000	23.433125
3088.000000	23.988309
3087.000000	24.549712
3086.000000	25.111729
3085.000000	25.674495
3084.000000	26.237653
3083.000000	26.796611
3082.000000	27.347369
3081.000000	27.890184
3080.000000	28.425924
3079.000000	28.952727
3078.000000	29.468907
3077.000000	29.974620
3076.000000	30.468716
3075.000000	30.947540
3074.000000	31.409448
3073.000000	31.856963
3072.000000	32.291802
3071.000000	32.712364
3070.000000	33.117756
3069.000000	33.510693
3068.000000	33.894153
3067.000000	34.267949
3066.000000	34.631461
3065.000000	34.985882
3064.000000	35.331819
3063.000000	35.668263
3062.000000	35.995223
3061.000000	36.314812
3060.000000	36.627730
3059.000000	36.932114
3058.000000	37.227749
3057.000000	37.517479
3056.000000	37.803147
3055.000000	38.083316
3054.000000	38.356888
3053.000000	38.625944
3052.000000	38.892858
3051.000000	39.157765
3050.000000	39.420168
3049.000000	39.679815
3048.000000	39.934834
3047.000000	40.182149
3046.000000	40.421692
3045.000000	40.657216
3044.000000	40.891729
3043.000000	41.125351
3042.000000	41.358336
3041.000000	41.592323
3040.000000	41.826711
3039.000000	42.057351
3038.000000	42.281218
3037.000000	42.499607
3036.000000	42.715486
3035.000000	42.930630
3034.000000	43.146518
3033.000000	43.364756
3032.000000	43.584652
3031.000000	43.803207
3030.000000	44.018873
3029.000000	44.232437
3028.000000	44.443488
3027.000000	44.649507
3026.000000	44.849831
3025.000000	45.047044
3024.000000	45.242408
3023.000000	45.433058
3022.000000	45.615195
3021.000000	45.786498
3020.000000	45.943980
3019.000000	46.081802
3018.000000	46.193885
3017.000000	46.276373
3016.000000	46.326800
3015.000000	46.345510
3014.000000	46.340101
3013.000000	46.327469
3012.000000	46.328560
3011.000000	46.362243
3010.000000	46.442449
3009.000000	46.575474
3008.000000	46.756257
3007.000000	46.968901
3006.000000	47.192771
3005.000000	47.406738
3004.000000	47.587923
3003.000000	47.710081
3002.000000	47.746801
3001.000000	47.675178
3000.000000	47.481496
2999.000000	47.171840
2998.000000	46.785374
2997.000000	46.395805
2996.000000	46.092420
2995.000000	45.952131
2994.000000	46.014568
2993.000000	46.271950
2992.000000	46.672679
2991.000000	47.144008
2990.000000	47.620264
2989.000000	48.059909
2988.000000	48.445114
2987.000000	48.772598
2986.000000	49.047789
2985.000000	49.278975
2984.000000	49.472354
2983.000000	49.629151
2982.000000	49.749191
2981.000000	49.832328
2980.000000	49.876298
2979.000000	49.875262
2978.000000	49.823209
2977.000000	49.719850
2976.000000	49.572580
2975.000000	49.397930
2974.000000	49.221261
2973.000000	49.071157
2972.000000	48.969191
2971.000000	48.921148
2970.000000	48.914758
2969.000000	48.919657
2968.000000	48.889982
2967.000000	48.776358
2966.000000	48.547428
2965.000000	48.205841
2964.000000	47.788043
2963.000000	47.349833
2962.000000	46.950075
2961.000000	46.635286
2960.000000	46.431847
2959.000000	46.346913
2958.000000	46.378139
2957.000000	46.517579
2956.000000	46.748297
2955.000000	47.043422
2954.000000	47.371170
2953.000000	47.700108
2952.000000	47.997771
2951.000000	48.234649
2950.000000	48.394081
2949.000000	48.480813
2948.000000	48.516242
2947.000000	48.522412
2946.000000	48.503324
2945.000000	48.428605
2944.000000	48.235177
2943.000000	47.858928
2942.000000	47.291388
2941.000000	46.620793
2940.000000	46.020732
2939.000000	45.683636
2938.000000	45.733828
2937.000000	46.175892
2936.000000	46.902145
2935.000000	47.755058
2934.000000	48.596679
2933.000000	49.346508
2932.000000	49.977782
2931.000000	50.497792
2930.000000	50.930663
2929.000000	51.302891
2928.000000	51.634959
2927.000000	51.938132
2926.000000	52.219586
2925.000000	52.484529
2924.000000	52.734732
2923.000000	52.967933
2922.000000	53.181995
2921.000000	53.376666
2920.000000	53.551067
2919.000000	53.703395
2918.000000	53.833999
2917.000000	53.946174
2916.000000	54.042946
2915.000000	54.125396
2914.000000	54.194993
2913.000000	54.254219
2912.000000	54.303928
2911.000000	54.342678
2910.000000	54.369019
2909.000000	54.381709
2908.000000	54.376750
2907.000000	54.345949
2906.000000	54.279116
2905.000000	54.164395
2904.000000	53.986142
2903.000000	53.727861
2902.000000	53.380680
2901.000000	52.951259
2900.000000	52.463624
2899.000000	51.959305
2898.000000	51.493720
2897.000000	51.126015
2896.000000	50.900994
2895.000000	50.836271
2894.000000	50.923083
2893.000000	51.133189
2892.000000	51.427978
2891.000000	51.767471
2890.000000	52.120269
2889.000000	52.465964
2888.000000	52.791801
2887.000000	53.089766
2886.000000	53.356666
2885.000000	53.593500
2884.000000	53.800961
2883.000000	53.978703
2882.000000	54.128490
2881.000000	54.255692
2880.000000	54.366507
2879.000000	54.466223
2878.000000	54.560351
2877.000000	54.654066
2876.000000	54.748962
2875.000000	54.842390
2874.000000	54.931444
2873.000000	55.015389
2872.000000	55.094479
2871.000000	55.170162
2870.000000	55.247679
2869.000000	55.335449
2868.000000	55.439552
2867.000000	55.560115
2866.000000	55.693312
2865.000000	55.833777
2864.000000	55.974321
2863.000000	56.107163
2862.000000	56.227922
2861.000000	56.336911
2860.000000	56.436036
2859.000000	56.526938
2858.000000	56.613093
2857.000000	56.700517
2856.000000	56.794413
2855.000000	56.896734
2854.000000	57.007361
2853.000000	57.124442
2852.000000	57.242287
2851.000000	57.351905
2850.000000	57.446106
2849.000000	57.523127
2848.000000	57.585418
2847.000000	57.637605
2846.000000	57.686388
2845.000000	57.739017
2844.000000	57.799466
2843.000000	57.867076
2842.000000	57.939676
2841.000000	58.016478
2840.000000	58.097403
2839.000000	58.182106
2838.000000	58.270816
2837.000000	58.364306
2836.000000	58.462160
2835.000000	58.562732
2834.000000	58.665194
2833.000000	58.769819
2832.000000	58.875840
2831.000000	58.981059
2830.000000	59.084199
2829.000000	59.185696
2828.000000	59.285686
2827.000000	59.383304
2826.000000	59.478416
2825.000000	59.571910
2824.000000	59.663638
2823.000000	59.752018
2822.000000	59.836333
2821.000000	59.917446
2820.000000	59.995640
2819.000000	60.069907
2818.000000	60.140048
2817.000000	60.207504
2816.000000	60.273323
2815.000000	60.337076
2814.000000	60.398426
2813.000000	60.457877
2812.000000	60.515340
2811.000000	60.569914
2810.000000	60.621713
2809.000000	60.672108
2808.000000	60.721589
2807.000000	60.769298
2806.000000	60.815269
2805.000000	60.861075
2804.000000	60.907453
2803.000000	60.953251
2802.000000	60.997575
2801.000000	61.041193
2800.000000	61.085062
2799.000000	61.129081
2798.000000	61.172980
2797.000000	61.216678
2796.000000	61.259168
2795.000000	61.298804
2794.000000	61.335451
2793.000000	61.370732
2792.000000	61.405718
2791.000000	61.440128
2790.000000	61.474136
2789.000000	61.508816
2788.000000	61.543891
2787.000000	61.577001
2786.000000	61.606227
2785.000000	61.632071
2784.000000	61.656477
2783.000000	61.681865
2782.000000	61.711631
2781.000000	61.749409
2780.000000	61.796528
2779.000000	61.851271
2778.000000	61.910997
2777.000000	61.973566
2776.000000	62.036444
2775.000000	62.096674
2774.000000	62.152904
2773.000000	62.206085
2772.000000	62.257614
2771.000000	62.308190
2770.000000	62.358654
2769.000000	62.410053
2768.000000	62.462039
2767.000000	62.512575
2766.000000	62.559839
2765.000000	62.603028
2764.000000	62.641205
2763.000000	62.673430
2762.000000	62.700594
2761.000000	62.725524
2760.000000	62.750514
2759.000000	62.775970
2758.000000	62.801621
2757.000000	62.826939
2756.000000	62.849876
2755.000000	62.867352
2754.000000	62.878238
2753.000000	62.885025
2752.000000	62.892239
2751.000000	62.904437
2750.000000	62.925462
2749.000000	62.956919
2748.000000	62.995947
2747.000000	63.035943
2746.000000	63.070643
2745.000000	63.097118
2744.000000	63.115502
2743.000000	63.128104
2742.000000	63.139070
2741.000000	63.152481
2740.000000	63.169224
2739.000000	63.186762
2738.000000	63.202680
2737.000000	63.217705
2736.000000	63.235341
2735.000000	63.260410
2734.000000	63.298053
2733.000000	63.351370
2732.000000	63.418755
2731.000000	63.494692
2730.000000	63.573589
2729.000000	63.652127
2728.000000	63.728002
2727.000000	63.798701
2726.000000	63.862414
2725.000000	63.918553
2724.000000	63.966565
2723.000000	64.005756
2722.000000	64.036670
2721.000000	64.061176
2720.000000	64.081054
2719.000000	64.097539
2718.000000	64.112511
2717.000000	64.128420
2716.000000	64.146308
2715.000000	64.165566
2714.000000	64.186023
2713.000000	64.208836
2712.000000	64.235077
2711.000000	64.265065
2710.000000	64.299293
2709.000000	64.338296
2708.000000	64.380940
2707.000000	64.424187
2706.000000	64.464988
2705.000000	64.501088
2704.000000	64.529980
2703.000000	64.549162
2702.000000	64.558260
2701.000000	64.559232
2700.000000	64.554284
2699.000000	64.544718
2698.000000	64.531936
2697.000000	64.517907
2696.000000	64.503779
2695.000000	64.489697
2694.000000	64.476269
2693.000000	64.464563
2692.000000	64.454505
2691.000000	64.445171
2690.000000	64.437196
2689.000000	64.433222
2688.000000	64.435300
2687.000000	64.443178
2686.000000	64.455518
2685.000000	64.470967
2684.000000	64.487700
2683.000000	64.504187
2682.000000	64.521214
2681.000000	64.541892
2680.000000	64.568804
2679.000000	64.602164
2678.000000	64.640852
2677.000000	64.683036
2676.000000	64.725235
2675.000000	64.762686
2674.000000	64.791838
2673.000000	64.811737
2672.000000	64.823073
2671.000000	64.827500
2670.000000	64.828385
2669.000000	64.830667
2668.000000	64.838959
2667.000000	64.856455
2666.000000	64.885167
2665.000000	64.925110
2664.000000	64.972672
2663.000000	65.021638
2662.000000	65.066454
2661.000000	65.103604
2660.000000	65.130477
2659.000000	65.145356
2658.000000	65.149168
2657.000000	65.145564
2656.000000	65.138442
2655.000000	65.130618
2654.000000	65.125289
2653.000000	65.126575
2652.000000	65.137719
2651.000000	65.159960
2650.000000	65.193451
2649.000000	65.237385
2648.000000	65.288945
2647.000000	65.343692
2646.000000	65.397789
2645.000000	65.449107
2644.000000	65.496070
2643.000000	65.537647
2642.000000	65.575004
2641.000000	65.611436
2640.000000	65.649835
2639.000000	65.691140
2638.000000	65.735160
2637.000000	65.781097
2636.000000	65.826803
2635.000000	65.869195
2634.000000	65.906321
2633.000000	65.937930
2632.000000	65.963904
2631.000000	65.983844
2630.000000	65.998360
2629.000000	66.009350
2628.000000	66.018256
2627.000000	66.025322
2626.000000	66.031080
2625.000000	66.036743
2624.000000	66.042850
2623.000000	66.048824
2622.000000	66.054313
2621.000000	66.059628
2620.000000	66.064229
2619.000000	66.066269
2618.000000	66.064049
2617.000000	66.056661
2616.000000	66.043188
2615.000000	66.022642
2614.000000	65.995386
2613.000000	65.963321
2612.000000	65.928242
2611.000000	65.891651
2610.000000	65.856273
2609.000000	65.826166
2608.000000	65.804682
2607.000000	65.793557
2606.000000	65.793830
2605.000000	65.806250
2604.000000	65.830216
2603.000000	65.863659
2602.000000	65.904782
2601.000000	65.951798
2600.000000	66.001333
2599.000000	66.048869
2598.000000	66.091322
2597.000000	66.128342
2596.000000	66.160882
2595.000000	66.190380
2594.000000	66.219473
2593.000000	66.251374
2592.000000	66.287369
2591.000000	66.325955
2590.000000	66.364545
2589.000000	66.400667
2588.000000	66.431637
2587.000000	66.455063
2586.000000	66.470852
2585.000000	66.481733
2584.000000	66.491529
2583.000000	66.504091
2582.000000	66.523680
2581.000000	66.554116
2580.000000	66.596510
2579.000000	66.648874
2578.000000	66.708044
2577.000000	66.771259
2576.000000	66.835903
2575.000000	66.899822
2574.000000	66.962733
2573.000000	67.025730
2572.000000	67.089215
2571.000000	67.152120
2570.000000	67.213073
2569.000000	67.270824
2568.000000	67.323642
2567.000000	67.369975
2566.000000	67.410349
2565.000000	67.447439
2564.000000	67.483812
2563.000000	67.520876
2562.000000	67.559643
2561.000000	67.600730
2560.000000	67.643104
2559.000000	67.684105
2558.000000	67.721461
2557.000000	67.754376
2556.000000	67.783008
2555.000000	67.808549
2554.000000	67.834011
2553.000000	67.863267
2552.000000	67.898524
2551.000000	67.939471
2550.000000	67.984585
2549.000000	68.031786
2548.000000	68.077882
2547.000000	68.119345
2546.000000	68.154490
2545.000000	68.184069
2544.000000	68.209657
2543.000000	68.232686
2542.000000	68.254772
2541.000000	68.276947
2540.000000	68.298123
2539.000000	68.315161
2538.000000	68.325038
2537.000000	68.325969
2536.000000	68.316601
2535.000000	68.296530
2534.000000	68.267670
2533.000000	68.233890
2532.000000	68.198643
2531.000000	68.163541
2530.000000	68.129470
2529.000000	68.097010
2528.000000	68.065641
2527.000000	68.034199
2526.000000	68.002692
2525.000000	67.972517
2524.000000	67.944578
2523.000000	67.918463
2522.000000	67.893524
2521.000000	67.869040
2520.000000	67.842973
2519.000000	67.812140
2518.000000	67.774243
2517.000000	67.728735
2516.000000	67.675589
2515.000000	67.615394
2514.000000	67.551074
2513.000000	67.487934
2512.000000	67.431223
2511.000000	67.384678
2510.000000	67.351129
2509.000000	67.332413
2508.000000	67.328090
2507.000000	67.335373
2506.000000	67.351786
2505.000000	67.376158
2504.000000	67.407249
2503.000000	67.443453
2502.000000	67.483681
2501.000000	67.527508
2500.000000	67.573324
2499.000000	67.617782
2498.000000	67.657576
2497.000000	67.690536
2496.000000	67.715095
2495.000000	67.730467
2494.000000	67.737978
2493.000000	67.740715
2492.000000	67.741724
2491.000000	67.743262
2490.000000	67.747612
2489.000000	67.756690
2488.000000	67.770253
2487.000000	67.786154
2486.000000	67.802720
2485.000000	67.819648
2484.000000	67.836610
2483.000000	67.852989
2482.000000	67.869344
2481.000000	67.887534
2480.000000	67.908705
2479.000000	67.932320
2478.000000	67.957646
2477.000000	67.984649
2476.000000	68.013356
2475.000000	68.043955
2474.000000	68.077832
2473.000000	68.117321
2472.000000	68.163661
2471.000000	68.216320
2470.000000	68.274303
2469.000000	68.336316
2468.000000	68.399619
2467.000000	68.460252
2466.000000	68.515171
2465.000000	68.563270
2464.000000	68.604471
2463.000000	68.639301
2462.000000	68.669651
2461.000000	68.698412
2460.000000	68.727395
2459.000000	68.756604
2458.000000	68.785135
2457.000000	68.811669
2456.000000	68.834079
2455.000000	68.850021
2454.000000	68.858888
2453.000000	68.862342
2452.000000	68.863149
2451.000000	68.864501
2450.000000	68.870084
2449.000000	68.883016
2448.000000	68.904181
2447.000000	68.932526
2446.000000	68.966809
2445.000000	69.006089
2444.000000	69.048538
2443.000000	69.091739
2442.000000	69.134369
2441.000000	69.176263
2440.000000	69.216984
2439.000000	69.255535
2438.000000	69.291613
2437.000000	69.325574
2436.000000	69.356965
2435.000000	69.384117
2434.000000	69.405589
2433.000000	69.420927
2432.000000	69.429988
2431.000000	69.433011
2430.000000	69.430940
2429.000000	69.424777
2428.000000	69.414267
2427.000000	69.397960
2426.000000	69.374824
2425.000000	69.344401
2424.000000	69.306412
2423.000000	69.261893
2422.000000	69.214811
2421.000000	69.171272
2420.000000	69.136679
2419.000000	69.114347
2418.000000	69.105815
2417.000000	69.110461
2416.000000	69.124264
2415.000000	69.140824
2414.000000	69.154064
2413.000000	69.159335
2412.000000	69.152768
2411.000000	69.131870
2410.000000	69.097170
2409.000000	69.051955
2408.000000	69.000261
2407.000000	68.945543
2406.000000	68.891012
2405.000000	68.838988
2404.000000	68.789802
2403.000000	68.742854
2402.000000	68.698941
2401.000000	68.660494
2400.000000	68.629695
2399.000000	68.607656
2398.000000	68.594653
2397.000000	68.589380
2396.000000	68.587591
2395.000000	68.583192
2394.000000	68.570867
2393.000000	68.547102
2392.000000	68.509962
2391.000000	68.460281
2390.000000	68.403094
2389.000000	68.346162
2388.000000	68.296726
2387.000000	68.260291
2386.000000	68.241160
2385.000000	68.241307
2384.000000	68.258944
2383.000000	68.288583
2382.000000	68.323162
2381.000000	68.353918
2380.000000	68.369060
2379.000000	68.356955
2378.000000	68.310252
2377.000000	68.227977
2376.000000	68.115086
2375.000000	67.982607
2374.000000	67.847040
2373.000000	67.725255
2372.000000	67.629165
2371.000000	67.565802
2370.000000	67.539988
2369.000000	67.552785
2368.000000	67.600291
2367.000000	67.676879
2366.000000	67.778118
2365.000000	67.898651
2364.000000	68.028293
2363.000000	68.159820
2362.000000	68.290109
2361.000000	68.410737
2360.000000	68.508469
2359.000000	68.567266
2358.000000	68.583183
2357.000000	68.564831
2356.000000	68.525738
2355.000000	68.493377
2354.000000	68.498094
2353.000000	68.558080
2352.000000	68.656355
2351.000000	68.750284
2350.000000	68.800992
2349.000000	68.788449
2348.000000	68.730152
2347.000000	68.668012
2346.000000	68.643040
2345.000000	68.665805
2344.000000	68.719008
2343.000000	68.790615
2342.000000	68.864838
2341.000000	68.930916
2340.000000	68.984669
2339.000000	69.027303
2338.000000	69.059278
2337.000000	69.079008
2336.000000	69.088455
2335.000000	69.095110
2334.000000	69.106143
2333.000000	69.118143
2332.000000	69.115619
2331.000000	69.076440
2330.000000	68.998102
2329.000000	68.891038
2328.000000	68.783559
2327.000000	68.696214
2326.000000	68.645228
2325.000000	68.635156
2324.000000	68.654617
2323.000000	68.684771
2322.000000	68.704278
2321.000000	68.705431
2320.000000	68.688593
2319.000000	68.661686
2318.000000	68.638551
2317.000000	68.634314
2316.000000	68.658797
2315.000000	68.705029
2314.000000	68.756498
2313.000000	68.790855
2312.000000	68.793562
2311.000000	68.757231
2310.000000	68.687190
2309.000000	68.592700
2308.000000	68.484024
2307.000000	68.366680
2306.000000	68.246608
2305.000000	68.129459
2304.000000	68.018923
2303.000000	67.912842
2302.000000	67.807102
2301.000000	67.697699
2300.000000	67.584010
2299.000000	67.467182
2298.000000	67.353461
2297.000000	67.250612
2296.000000	67.165577
2295.000000	67.100904
2294.000000	67.057872
2293.000000	67.036830
2292.000000	67.035957
2291.000000	67.051207
2290.000000	67.079860
2289.000000	67.121643
2288.000000	67.176480
2287.000000	67.243364
2286.000000	67.321553
2285.000000	67.410660
2284.000000	67.507239
2283.000000	67.604841
2282.000000	67.697263
2281.000000	67.781224
2280.000000	67.854999
2279.000000	67.918014
2278.000000	67.972573
2277.000000	68.023994
2276.000000	68.077300
2275.000000	68.134888
2274.000000	68.198093
2273.000000	68.267893
2272.000000	68.343751
2271.000000	68.423778
2270.000000	68.508095
2269.000000	68.600001
2268.000000	68.702920
2267.000000	68.817730
2266.000000	68.943625
2265.000000	69.078967
2264.000000	69.220046
2263.000000	69.360691
2262.000000	69.494983
2261.000000	69.619549
2260.000000	69.732673
2259.000000	69.833832
2258.000000	69.924612
2257.000000	70.009037
2256.000000	70.090951
2255.000000	70.171982
2254.000000	70.252464
2253.000000	70.332396
2252.000000	70.410850
2251.000000	70.485802
2250.000000	70.556257
2249.000000	70.623375
2248.000000	70.688892
2247.000000	70.753440
2246.000000	70.817190
2245.000000	70.880332
2244.000000	70.941966
2243.000000	70.999448
2242.000000	71.049952
2241.000000	71.092052
2240.000000	71.125214
2239.000000	71.149356
2238.000000	71.165762
2237.000000	71.177223
2236.000000	71.186318
2235.000000	71.194265
2234.000000	71.202047
2233.000000	71.211188
2232.000000	71.222518
2231.000000	71.235465
2230.000000	71.249344
2229.000000	71.264345
2228.000000	71.280648
2227.000000	71.297970
2226.000000	71.316647
2225.000000	71.337613
2224.000000	71.360307
2223.000000	71.381864
2222.000000	71.399303
2221.000000	71.411548
2220.000000	71.418920
2219.000000	71.422463
2218.000000	71.424886
2217.000000	71.430752
2216.000000	71.444242
2215.000000	71.467176
2214.000000	71.499436
2213.000000	71.539612
2212.000000	71.584386
2211.000000	71.628819
2210.000000	71.668833
2209.000000	71.702961
2208.000000	71.731525
2207.000000	71.755488
2206.000000	71.776643
2205.000000	71.797263
2204.000000	71.817914
2203.000000	71.836368
2202.000000	71.849407
2201.000000	71.855019
2200.000000	71.852558
2199.000000	71.842491
2198.000000	71.827301
2197.000000	71.811684
2196.000000	71.800808
2195.000000	71.798582
2194.000000	71.807525
2193.000000	71.828399
2192.000000	71.858943
2191.000000	71.894425
2190.000000	71.930654
2189.000000	71.966175
2188.000000	72.001455
2187.000000	72.037526
2186.000000	72.075979
2185.000000	72.118581
2184.000000	72.165441
2183.000000	72.214065
2182.000000	72.260907
2181.000000	72.303009
2180.000000	72.338136
2179.000000	72.364994
2178.000000	72.384431
2177.000000	72.399510
2176.000000	72.413389
2175.000000	72.427641
2174.000000	72.442527
2173.000000	72.457348
2172.000000	72.469829
2171.000000	72.476661
2170.000000	72.475923
2169.000000	72.468380
2168.000000	72.456225
2167.000000	72.441867
2166.000000	72.428464
2165.000000	72.419748
2164.000000	72.417751
2163.000000	72.421541
2162.000000	72.428866
2161.000000	72.438045
2160.000000	72.447714
2159.000000	72.456448
2158.000000	72.464094
2157.000000	72.472667
2156.000000	72.484886
2155.000000	72.502329
2154.000000	72.525236
2153.000000	72.552645
2152.000000	72.581909
2151.000000	72.609255
2150.000000	72.631956
2149.000000	72.649526
2148.000000	72.662604
2147.000000	72.672060
2146.000000	72.679704
2145.000000	72.688337
2144.000000	72.699795
2143.000000	72.713563
2142.000000	72.727838
2141.000000	72.740927
2140.000000	72.751162
2139.000000	72.756926
2138.000000	72.757899
2137.000000	72.755513
2136.000000	72.751458
2135.000000	72.746517
2134.000000	72.741152
2133.000000	72.735749
2132.000000	72.729355
2131.000000	72.719416
2130.000000	72.703891
2129.000000	72.682983
2128.000000	72.658516
2127.000000	72.632810
2126.000000	72.608827
2125.000000	72.590075
2124.000000	72.579076
2123.000000	72.576642
2122.000000	72.582999
2121.000000	72.598368
2120.000000	72.621886
2119.000000	72.651238
2118.000000	72.684052
2117.000000	72.718760
2116.000000	72.753709
2115.000000	72.786677
2114.000000	72.816044
2113.000000	72.841304
2112.000000	72.861979
2111.000000	72.877289
2110.000000	72.887333
2109.000000	72.893434
2108.000000	72.896839
2107.000000	72.898299
2106.000000	72.899488
2105.000000	72.903258
2104.000000	72.911401
2103.000000	72.923006
2102.000000	72.935323
2101.000000	72.945007
2100.000000	72.948057
2099.000000	72.940414
2098.000000	72.920223
2097.000000	72.889041
2096.000000	72.850689
2095.000000	72.810070
2094.000000	72.773220
2093.000000	72.746457
2092.000000	72.734040
2091.000000	72.737206
2090.000000	72.755569
2089.000000	72.787821
2088.000000	72.830449
2087.000000	72.877839
2086.000000	72.924831
2085.000000	72.968178
2084.000000	73.005500
2083.000000	73.034500
2082.000000	73.054020
2081.000000	73.064703
2080.000000	73.067556
2079.000000	73.062709
2078.000000	73.050362
2077.000000	73.031409
2076.000000	73.006334
2075.000000	72.974698
2074.000000	72.936359
2073.000000	72.892200
2072.000000	72.842821
2071.000000	72.787889
2070.000000	72.727631
2069.000000	72.663404
2068.000000	72.596078
2067.000000	72.525279
2066.000000	72.450990
2065.000000	72.374516
2064.000000	72.296853
2063.000000	72.217621
2062.000000	72.136537
2061.000000	72.054279
2060.000000	71.971222
2059.000000	71.887056
2058.000000	71.802567
2057.000000	71.720103
2056.000000	71.641411
2055.000000	71.566691
2054.000000	71.496618
2053.000000	71.433161
2052.000000	71.377515
2051.000000	71.329419
2050.000000	71.288999
2049.000000	71.257308
2048.000000	71.234174
2047.000000	71.217548
2046.000000	71.205961
2045.000000	71.199430
2044.000000	71.197683
2043.000000	71.199866
2042.000000	71.206533
2041.000000	71.219973
2040.000000	71.241583
2039.000000	71.271195
2038.000000	71.309331
2037.000000	71.357261
2036.000000	71.414552
2035.000000	71.478735
2034.000000	71.548101
2033.000000	71.622579
2032.000000	71.701135
2031.000000	71.781052
2030.000000	71.860536
2029.000000	71.939570
2028.000000	72.017653
2027.000000	72.092848
2026.000000	72.163872
2025.000000	72.231313
2024.000000	72.295802
2023.000000	72.357215
2022.000000	72.416301
2021.000000	72.475081
2020.000000	72.534828
2019.000000	72.595339
2018.000000	72.656892
2017.000000	72.720939
2016.000000	72.787977
2015.000000	72.856517
2014.000000	72.925165
2013.000000	72.994193
2012.000000	73.064346
2011.000000	73.135698
2010.000000	73.208432
2009.000000	73.283022
2008.000000	73.358760
2007.000000	73.433432
2006.000000	73.505261
2005.000000	73.574183
2004.000000	73.640540
2003.000000	73.704163
2002.000000	73.765117
2001.000000	73.824106
2000.000000	73.881460
1999.000000	73.936605
1998.000000	73.989583
1997.000000	74.041308
1996.000000	74.091792
1995.000000	74.139610
1994.000000	74.184181
1993.000000	74.227724
1992.000000	74.274017
1991.000000	74.326005
1990.000000	74.384967
1989.000000	74.450637
1988.000000	74.520956
1987.000000	74.592414
1986.000000	74.661685
1985.000000	74.727105
1984.000000	74.788518
1983.000000	74.846922
1982.000000	74.904543
1981.000000	74.964175
1980.000000	75.027363
1979.000000	75.093347
1978.000000	75.160524
1977.000000	75.227664
1976.000000	75.293568
1975.000000	75.356695
1974.000000	75.416129
1973.000000	75.472399
1972.000000	75.526595
1971.000000	75.579232
1970.000000	75.630148
1969.000000	75.678890
1968.000000	75.724231
1967.000000	75.763883
1966.000000	75.795593
1965.000000	75.817893
1964.000000	75.830005
1963.000000	75.831842
1962.000000	75.824572
1961.000000	75.810831
1960.000000	75.793545
1959.000000	75.775383
1958.000000	75.759032
1957.000000	75.746524
1956.000000	75.738330
1955.000000	75.733850
1954.000000	75.733219
1953.000000	75.737787
1952.000000	75.748919
1951.000000	75.767185
1950.000000	75.792255
1949.000000	75.822722
1948.000000	75.855388
1947.000000	75.885664
1946.000000	75.909570
1945.000000	75.924970
1944.000000	75.931610
1943.000000	75.931493
1942.000000	75.929361
1941.000000	75.930837
1940.000000	75.938409
1939.000000	75.950264
1938.000000	75.963168
1937.000000	75.974345
1936.000000	75.981041
1935.000000	75.980533
1934.000000	75.971888
1933.000000	75.956832
1932.000000	75.938598
1931.000000	75.920965
1930.000000	75.907457
1929.000000	75.901091
1928.000000	75.902807
1927.000000	75.910996
1926.000000	75.922776
1925.000000	75.934632
1924.000000	75.944542
1923.000000	75.953322
1922.000000	75.964239
1921.000000	75.979611
1920.000000	75.997880
1919.000000	76.016101
1918.000000	76.032947
1917.000000	76.047502
1916.000000	76.057119
1915.000000	76.057808
1914.000000	76.047828
1913.000000	76.029788
1912.000000	76.007918
1911.000000	75.985846
1910.000000	75.967420
1909.000000	75.957143
1908.000000	75.956890
1907.000000	75.964713
1906.000000	75.977638
1905.000000	75.993280
1904.000000	76.010838
1903.000000	76.031001
1902.000000	76.056448
1901.000000	76.090899
1900.000000	76.135667
1899.000000	76.189343
1898.000000	76.249307
1897.000000	76.311493
1896.000000	76.370585
1895.000000	76.422119
1894.000000	76.465177
1893.000000	76.501753
1892.000000	76.533788
1891.000000	76.563097
1890.000000	76.593028
1889.000000	76.627020
1888.000000	76.665546
1887.000000	76.705710
1886.000000	76.743793
1885.000000	76.777482
1884.000000	76.805807
1883.000000	76.829239
1882.000000	76.850723
1881.000000	76.875249
1880.000000	76.906736
1879.000000	76.946303
1878.000000	76.993226
1877.000000	77.044743
1876.000000	77.095819
1875.000000	77.141231
1874.000000	77.178457
1873.000000	77.208532
1872.000000	77.234379
1871.000000	77.259691
1870.000000	77.288832
1869.000000	77.324396
1868.000000	77.365506
1867.000000	77.410272
1866.000000	77.456725
1865.000000	77.501824
1864.000000	77.542063
1863.000000	77.575298
1862.000000	77.602824
1861.000000	77.629370
1860.000000	77.660147
1859.000000	77.698071
1858.000000	77.743427
1857.000000	77.794143
1856.000000	77.845608
1855.000000	77.892180
1854.000000	77.929750
1853.000000	77.957988
1852.000000	77.979704
1851.000000	77.999015
1850.000000	78.021989
1849.000000	78.054324
1848.000000	78.097354
1847.000000	78.146473
1846.000000	78.194841
1845.000000	78.237328
1844.000000	78.270795
1843.000000	78.296550
1842.000000	78.319965
1841.000000	78.344103
1840.000000	78.369747
1839.000000	78.399746
1838.000000	78.436603
1837.000000	78.478902
1836.000000	78.522916
1835.000000	78.564563
1834.000000	78.600334
1833.000000	78.628651
1832.000000	78.650228
1831.000000	78.668187
1830.000000	78.687188
1829.000000	78.712551
1828.000000	78.749687
1827.000000	78.799067
1826.000000	78.855088
1825.000000	78.909381
1824.000000	78.954287
1823.000000	78.987021
1822.000000	79.009433
1821.000000	79.026086
1820.000000	79.043635
1819.000000	79.068925
1818.000000	79.105513
1817.000000	79.151239
1816.000000	79.199366
1815.000000	79.240812
1814.000000	79.267932
1813.000000	79.276946
1812.000000	79.268568
1811.000000	79.248797
1810.000000	79.226843
1809.000000	79.212650
1808.000000	79.213013
1807.000000	79.227492
1806.000000	79.248675
1805.000000	79.266262
1804.000000	79.273250
1803.000000	79.268984
1802.000000	79.258196
1801.000000	79.247370
1800.000000	79.241731
1799.000000	79.246367
1798.000000	79.265514
1797.000000	79.300163
1796.000000	79.345181
1795.000000	79.389655
1794.000000	79.422039
1793.000000	79.434063
1792.000000	79.424809
1791.000000	79.406749
1790.000000	79.397612
1789.000000	79.405211
1788.000000	79.426933
1787.000000	79.457260
1786.000000	79.490799
1785.000000	79.521607
1784.000000	79.543928
1783.000000	79.552311
1782.000000	79.544065
1781.000000	79.524014
1780.000000	79.505237
1779.000000	79.503514
1778.000000	79.526529
1777.000000	79.572171
1776.000000	79.631826
1775.000000	79.695026
1774.000000	79.754528
1773.000000	79.803858
1772.000000	79.834070
1771.000000	79.845709
1770.000000	79.853334
1769.000000	79.872007
1768.000000	79.913265
1767.000000	79.978543
1766.000000	80.053865
1765.000000	80.119769
1764.000000	80.163453
1763.000000	80.181486
1762.000000	80.176908
1761.000000	80.160438
1760.000000	80.148366
1759.000000	80.151427
1758.000000	80.171050
1757.000000	80.207714
1756.000000	80.258536
1755.000000	80.312586
1754.000000	80.355300
1753.000000	80.378949
1752.000000	80.390251
1751.000000	80.402330
1750.000000	80.421273
1749.000000	80.447176
1748.000000	80.482391
1747.000000	80.528675
1746.000000	80.583253
1745.000000	80.638582
1744.000000	80.687179
1743.000000	80.725172
1742.000000	80.748960
1741.000000	80.756158
1740.000000	80.752158
1739.000000	80.750878
1738.000000	80.761261
1737.000000	80.777701
1736.000000	80.792436
1735.000000	80.810425
1734.000000	80.829408
1733.000000	80.836982
1732.000000	80.836866
1731.000000	80.831590
1730.000000	80.816652
1729.000000	80.798323
1728.000000	80.788226
1727.000000	80.791021
1726.000000	80.803576
1725.000000	80.818875
1724.000000	80.831345
1723.000000	80.840640
1722.000000	80.847620
1721.000000	80.850496
1720.000000	80.847154
1719.000000	80.843189
1718.000000	80.847270
1717.000000	80.859060
1716.000000	80.876949
1715.000000	80.902315
1714.000000	80.931320
1713.000000	80.958933
1712.000000	80.983270
1711.000000	81.004932
1710.000000	81.027606
1709.000000	81.055996
1708.000000	81.090802
1707.000000	81.129928
1706.000000	81.171040
1705.000000	81.209183
1704.000000	81.240101
1703.000000	81.262189
1702.000000	81.283676
1701.000000	81.322308
1700.000000	81.372538
1699.000000	81.416080
1698.000000	81.453550
1697.000000	81.481089
1696.000000	81.502021
1695.000000	81.533623
1694.000000	81.582546
1693.000000	81.636063
1692.000000	81.678070
1691.000000	81.708992
1690.000000	81.735154
1689.000000	81.753605
1688.000000	81.758555
1687.000000	81.753168
1686.000000	81.749301
1685.000000	81.751846
1684.000000	81.745112
1683.000000	81.727645
1682.000000	81.721672
1681.000000	81.719831
1680.000000	81.706785
1679.000000	81.685944
1678.000000	81.657926
1677.000000	81.612256
1676.000000	81.547345
1675.000000	81.481701
1674.000000	81.433701
1673.000000	81.399929
1672.000000	81.365179
1671.000000	81.325945
1670.000000	81.280273
1669.000000	81.214877
1668.000000	81.131355
1667.000000	81.052604
1666.000000	80.985352
1665.000000	80.912544
1664.000000	80.822511
1663.000000	80.724243
1662.000000	80.628585
1661.000000	80.529084
1660.000000	80.413784
1659.000000	80.285489
1658.000000	80.150363
1657.000000	79.996735
1656.000000	79.801873
1655.000000	79.553615
1654.000000	79.234191
1653.000000	78.804312
1652.000000	78.330583
1651.000000	77.927895
1650.000000	77.532256
1649.000000	76.969982
1648.000000	76.057260
1647.000000	74.683408
1646.000000	72.908140
1645.000000	70.878878
1644.000000	68.636235
1643.000000	66.088759
1642.000000	63.157801
1641.000000	59.910167
1640.000000	56.603259
1639.000000	53.533020
1638.000000	50.863169
1637.000000	48.693381
1636.000000	47.254100
1635.000000	46.802120
1634.000000	47.257028
1633.000000	48.325021
1632.000000	49.792238
1631.000000	51.540479
1630.000000	53.483716
1629.000000	55.540945
1628.000000	57.610894
1627.000000	59.550232
1626.000000	61.276415
1625.000000	62.860425
1624.000000	64.425177
1623.000000	65.956471
1622.000000	67.307748
1621.000000	68.414632
1620.000000	69.347770
1619.000000	70.201348
1618.000000	71.034444
1617.000000	71.863886
1616.000000	72.636527
1615.000000	73.263213
1614.000000	73.726245
1613.000000	74.091125
1612.000000	74.428601
1611.000000	74.739724
1610.000000	74.967408
1609.000000	75.082923
1608.000000	75.094432
1607.000000	74.980807
1606.000000	74.689288
1605.000000	74.189426
1604.000000	73.480843
1603.000000	72.550909
1602.000000	71.389819
1601.000000	70.056674
1600.000000	68.678785
1599.000000	67.384634
1598.000000	66.254591
1597.000000	65.331103
1596.000000	64.629175
1595.000000	64.112304
1594.000000	63.687867
1593.000000	63.268478
1592.000000	62.821557
1591.000000	62.338311
1590.000000	61.798160
1589.000000	61.188007
1588.000000	60.521690
1587.000000	59.802326
1586.000000	58.999180
1585.000000	58.090825
1584.000000	57.102429
1583.000000	56.065670
1582.000000	54.977348
1581.000000	53.834969
1580.000000	52.664316
1579.000000	51.446163
1578.000000	50.033821
1577.000000	48.227723
1576.000000	46.075465
1575.000000	43.971776
1574.000000	42.200424
1573.000000	40.690860
1572.000000	39.296209
1571.000000	37.993541
1570.000000	36.865663
1569.000000	36.008717
1568.000000	35.477429
1567.000000	35.284278
1566.000000	35.379924
1565.000000	35.670918
1564.000000	36.089254
1563.000000	36.617028
1562.000000	37.264741
1561.000000	38.100673
1560.000000	39.340581
1559.000000	41.079012
1558.000000	42.810062
1557.000000	44.084921
1556.000000	45.027525
1555.000000	45.880006
1554.000000	46.708756
1553.000000	47.437077
1552.000000	48.034822
1551.000000	48.601438
1550.000000	49.245834
1549.000000	49.979469
1548.000000	50.772045
1547.000000	51.652251
1546.000000	52.671181
1545.000000	53.800556
1544.000000	54.940813
1543.000000	56.039309
1542.000000	57.133302
1541.000000	58.267181
1540.000000	59.403976
1539.000000	60.430149
1538.000000	61.277123
1537.000000	61.969507
1536.000000	62.593522
1535.000000	63.264720
1534.000000	64.042348
1533.000000	64.843097
1532.000000	65.550610
1531.000000	66.168246
1530.000000	66.748516
1529.000000	67.304977
1528.000000	67.834613
1527.000000	68.353742
1526.000000	68.864606
1525.000000	69.330277
1524.000000	69.731999
1523.000000	70.110875
1522.000000	70.506772
1521.000000	70.885839
1520.000000	71.203570
1519.000000	71.483738
1518.000000	71.759367
1517.000000	72.027201
1516.000000	72.278356
1515.000000	72.526311
1514.000000	72.781680
1513.000000	73.033764
1512.000000	73.273409
1511.000000	73.503707
1510.000000	73.721558
1509.000000	73.920471
1508.000000	74.122761
1507.000000	74.364699
1506.000000	74.622203
1505.000000	74.850383
1504.000000	75.059099
1503.000000	75.271443
1502.000000	75.487457
1501.000000	75.686898
1500.000000	75.857781
1499.000000	76.012057
1498.000000	76.160261
1497.000000	76.293885
1496.000000	76.420661
1495.000000	76.570530
1494.000000	76.740770
1493.000000	76.896930
1492.000000	77.030259
1491.000000	77.162023
1490.000000	77.284870
1489.000000	77.359413
1488.000000	77.387726
1487.000000	77.408617
1486.000000	77.422772
1485.000000	77.394502
1484.000000	77.308264
1483.000000	77.163164
1482.000000	76.926779
1481.000000	76.547774
1480.000000	76.011692
1479.000000	75.301726
1478.000000	74.325624
1477.000000	72.982674
1476.000000	71.298314
1475.000000	69.379450
1474.000000	67.258738
1473.000000	64.979633
1472.000000	62.816333
1471.000000	61.107151
1470.000000	59.922104
1469.000000	59.149944
1468.000000	58.735548
1467.000000	58.726480
1466.000000	59.201705
1465.000000	60.142556
1464.000000	61.333228
1463.000000	62.463289
1462.000000	63.324117
1461.000000	63.839757
1460.000000	63.985262
1459.000000	63.728396
1458.000000	63.034000
1457.000000	62.016481
1456.000000	61.043883
1455.000000	60.395497
1454.000000	60.034500
1453.000000	59.831145
1452.000000	59.718890
1451.000000	59.681039
1450.000000	59.725488
1449.000000	59.880295
1448.000000	60.162391
1447.000000	60.536422
1446.000000	60.950576
1445.000000	61.400595
1444.000000	61.922196
1443.000000	62.551559
1442.000000	63.309198
1441.000000	64.198526
1440.000000	65.203618
1439.000000	66.318867
1438.000000	67.576568
1437.000000	68.958665
1436.000000	70.273672
1435.000000	71.315229
1434.000000	72.093065
1433.000000	72.731013
1432.000000	73.301813
1431.000000	73.808576
1430.000000	74.243387
1429.000000	74.615207
1428.000000	74.926783
1427.000000	75.179166
1426.000000	75.398344
1425.000000	75.620369
1424.000000	75.849170
1423.000000	76.062088
1422.000000	76.256186
1421.000000	76.453624
1420.000000	76.663562
1419.000000	76.861915
1418.000000	77.031878
1417.000000	77.188433
1416.000000	77.339261
1415.000000	77.481713
1414.000000	77.627682
1413.000000	77.791894
1412.000000	77.967415
1411.000000	78.135807
1410.000000	78.293790
1409.000000	78.446633
1408.000000	78.585818
1407.000000	78.699667
1406.000000	78.797025
1405.000000	78.894545
1404.000000	78.984308
1403.000000	79.041901
1402.000000	79.046306
1401.000000	78.964153
1400.000000	78.741419
1399.000000	78.368280
1398.000000	77.946061
1397.000000	77.627991
1396.000000	77.511213
1395.000000	77.594291
1394.000000	77.792859
1393.000000	78.008193
1392.000000	78.199681
1391.000000	78.391452
1390.000000	78.631493
1389.000000	78.948451
1388.000000	79.326489
1387.000000	79.710948
1386.000000	80.050483
1385.000000	80.327347
1384.000000	80.544575
1383.000000	80.712957
1382.000000	80.850231
1381.000000	80.969847
1380.000000	81.067035
1379.000000	81.121752
1378.000000	81.107922
1377.000000	80.978183
1376.000000	80.615350
1375.000000	79.802625
1374.000000	78.260734
1373.000000	75.775735
1372.000000	72.357863
1371.000000	68.357604
1370.000000	64.502286
1369.000000	61.729771
1368.000000	60.713613
1367.000000	61.394505
1366.000000	63.056170
1365.000000	64.824052
1364.000000	66.020396
1363.000000	66.285347
1362.000000	65.668655
1361.000000	64.665424
1360.000000	64.006655
1359.000000	64.293647
1358.000000	65.709044
1357.000000	67.945359
1356.000000	70.429539
1355.000000	72.667441
1354.000000	74.441920
1353.000000	75.775042
1352.000000	76.777804
1351.000000	77.551762
1350.000000	78.171745
1349.000000	78.687463
1348.000000	79.123431
1347.000000	79.494345
1346.000000	79.816279
1345.000000	80.097996
1344.000000	80.336415
1343.000000	80.528728
1342.000000	80.686664
1341.000000	80.829631
1340.000000	80.970763
1339.000000	81.118164
1338.000000	81.279303
1337.000000	81.452087
1336.000000	81.615753
1335.000000	81.737802
1334.000000	81.784171
1333.000000	81.708051
1332.000000	81.439034
1331.000000	80.899271
1330.000000	80.037018
1329.000000	78.848754
1328.000000	77.349805
1327.000000	75.530632
1326.000000	73.371908
1325.000000	70.957894
1324.000000	68.609489
1323.000000	66.830268
1322.000000	66.004969
1321.000000	66.121638
1320.000000	66.811877
1319.000000	67.649380
1318.000000	68.413607
1317.000000	69.097020
1316.000000	69.751426
1315.000000	70.398934
1314.000000	71.051891
1313.000000	71.753259
1312.000000	72.560131
1311.000000	73.493429
1310.000000	74.508919
1309.000000	75.509557
1308.000000	76.384256
1307.000000	77.049095
1306.000000	77.466673
1305.000000	77.621438
1304.000000	77.492254
1303.000000	77.053330
1302.000000	76.294804
1301.000000	75.255546
1300.000000	74.054964
1299.000000	72.904137
1298.000000	72.039944
1297.000000	71.597878
1296.000000	71.528630
1295.000000	71.627144
1294.000000	71.637876
1293.000000	71.349166
1292.000000	70.637786
1291.000000	69.473455
1290.000000	67.885278
1289.000000	65.937067
1288.000000	63.769683
1287.000000	61.671468
1286.000000	60.039509
1285.000000	59.196183
1284.000000	59.219472
1283.000000	59.943649
1282.000000	61.129025
1281.000000	62.607552
1280.000000	64.274080
1279.000000	65.975072
1278.000000	67.468807
1277.000000	68.524444
1276.000000	69.041805
1275.000000	69.079814
1274.000000	68.809533
1273.000000	68.463562
1272.000000	68.297116
1271.000000	68.530422
1270.000000	69.264638
1269.000000	70.434323
1268.000000	71.847923
1267.000000	73.291478
1266.000000	74.615187
1265.000000	75.754303
1264.000000	76.699545
1263.000000	77.464989
1262.000000	78.075993
1261.000000	78.564526
1260.000000	78.961590
1259.000000	79.294203
1258.000000	79.592460
1257.000000	79.879867
1256.000000	80.161470
1255.000000	80.428434
1254.000000	80.671036
1253.000000	80.883856
1252.000000	81.060640
1251.000000	81.199007
1250.000000	81.310272
1249.000000	81.414097
1248.000000	81.524183
1247.000000	81.645238
1246.000000	81.779781
1245.000000	81.926322
1244.000000	82.071581
1243.000000	82.196538
1242.000000	82.290713
1241.000000	82.353562
1240.000000	82.386083
1239.000000	82.390724
1238.000000	82.378180
1237.000000	82.361666
1236.000000	82.344459
1235.000000	82.321340
1234.000000	82.287722
1233.000000	82.239850
1232.000000	82.168254
1231.000000	82.061542
1230.000000	81.916694
1229.000000	81.734315
1228.000000	81.508270
1227.000000	81.226749
1226.000000	80.877264
1225.000000	80.444363
1224.000000	79.896499
1223.000000	79.190351
1222.000000	78.284008
1221.000000	77.137720
1220.000000	75.724819
1219.000000	74.045653
1218.000000	72.141933
1217.000000	70.092906
1216.000000	68.003509
1215.000000	66.001363
1214.000000	64.230624
1213.000000	62.832810
1212.000000	61.916880
1211.000000	61.531498
1210.000000	61.626861
1209.000000	62.060392
1208.000000	62.640815
1207.000000	63.177604
1206.000000	63.524096
1205.000000	63.592617
1204.000000	63.351432
1203.000000	62.814496
1202.000000	62.039696
1201.000000	61.135847
1200.000000	60.268578
1199.000000	59.635728
1198.000000	59.405426
1197.000000	59.650233
1196.000000	60.337613
1195.000000	61.362790
1194.000000	62.602041
1193.000000	63.956564
1192.000000	65.356526
1191.000000	66.753902
1190.000000	68.108670
1189.000000	69.385597
1188.000000	70.555320
1187.000000	71.598908
1186.000000	72.513475
1185.000000	73.314432
1184.000000	74.026953
1183.000000	74.670992
1182.000000	75.258496
1181.000000	75.788415
1180.000000	76.247692
1179.000000	76.621924
1178.000000	76.904136
1177.000000	77.099228
1176.000000	77.215970
1175.000000	77.264956
1174.000000	77.259972
1173.000000	77.202363
1172.000000	77.068643
1171.000000	76.806257
1170.000000	76.344455
1169.000000	75.613405
1168.000000	74.560103
1167.000000	73.187535
1166.000000	71.588028
1165.000000	69.945564
1164.000000	68.497731
1163.000000	67.471988
1162.000000	67.008881
1161.000000	67.118790
1160.000000	67.696062
1159.000000	68.562558
1158.000000	69.536904
1157.000000	70.478624
1156.000000	71.305180
1155.000000	71.987785
1154.000000	72.532757
1153.000000	72.958779
1152.000000	73.275099
1151.000000	73.472984
1150.000000	73.526012
1149.000000	73.403981
1148.000000	73.071855
1147.000000	72.496531
1146.000000	71.652917
1145.000000	70.505388
1144.000000	69.004898
1143.000000	67.087806
1142.000000	64.710130
1141.000000	61.902607
1140.000000	58.803579
1139.000000	55.649525
1138.000000	52.683037
1137.000000	50.040096
1136.000000	47.703288
1135.000000	45.565745
1134.000000	43.556421
1133.000000	41.778479
1132.000000	40.552170
1131.000000	40.277120
1130.000000	41.229032
1129.000000	43.379203
1128.000000	46.389436
1127.000000	49.736282
1126.000000	52.870729
1125.000000	55.350479
1124.000000	56.884852
1123.000000	57.322825
1122.000000	56.635030
1121.000000	54.917970
1120.000000	52.343541
1119.000000	49.148189
1118.000000	45.680046
1117.000000	42.469159
1116.000000	40.190301
1115.000000	39.438024
1114.000000	40.419208
1113.000000	42.818548
1112.000000	45.937552
1111.000000	48.950327
1110.000000	51.205859
1109.000000	52.463520
1108.000000	52.954778
1107.000000	53.207018
1106.000000	53.710894
1105.000000	54.658093
1104.000000	55.904218
1103.000000	57.100666
1102.000000	57.832106
1101.000000	57.754667
1100.000000	56.742700
1099.000000	55.034476
1098.000000	53.241387
1097.000000	52.128616
1096.000000	52.252604
1095.000000	53.695947
1094.000000	56.074724
1093.000000	58.799107
1092.000000	61.386174
1091.000000	63.591489
1090.000000	65.372468
1089.000000	66.786384
1088.000000	67.913949
1087.000000	68.831639
1086.000000	69.610696
1085.000000	70.309693
1084.000000	70.960443
1083.000000	71.573786
1082.000000	72.142698
1081.000000	72.649175
1080.000000	73.069021
1079.000000	73.380213
1078.000000	73.579760
1077.000000	73.675855
1076.000000	73.671247
1075.000000	73.553040
1074.000000	73.279421
1073.000000	72.779533
1072.000000	71.928733
1071.000000	70.549975
1070.000000	68.437275
1069.000000	65.357723
1068.000000	61.126508
1067.000000	55.734264
1066.000000	49.524305
1065.000000	43.268181
1064.000000	37.978381
1063.000000	34.446884
1062.000000	32.761249
1061.000000	32.196745
1060.000000	31.648951
1059.000000	30.362418
1058.000000	28.391299
1057.000000	26.550802
1056.000000	25.891000
1055.000000	27.032260
1054.000000	29.880974
1053.000000	33.802411
1052.000000	38.051847
1051.000000	42.098757
1050.000000	45.682707
1049.000000	48.753197
1048.000000	51.374070
1047.000000	53.645511
1046.000000	55.646443
1045.000000	57.426518
1044.000000	59.011397
1043.000000	60.417965
1042.000000	61.656698
1041.000000	62.724474
1040.000000	63.620731
1039.000000	64.352110
1038.000000	64.937129
1037.000000	65.406066
1036.000000	65.794088
1035.000000	66.139670
1034.000000	66.470719
1033.000000	66.794469
1032.000000	67.099880
1031.000000	67.366870
1030.000000	67.579543
1029.000000	67.730660
1028.000000	67.824084
1027.000000	67.876688
1026.000000	67.910648
1025.000000	67.941661
1024.000000	67.967591
1023.000000	67.966873
1022.000000	67.906475
1021.000000	67.743892
1020.000000	67.436374
1019.000000	66.947908
1018.000000	66.250749
1017.000000	65.325261
1016.000000	64.151268
1015.000000	62.724822
1014.000000	61.086512
1013.000000	59.348555
1012.000000	57.697012
1011.000000	56.336159
1010.000000	55.380579
1009.000000	54.765643
1008.000000	54.277640
1007.000000	53.715549
1006.000000	53.098505
1005.000000	52.723560
1004.000000	52.995312
1003.000000	54.138708
1002.000000	56.015212
1001.000000	58.208916
1000.000000	60.259149
999.000000	61.846472
998.000000	62.841284
997.000000	63.259538
996.000000	63.214535
995.000000	62.895042
994.000000	62.548619
993.000000	62.434346
992.000000	62.748216
991.000000	63.544884
990.000000	64.710656
989.000000	66.028155
988.000000	67.294989
987.000000	68.400447
986.000000	69.330506
985.000000	70.125366
984.000000	70.834545
983.000000	71.492817
982.000000	72.113862
981.000000	72.690351
980.000000	73.202807
979.000000	73.638242
978.000000	73.997336
977.000000	74.293476
976.000000	74.547013
975.000000	74.781323
974.000000	75.019519
973.000000	75.274206
972.000000	75.543219
971.000000	75.814886
970.000000	76.075509
969.000000	76.312658
968.000000	76.516213
967.000000	76.684554
966.000000	76.828339
965.000000	76.963668
964.000000	77.103268
963.000000	77.254882
962.000000	77.423122
961.000000	77.606626
960.000000	77.795467
959.000000	77.977413
958.000000	78.145596
957.000000	78.297907
956.000000	78.432913
955.000000	78.552197
954.000000	78.664497
953.000000	78.781128
952.000000	78.908495
951.000000	79.048852
950.000000	79.204289
949.000000	79.373476
948.000000	79.546353
947.000000	79.708611
946.000000	79.851272
945.000000	79.971583
944.000000	80.069151
943.000000	80.148615
942.000000	80.223963
941.000000	80.312390
940.000000	80.423433
939.000000	80.557649
938.000000	80.710592
937.000000	80.870580
936.000000	81.016457
935.000000	81.127483
934.000000	81.197805
933.000000	81.237761
932.000000	81.264834
931.000000	81.300165
930.000000	81.367486
929.000000	81.481919
928.000000	81.636489
927.000000	81.805245
926.000000	81.959434
925.000000	82.076277
924.000000	82.140356
923.000000	82.151383
922.000000	82.132491
921.000000	82.121331
920.000000	82.149821
919.000000	82.233465
918.000000	82.371621
917.000000	82.545193
916.000000	82.715724
915.000000	82.840076
914.000000	82.893570
913.000000	82.878522
912.000000	82.814847
911.000000	82.734126
910.000000	82.672166
909.000000	82.645416
908.000000	82.625880
907.000000	82.539223
906.000000	82.292560
905.000000	81.799773
904.000000	81.007554
903.000000	79.946489
902.000000	78.781918
901.000000	77.795613
900.000000	77.274223
899.000000	77.365423
898.000000	78.002547
897.000000	78.959453
896.000000	79.971403
895.000000	80.842055
894.000000	81.487049
893.000000	81.909971
892.000000	82.164004
891.000000	82.325616
890.000000	82.475477
889.000000	82.670087
888.000000	82.920544
887.000000	83.186785
886.000000	83.387689
885.000000	83.419859
884.000000	83.193395
883.000000	82.696768
882.000000	82.031408
881.000000	81.362142
880.000000	80.807469
879.000000	80.377097
878.000000	80.020917
877.000000	79.730799
876.000000	79.586632
875.000000	79.692712
874.000000	80.074750
873.000000	80.637095
872.000000	81.225150
871.000000	81.730696
870.000000	82.142848
869.000000	82.515127
868.000000	82.896842
867.000000	83.296196
866.000000	83.683100
865.000000	84.008412
864.000000	84.223107
863.000000	84.304442
862.000000	84.275643
861.000000	84.197021
860.000000	84.137845
859.000000	84.152474
858.000000	84.268144
857.000000	84.473523
856.000000	84.716658
855.000000	84.927409
854.000000	85.050969
853.000000	85.066842
852.000000	84.989519
851.000000	84.864667
850.000000	84.758933
849.000000	84.732994
848.000000	84.812059
847.000000	84.978658
846.000000	85.187269
845.000000	85.380442
844.000000	85.502404
843.000000	85.521168
842.000000	85.448554
841.000000	85.333629
840.000000	85.235307
839.000000	85.201175
838.000000	85.257526
837.000000	85.399370
836.000000	85.586271
835.000000	85.759154
834.000000	85.869520
833.000000	85.896435
832.000000	85.846605
831.000000	85.752679
830.000000	85.668095
829.000000	85.644867
828.000000	85.705929
827.000000	85.839317
826.000000	86.012622
825.000000	86.184055
824.000000	86.308769
823.000000	86.356979
822.000000	86.333917
821.000000	86.273947
820.000000	86.215658
819.000000	86.187882
818.000000	86.208425
817.000000	86.277421
816.000000	86.369016
815.000000	86.442338
814.000000	86.465836
813.000000	86.426702
812.000000	86.324116
811.000000	86.165360
810.000000	85.966741
809.000000	85.742672
808.000000	85.486784
807.000000	85.173939
806.000000	84.773890
805.000000	84.255777
804.000000	83.584557
803.000000	82.720769
802.000000	81.633094
801.000000	80.294827
800.000000	78.677624
799.000000	76.765744
798.000000	74.574543
797.000000	72.160639
796.000000	69.611677
795.000000	67.036647
794.000000	64.556496
793.000000	62.294119
792.000000	60.364022
791.000000	58.864773
790.000000	57.872143
789.000000	57.422245
788.000000	57.505908
787.000000	58.061760
786.000000	58.987042
785.000000	60.159073
784.000000	61.445970
783.000000	62.719241
782.000000	63.862483
781.000000	64.782200
780.000000	65.413045
779.000000	65.727438
778.000000	65.745581
777.000000	65.529270
776.000000	65.154743
775.000000	64.687346
774.000000	64.184317
773.000000	63.714403
772.000000	63.372850
771.000000	63.270107
770.000000	63.499910
769.000000	64.100236
768.000000	65.035613
767.000000	66.214007
766.000000	67.529445
765.000000	68.900698
764.000000	70.277574
763.000000	71.631216
762.000000	72.941124
761.000000	74.182573
760.000000	75.316554
759.000000	76.297416
758.000000	77.098049
757.000000	77.727781
756.000000	78.231259
755.000000	78.675410
754.000000	79.133902
753.000000	79.661672
752.000000	80.268154
751.000000	80.911329
750.000000	81.516418
749.000000	82.004913
748.000000	82.321144
747.000000	82.457553
746.000000	82.467754
745.000000	82.448948
744.000000	82.501215
743.000000	82.689179
742.000000	83.020907
741.000000	83.442500
740.000000	83.850320
739.000000	84.129263
738.000000	84.202947
737.000000	84.064410
736.000000	83.775169
735.000000	83.442082
734.000000	83.181227
733.000000	83.075266
732.000000	83.140588
731.000000	83.321830
730.000000	83.514698
729.000000	83.602750
728.000000	83.497829
727.000000	83.175697
726.000000	82.688644
725.000000	82.141889
724.000000	81.643932
723.000000	81.251990
722.000000	80.928585
721.000000	80.530865
720.000000	79.860207
719.000000	78.769461
718.000000	77.256212
717.000000	75.478231
716.000000	73.702434
715.000000	72.226215
714.000000	71.297264
713.000000	71.046589
712.000000	71.453939
711.000000	72.363642
710.000000	73.547102
709.000000	74.773850
708.000000	75.864272
707.000000	76.729216
706.000000	77.389870
705.000000	77.953885
704.000000	78.551930
703.000000	79.277667
702.000000	80.155539
701.000000	81.130469
700.000000	82.080319
699.000000	82.860508
698.000000	83.368225
697.000000	83.587794
696.000000	83.596227
695.000000	83.535683
694.000000	83.560133
693.000000	83.775545
692.000000	84.202394
691.000000	84.772041
690.000000	85.353653
689.000000	85.797251
688.000000	85.992866
687.000000	85.929657
686.000000	85.697304
685.000000	85.433770
684.000000	85.273966
683.000000	85.312163
682.000000	85.567342
681.000000	85.968991
680.000000	86.382161
679.000000	86.674728
678.000000	86.758959
677.000000	86.617996
676.000000	86.333054
675.000000	86.022330
674.000000	85.809128
673.000000	85.810174
672.000000	86.055313
671.000000	86.427848
670.000000	86.731652
669.000000	86.786010
668.000000	86.419789
667.000000	85.917104
666.000000	85.759926
665.000000	85.830207
664.000000	85.888501
663.000000	85.945675
662.000000	86.077555
661.000000	86.310350
660.000000	86.564236
659.000000	86.747896
658.000000	86.804601
657.000000	86.732774
656.000000	86.579978
655.000000	86.396127
654.000000	86.236162
653.000000	86.167023
652.000000	86.212734
651.000000	86.332153
650.000000	86.461913
649.000000	86.555361
648.000000	86.571822
647.000000	86.480669
646.000000	86.303197
645.000000	86.105961
644.000000	85.936068
643.000000	85.796903
642.000000	85.685801
641.000000	85.614380
640.000000	85.579406
639.000000	85.550813
638.000000	85.506448
637.000000	85.446699
636.000000	85.361957
635.000000	85.223239
634.000000	85.022061
633.000000	84.786397
632.000000	84.546301
631.000000	84.315565
630.000000	84.114348
629.000000	83.972519
628.000000	83.893785
627.000000	83.838880
626.000000	83.755649
625.000000	83.605521
624.000000	83.357277
623.000000	82.992786
622.000000	82.541731
621.000000	82.086172
620.000000	81.708081
619.000000	81.439128
618.000000	81.253301
617.000000	81.085061
616.000000	80.853058
615.000000	80.485003
614.000000	79.941355
613.000000	79.223883
612.000000	78.370321
611.000000	77.453935
610.000000	76.566638
609.000000	75.770172
608.000000	75.055491
607.000000	74.344315
606.000000	73.524463
605.000000	72.488527
604.000000	71.173524
603.000000	69.596726
602.000000	67.846561
601.000000	66.034779
600.000000	64.262645
599.000000	62.605708
598.000000	61.080503
597.000000	59.624355
596.000000	58.145522
595.000000	56.594190
594.000000	54.972801
593.000000	53.309774
592.000000	51.674033
591.000000	50.184346
590.000000	48.938572
589.000000	47.941790
588.000000	47.129967
587.000000	46.423325
586.000000	45.713644
585.000000	44.860046
584.000000	43.777988
583.000000	42.515309
582.000000	41.211695
581.000000	40.019138
580.000000	39.093464
579.000000	38.601769
578.000000	38.643257
577.000000	39.187730
576.000000	40.110486
575.000000	41.232516
574.000000	42.336516
573.000000	43.226133
572.000000	43.840294
571.000000	44.306168
570.000000	44.859357
569.000000	45.703437
568.000000	46.916268
567.000000	48.422485
566.000000	50.015771
565.000000	51.460772
564.000000	52.615120
563.000000	53.465198
562.000000	54.084263
561.000000	54.583787
560.000000	55.087608
559.000000	55.699863
558.000000	56.461169
557.000000	57.332114
556.000000	58.221469
555.000000	59.028922
554.000000	59.677389
553.000000	60.143808
552.000000	60.476711
551.000000	60.781262
550.000000	61.174032
549.000000	61.730382
548.000000	62.456777
547.000000	63.289291
546.000000	64.112179
545.000000	64.804131
544.000000	65.288771
543.000000	65.563610
542.000000	65.704247
541.000000	65.834499
540.000000	66.071744
539.000000	66.481079
538.000000	67.057010
537.000000	67.728138
536.000000	68.375005
535.000000	68.868801
534.000000	69.131219
533.000000	69.174183
532.000000	69.085949
531.000000	68.985851
530.000000	68.980554
529.000000	69.119504
528.000000	69.364591
527.000000	69.599292
526.000000	69.672211
525.000000	69.463989
524.000000	68.937638
523.000000	68.154232
522.000000	67.266347
521.000000	66.460600
520.000000	65.862818
519.000000	65.454546
518.000000	65.043891
517.000000	64.333632
516.000000	63.068036
515.000000	61.190868
514.000000	58.904231
513.000000	56.588057
512.000000	54.656771
511.000000	53.443500
510.000000	53.110817
509.000000	53.630174
508.000000	54.860471
507.000000	56.585403
506.000000	58.526062
505.000000	60.424622
504.000000	62.139212
503.000000	63.649009
502.000000	64.986016
501.000000	66.196337
500.000000	67.330433
499.000000	68.425472
498.000000	69.481212
497.000000	70.460194
496.000000	71.305915
495.000000	71.972655
494.000000	72.466401
493.000000	72.853041
492.000000	73.223275
491.000000	73.644859
490.000000	74.143341
489.000000	74.705117
488.000000	75.274065
487.000000	75.768449
486.000000	76.131432
485.000000	76.367852
484.000000	76.526120
483.000000	76.660249
482.000000	76.823927
481.000000	77.063071
480.000000	77.373663
479.000000	77.685265
478.000000	77.910495
477.000000	78.003017
476.000000	77.951585
475.000000	77.739497
474.000000	77.343516
473.000000	76.747767
472.000000	75.949659
471.000000	74.989036
470.000000	73.985846
469.000000	73.120317
468.000000	72.545384
467.000000	72.282626
466.000000	72.172094
465.000000	71.946030
464.000000	71.381002
463.000000	70.448672
462.000000	69.401782
461.000000	68.666671
460.000000	68.613020
459.000000	69.396962
458.000000	70.880730
457.000000	72.644213
456.000000	74.246095
455.000000	75.519528
454.000000	76.544814
453.000000	77.438754
452.000000	78.204752
451.000000	78.746373
450.000000	78.981911
449.000000	78.892122
448.000000	78.469855
447.000000	77.714308
446.000000	76.718162
445.000000	75.688518
444.000000	74.867148
443.000000	74.445810
442.000000	74.500165
441.000000	74.948717
440.000000	75.595258
439.000000	76.241789
438.000000	76.796036
437.000000	77.289814
436.000000	77.773755
435.000000	78.231551
434.000000	78.623284
433.000000	78.942426
432.000000	79.167475
431.000000	79.233463
430.000000	79.115156
429.000000	78.880125
428.000000	78.617235
427.000000	78.374897
426.000000	78.199277
425.000000	78.147861
424.000000	78.210812
423.000000	78.278407
422.000000	78.247926
421.000000	78.103344
420.000000	77.851341
419.000000	77.504229
418.000000	77.198144
417.000000	77.116371
416.000000	77.261243
415.000000	77.495591
414.000000	77.715505
413.000000	77.898611
412.000000	78.021460
411.000000	78.014596
410.000000	77.874146
409.000000	77.730308
408.000000	77.715241
407.000000	77.849373
406.000000	78.105047
405.000000	78.476184
404.000000	78.889631
403.000000	79.181791
402.000000	79.253243
401.000000	79.209682
400.000000	79.180762
