PE IR       SUBTECH     SPECTRUM    ASCII       PEDS        4.00        
   -1
23ms122-trans.asc
24/10/15
16:32:45.00
24/10/15
16:32:45.00
Administrator
Sample 1280 By Administrator Date Tuesday, October 15 2024
400.000000
#HDR
-1
-1
#GR
cm-1
%T
1.0
0.0
4000.000000
-1.000000
3601
8
112.851455
9.733106
#DATA
4000.000000	77.555766
3999.000000	77.506974
3998.000000	77.463822
3997.000000	77.422718
3996.000000	77.380602
3995.000000	77.337323
3994.000000	77.294788
3993.000000	77.253880
3992.000000	77.213787
3991.000000	77.173544
3990.000000	77.131504
3989.000000	77.084911
3988.000000	77.031702
3987.000000	76.972129
3986.000000	76.907771
3985.000000	76.838643
3984.000000	76.762900
3983.000000	76.678578
3982.000000	76.586067
3981.000000	76.490175
3980.000000	76.398944
3979.000000	76.321008
3978.000000	76.264931
3977.000000	76.236607
3976.000000	76.236729
3975.000000	76.261161
3974.000000	76.304983
3973.000000	76.367098
3972.000000	76.447314
3971.000000	76.543745
3970.000000	76.650523
3969.000000	76.757745
3968.000000	76.856458
3967.000000	76.941994
3966.000000	77.013682
3965.000000	77.072652
3964.000000	77.119290
3963.000000	77.151802
3962.000000	77.169970
3961.000000	77.176791
3960.000000	77.174319
3959.000000	77.167777
3958.000000	77.164669
3957.000000	77.170486
3956.000000	77.189386
3955.000000	77.224389
3954.000000	77.278916
3953.000000	77.353413
3952.000000	77.445720
3951.000000	77.554295
3950.000000	77.674115
3949.000000	77.798144
3948.000000	77.927453
3947.000000	78.071613
3946.000000	78.234586
3945.000000	78.405843
3944.000000	78.569247
3943.000000	78.711292
3942.000000	78.830272
3941.000000	78.938971
3940.000000	79.044983
3939.000000	79.147521
3938.000000	79.242132
3937.000000	79.323740
3936.000000	79.396135
3935.000000	79.468769
3934.000000	79.553968
3933.000000	79.650278
3932.000000	79.738986
3931.000000	79.804136
3930.000000	79.842777
3929.000000	79.875999
3928.000000	79.925196
3927.000000	79.982056
3926.000000	80.026068
3925.000000	80.049164
3924.000000	80.059633
3923.000000	80.069738
3922.000000	80.082966
3921.000000	80.106526
3920.000000	80.150297
3919.000000	80.211036
3918.000000	80.275870
3917.000000	80.339039
3916.000000	80.407458
3915.000000	80.482598
3914.000000	80.555520
3913.000000	80.630173
3912.000000	80.703980
3911.000000	80.771674
3910.000000	80.834144
3909.000000	80.901656
3908.000000	80.994602
3907.000000	81.107818
3906.000000	81.207794
3905.000000	81.267095
3904.000000	81.298547
3903.000000	81.358978
3902.000000	81.480548
3901.000000	81.627143
3900.000000	81.747406
3899.000000	81.813623
3898.000000	81.831352
3897.000000	81.836674
3896.000000	81.858908
3895.000000	81.923131
3894.000000	82.025585
3893.000000	82.116620
3892.000000	82.126290
3891.000000	82.057819
3890.000000	82.004884
3889.000000	82.027193
3888.000000	82.107621
3887.000000	82.199838
3886.000000	82.247176
3885.000000	82.246549
3884.000000	82.255919
3883.000000	82.313600
3882.000000	82.393253
3881.000000	82.425222
3880.000000	82.375095
3879.000000	82.305477
3878.000000	82.297531
3877.000000	82.354178
3876.000000	82.414491
3875.000000	82.425356
3874.000000	82.408384
3873.000000	82.423683
3872.000000	82.482062
3871.000000	82.537296
3870.000000	82.543821
3869.000000	82.540777
3868.000000	82.583109
3867.000000	82.651102
3866.000000	82.725555
3865.000000	82.798588
3864.000000	82.821419
3863.000000	82.795703
3862.000000	82.767269
3861.000000	82.766678
3860.000000	82.785267
3859.000000	82.804450
3858.000000	82.844607
3857.000000	82.951882
3856.000000	83.150739
3855.000000	83.359981
3854.000000	83.367415
3853.000000	83.162370
3852.000000	83.034823
3851.000000	83.091893
3850.000000	83.187803
3849.000000	83.242741
3848.000000	83.251128
3847.000000	83.231705
3846.000000	83.219783
3845.000000	83.220278
3844.000000	83.206494
3843.000000	83.194067
3842.000000	83.209085
3841.000000	83.265205
3840.000000	83.354095
3839.000000	83.426411
3838.000000	83.445489
3837.000000	83.430744
3836.000000	83.434592
3835.000000	83.480903
3834.000000	83.538604
3833.000000	83.568977
3832.000000	83.559623
3831.000000	83.532614
3830.000000	83.537271
3829.000000	83.590079
3828.000000	83.631530
3827.000000	83.621054
3826.000000	83.591659
3825.000000	83.609253
3824.000000	83.703570
3823.000000	83.835788
3822.000000	83.896375
3821.000000	83.824613
3820.000000	83.745675
3819.000000	83.782965
3818.000000	83.907183
3817.000000	84.016276
3816.000000	84.035294
3815.000000	83.995137
3814.000000	83.978049
3813.000000	84.000715
3812.000000	84.034891
3811.000000	84.079183
3810.000000	84.156745
3809.000000	84.249654
3808.000000	84.288809
3807.000000	84.249504
3806.000000	84.211754
3805.000000	84.280097
3804.000000	84.441592
3803.000000	84.613603
3802.000000	84.690606
3801.000000	84.639479
3800.000000	84.584562
3799.000000	84.618602
3798.000000	84.704281
3797.000000	84.764987
3796.000000	84.771329
3795.000000	84.752556
3794.000000	84.754086
3793.000000	84.791786
3792.000000	84.845418
3791.000000	84.886314
3790.000000	84.911610
3789.000000	84.936814
3788.000000	84.976845
3787.000000	85.028479
3786.000000	85.067254
3785.000000	85.081971
3784.000000	85.092745
3783.000000	85.130571
3782.000000	85.201244
3781.000000	85.276430
3780.000000	85.308751
3779.000000	85.293109
3778.000000	85.276156
3777.000000	85.285829
3776.000000	85.302294
3775.000000	85.313098
3774.000000	85.337430
3773.000000	85.382372
3772.000000	85.420191
3771.000000	85.426167
3770.000000	85.399593
3769.000000	85.369738
3768.000000	85.372709
3767.000000	85.399685
3766.000000	85.418372
3765.000000	85.416291
3764.000000	85.409533
3763.000000	85.425074
3762.000000	85.463243
3761.000000	85.518973
3760.000000	85.556963
3759.000000	85.537723
3758.000000	85.491747
3757.000000	85.471992
3756.000000	85.494639
3755.000000	85.542340
3754.000000	85.613445
3753.000000	85.733020
3752.000000	85.862785
3751.000000	85.896619
3750.000000	85.832360
3749.000000	85.814298
3748.000000	85.932688
3747.000000	86.130777
3746.000000	86.332889
3745.000000	86.426208
3744.000000	86.335198
3743.000000	86.235013
3742.000000	86.241319
3741.000000	86.287571
3740.000000	86.334438
3739.000000	86.378210
3738.000000	86.437625
3737.000000	86.528165
3736.000000	86.661566
3735.000000	86.814448
3734.000000	86.926037
3733.000000	86.976451
3732.000000	86.982882
3731.000000	86.977922
3730.000000	86.988992
3729.000000	87.012957
3728.000000	87.050423
3727.000000	87.098081
3726.000000	87.144188
3725.000000	87.184513
3724.000000	87.225703
3723.000000	87.273532
3722.000000	87.302064
3721.000000	87.316194
3720.000000	87.334186
3719.000000	87.337102
3718.000000	87.320266
3717.000000	87.312621
3716.000000	87.351039
3715.000000	87.449671
3714.000000	87.595078
3713.000000	87.750173
3712.000000	87.848055
3711.000000	87.863459
3710.000000	87.854073
3709.000000	87.870249
3708.000000	87.908085
3707.000000	87.948165
3706.000000	87.989421
3705.000000	88.045877
3704.000000	88.115106
3703.000000	88.167014
3702.000000	88.166376
3701.000000	88.131104
3700.000000	88.120848
3699.000000	88.145530
3698.000000	88.174627
3697.000000	88.198828
3696.000000	88.218574
3695.000000	88.231042
3694.000000	88.244939
3693.000000	88.288636
3692.000000	88.374679
3691.000000	88.472558
3690.000000	88.529492
3689.000000	88.520670
3688.000000	88.500276
3687.000000	88.532709
3686.000000	88.594588
3685.000000	88.635258
3684.000000	88.651054
3683.000000	88.654834
3682.000000	88.647565
3681.000000	88.612984
3680.000000	88.579935
3679.000000	88.602892
3678.000000	88.690979
3677.000000	88.806687
3676.000000	88.837080
3675.000000	88.751117
3674.000000	88.699655
3673.000000	88.758469
3672.000000	88.868474
3671.000000	88.965267
3670.000000	88.965504
3669.000000	88.863771
3668.000000	88.779290
3667.000000	88.770372
3666.000000	88.780150
3665.000000	88.765869
3664.000000	88.729303
3663.000000	88.675767
3662.000000	88.610733
3661.000000	88.537021
3660.000000	88.485865
3659.000000	88.477553
3658.000000	88.479801
3657.000000	88.428629
3656.000000	88.306151
3655.000000	88.185936
3654.000000	88.114534
3653.000000	88.066735
3652.000000	88.034073
3651.000000	88.017480
3650.000000	87.966423
3649.000000	87.842879
3648.000000	87.703699
3647.000000	87.618418
3646.000000	87.565483
3645.000000	87.499254
3644.000000	87.409045
3643.000000	87.306177
3642.000000	87.198054
3641.000000	87.076655
3640.000000	86.942893
3639.000000	86.804720
3638.000000	86.673976
3637.000000	86.552032
3636.000000	86.421345
3635.000000	86.265608
3634.000000	86.088983
3633.000000	85.924575
3632.000000	85.801788
3631.000000	85.724601
3630.000000	85.636737
3629.000000	85.439517
3628.000000	85.165773
3627.000000	84.955122
3626.000000	84.818615
3625.000000	84.676480
3624.000000	84.507254
3623.000000	84.334312
3622.000000	84.174880
3621.000000	84.024006
3620.000000	83.843163
3619.000000	83.593774
3618.000000	83.317313
3617.000000	83.086627
3616.000000	82.909733
3615.000000	82.748841
3614.000000	82.572222
3613.000000	82.379510
3612.000000	82.198986
3611.000000	82.049707
3610.000000	81.921049
3609.000000	81.793135
3608.000000	81.644932
3607.000000	81.468800
3606.000000	81.278749
3605.000000	81.087921
3604.000000	80.903193
3603.000000	80.713482
3602.000000	80.499429
3601.000000	80.264950
3600.000000	80.032021
3599.000000	79.804653
3598.000000	79.584619
3597.000000	79.373019
3596.000000	79.157779
3595.000000	78.921952
3594.000000	78.656109
3593.000000	78.379607
3592.000000	78.123587
3591.000000	77.898237
3590.000000	77.697728
3589.000000	77.510436
3588.000000	77.309276
3587.000000	77.076014
3586.000000	76.834028
3585.000000	76.617079
3584.000000	76.428811
3583.000000	76.249713
3582.000000	76.066421
3581.000000	75.882503
3580.000000	75.706635
3579.000000	75.537966
3578.000000	75.371013
3577.000000	75.211680
3576.000000	75.064876
3575.000000	74.927226
3574.000000	74.791659
3573.000000	74.656342
3572.000000	74.530530
3571.000000	74.423934
3570.000000	74.344838
3569.000000	74.304370
3568.000000	74.300064
3567.000000	74.304709
3566.000000	74.300731
3565.000000	74.297484
3564.000000	74.304963
3563.000000	74.323769
3562.000000	74.352249
3561.000000	74.391516
3560.000000	74.441692
3559.000000	74.497947
3558.000000	74.554927
3557.000000	74.617086
3556.000000	74.693902
3555.000000	74.785134
3554.000000	74.881300
3553.000000	74.972220
3552.000000	75.054786
3551.000000	75.131676
3550.000000	75.205989
3549.000000	75.285548
3548.000000	75.380471
3547.000000	75.490603
3546.000000	75.603307
3545.000000	75.709285
3544.000000	75.807311
3543.000000	75.896879
3542.000000	75.975207
3541.000000	76.043306
3540.000000	76.106306
3539.000000	76.163512
3538.000000	76.213457
3537.000000	76.257662
3536.000000	76.298446
3535.000000	76.331769
3534.000000	76.351130
3533.000000	76.358851
3532.000000	76.361226
3531.000000	76.357277
3530.000000	76.336740
3529.000000	76.293138
3528.000000	76.230938
3527.000000	76.158511
3526.000000	76.081352
3525.000000	76.003012
3524.000000	75.921393
3523.000000	75.825351
3522.000000	75.705442
3521.000000	75.564058
3520.000000	75.409022
3519.000000	75.238257
3518.000000	75.043992
3517.000000	74.825743
3516.000000	74.589635
3515.000000	74.339028
3514.000000	74.073225
3513.000000	73.794156
3512.000000	73.505792
3511.000000	73.205590
3510.000000	72.885659
3509.000000	72.545547
3508.000000	72.194002
3507.000000	71.836442
3506.000000	71.470626
3505.000000	71.096139
3504.000000	70.717881
3503.000000	70.340762
3502.000000	69.967640
3501.000000	69.602547
3500.000000	69.248748
3499.000000	68.904216
3498.000000	68.566541
3497.000000	68.239631
3496.000000	67.930583
3495.000000	67.642015
3494.000000	67.374204
3493.000000	67.131437
3492.000000	66.918837
3491.000000	66.735275
3490.000000	66.575919
3489.000000	66.441330
3488.000000	66.336959
3487.000000	66.264663
3486.000000	66.223156
3485.000000	66.213196
3484.000000	66.234819
3483.000000	66.282364
3482.000000	66.350166
3481.000000	66.442365
3480.000000	66.567771
3479.000000	66.726628
3478.000000	66.910254
3477.000000	67.112408
3476.000000	67.331443
3475.000000	67.562780
3474.000000	67.799623
3473.000000	68.039453
3472.000000	68.283414
3471.000000	68.531879
3470.000000	68.785929
3469.000000	69.050624
3468.000000	69.329555
3467.000000	69.617826
3466.000000	69.907163
3465.000000	70.194101
3464.000000	70.478024
3463.000000	70.755366
3462.000000	71.023624
3461.000000	71.288373
3460.000000	71.557388
3459.000000	71.830610
3458.000000	72.102534
3457.000000	72.369847
3456.000000	72.634173
3455.000000	72.896629
3454.000000	73.155902
3453.000000	73.412453
3452.000000	73.667867
3451.000000	73.923321
3450.000000	74.179976
3449.000000	74.439522
3448.000000	74.701472
3447.000000	74.961848
3446.000000	75.219379
3445.000000	75.478517
3444.000000	75.741962
3443.000000	76.004199
3442.000000	76.256845
3441.000000	76.498153
3440.000000	76.732907
3439.000000	76.965186
3438.000000	77.196658
3437.000000	77.428826
3436.000000	77.664519
3435.000000	77.903482
3434.000000	78.140144
3433.000000	78.369602
3432.000000	78.591529
3431.000000	78.809852
3430.000000	79.028229
3429.000000	79.247555
3428.000000	79.466080
3427.000000	79.680350
3426.000000	79.888473
3425.000000	80.091819
3424.000000	80.293215
3423.000000	80.493705
3422.000000	80.693007
3421.000000	80.891943
3420.000000	81.091940
3419.000000	81.292463
3418.000000	81.491010
3417.000000	81.686370
3416.000000	81.879741
3415.000000	82.072905
3414.000000	82.266879
3413.000000	82.462250
3412.000000	82.659193
3411.000000	82.857265
3410.000000	83.056482
3409.000000	83.258233
3408.000000	83.462605
3407.000000	83.665783
3406.000000	83.863691
3405.000000	84.056431
3404.000000	84.248047
3403.000000	84.442949
3402.000000	84.645396
3401.000000	84.859699
3400.000000	85.085149
3399.000000	85.313435
3398.000000	85.534857
3397.000000	85.746602
3396.000000	85.951810
3395.000000	86.153177
3394.000000	86.352438
3393.000000	86.553827
3392.000000	86.761743
3391.000000	86.974754
3390.000000	87.186888
3389.000000	87.394273
3388.000000	87.597127
3387.000000	87.796065
3386.000000	87.991464
3385.000000	88.185340
3384.000000	88.379856
3383.000000	88.574364
3382.000000	88.767084
3381.000000	88.958814
3380.000000	89.150742
3379.000000	89.341483
3378.000000	89.529585
3377.000000	89.717280
3376.000000	89.907207
3375.000000	90.097392
3374.000000	90.284232
3373.000000	90.468650
3372.000000	90.655232
3371.000000	90.846876
3370.000000	91.044320
3369.000000	91.248857
3368.000000	91.461551
3367.000000	91.680559
3366.000000	91.902833
3365.000000	92.127118
3364.000000	92.352900
3363.000000	92.578772
3362.000000	92.804749
3361.000000	93.034049
3360.000000	93.269149
3359.000000	93.508102
3358.000000	93.747638
3357.000000	93.987297
3356.000000	94.226923
3355.000000	94.463542
3354.000000	94.695227
3353.000000	94.925911
3352.000000	95.161661
3351.000000	95.403449
3350.000000	95.646884
3349.000000	95.887149
3348.000000	96.121536
3347.000000	96.347914
3346.000000	96.565787
3345.000000	96.777848
3344.000000	96.985874
3343.000000	97.186501
3342.000000	97.374265
3341.000000	97.547815
3340.000000	97.709379
3339.000000	97.858387
3338.000000	97.988330
3337.000000	98.090615
3336.000000	98.157815
3335.000000	98.184012
3334.000000	98.165203
3333.000000	98.097718
3332.000000	97.976870
3331.000000	97.795020
3330.000000	97.543336
3329.000000	97.216259
3328.000000	96.809697
3327.000000	96.319306
3326.000000	95.739921
3325.000000	95.065109
3324.000000	94.287992
3323.000000	93.397832
3322.000000	92.384011
3321.000000	91.237371
3320.000000	89.944084
3319.000000	88.485685
3318.000000	86.837042
3317.000000	84.971931
3316.000000	82.861806
3315.000000	80.472306
3314.000000	77.778332
3313.000000	74.771821
3312.000000	71.465158
3311.000000	67.890843
3310.000000	64.099475
3309.000000	60.167472
3308.000000	56.186969
3307.000000	52.248679
3306.000000	48.436683
3305.000000	44.825565
3304.000000	41.472915
3303.000000	38.416008
3302.000000	35.677906
3301.000000	33.274399
3300.000000	31.216121
3299.000000	29.499666
3298.000000	28.116408
3297.000000	27.060194
3296.000000	26.309183
3295.000000	25.818767
3294.000000	25.522147
3293.000000	25.345252
3292.000000	25.219391
3291.000000	25.082880
3290.000000	24.900351
3289.000000	24.671004
3288.000000	24.419541
3287.000000	24.180079
3286.000000	23.983752
3285.000000	23.854142
3284.000000	23.796682
3283.000000	23.795181
3282.000000	23.823365
3281.000000	23.857077
3280.000000	23.875305
3279.000000	23.858394
3278.000000	23.795460
3277.000000	23.690687
3276.000000	23.556862
3275.000000	23.407858
3274.000000	23.262172
3273.000000	23.147103
3272.000000	23.092251
3271.000000	23.120064
3270.000000	23.247801
3269.000000	23.489848
3268.000000	23.850509
3267.000000	24.321347
3266.000000	24.885683
3265.000000	25.523481
3264.000000	26.204608
3263.000000	26.882812
3262.000000	27.504338
3261.000000	28.018118
3260.000000	28.375207
3259.000000	28.530083
3258.000000	28.455277
3257.000000	28.146283
3256.000000	27.618219
3255.000000	26.894804
3254.000000	26.005867
3253.000000	24.991695
3252.000000	23.886614
3251.000000	22.712746
3250.000000	21.486886
3249.000000	20.229986
3248.000000	18.970221
3247.000000	17.738515
3246.000000	16.573143
3245.000000	15.520983
3244.000000	14.624753
3243.000000	13.906081
3242.000000	13.364237
3241.000000	12.976373
3240.000000	12.695240
3239.000000	12.461324
3238.000000	12.224363
3237.000000	11.961152
3236.000000	11.670571
3235.000000	11.361665
3234.000000	11.052401
3233.000000	10.763662
3232.000000	10.506128
3231.000000	10.276155
3230.000000	10.070386
3229.000000	9.899783
3228.000000	9.782304
3227.000000	9.733106
3226.000000	9.767056
3225.000000	9.901118
3224.000000	10.147722
3223.000000	10.505830
3222.000000	10.966335
3221.000000	11.516974
3220.000000	12.134067
3219.000000	12.780085
3218.000000	13.414598
3217.000000	14.006230
3216.000000	14.531823
3215.000000	14.974801
3214.000000	15.333275
3213.000000	15.624201
3212.000000	15.872745
3211.000000	16.102051
3210.000000	16.336157
3209.000000	16.602176
3208.000000	16.922021
3207.000000	17.306224
3206.000000	17.760627
3205.000000	18.290913
3204.000000	18.897221
3203.000000	19.569909
3202.000000	20.296914
3201.000000	21.070791
3200.000000	21.882055
3199.000000	22.715452
3198.000000	23.556072
3197.000000	24.394085
3196.000000	25.219924
3195.000000	26.020343
3194.000000	26.784077
3193.000000	27.504883
3192.000000	28.175559
3191.000000	28.783653
3190.000000	29.319814
3189.000000	29.782692
3188.000000	30.173256
3187.000000	30.492495
3186.000000	30.745959
3185.000000	30.947227
3184.000000	31.109310
3183.000000	31.239445
3182.000000	31.346098
3181.000000	31.441625
3180.000000	31.536558
3179.000000	31.635675
3178.000000	31.744777
3177.000000	31.875405
3176.000000	32.038308
3175.000000	32.238174
3174.000000	32.478473
3173.000000	32.764634
3172.000000	33.097113
3171.000000	33.469943
3170.000000	33.878032
3169.000000	34.321098
3168.000000	34.797310
3167.000000	35.298229
3166.000000	35.816424
3165.000000	36.349538
3164.000000	36.894125
3163.000000	37.441884
3162.000000	37.985045
3161.000000	38.518592
3160.000000	39.032178
3159.000000	39.505983
3158.000000	39.915586
3157.000000	40.237535
3156.000000	40.443013
3155.000000	40.495033
3154.000000	40.358404
3153.000000	40.009827
3152.000000	39.449878
3151.000000	38.710753
3150.000000	37.860785
3149.000000	36.991915
3148.000000	36.185424
3147.000000	35.486444
3146.000000	34.898738
3145.000000	34.390954
3144.000000	33.905747
3143.000000	33.376508
3142.000000	32.753526
3141.000000	32.018870
3140.000000	31.180131
3139.000000	30.261188
3138.000000	29.300438
3137.000000	28.346607
3136.000000	27.444607
3135.000000	26.627904
3134.000000	25.925319
3133.000000	25.366868
3132.000000	24.973999
3131.000000	24.752407
3130.000000	24.701050
3129.000000	24.815297
3128.000000	25.084987
3127.000000	25.492107
3126.000000	26.018698
3125.000000	26.653526
3124.000000	27.380470
3123.000000	28.177226
3122.000000	29.024761
3121.000000	29.912016
3120.000000	30.828396
3119.000000	31.755516
3118.000000	32.675624
3117.000000	33.579050
3116.000000	34.459837
3115.000000	35.309875
3114.000000	36.121705
3113.000000	36.891030
3112.000000	37.613172
3111.000000	38.283865
3110.000000	38.903643
3109.000000	39.477616
3108.000000	40.006318
3107.000000	40.484201
3106.000000	40.909584
3105.000000	41.287369
3104.000000	41.623152
3103.000000	41.920054
3102.000000	42.186319
3101.000000	42.439745
3100.000000	42.700226
3099.000000	42.983871
3098.000000	43.305409
3097.000000	43.678815
3096.000000	44.109336
3095.000000	44.590855
3094.000000	45.113526
3093.000000	45.669644
3092.000000	46.250490
3091.000000	46.843323
3090.000000	47.436990
3089.000000	48.025101
3088.000000	48.601814
3087.000000	49.160199
3086.000000	49.696976
3085.000000	50.213851
3084.000000	50.711284
3083.000000	51.185857
3082.000000	51.635761
3081.000000	52.064282
3080.000000	52.474755
3079.000000	52.867661
3078.000000	53.245130
3077.000000	53.611782
3076.000000	53.969803
3075.000000	54.316968
3074.000000	54.651980
3073.000000	54.977422
3072.000000	55.294696
3071.000000	55.602394
3070.000000	55.901248
3069.000000	56.196006
3068.000000	56.489959
3067.000000	56.781240
3066.000000	57.067369
3065.000000	57.349008
3064.000000	57.626852
3063.000000	57.899141
3062.000000	58.164522
3061.000000	58.424083
3060.000000	58.678487
3059.000000	58.926509
3058.000000	59.168582
3057.000000	59.407242
3056.000000	59.642666
3055.000000	59.871700
3054.000000	60.092770
3053.000000	60.308588
3052.000000	60.521102
3051.000000	60.728085
3050.000000	60.926813
3049.000000	61.117330
3048.000000	61.300641
3047.000000	61.476808
3046.000000	61.647397
3045.000000	61.816419
3044.000000	61.986261
3043.000000	62.156134
3042.000000	62.325571
3041.000000	62.495619
3040.000000	62.665313
3039.000000	62.830633
3038.000000	62.989806
3037.000000	63.146128
3036.000000	63.303608
3035.000000	63.463389
3034.000000	63.625566
3033.000000	63.790472
3032.000000	63.956189
3031.000000	64.119088
3030.000000	64.278866
3029.000000	64.439116
3028.000000	64.601743
3027.000000	64.765135
3026.000000	64.928865
3025.000000	65.095226
3024.000000	65.264037
3023.000000	65.430652
3022.000000	65.591606
3021.000000	65.748779
3020.000000	65.905861
3019.000000	66.063555
3018.000000	66.220134
3017.000000	66.373314
3016.000000	66.519538
3015.000000	66.654632
3014.000000	66.776879
3013.000000	66.886894
3012.000000	66.983072
3011.000000	67.059083
3010.000000	67.107636
3009.000000	67.122467
3008.000000	67.095611
3007.000000	67.016440
3006.000000	66.874107
3005.000000	66.661377
3004.000000	66.374216
3003.000000	66.012795
3002.000000	65.585185
3001.000000	65.106064
3000.000000	64.590246
2999.000000	64.045565
2998.000000	63.476103
2997.000000	62.893176
2996.000000	62.327464
2995.000000	61.831930
2994.000000	61.465515
2993.000000	61.263730
2992.000000	61.216389
2991.000000	61.276819
2990.000000	61.390386
2989.000000	61.515021
2988.000000	61.623507
2987.000000	61.700206
2986.000000	61.743904
2985.000000	61.766429
2984.000000	61.785522
2983.000000	61.820725
2982.000000	61.893680
2981.000000	62.023842
2980.000000	62.216946
2979.000000	62.460905
2978.000000	62.736196
2977.000000	63.028364
2976.000000	63.333349
2975.000000	63.655827
2974.000000	64.003773
2973.000000	64.376565
2972.000000	64.754187
2971.000000	65.100530
2970.000000	65.376874
2969.000000	65.551970
2968.000000	65.599671
2967.000000	65.498755
2966.000000	65.237755
2965.000000	64.816416
2964.000000	64.242111
2963.000000	63.526536
2962.000000	62.691564
2961.000000	61.768595
2960.000000	60.789135
2959.000000	59.776475
2958.000000	58.747813
2957.000000	57.725482
2956.000000	56.745775
2955.000000	55.864232
2954.000000	55.143110
2953.000000	54.620160
2952.000000	54.281115
2951.000000	54.070388
2950.000000	53.936390
2949.000000	53.863551
2948.000000	53.869003
2947.000000	53.975445
2946.000000	54.187153
2945.000000	54.475002
2944.000000	54.776455
2943.000000	55.024550
2942.000000	55.190844
2941.000000	55.309044
2940.000000	55.460173
2939.000000	55.735569
2938.000000	56.203548
2937.000000	56.887932
2936.000000	57.762288
2935.000000	58.766265
2934.000000	59.833063
2933.000000	60.906699
2932.000000	61.942425
2931.000000	62.907268
2930.000000	63.785293
2929.000000	64.576184
2928.000000	65.285724
2927.000000	65.919380
2926.000000	66.485504
2925.000000	66.994929
2924.000000	67.454608
2923.000000	67.865519
2922.000000	68.228525
2921.000000	68.547163
2920.000000	68.823026
2919.000000	69.055709
2918.000000	69.247994
2917.000000	69.406975
2916.000000	69.538547
2915.000000	69.645149
2914.000000	69.730310
2913.000000	69.799558
2912.000000	69.856756
2911.000000	69.903798
2910.000000	69.944741
2909.000000	69.985578
2908.000000	70.028358
2907.000000	70.071298
2906.000000	70.114613
2905.000000	70.161868
2904.000000	70.213742
2903.000000	70.267231
2902.000000	70.320737
2901.000000	70.374287
2900.000000	70.425620
2899.000000	70.468439
2898.000000	70.497911
2897.000000	70.511134
2896.000000	70.501978
2895.000000	70.460772
2894.000000	70.380878
2893.000000	70.261040
2892.000000	70.099589
2891.000000	69.892372
2890.000000	69.638720
2889.000000	69.345282
2888.000000	69.022222
2887.000000	68.680600
2886.000000	68.335228
2885.000000	68.004378
2884.000000	67.704378
2883.000000	67.446666
2882.000000	67.241345
2881.000000	67.098251
2880.000000	67.021784
2879.000000	67.009990
2878.000000	67.059718
2877.000000	67.168443
2876.000000	67.329644
2875.000000	67.531464
2874.000000	67.761266
2873.000000	68.007522
2872.000000	68.257069
2871.000000	68.496724
2870.000000	68.720765
2869.000000	68.931930
2868.000000	69.134310
2867.000000	69.329522
2866.000000	69.519964
2865.000000	69.709671
2864.000000	69.899335
2863.000000	70.085458
2862.000000	70.266392
2861.000000	70.444694
2860.000000	70.622096
2859.000000	70.797498
2858.000000	70.971903
2857.000000	71.150443
2856.000000	71.337282
2855.000000	71.532314
2854.000000	71.733691
2853.000000	71.938405
2852.000000	72.138673
2851.000000	72.322580
2850.000000	72.481226
2849.000000	72.612554
2848.000000	72.718299
2847.000000	72.802259
2846.000000	72.872678
2845.000000	72.941021
2844.000000	73.015746
2843.000000	73.099866
2842.000000	73.195222
2841.000000	73.305363
2840.000000	73.432560
2839.000000	73.575699
2838.000000	73.732443
2837.000000	73.900239
2836.000000	74.074630
2835.000000	74.250202
2834.000000	74.424118
2833.000000	74.595868
2832.000000	74.763568
2831.000000	74.923977
2830.000000	75.076542
2829.000000	75.223623
2828.000000	75.366032
2827.000000	75.502128
2826.000000	75.631632
2825.000000	75.756386
2824.000000	75.876643
2823.000000	75.990083
2822.000000	76.095366
2821.000000	76.193275
2820.000000	76.283782
2819.000000	76.365765
2818.000000	76.440331
2817.000000	76.510841
2816.000000	76.578833
2815.000000	76.643135
2814.000000	76.703805
2813.000000	76.763747
2812.000000	76.825704
2811.000000	76.890823
2810.000000	76.960453
2809.000000	77.035793
2808.000000	77.115145
2807.000000	77.194767
2806.000000	77.273025
2805.000000	77.350831
2804.000000	77.427945
2803.000000	77.502379
2802.000000	77.573719
2801.000000	77.643497
2800.000000	77.711938
2799.000000	77.777799
2798.000000	77.841515
2797.000000	77.904818
2796.000000	77.966913
2795.000000	78.024678
2794.000000	78.077106
2793.000000	78.125917
2792.000000	78.171456
2791.000000	78.211895
2790.000000	78.247173
2789.000000	78.280007
2788.000000	78.312146
2787.000000	78.343065
2786.000000	78.373135
2785.000000	78.404841
2784.000000	78.440108
2783.000000	78.479712
2782.000000	78.525752
2781.000000	78.580970
2780.000000	78.644853
2779.000000	78.713646
2778.000000	78.784690
2777.000000	78.857535
2776.000000	78.930298
2775.000000	78.998615
2774.000000	79.059458
2773.000000	79.113022
2772.000000	79.160151
2771.000000	79.201135
2770.000000	79.237654
2769.000000	79.272722
2768.000000	79.307783
2767.000000	79.342205
2766.000000	79.376029
2765.000000	79.410342
2764.000000	79.444579
2763.000000	79.476556
2762.000000	79.505634
2761.000000	79.533047
2760.000000	79.558766
2759.000000	79.580855
2758.000000	79.598202
2757.000000	79.610761
2756.000000	79.616903
2755.000000	79.613357
2754.000000	79.598137
2753.000000	79.571374
2752.000000	79.533514
2751.000000	79.486041
2750.000000	79.434118
2749.000000	79.385033
2748.000000	79.343647
2747.000000	79.312259
2746.000000	79.294466
2745.000000	79.295565
2744.000000	79.318762
2743.000000	79.363501
2742.000000	79.427710
2741.000000	79.508356
2740.000000	79.599431
2739.000000	79.693453
2738.000000	79.785366
2737.000000	79.872601
2736.000000	79.952285
2735.000000	80.021843
2734.000000	80.082479
2733.000000	80.138351
2732.000000	80.191477
2731.000000	80.240471
2730.000000	80.284322
2729.000000	80.323692
2728.000000	80.358256
2727.000000	80.386175
2726.000000	80.407031
2725.000000	80.422822
2724.000000	80.435325
2723.000000	80.445257
2722.000000	80.454303
2721.000000	80.465059
2720.000000	80.478622
2719.000000	80.494608
2718.000000	80.513561
2717.000000	80.536837
2716.000000	80.564216
2715.000000	80.594221
2714.000000	80.626820
2713.000000	80.663180
2712.000000	80.702932
2711.000000	80.744496
2710.000000	80.787622
2709.000000	80.832940
2708.000000	80.879225
2707.000000	80.923747
2706.000000	80.965187
2705.000000	81.003909
2704.000000	81.040161
2703.000000	81.074704
2702.000000	81.110258
2701.000000	81.149168
2700.000000	81.190166
2699.000000	81.229983
2698.000000	81.267176
2697.000000	81.301568
2696.000000	81.331191
2695.000000	81.353613
2694.000000	81.369539
2693.000000	81.381716
2692.000000	81.391019
2691.000000	81.396722
2690.000000	81.399921
2689.000000	81.403075
2688.000000	81.406589
2687.000000	81.409391
2686.000000	81.412162
2685.000000	81.416567
2684.000000	81.421951
2683.000000	81.426385
2682.000000	81.430485
2681.000000	81.436654
2680.000000	81.445103
2679.000000	81.454355
2678.000000	81.465194
2677.000000	81.480065
2676.000000	81.498854
2675.000000	81.519058
2674.000000	81.540153
2673.000000	81.564468
2672.000000	81.593643
2671.000000	81.627822
2670.000000	81.668145
2669.000000	81.716332
2668.000000	81.771876
2667.000000	81.832458
2666.000000	81.897229
2665.000000	81.966747
2664.000000	82.039927
2663.000000	82.114512
2662.000000	82.189801
2661.000000	82.265739
2660.000000	82.339817
2659.000000	82.408106
2658.000000	82.469052
2657.000000	82.523534
2656.000000	82.571937
2655.000000	82.614351
2654.000000	82.652968
2653.000000	82.690314
2652.000000	82.725738
2651.000000	82.756522
2650.000000	82.781628
2649.000000	82.801515
2648.000000	82.815273
2647.000000	82.822055
2646.000000	82.824876
2645.000000	82.829026
2644.000000	82.837055
2643.000000	82.848464
2642.000000	82.863584
2641.000000	82.884144
2640.000000	82.910470
2639.000000	82.941658
2638.000000	82.978392
2637.000000	83.022027
2636.000000	83.071312
2635.000000	83.123765
2634.000000	83.179549
2633.000000	83.240675
2632.000000	83.306731
2631.000000	83.374738
2630.000000	83.443086
2629.000000	83.511907
2628.000000	83.580007
2627.000000	83.644885
2626.000000	83.705628
2625.000000	83.762617
2624.000000	83.814928
2623.000000	83.860914
2622.000000	83.900746
2621.000000	83.935524
2620.000000	83.964418
2619.000000	83.986225
2618.000000	84.002706
2617.000000	84.016808
2616.000000	84.028620
2615.000000	84.036187
2614.000000	84.039740
2613.000000	84.041477
2612.000000	84.041649
2611.000000	84.038849
2610.000000	84.033495
2609.000000	84.027660
2608.000000	84.021948
2607.000000	84.015879
2606.000000	84.010758
2605.000000	84.008506
2604.000000	84.008332
2603.000000	84.008239
2602.000000	84.009231
2601.000000	84.014077
2600.000000	84.022348
2599.000000	84.030335
2598.000000	84.035474
2597.000000	84.037132
2596.000000	84.033749
2595.000000	84.023329
2594.000000	84.006847
2593.000000	83.987584
2592.000000	83.966887
2591.000000	83.944097
2590.000000	83.920128
2589.000000	83.897383
2588.000000	83.876386
2587.000000	83.856148
2586.000000	83.837757
2585.000000	83.824025
2584.000000	83.815662
2583.000000	83.811238
2582.000000	83.811050
2581.000000	83.817299
2580.000000	83.830615
2579.000000	83.849985
2578.000000	83.875661
2577.000000	83.909175
2576.000000	83.950177
2575.000000	83.996496
2574.000000	84.047284
2573.000000	84.102553
2572.000000	84.160553
2571.000000	84.218622
2570.000000	84.276258
2569.000000	84.334445
2568.000000	84.392450
2567.000000	84.448786
2566.000000	84.504483
2565.000000	84.561937
2564.000000	84.621349
2563.000000	84.681673
2562.000000	84.744376
2561.000000	84.812362
2560.000000	84.885586
2559.000000	84.961468
2558.000000	85.039066
2557.000000	85.119320
2556.000000	85.201526
2555.000000	85.282944
2554.000000	85.361702
2553.000000	85.436849
2552.000000	85.506269
2551.000000	85.568128
2550.000000	85.624171
2549.000000	85.678071
2548.000000	85.731035
2547.000000	85.781922
2546.000000	85.830705
2545.000000	85.878505
2544.000000	85.924566
2543.000000	85.967146
2542.000000	86.007099
2541.000000	86.047097
2540.000000	86.087711
2539.000000	86.127352
2538.000000	86.165681
2537.000000	86.203705
2536.000000	86.240711
2535.000000	86.274619
2534.000000	86.304987
2533.000000	86.332816
2532.000000	86.357894
2531.000000	86.379451
2530.000000	86.399116
2529.000000	86.419834
2528.000000	86.442158
2527.000000	86.464412
2526.000000	86.485572
2525.000000	86.504971
2524.000000	86.519727
2523.000000	86.526145
2522.000000	86.523746
2521.000000	86.514619
2520.000000	86.499725
2519.000000	86.478461
2518.000000	86.451260
2517.000000	86.419496
2516.000000	86.382515
2515.000000	86.338395
2514.000000	86.287160
2513.000000	86.230734
2512.000000	86.170832
2511.000000	86.109423
2510.000000	86.050591
2509.000000	85.998329
2508.000000	85.952733
2507.000000	85.911192
2506.000000	85.872557
2505.000000	85.837140
2504.000000	85.803829
2503.000000	85.770680
2502.000000	85.737476
2501.000000	85.705297
2500.000000	85.675019
2499.000000	85.649616
2498.000000	85.636246
2497.000000	85.640605
2496.000000	85.660915
2495.000000	85.691323
2494.000000	85.730064
2493.000000	85.779767
2492.000000	85.839484
2491.000000	85.902565
2490.000000	85.962937
2489.000000	86.019681
2488.000000	86.075284
2487.000000	86.132669
2486.000000	86.194820
2485.000000	86.263640
2484.000000	86.338189
2483.000000	86.416427
2482.000000	86.498082
2481.000000	86.583467
2480.000000	86.670400
2479.000000	86.755365
2478.000000	86.837079
2477.000000	86.915803
2476.000000	86.990279
2475.000000	87.058541
2474.000000	87.121007
2473.000000	87.178975
2472.000000	87.231191
2471.000000	87.275189
2470.000000	87.311152
2469.000000	87.341486
2468.000000	87.366825
2467.000000	87.386298
2466.000000	87.400704
2465.000000	87.411615
2464.000000	87.418390
2463.000000	87.418936
2462.000000	87.413090
2461.000000	87.401835
2460.000000	87.383992
2459.000000	87.358099
2458.000000	87.326487
2457.000000	87.294076
2456.000000	87.263560
2455.000000	87.235316
2454.000000	87.211243
2453.000000	87.194207
2452.000000	87.184132
2451.000000	87.178688
2450.000000	87.178208
2449.000000	87.185590
2448.000000	87.201743
2447.000000	87.224854
2446.000000	87.253930
2445.000000	87.289628
2444.000000	87.330864
2443.000000	87.374842
2442.000000	87.420705
2441.000000	87.469636
2440.000000	87.521640
2439.000000	87.575066
2438.000000	87.629553
2437.000000	87.686277
2436.000000	87.745324
2435.000000	87.806134
2434.000000	87.869738
2433.000000	87.937181
2432.000000	88.006009
2431.000000	88.071718
2430.000000	88.132239
2429.000000	88.187602
2428.000000	88.235953
2427.000000	88.273759
2426.000000	88.300396
2425.000000	88.318594
2424.000000	88.330720
2423.000000	88.337829
2422.000000	88.341864
2421.000000	88.345498
2420.000000	88.349145
2419.000000	88.351724
2418.000000	88.354169
2417.000000	88.358913
2416.000000	88.366403
2415.000000	88.375514
2414.000000	88.386829
2413.000000	88.401410
2412.000000	88.416541
2411.000000	88.426961
2410.000000	88.430499
2409.000000	88.428787
2408.000000	88.422736
2407.000000	88.411613
2406.000000	88.397039
2405.000000	88.383118
2404.000000	88.371522
2403.000000	88.360478
2402.000000	88.348881
2401.000000	88.337132
2400.000000	88.322568
2399.000000	88.297999
2398.000000	88.256967
2397.000000	88.196081
2396.000000	88.112186
2395.000000	88.001792
2394.000000	87.864867
2393.000000	87.707452
2392.000000	87.536834
2391.000000	87.358438
2390.000000	87.178410
2389.000000	87.003566
2388.000000	86.838891
2387.000000	86.685719
2386.000000	86.546829
2385.000000	86.430594
2384.000000	86.344049
2383.000000	86.290246
2382.000000	86.268135
2381.000000	86.274847
2380.000000	86.304316
2379.000000	86.343297
2378.000000	86.378845
2377.000000	86.400142
2376.000000	86.398958
2375.000000	86.368583
2374.000000	86.314144
2373.000000	86.252430
2372.000000	86.194177
2371.000000	86.139484
2370.000000	86.089599
2369.000000	86.053127
2368.000000	86.029022
2367.000000	86.012694
2366.000000	86.012480
2365.000000	86.023690
2364.000000	86.040063
2363.000000	86.062294
2362.000000	86.077209
2361.000000	86.090688
2360.000000	86.103926
2359.000000	86.111636
2358.000000	86.133620
2357.000000	86.155122
2356.000000	86.150609
2355.000000	86.082514
2354.000000	85.911400
2353.000000	85.598937
2352.000000	85.172034
2351.000000	84.843146
2350.000000	84.864160
2349.000000	85.337046
2348.000000	86.121719
2347.000000	86.844540
2346.000000	87.198588
2345.000000	87.150453
2344.000000	86.954623
2343.000000	86.823018
2342.000000	86.777904
2341.000000	86.794944
2340.000000	86.836294
2339.000000	86.899091
2338.000000	86.979755
2337.000000	87.087322
2336.000000	87.217170
2335.000000	87.381283
2334.000000	87.572171
2333.000000	87.770931
2332.000000	87.899981
2331.000000	87.957535
2330.000000	87.966799
2329.000000	87.975226
2328.000000	88.018694
2327.000000	88.087770
2326.000000	88.181459
2325.000000	88.240398
2324.000000	88.231973
2323.000000	88.151322
2322.000000	88.020923
2321.000000	87.875960
2320.000000	87.718132
2319.000000	87.577230
2318.000000	87.464372
2317.000000	87.396356
2316.000000	87.337459
2315.000000	87.259020
2314.000000	87.133874
2313.000000	86.969668
2312.000000	86.774590
2311.000000	86.564455
2310.000000	86.346085
2309.000000	86.120840
2308.000000	85.883919
2307.000000	85.638080
2306.000000	85.393409
2305.000000	85.159738
2304.000000	84.936891
2303.000000	84.728011
2302.000000	84.535551
2301.000000	84.366890
2300.000000	84.222420
2299.000000	84.104761
2298.000000	84.013749
2297.000000	83.945807
2296.000000	83.892650
2295.000000	83.846500
2294.000000	83.807639
2293.000000	83.773240
2292.000000	83.738758
2291.000000	83.697854
2290.000000	83.651543
2289.000000	83.599280
2288.000000	83.539527
2287.000000	83.472426
2286.000000	83.405575
2285.000000	83.346289
2284.000000	83.297052
2283.000000	83.256900
2282.000000	83.225535
2281.000000	83.203187
2280.000000	83.189855
2279.000000	83.189862
2278.000000	83.209657
2277.000000	83.253490
2276.000000	83.318377
2275.000000	83.402410
2274.000000	83.507614
2273.000000	83.634641
2272.000000	83.778939
2271.000000	83.935796
2270.000000	84.105562
2269.000000	84.287497
2268.000000	84.475444
2267.000000	84.663751
2266.000000	84.851271
2265.000000	85.036295
2264.000000	85.212822
2263.000000	85.375344
2262.000000	85.526412
2261.000000	85.670673
2260.000000	85.810979
2259.000000	85.951251
2258.000000	86.098613
2257.000000	86.258812
2256.000000	86.430530
2255.000000	86.611986
2254.000000	86.804155
2253.000000	87.007719
2252.000000	87.218211
2251.000000	87.430935
2250.000000	87.645521
2249.000000	87.861262
2248.000000	88.074811
2247.000000	88.282851
2246.000000	88.485736
2245.000000	88.683244
2244.000000	88.872100
2243.000000	89.050171
2242.000000	89.219246
2241.000000	89.380645
2240.000000	89.532584
2239.000000	89.674303
2238.000000	89.808160
2237.000000	89.934420
2236.000000	90.049112
2235.000000	90.149158
2234.000000	90.235318
2233.000000	90.307977
2232.000000	90.365175
2231.000000	90.408101
2230.000000	90.442860
2229.000000	90.474353
2228.000000	90.502873
2227.000000	90.528871
2226.000000	90.555484
2225.000000	90.583121
2224.000000	90.606975
2223.000000	90.623202
2222.000000	90.632695
2221.000000	90.636569
2220.000000	90.633545
2219.000000	90.625159
2218.000000	90.618045
2217.000000	90.617301
2216.000000	90.622353
2215.000000	90.632219
2214.000000	90.649663
2213.000000	90.676590
2212.000000	90.710624
2211.000000	90.749669
2210.000000	90.795093
2209.000000	90.847108
2208.000000	90.901818
2207.000000	90.956141
2206.000000	91.010530
2205.000000	91.063887
2204.000000	91.111078
2203.000000	91.149111
2202.000000	91.181209
2201.000000	91.212034
2200.000000	91.244206
2199.000000	91.282455
2198.000000	91.334918
2197.000000	91.405934
2196.000000	91.491719
2195.000000	91.586149
2194.000000	91.685776
2193.000000	91.786354
2192.000000	91.880760
2191.000000	91.964515
2190.000000	92.038944
2189.000000	92.105666
2188.000000	92.162897
2187.000000	92.210165
2186.000000	92.250901
2185.000000	92.287122
2184.000000	92.316530
2183.000000	92.338260
2182.000000	92.356198
2181.000000	92.373214
2180.000000	92.387301
2179.000000	92.396487
2178.000000	92.402600
2177.000000	92.406849
2176.000000	92.407031
2175.000000	92.402348
2174.000000	92.395979
2173.000000	92.389729
2172.000000	92.381359
2171.000000	92.370324
2170.000000	92.360795
2169.000000	92.355946
2168.000000	92.354332
2167.000000	92.354968
2166.000000	92.360362
2165.000000	92.371041
2164.000000	92.382646
2163.000000	92.392226
2162.000000	92.402193
2161.000000	92.414941
2160.000000	92.429125
2159.000000	92.444501
2158.000000	92.464435
2157.000000	92.489731
2156.000000	92.515581
2155.000000	92.538452
2154.000000	92.560968
2153.000000	92.586723
2152.000000	92.615897
2151.000000	92.649441
2150.000000	92.691764
2149.000000	92.744978
2148.000000	92.805298
2147.000000	92.868793
2146.000000	92.935337
2145.000000	93.003627
2144.000000	93.068656
2143.000000	93.127803
2142.000000	93.183670
2141.000000	93.238150
2140.000000	93.288773
2139.000000	93.333833
2138.000000	93.375253
2137.000000	93.413652
2136.000000	93.446344
2135.000000	93.473026
2134.000000	93.497520
2133.000000	93.520912
2132.000000	93.538980
2131.000000	93.549153
2130.000000	93.553937
2129.000000	93.554400
2128.000000	93.546479
2127.000000	93.527027
2126.000000	93.497541
2125.000000	93.458565
2124.000000	93.407096
2123.000000	93.343392
2122.000000	93.274165
2121.000000	93.205416
2120.000000	93.138216
2119.000000	93.074236
2118.000000	93.018928
2117.000000	92.975068
2116.000000	92.938606
2115.000000	92.904795
2114.000000	92.872801
2113.000000	92.841344
2112.000000	92.806296
2111.000000	92.766755
2110.000000	92.728080
2109.000000	92.695558
2108.000000	92.670158
2107.000000	92.653091
2106.000000	92.648067
2105.000000	92.655451
2104.000000	92.669970
2103.000000	92.687307
2102.000000	92.707691
2101.000000	92.729636
2100.000000	92.747784
2099.000000	92.760100
2098.000000	92.771604
2097.000000	92.787999
2096.000000	92.810542
2095.000000	92.841930
2094.000000	92.889018
2093.000000	92.954886
2092.000000	93.035189
2091.000000	93.126109
2090.000000	93.229280
2089.000000	93.345652
2088.000000	93.471045
2087.000000	93.601678
2086.000000	93.736649
2085.000000	93.871773
2084.000000	93.998326
2083.000000	94.111576
2082.000000	94.214014
2081.000000	94.307504
2080.000000	94.389931
2079.000000	94.462363
2078.000000	94.531835
2077.000000	94.603486
2076.000000	94.676056
2075.000000	94.749913
2074.000000	94.829341
2073.000000	94.914410
2072.000000	94.999512
2071.000000	95.080386
2070.000000	95.158729
2069.000000	95.235692
2068.000000	95.307487
2067.000000	95.370193
2066.000000	95.423144
2065.000000	95.466759
2064.000000	95.502679
2063.000000	95.537846
2062.000000	95.580667
2061.000000	95.631247
2060.000000	95.682574
2059.000000	95.732794
2058.000000	95.787688
2057.000000	95.849300
2056.000000	95.911818
2055.000000	95.971096
2054.000000	96.028314
2053.000000	96.082432
2052.000000	96.129128
2051.000000	96.167947
2050.000000	96.204401
2049.000000	96.242468
2048.000000	96.280373
2047.000000	96.316406
2046.000000	96.354540
2045.000000	96.398536
2044.000000	96.446080
2043.000000	96.493740
2042.000000	96.542515
2041.000000	96.593808
2040.000000	96.645195
2039.000000	96.694792
2038.000000	96.743477
2037.000000	96.789437
2036.000000	96.827173
2035.000000	96.856277
2034.000000	96.884386
2033.000000	96.916986
2032.000000	96.952393
2031.000000	96.991176
2030.000000	97.039830
2029.000000	97.101406
2028.000000	97.169428
2027.000000	97.236412
2026.000000	97.301907
2025.000000	97.365233
2024.000000	97.421040
2023.000000	97.462752
2022.000000	97.491229
2021.000000	97.511359
2020.000000	97.523381
2019.000000	97.524549
2018.000000	97.516702
2017.000000	97.506699
2016.000000	97.501456
2015.000000	97.506862
2014.000000	97.525939
2013.000000	97.553556
2012.000000	97.577869
2011.000000	97.592845
2010.000000	97.603714
2009.000000	97.615017
2008.000000	97.621269
2007.000000	97.617086
2006.000000	97.606974
2005.000000	97.596146
2004.000000	97.584210
2003.000000	97.569489
2002.000000	97.558543
2001.000000	97.557342
2000.000000	97.564433
1999.000000	97.581815
1998.000000	97.611856
1997.000000	97.654556
1996.000000	97.708889
1995.000000	97.772883
1994.000000	97.837218
1993.000000	97.886282
1992.000000	97.912442
1991.000000	97.926376
1990.000000	97.943795
1989.000000	97.966690
1988.000000	97.986597
1987.000000	98.001190
1986.000000	98.019672
1985.000000	98.049943
1984.000000	98.090389
1983.000000	98.135729
1982.000000	98.184927
1981.000000	98.236894
1980.000000	98.288601
1979.000000	98.340603
1978.000000	98.389944
1977.000000	98.432505
1976.000000	98.469061
1975.000000	98.505187
1974.000000	98.542347
1973.000000	98.578268
1972.000000	98.616015
1971.000000	98.662727
1970.000000	98.717502
1969.000000	98.769589
1968.000000	98.810245
1967.000000	98.841431
1966.000000	98.872828
1965.000000	98.913559
1964.000000	98.965594
1963.000000	99.020616
1962.000000	99.065294
1961.000000	99.095054
1960.000000	99.120482
1959.000000	99.151821
1958.000000	99.183227
1957.000000	99.202112
1956.000000	99.207348
1955.000000	99.208766
1954.000000	99.210480
1953.000000	99.209252
1952.000000	99.202843
1951.000000	99.190144
1950.000000	99.172785
1949.000000	99.146583
1948.000000	99.105290
1947.000000	99.053693
1946.000000	99.002822
1945.000000	98.955167
1944.000000	98.902247
1943.000000	98.840299
1942.000000	98.784489
1941.000000	98.758627
1940.000000	98.776561
1939.000000	98.834302
1938.000000	98.913076
1937.000000	98.995453
1936.000000	99.079854
1935.000000	99.172452
1934.000000	99.267778
1933.000000	99.353711
1932.000000	99.424894
1931.000000	99.484938
1930.000000	99.545159
1929.000000	99.599737
1928.000000	99.640611
1927.000000	99.677633
1926.000000	99.726669
1925.000000	99.788751
1924.000000	99.832121
1923.000000	99.843109
1922.000000	99.849787
1921.000000	99.877960
1920.000000	99.919166
1919.000000	99.948080
1918.000000	99.956902
1917.000000	99.960661
1916.000000	99.966562
1915.000000	99.976004
1914.000000	99.988589
1913.000000	99.994815
1912.000000	99.981838
1911.000000	99.952074
1910.000000	99.921757
1909.000000	99.887649
1908.000000	99.840254
1907.000000	99.786844
1906.000000	99.742773
1905.000000	99.707562
1904.000000	99.649218
1903.000000	99.562543
1902.000000	99.478467
1901.000000	99.403288
1900.000000	99.318187
1899.000000	99.226783
1898.000000	99.156545
1897.000000	99.116889
1896.000000	99.077387
1895.000000	99.026464
1894.000000	98.998987
1893.000000	99.017389
1892.000000	99.056291
1891.000000	99.083665
1890.000000	99.096529
1889.000000	99.108420
1888.000000	99.125673
1887.000000	99.157181
1886.000000	99.214000
1885.000000	99.279287
1884.000000	99.318812
1883.000000	99.334539
1882.000000	99.362265
1881.000000	99.403740
1880.000000	99.429120
1879.000000	99.433246
1878.000000	99.438900
1877.000000	99.460150
1876.000000	99.480846
1875.000000	99.487494
1874.000000	99.500278
1873.000000	99.537411
1872.000000	99.584694
1871.000000	99.628797
1870.000000	99.674627
1869.000000	99.723471
1868.000000	99.764225
1867.000000	99.806765
1866.000000	99.886940
1865.000000	100.008259
1864.000000	100.128068
1863.000000	100.221513
1862.000000	100.313951
1861.000000	100.422914
1860.000000	100.523950
1859.000000	100.604449
1858.000000	100.694308
1857.000000	100.808912
1856.000000	100.918797
1855.000000	101.004290
1854.000000	101.088945
1853.000000	101.176378
1852.000000	101.244019
1851.000000	101.299572
1850.000000	101.356494
1849.000000	101.411234
1848.000000	101.450300
1847.000000	101.487987
1846.000000	101.547273
1845.000000	101.607246
1844.000000	101.643860
1843.000000	101.681887
1842.000000	101.749571
1841.000000	101.831524
1840.000000	101.903684
1839.000000	101.954153
1838.000000	101.994924
1837.000000	102.045387
1836.000000	102.096628
1835.000000	102.147169
1834.000000	102.215162
1833.000000	102.305780
1832.000000	102.410844
1831.000000	102.499363
1830.000000	102.537215
1829.000000	102.554374
1828.000000	102.603961
1827.000000	102.696838
1826.000000	102.803614
1825.000000	102.898419
1824.000000	102.982985
1823.000000	103.068760
1822.000000	103.162005
1821.000000	103.260768
1820.000000	103.350707
1819.000000	103.412691
1818.000000	103.460818
1817.000000	103.527770
1816.000000	103.599626
1815.000000	103.652168
1814.000000	103.697403
1813.000000	103.758679
1812.000000	103.821393
1811.000000	103.844065
1810.000000	103.855810
1809.000000	103.910780
1808.000000	103.985664
1807.000000	104.038706
1806.000000	104.088809
1805.000000	104.165829
1804.000000	104.239018
1803.000000	104.278408
1802.000000	104.304925
1801.000000	104.351168
1800.000000	104.412730
1799.000000	104.462036
1798.000000	104.518151
1797.000000	104.596138
1796.000000	104.661606
1795.000000	104.703175
1794.000000	104.750835
1793.000000	104.814643
1792.000000	104.862465
1791.000000	104.869710
1790.000000	104.874468
1789.000000	104.908273
1788.000000	104.946250
1787.000000	104.959113
1786.000000	104.970097
1785.000000	105.014293
1784.000000	105.073793
1783.000000	105.136766
1782.000000	105.205389
1781.000000	105.266427
1780.000000	105.323351
1779.000000	105.382633
1778.000000	105.462698
1777.000000	105.553428
1776.000000	105.637565
1775.000000	105.733010
1774.000000	105.842334
1773.000000	105.932906
1772.000000	106.003212
1771.000000	106.055853
1770.000000	106.089244
1769.000000	106.150455
1768.000000	106.267545
1767.000000	106.402925
1766.000000	106.523297
1765.000000	106.648654
1764.000000	106.804834
1763.000000	106.953681
1762.000000	107.037103
1761.000000	107.089631
1760.000000	107.166447
1759.000000	107.250084
1758.000000	107.313916
1757.000000	107.339948
1756.000000	107.368982
1755.000000	107.418830
1754.000000	107.450982
1753.000000	107.470558
1752.000000	107.526312
1751.000000	107.624161
1750.000000	107.711773
1749.000000	107.753525
1748.000000	107.761251
1747.000000	107.774940
1746.000000	107.781076
1745.000000	107.764391
1744.000000	107.751416
1743.000000	107.739869
1742.000000	107.718766
1741.000000	107.710415
1740.000000	107.723988
1739.000000	107.724155
1738.000000	107.687879
1737.000000	107.645879
1736.000000	107.653285
1735.000000	107.665627
1734.000000	107.665258
1733.000000	107.712717
1732.000000	107.762788
1731.000000	107.741599
1730.000000	107.671979
1729.000000	107.579138
1728.000000	107.494388
1727.000000	107.444380
1726.000000	107.406570
1725.000000	107.367413
1724.000000	107.321063
1723.000000	107.255767
1722.000000	107.211341
1721.000000	107.223422
1720.000000	107.268491
1719.000000	107.261420
1718.000000	107.197282
1717.000000	107.205019
1716.000000	107.252445
1715.000000	107.225668
1714.000000	107.193859
1713.000000	107.246597
1712.000000	107.331548
1711.000000	107.401930
1710.000000	107.515248
1709.000000	107.710716
1708.000000	107.946851
1707.000000	108.174490
1706.000000	108.399674
1705.000000	108.634604
1704.000000	108.814363
1703.000000	108.943428
1702.000000	109.146160
1701.000000	109.420465
1700.000000	109.673256
1699.000000	109.834426
1698.000000	109.959671
1697.000000	110.146592
1696.000000	110.357704
1695.000000	110.524738
1694.000000	110.673527
1693.000000	110.804684
1692.000000	110.925094
1691.000000	111.041027
1690.000000	111.145743
1689.000000	111.223566
1688.000000	111.299581
1687.000000	111.428856
1686.000000	111.622560
1685.000000	111.766838
1684.000000	111.833777
1683.000000	111.949039
1682.000000	112.087742
1681.000000	112.149007
1680.000000	112.183804
1679.000000	112.256098
1678.000000	112.358082
1677.000000	112.456431
1676.000000	112.550706
1675.000000	112.676726
1674.000000	112.783191
1673.000000	112.806180
1672.000000	112.805032
1671.000000	112.832110
1670.000000	112.851455
1669.000000	112.817231
1668.000000	112.768884
1667.000000	112.750647
1666.000000	112.730233
1665.000000	112.679018
1664.000000	112.585942
1663.000000	112.466891
1662.000000	112.333344
1661.000000	112.131715
1660.000000	111.878674
1659.000000	111.635437
1658.000000	111.365445
1657.000000	111.030084
1656.000000	110.682179
1655.000000	110.349453
1654.000000	109.696451
1653.000000	108.672888
1652.000000	107.713508
1651.000000	106.837332
1650.000000	105.809269
1649.000000	104.544921
1648.000000	102.808129
1647.000000	100.438335
1646.000000	97.672491
1645.000000	94.874871
1644.000000	92.122565
1643.000000	89.344089
1642.000000	86.543777
1641.000000	83.843570
1640.000000	81.499805
1639.000000	79.708049
1638.000000	78.535169
1637.000000	78.000870
1636.000000	78.196105
1635.000000	79.133938
1634.000000	80.505877
1633.000000	82.016802
1632.000000	83.606440
1631.000000	85.314370
1630.000000	87.125141
1629.000000	88.960447
1628.000000	90.730682
1627.000000	92.368295
1626.000000	93.837207
1625.000000	95.176535
1624.000000	96.477526
1623.000000	97.764454
1622.000000	98.936890
1621.000000	99.894776
1620.000000	100.713110
1619.000000	101.546713
1618.000000	102.443859
1617.000000	103.335279
1616.000000	104.155344
1615.000000	104.842905
1614.000000	105.326856
1613.000000	105.617568
1612.000000	105.790165
1611.000000	105.879589
1610.000000	105.791261
1609.000000	105.375409
1608.000000	104.561476
1607.000000	103.304139
1606.000000	101.438937
1605.000000	98.745389
1604.000000	95.193504
1603.000000	90.954719
1602.000000	86.299985
1601.000000	81.523450
1600.000000	76.770321
1599.000000	71.853085
1598.000000	66.247291
1597.000000	59.488174
1596.000000	51.678187
1595.000000	43.590313
1594.000000	36.250178
1593.000000	30.397681
1592.000000	26.339965
1591.000000	24.053415
1590.000000	23.217151
1589.000000	23.247724
1588.000000	23.555238
1587.000000	23.761242
1586.000000	23.639935
1585.000000	23.095489
1584.000000	22.271666
1583.000000	21.515539
1582.000000	21.089683
1581.000000	21.008457
1580.000000	21.195044
1579.000000	21.629380
1578.000000	22.261265
1577.000000	22.900894
1576.000000	23.351002
1575.000000	23.615152
1574.000000	23.776654
1573.000000	23.865701
1572.000000	24.003875
1571.000000	24.475329
1570.000000	25.538599
1569.000000	27.141649
1568.000000	29.073414
1567.000000	31.290735
1566.000000	33.794920
1565.000000	36.391902
1564.000000	38.795618
1563.000000	40.903804
1562.000000	42.848547
1561.000000	44.902452
1560.000000	47.446659
1559.000000	50.671464
1558.000000	53.941471
1557.000000	56.559752
1556.000000	58.661021
1555.000000	60.684675
1554.000000	62.721571
1553.000000	64.587296
1552.000000	66.202876
1551.000000	67.663041
1550.000000	69.050399
1549.000000	70.329261
1548.000000	71.469406
1547.000000	72.553254
1546.000000	73.657003
1545.000000	74.738855
1544.000000	75.730336
1543.000000	76.646549
1542.000000	77.567462
1541.000000	78.511407
1540.000000	79.408109
1539.000000	80.230774
1538.000000	80.950688
1537.000000	81.534284
1536.000000	82.055862
1535.000000	82.622211
1534.000000	83.223223
1533.000000	83.783226
1532.000000	84.285342
1531.000000	84.758460
1530.000000	85.243856
1529.000000	85.737172
1528.000000	86.183866
1527.000000	86.582636
1526.000000	86.968516
1525.000000	87.343949
1524.000000	87.706552
1523.000000	88.071553
1522.000000	88.428590
1521.000000	88.745888
1520.000000	89.021567
1519.000000	89.288997
1518.000000	89.562929
1517.000000	89.812686
1516.000000	90.005193
1515.000000	90.178047
1514.000000	90.380680
1513.000000	90.627133
1512.000000	90.876773
1511.000000	91.083236
1510.000000	91.267667
1509.000000	91.485422
1508.000000	91.696153
1507.000000	91.804352
1506.000000	91.936802
1505.000000	92.181577
1504.000000	92.403442
1503.000000	92.564737
1502.000000	92.733400
1501.000000	92.937088
1500.000000	93.163418
1499.000000	93.389987
1498.000000	93.628020
1497.000000	93.937429
1496.000000	94.319816
1495.000000	94.707486
1494.000000	95.081362
1493.000000	95.469507
1492.000000	95.877343
1491.000000	96.274218
1490.000000	96.651811
1489.000000	97.037470
1488.000000	97.414122
1487.000000	97.758282
1486.000000	98.118470
1485.000000	98.477019
1484.000000	98.791039
1483.000000	99.088164
1482.000000	99.389708
1481.000000	99.681160
1480.000000	99.941253
1479.000000	100.204218
1478.000000	100.506889
1477.000000	100.827293
1476.000000	101.108113
1475.000000	101.378630
1474.000000	101.712586
1473.000000	102.086038
1472.000000	102.439565
1471.000000	102.740201
1470.000000	102.963428
1469.000000	103.078762
1468.000000	103.053901
1467.000000	102.842321
1466.000000	102.312944
1465.000000	101.238575
1464.000000	99.502306
1463.000000	97.105785
1462.000000	94.020210
1461.000000	90.228283
1460.000000	85.789829
1459.000000	80.749272
1458.000000	75.070254
1457.000000	69.253455
1456.000000	64.467012
1455.000000	61.150565
1454.000000	58.672630
1453.000000	56.469680
1452.000000	54.535521
1451.000000	53.177947
1450.000000	52.687312
1449.000000	53.225629
1448.000000	54.765066
1447.000000	56.972638
1446.000000	59.389099
1445.000000	61.797982
1444.000000	64.259297
1443.000000	66.794562
1442.000000	69.272886
1441.000000	71.557021
1440.000000	73.610708
1439.000000	75.479088
1438.000000	77.278203
1437.000000	79.157424
1436.000000	81.105762
1435.000000	82.908090
1434.000000	84.451946
1433.000000	85.851223
1432.000000	87.201321
1431.000000	88.442021
1430.000000	89.487050
1429.000000	90.370880
1428.000000	91.152298
1427.000000	91.844632
1426.000000	92.457918
1425.000000	93.023808
1424.000000	93.584855
1423.000000	94.110151
1422.000000	94.568777
1421.000000	95.008161
1420.000000	95.471626
1419.000000	95.900960
1418.000000	96.241375
1417.000000	96.574590
1416.000000	96.967376
1415.000000	97.377572
1414.000000	97.742546
1413.000000	98.070093
1412.000000	98.399751
1411.000000	98.701222
1410.000000	98.922364
1409.000000	99.083342
1408.000000	99.189464
1407.000000	99.156277
1406.000000	98.854726
1405.000000	98.185050
1404.000000	97.152306
1403.000000	95.847837
1402.000000	94.418333
1401.000000	93.028890
1400.000000	91.803561
1399.000000	90.784680
1398.000000	89.964068
1397.000000	89.401379
1396.000000	89.283981
1395.000000	89.823786
1394.000000	91.006290
1393.000000	92.548082
1392.000000	94.131488
1391.000000	95.548324
1390.000000	96.711953
1389.000000	97.655489
1388.000000	98.489318
1387.000000	99.301643
1386.000000	100.089583
1385.000000	100.793192
1384.000000	101.366101
1383.000000	101.777663
1382.000000	102.034322
1381.000000	102.202631
1380.000000	102.353961
1379.000000	102.510461
1378.000000	102.646410
1377.000000	102.712122
1376.000000	102.622427
1375.000000	102.243701
1374.000000	101.422968
1373.000000	100.059639
1372.000000	98.090163
1371.000000	95.417667
1370.000000	91.969237
1369.000000	87.920768
1368.000000	83.870112
1367.000000	80.590909
1366.000000	78.543306
1365.000000	77.673022
1364.000000	77.630247
1363.000000	78.139124
1362.000000	79.201090
1361.000000	80.969029
1360.000000	83.448449
1359.000000	86.372381
1358.000000	89.322805
1357.000000	91.934463
1356.000000	94.035816
1355.000000	95.646268
1354.000000	96.886317
1353.000000	97.897888
1352.000000	98.775939
1351.000000	99.561127
1350.000000	100.266861
1349.000000	100.897336
1348.000000	101.467229
1347.000000	101.988200
1346.000000	102.461984
1345.000000	102.889813
1344.000000	103.278620
1343.000000	103.632700
1342.000000	103.950526
1341.000000	104.231045
1340.000000	104.478219
1339.000000	104.702761
1338.000000	104.918329
1337.000000	105.140347
1336.000000	105.376670
1335.000000	105.620181
1334.000000	105.859519
1333.000000	106.091265
1332.000000	106.313295
1331.000000	106.513865
1330.000000	106.672776
1329.000000	106.772273
1328.000000	106.787959
1327.000000	106.674178
1326.000000	106.349823
1325.000000	105.686286
1324.000000	104.526607
1323.000000	102.711981
1322.000000	100.152727
1321.000000	96.934062
1320.000000	93.373226
1319.000000	89.947758
1318.000000	87.072858
1317.000000	84.898112
1316.000000	83.333685
1315.000000	82.279981
1314.000000	81.781830
1313.000000	81.943027
1312.000000	82.709053
1311.000000	83.783937
1310.000000	84.834127
1309.000000	85.763821
1308.000000	86.769752
1307.000000	88.135691
1306.000000	89.970565
1305.000000	92.131581
1304.000000	94.343099
1303.000000	96.346246
1302.000000	97.987610
1301.000000	99.236534
1300.000000	100.132791
1299.000000	100.720884
1298.000000	101.024052
1297.000000	101.050282
1296.000000	100.801742
1295.000000	100.259107
1294.000000	99.390225
1293.000000	98.184013
1292.000000	96.663228
1291.000000	94.881901
1290.000000	92.885055
1289.000000	90.654613
1288.000000	88.066408
1287.000000	84.914495
1286.000000	81.076196
1285.000000	76.733661
1284.000000	72.452838
1283.000000	69.014216
1282.000000	67.086899
1281.000000	66.941602
1280.000000	68.411367
1279.000000	71.030852
1278.000000	74.211969
1277.000000	77.421807
1276.000000	80.257291
1275.000000	82.460413
1274.000000	83.969311
1273.000000	84.985132
1272.000000	85.926336
1271.000000	87.191292
1270.000000	88.907665
1269.000000	90.902146
1268.000000	92.893203
1267.000000	94.688786
1266.000000	96.242111
1265.000000	97.594391
1264.000000	98.799240
1263.000000	99.887823
1262.000000	100.871515
1261.000000	101.761137
1260.000000	102.570199
1259.000000	103.302236
1258.000000	103.953506
1257.000000	104.523577
1256.000000	105.017789
1255.000000	105.441061
1254.000000	105.798697
1253.000000	106.106719
1252.000000	106.386156
1251.000000	106.651068
1250.000000	106.911580
1249.000000	107.183180
1248.000000	107.482163
1247.000000	107.808780
1246.000000	108.146946
1245.000000	108.482403
1244.000000	108.807541
1243.000000	109.110287
1242.000000	109.374126
1241.000000	109.592490
1240.000000	109.772218
1239.000000	109.921886
1238.000000	110.049303
1237.000000	110.167241
1236.000000	110.287593
1235.000000	110.409891
1234.000000	110.522964
1233.000000	110.618158
1232.000000	110.686851
1231.000000	110.704651
1230.000000	110.635261
1229.000000	110.437379
1228.000000	110.062839
1227.000000	109.437980
1226.000000	108.451572
1225.000000	106.973935
1224.000000	104.854424
1223.000000	101.951306
1222.000000	98.199437
1221.000000	93.672546
1220.000000	88.619717
1219.000000	83.402276
1218.000000	78.374354
1217.000000	73.777320
1216.000000	69.701218
1215.000000	66.112890
1214.000000	62.927403
1213.000000	60.084687
1212.000000	57.586654
1211.000000	55.479055
1210.000000	53.773836
1209.000000	52.444232
1208.000000	51.477970
1207.000000	50.891234
1206.000000	50.711299
1205.000000	50.930979
1204.000000	51.503828
1203.000000	52.349349
1202.000000	53.366281
1201.000000	54.513840
1200.000000	55.857938
1199.000000	57.530660
1198.000000	59.633898
1197.000000	62.174777
1196.000000	65.084147
1195.000000	68.236409
1194.000000	71.472453
1193.000000	74.646103
1192.000000	77.658520
1191.000000	80.450452
1190.000000	82.982141
1189.000000	85.236753
1188.000000	87.221424
1187.000000	88.954526
1186.000000	90.441808
1185.000000	91.688281
1184.000000	92.712322
1183.000000	93.525817
1182.000000	94.131268
1181.000000	94.527751
1180.000000	94.728319
1179.000000	94.764166
1178.000000	94.672051
1177.000000	94.498078
1176.000000	94.291907
1175.000000	94.094749
1174.000000	93.936658
1173.000000	93.844677
1172.000000	93.846542
1171.000000	93.958429
1170.000000	94.176795
1169.000000	94.486593
1168.000000	94.869151
1167.000000	95.290454
1166.000000	95.694445
1165.000000	96.020528
1164.000000	96.228462
1163.000000	96.317452
1162.000000	96.339147
1161.000000	96.395680
1160.000000	96.600445
1159.000000	97.015881
1158.000000	97.627754
1157.000000	98.375510
1156.000000	99.197285
1155.000000	100.044789
1154.000000	100.877419
1153.000000	101.661225
1152.000000	102.364037
1151.000000	102.945908
1150.000000	103.367840
1149.000000	103.622856
1148.000000	103.743780
1147.000000	103.781833
1146.000000	103.784582
1145.000000	103.782004
1144.000000	103.778856
1143.000000	103.734197
1142.000000	103.565861
1141.000000	103.186765
1140.000000	102.518402
1139.000000	101.495359
1138.000000	100.041508
1137.000000	98.066046
1136.000000	95.475039
1135.000000	92.145650
1134.000000	87.947894
1133.000000	82.771539
1132.000000	76.589978
1131.000000	69.554350
1130.000000	62.041373
1129.000000	54.639531
1128.000000	48.045701
1127.000000	42.872075
1126.000000	39.431222
1125.000000	37.694879
1124.000000	37.371923
1123.000000	38.013569
1122.000000	39.092159
1121.000000	40.074946
1120.000000	40.567081
1119.000000	40.361867
1118.000000	39.431137
1117.000000	37.964514
1116.000000	36.412760
1115.000000	35.430119
1114.000000	35.628718
1113.000000	37.327209
1112.000000	40.460118
1111.000000	44.600939
1110.000000	49.077890
1109.000000	53.171878
1108.000000	56.339809
1107.000000	58.337232
1106.000000	59.198441
1105.000000	59.156673
1104.000000	58.598853
1103.000000	58.034414
1102.000000	57.982787
1101.000000	58.805312
1100.000000	60.584834
1099.000000	63.132234
1098.000000	66.107219
1097.000000	69.171138
1096.000000	72.072001
1095.000000	74.663587
1094.000000	76.904507
1093.000000	78.844030
1092.000000	80.579766
1091.000000	82.204044
1090.000000	83.783922
1089.000000	85.374247
1088.000000	87.022538
1087.000000	88.740477
1086.000000	90.494645
1085.000000	92.225903
1084.000000	93.866245
1083.000000	95.351592
1082.000000	96.635950
1081.000000	97.712661
1080.000000	98.605690
1079.000000	99.337076
1078.000000	99.925199
1077.000000	100.385636
1076.000000	100.723021
1075.000000	100.916171
1074.000000	100.910280
1073.000000	100.646506
1072.000000	100.045144
1071.000000	98.990676
1070.000000	97.341815
1069.000000	94.922732
1068.000000	91.553683
1067.000000	87.051937
1066.000000	81.297549
1065.000000	74.357520
1064.000000	66.551053
1063.000000	58.449579
1062.000000	50.722829
1061.000000	43.908874
1060.000000	38.224026
1059.000000	33.525601
1058.000000	29.439549
1057.000000	25.675191
1056.000000	22.329640
1055.000000	19.881882
1054.000000	18.957340
1053.000000	19.952055
1052.000000	22.837390
1051.000000	27.187344
1050.000000	32.321512
1049.000000	37.596085
1048.000000	42.584669
1047.000000	47.104482
1046.000000	51.145286
1045.000000	54.778355
1044.000000	58.090817
1043.000000	61.129940
1042.000000	63.891022
1041.000000	66.350548
1040.000000	68.516923
1039.000000	70.419476
1038.000000	72.091377
1037.000000	73.573427
1036.000000	74.905944
1035.000000	76.122305
1034.000000	77.238174
1033.000000	78.267677
1032.000000	79.234695
1031.000000	80.154399
1030.000000	81.028903
1029.000000	81.858762
1028.000000	82.652018
1027.000000	83.416691
1026.000000	84.153857
1025.000000	84.868519
1024.000000	85.569425
1023.000000	86.253964
1022.000000	86.908482
1021.000000	87.518976
1020.000000	88.074653
1019.000000	88.548156
1018.000000	88.883140
1017.000000	89.008722
1016.000000	88.823066
1015.000000	88.191343
1014.000000	86.957226
1013.000000	84.976940
1012.000000	82.180968
1011.000000	78.611625
1010.000000	74.476864
1009.000000	70.158451
1008.000000	66.131627
1007.000000	62.836168
1006.000000	60.595028
1005.000000	59.582144
1004.000000	59.787404
1003.000000	60.966158
1002.000000	62.636602
1001.000000	64.231489
1000.000000	65.270121
999.000000	65.424947
998.000000	64.535434
997.000000	62.675916
996.000000	60.231570
995.000000	57.819170
994.000000	56.015570
993.000000	55.102432
992.000000	55.036973
991.000000	55.633442
990.000000	56.757599
989.000000	58.387421
988.000000	60.551681
987.000000	63.191368
986.000000	66.111449
985.000000	69.055271
984.000000	71.812236
983.000000	74.273577
982.000000	76.412378
981.000000	78.250856
980.000000	79.832868
979.000000	81.206708
978.000000	82.406402
977.000000	83.459379
976.000000	84.393554
975.000000	85.229926
974.000000	85.985780
973.000000	86.675580
972.000000	87.316062
971.000000	87.919341
970.000000	88.486229
969.000000	89.016607
968.000000	89.512676
967.000000	89.974817
966.000000	90.399269
965.000000	90.783816
964.000000	91.133749
963.000000	91.456247
962.000000	91.758142
961.000000	92.050546
960.000000	92.346863
959.000000	92.654381
958.000000	92.971231
957.000000	93.293371
956.000000	93.616865
955.000000	93.930918
954.000000	94.219263
953.000000	94.470909
952.000000	94.685014
951.000000	94.865053
950.000000	95.015117
949.000000	95.145026
948.000000	95.269684
947.000000	95.401120
946.000000	95.546539
945.000000	95.712538
944.000000	95.903309
943.000000	96.113505
942.000000	96.330834
941.000000	96.546805
940.000000	96.757430
939.000000	96.954831
938.000000	97.127600
937.000000	97.270921
936.000000	97.389111
935.000000	97.488068
934.000000	97.574483
933.000000	97.661750
932.000000	97.766936
931.000000	97.899919
930.000000	98.061171
929.000000	98.248103
928.000000	98.455155
927.000000	98.668834
926.000000	98.872160
925.000000	99.054435
924.000000	99.210484
923.000000	99.333477
922.000000	99.418275
921.000000	99.471513
920.000000	99.508860
919.000000	99.544342
918.000000	99.589796
917.000000	99.660472
916.000000	99.769659
915.000000	99.917662
914.000000	100.093945
913.000000	100.288323
912.000000	100.491715
911.000000	100.688974
910.000000	100.862781
909.000000	101.004397
908.000000	101.113243
907.000000	101.189676
906.000000	101.238964
905.000000	101.277911
904.000000	101.325657
903.000000	101.390125
902.000000	101.468401
901.000000	101.554624
900.000000	101.631228
899.000000	101.652946
898.000000	101.557860
897.000000	101.298934
896.000000	100.878156
895.000000	100.356882
894.000000	99.820786
893.000000	99.305810
892.000000	98.739167
891.000000	97.986731
890.000000	96.994746
889.000000	95.880707
888.000000	94.859236
887.000000	94.093380
886.000000	93.633796
885.000000	93.471809
884.000000	93.588180
883.000000	93.912980
882.000000	94.303858
881.000000	94.627065
880.000000	94.873218
879.000000	95.174128
878.000000	95.685134
877.000000	96.461037
876.000000	97.420898
875.000000	98.411620
874.000000	99.305577
873.000000	100.053119
872.000000	100.668569
871.000000	101.183186
870.000000	101.617054
869.000000	101.971282
868.000000	102.226801
867.000000	102.342730
866.000000	102.274560
865.000000	102.010162
864.000000	101.586569
863.000000	101.088461
862.000000	100.632730
861.000000	100.337140
860.000000	100.275137
859.000000	100.446883
858.000000	100.792395
857.000000	101.235058
856.000000	101.715524
855.000000	102.194034
854.000000	102.646141
853.000000	103.057714
852.000000	103.415096
851.000000	103.699509
850.000000	103.898792
849.000000	104.021271
848.000000	104.091041
847.000000	104.134116
846.000000	104.175066
845.000000	104.240372
844.000000	104.349185
843.000000	104.502841
842.000000	104.691716
841.000000	104.907164
840.000000	105.137455
839.000000	105.358430
838.000000	105.542060
837.000000	105.672749
836.000000	105.746475
835.000000	105.762670
834.000000	105.729135
833.000000	105.670144
832.000000	105.617104
831.000000	105.592810
830.000000	105.612481
829.000000	105.691448
828.000000	105.838036
827.000000	106.041622
826.000000	106.278364
825.000000	106.522840
824.000000	106.745059
823.000000	106.907939
822.000000	106.986685
821.000000	106.986141
820.000000	106.929054
819.000000	106.836236
818.000000	106.728439
817.000000	106.635594
816.000000	106.585064
815.000000	106.585011
814.000000	106.627754
813.000000	106.698253
812.000000	106.764391
811.000000	106.769061
810.000000	106.659133
809.000000	106.431259
808.000000	106.140811
807.000000	105.865114
806.000000	105.659194
805.000000	105.533071
804.000000	105.456199
803.000000	105.383795
802.000000	105.288785
801.000000	105.169279
800.000000	105.025173
799.000000	104.837481
798.000000	104.568609
797.000000	104.170160
796.000000	103.576922
795.000000	102.712707
794.000000	101.527196
793.000000	100.028550
792.000000	98.292606
791.000000	96.452637
790.000000	94.683006
789.000000	93.162634
788.000000	92.024262
787.000000	91.323187
786.000000	91.046891
785.000000	91.140389
784.000000	91.510596
783.000000	92.032374
782.000000	92.571437
781.000000	93.018079
780.000000	93.308891
779.000000	93.438959
778.000000	93.476031
777.000000	93.543250
776.000000	93.761967
775.000000	94.199885
774.000000	94.863915
773.000000	95.722141
772.000000	96.717277
771.000000	97.779491
770.000000	98.852267
769.000000	99.903976
768.000000	100.908338
767.000000	101.825798
766.000000	102.617888
765.000000	103.264849
764.000000	103.760043
763.000000	104.103200
762.000000	104.314965
761.000000	104.442501
760.000000	104.533248
759.000000	104.616304
758.000000	104.715049
757.000000	104.857912
756.000000	105.059186
755.000000	105.303890
754.000000	105.565765
753.000000	105.823899
752.000000	106.051369
751.000000	106.209547
750.000000	106.271606
749.000000	106.237923
748.000000	106.115521
747.000000	105.902941
746.000000	105.611862
745.000000	105.280879
744.000000	104.948336
743.000000	104.627620
742.000000	104.323837
741.000000	104.053035
740.000000	103.826349
739.000000	103.634994
738.000000	103.466539
737.000000	103.312146
736.000000	103.138811
735.000000	102.879568
734.000000	102.476192
733.000000	101.916941
732.000000	101.224826
731.000000	100.444950
730.000000	99.664650
729.000000	99.010686
728.000000	98.597409
727.000000	98.479031
726.000000	98.653593
725.000000	99.088773
724.000000	99.716070
723.000000	100.428881
722.000000	101.126683
721.000000	101.757168
720.000000	102.303840
719.000000	102.756133
718.000000	103.113570
717.000000	103.394153
716.000000	103.613575
715.000000	103.775807
714.000000	103.900457
713.000000	104.031656
712.000000	104.199000
711.000000	104.392935
710.000000	104.599238
709.000000	104.821168
708.000000	105.050340
707.000000	105.251354
706.000000	105.393129
705.000000	105.480222
704.000000	105.528312
703.000000	105.530343
702.000000	105.490633
701.000000	105.452382
700.000000	105.452855
699.000000	105.496749
698.000000	105.584112
697.000000	105.736100
696.000000	105.951886
695.000000	106.168938
694.000000	106.332642
693.000000	106.444759
692.000000	106.505919
691.000000	106.481534
690.000000	106.355189
689.000000	106.181710
688.000000	106.019541
687.000000	105.854382
686.000000	105.676048
685.000000	105.545673
684.000000	105.514338
683.000000	105.554303
682.000000	105.637372
681.000000	105.797146
680.000000	106.040761
679.000000	106.281378
678.000000	106.470358
677.000000	106.628431
676.000000	106.742382
675.000000	106.810804
674.000000	106.850270
673.000000	106.909317
672.000000	107.099389
671.000000	107.564205
670.000000	108.380684
669.000000	109.165095
668.000000	109.080050
667.000000	108.343675
666.000000	107.918067
665.000000	107.888010
664.000000	108.014098
663.000000	108.144486
662.000000	108.218697
661.000000	108.233584
660.000000	108.188520
659.000000	108.083190
658.000000	107.948836
657.000000	107.800814
656.000000	107.635170
655.000000	107.541383
654.000000	107.574829
653.000000	107.677922
652.000000	107.809071
651.000000	107.993971
650.000000	108.209540
649.000000	108.343569
648.000000	108.343574
647.000000	108.272018
646.000000	108.171353
645.000000	108.013098
644.000000	107.799818
643.000000	107.608200
642.000000	107.495766
641.000000	107.440849
640.000000	107.426096
639.000000	107.487725
638.000000	107.627832
637.000000	107.778630
636.000000	107.896945
635.000000	108.000062
634.000000	108.089290
633.000000	108.120047
632.000000	108.072321
631.000000	107.981924
630.000000	107.872862
629.000000	107.726191
628.000000	107.549951
627.000000	107.404051
626.000000	107.322459
625.000000	107.289497
624.000000	107.301709
623.000000	107.390493
622.000000	107.556598
621.000000	107.739276
620.000000	107.876751
619.000000	107.943662
618.000000	107.924120
617.000000	107.805376
616.000000	107.614934
615.000000	107.410629
614.000000	107.216943
613.000000	107.022728
612.000000	106.846376
611.000000	106.742623
610.000000	106.735452
609.000000	106.789596
608.000000	106.864381
607.000000	106.941998
606.000000	106.987237
605.000000	106.951237
604.000000	106.818303
603.000000	106.607636
602.000000	106.322756
601.000000	105.940387
600.000000	105.455033
599.000000	104.894216
598.000000	104.275563
597.000000	103.592997
596.000000	102.861072
595.000000	102.124876
594.000000	101.399890
593.000000	100.630211
592.000000	99.715926
591.000000	98.570586
590.000000	97.185391
589.000000	95.695308
588.000000	94.364567
587.000000	93.422626
586.000000	92.894942
585.000000	92.660815
584.000000	92.688689
583.000000	93.092149
582.000000	93.931919
581.000000	95.081782
580.000000	96.326221
579.000000	97.508986
578.000000	98.534974
577.000000	99.335571
576.000000	99.900117
575.000000	100.284371
574.000000	100.536146
573.000000	100.658009
572.000000	100.661531
571.000000	100.590323
570.000000	100.463688
569.000000	100.243147
568.000000	99.896423
567.000000	99.419080
566.000000	98.758659
565.000000	97.788968
564.000000	96.409132
563.000000	94.657740
562.000000	92.704744
561.000000	90.773077
560.000000	89.065624
559.000000	87.675626
558.000000	86.518543
557.000000	85.444049
556.000000	84.495065
555.000000	83.975240
554.000000	84.201438
553.000000	85.233497
552.000000	86.868751
551.000000	88.784132
550.000000	90.629525
549.000000	92.138493
548.000000	93.239991
547.000000	94.025171
546.000000	94.590629
545.000000	94.965310
544.000000	95.175887
543.000000	95.281133
542.000000	95.310468
541.000000	95.232658
540.000000	95.034544
539.000000	94.762223
538.000000	94.458828
537.000000	94.126973
536.000000	93.781114
535.000000	93.473669
534.000000	93.232463
533.000000	93.038131
532.000000	92.877464
531.000000	92.772576
530.000000	92.720134
529.000000	92.654536
528.000000	92.498783
527.000000	92.211771
526.000000	91.753182
525.000000	91.075636
524.000000	90.187424
523.000000	89.154994
522.000000	88.039310
521.000000	86.879517
520.000000	85.747203
519.000000	84.740231
518.000000	83.881132
517.000000	83.085816
516.000000	82.280541
515.000000	81.477967
514.000000	80.716045
513.000000	80.018870
512.000000	79.452924
511.000000	79.152722
510.000000	79.217956
509.000000	79.632883
508.000000	80.331464
507.000000	81.272424
506.000000	82.411868
505.000000	83.690874
504.000000	85.094797
503.000000	86.643514
502.000000	88.268682
501.000000	89.792893
500.000000	91.081628
499.000000	92.134521
498.000000	92.990745
497.000000	93.653135
496.000000	94.131748
495.000000	94.480393
494.000000	94.757847
493.000000	94.982681
492.000000	95.177917
491.000000	95.401980
490.000000	95.682395
489.000000	95.983778
488.000000	96.256568
487.000000	96.475041
486.000000	96.578599
485.000000	96.420373
484.000000	95.843671
483.000000	94.782811
482.000000	93.279307
481.000000	91.469655
480.000000	89.617506
479.000000	88.060557
478.000000	87.004721
477.000000	86.396672
476.000000	86.035735
475.000000	85.759952
474.000000	85.481829
473.000000	85.193246
472.000000	85.041812
471.000000	85.283216
470.000000	86.038526
469.000000	87.193826
468.000000	88.568138
467.000000	90.025618
466.000000	91.429199
465.000000	92.648883
464.000000	93.645666
463.000000	94.496198
462.000000	95.285986
461.000000	96.024247
460.000000	96.704906
459.000000	97.361728
458.000000	98.003625
457.000000	98.575466
456.000000	99.037989
455.000000	99.399003
454.000000	99.644686
453.000000	99.721370
452.000000	99.629257
451.000000	99.469047
450.000000	99.326082
449.000000	99.213539
448.000000	99.157233
447.000000	99.230379
446.000000	99.454045
445.000000	99.762778
444.000000	100.088505
443.000000	100.411325
442.000000	100.696355
441.000000	100.867774
440.000000	100.894002
439.000000	100.805585
438.000000	100.611624
437.000000	100.276809
436.000000	99.829001
435.000000	99.388868
434.000000	99.023056
433.000000	98.672078
432.000000	98.285711
431.000000	97.919513
430.000000	97.639414
429.000000	97.412668
428.000000	97.196796
427.000000	97.037909
426.000000	96.955751
425.000000	96.842053
424.000000	96.614314
423.000000	96.373625
422.000000	96.243010
421.000000	96.179994
420.000000	96.123430
419.000000	96.245487
418.000000	96.747781
417.000000	97.485710
416.000000	98.234178
415.000000	98.960144
414.000000	99.639163
413.000000	100.128122
412.000000	100.318647
411.000000	100.258340
410.000000	100.034233
409.000000	99.634605
408.000000	99.092839
407.000000	98.614250
406.000000	98.372813
405.000000	98.309061
404.000000	98.341852
403.000000	98.555103
402.000000	99.021202
401.000000	99.580235
400.000000	100.060473
