PE IR       SUBTECH     SPECTRUM    ASCII       PEDS        4.00        
   -1
23ms008- cis.asc
24/10/21
16:19:06.00
24/10/21
16:19:06.00
Administrator
Sample 1323 By Administrator Date Monday, October 21 2024
400.000000
#HDR
-1
-1
#GR
cm-1
%T
1.0
0.0
4000.000000
-1.000000
3601
8
87.531062
10.683907
#DATA
4000.000000	69.606905
3999.000000	69.595426
3998.000000	69.585534
3997.000000	69.577144
3996.000000	69.570694
3995.000000	69.566435
3994.000000	69.563852
3993.000000	69.562194
3992.000000	69.561400
3991.000000	69.562158
3990.000000	69.565116
3989.000000	69.570554
3988.000000	69.579159
3987.000000	69.592355
3986.000000	69.611176
3985.000000	69.634974
3984.000000	69.661779
3983.000000	69.689987
3982.000000	69.719065
3981.000000	69.748771
3980.000000	69.778444
3979.000000	69.807529
3978.000000	69.836602
3977.000000	69.867024
3976.000000	69.899483
3975.000000	69.933172
3974.000000	69.966562
3973.000000	69.998677
3972.000000	70.029477
3971.000000	70.059536
3970.000000	70.089676
3969.000000	70.120483
3968.000000	70.152074
3967.000000	70.184247
3966.000000	70.216930
3965.000000	70.250746
3964.000000	70.286754
3963.000000	70.325652
3962.000000	70.366884
3961.000000	70.408817
3960.000000	70.450405
3959.000000	70.492771
3958.000000	70.538473
3957.000000	70.588415
3956.000000	70.640252
3955.000000	70.690206
3954.000000	70.735548
3953.000000	70.775459
3952.000000	70.810083
3951.000000	70.840384
3950.000000	70.868086
3949.000000	70.894858
3948.000000	70.921174
3947.000000	70.945878
3946.000000	70.968466
3945.000000	70.992047
3944.000000	71.022429
3943.000000	71.062663
3942.000000	71.108996
3941.000000	71.154173
3940.000000	71.195720
3939.000000	71.238500
3938.000000	71.286545
3937.000000	71.334950
3936.000000	71.373929
3935.000000	71.399539
3934.000000	71.417599
3933.000000	71.437335
3932.000000	71.462203
3931.000000	71.488759
3930.000000	71.512566
3929.000000	71.533473
3928.000000	71.554049
3927.000000	71.575228
3926.000000	71.596814
3925.000000	71.618312
3924.000000	71.636591
3923.000000	71.646986
3922.000000	71.649902
3921.000000	71.652253
3920.000000	71.658905
3919.000000	71.668007
3918.000000	71.677793
3917.000000	71.691142
3916.000000	71.710379
3915.000000	71.733785
3914.000000	71.760521
3913.000000	71.794020
3912.000000	71.835945
3911.000000	71.880007
3910.000000	71.916310
3909.000000	71.938296
3908.000000	71.944145
3907.000000	71.935115
3906.000000	71.914167
3905.000000	71.888055
3904.000000	71.864505
3903.000000	71.847896
3902.000000	71.839843
3901.000000	71.846416
3900.000000	71.877137
3899.000000	71.932555
3898.000000	71.999346
3897.000000	72.064126
3896.000000	72.125529
3895.000000	72.186888
3894.000000	72.245676
3893.000000	72.297290
3892.000000	72.344683
3891.000000	72.392681
3890.000000	72.435434
3889.000000	72.461942
3888.000000	72.474828
3887.000000	72.491518
3886.000000	72.522546
3885.000000	72.560736
3884.000000	72.586500
3883.000000	72.590928
3882.000000	72.592897
3881.000000	72.616734
3880.000000	72.661304
3879.000000	72.705297
3878.000000	72.731125
3877.000000	72.741819
3876.000000	72.753672
3875.000000	72.773107
3874.000000	72.791280
3873.000000	72.796397
3872.000000	72.786033
3871.000000	72.776640
3870.000000	72.790603
3869.000000	72.826314
3868.000000	72.857339
3867.000000	72.871309
3866.000000	72.889514
3865.000000	72.929487
3864.000000	72.977862
3863.000000	73.015804
3862.000000	73.041895
3861.000000	73.066065
3860.000000	73.095408
3859.000000	73.127794
3858.000000	73.157519
3857.000000	73.177380
3856.000000	73.177532
3855.000000	73.160661
3854.000000	73.154451
3853.000000	73.183039
3852.000000	73.220601
3851.000000	73.226806
3850.000000	73.225407
3849.000000	73.271218
3848.000000	73.357461
3847.000000	73.438865
3846.000000	73.495705
3845.000000	73.531993
3844.000000	73.555002
3843.000000	73.569917
3842.000000	73.580311
3841.000000	73.588141
3840.000000	73.598468
3839.000000	73.618659
3838.000000	73.650744
3837.000000	73.688699
3836.000000	73.723393
3835.000000	73.752804
3834.000000	73.782336
3833.000000	73.817617
3832.000000	73.858763
3831.000000	73.900731
3830.000000	73.936092
3829.000000	73.962262
3828.000000	73.985544
3827.000000	74.014274
3826.000000	74.048718
3825.000000	74.078967
3824.000000	74.096922
3823.000000	74.108190
3822.000000	74.127808
3821.000000	74.165665
3820.000000	74.210745
3819.000000	74.238624
3818.000000	74.247952
3817.000000	74.266474
3816.000000	74.306969
3815.000000	74.352496
3814.000000	74.378516
3813.000000	74.383262
3812.000000	74.395020
3811.000000	74.428283
3810.000000	74.465604
3809.000000	74.493244
3808.000000	74.518914
3807.000000	74.554577
3806.000000	74.596353
3805.000000	74.625683
3804.000000	74.637103
3803.000000	74.647337
3802.000000	74.671676
3801.000000	74.708309
3800.000000	74.738998
3799.000000	74.746516
3798.000000	74.745486
3797.000000	74.764835
3796.000000	74.802990
3795.000000	74.840449
3794.000000	74.867899
3793.000000	74.890597
3792.000000	74.917128
3791.000000	74.946420
3790.000000	74.972154
3789.000000	74.992486
3788.000000	75.010002
3787.000000	75.026958
3786.000000	75.045092
3785.000000	75.066096
3784.000000	75.089247
3783.000000	75.109996
3782.000000	75.125920
3781.000000	75.141559
3780.000000	75.163797
3779.000000	75.192781
3778.000000	75.221055
3777.000000	75.241707
3776.000000	75.258044
3775.000000	75.278867
3774.000000	75.304619
3773.000000	75.328141
3772.000000	75.347395
3771.000000	75.369393
3770.000000	75.399188
3769.000000	75.431031
3768.000000	75.455647
3767.000000	75.475450
3766.000000	75.503131
3765.000000	75.543593
3764.000000	75.586079
3763.000000	75.618618
3762.000000	75.643218
3761.000000	75.671262
3760.000000	75.707712
3759.000000	75.746589
3758.000000	75.781052
3757.000000	75.808945
3756.000000	75.830751
3755.000000	75.847125
3754.000000	75.859831
3753.000000	75.874138
3752.000000	75.896949
3751.000000	75.932970
3750.000000	75.976195
3749.000000	76.011212
3748.000000	76.026308
3747.000000	76.024588
3746.000000	76.025435
3745.000000	76.052908
3744.000000	76.111851
3743.000000	76.166449
3742.000000	76.175493
3741.000000	76.167796
3740.000000	76.199054
3739.000000	76.249081
3738.000000	76.271780
3737.000000	76.271562
3736.000000	76.277149
3735.000000	76.298124
3734.000000	76.321066
3733.000000	76.342820
3732.000000	76.379809
3731.000000	76.438267
3730.000000	76.499545
3729.000000	76.544060
3728.000000	76.570623
3727.000000	76.587569
3726.000000	76.600326
3725.000000	76.609213
3724.000000	76.616275
3723.000000	76.631883
3722.000000	76.664795
3721.000000	76.711358
3720.000000	76.763210
3719.000000	76.813505
3718.000000	76.857921
3717.000000	76.892563
3716.000000	76.915828
3715.000000	76.934463
3714.000000	76.960750
3713.000000	77.003281
3712.000000	77.059554
3711.000000	77.119963
3710.000000	77.174257
3709.000000	77.218210
3708.000000	77.256932
3707.000000	77.296681
3706.000000	77.336916
3705.000000	77.371870
3704.000000	77.400285
3703.000000	77.427952
3702.000000	77.461488
3701.000000	77.499626
3700.000000	77.534527
3699.000000	77.562385
3698.000000	77.589768
3697.000000	77.624908
3696.000000	77.664402
3695.000000	77.697983
3694.000000	77.720745
3693.000000	77.736257
3692.000000	77.748307
3691.000000	77.761171
3690.000000	77.784005
3689.000000	77.823833
3688.000000	77.872337
3687.000000	77.909154
3686.000000	77.926108
3685.000000	77.938598
3684.000000	77.964118
3683.000000	77.997696
3682.000000	78.024743
3681.000000	78.040127
3680.000000	78.045848
3679.000000	78.041912
3678.000000	78.026664
3677.000000	78.012495
3676.000000	78.023997
3675.000000	78.064114
3674.000000	78.095165
3673.000000	78.085024
3672.000000	78.061241
3671.000000	78.069347
3670.000000	78.111678
3669.000000	78.160155
3668.000000	78.186669
3667.000000	78.191224
3666.000000	78.202049
3665.000000	78.231118
3664.000000	78.263440
3663.000000	78.285448
3662.000000	78.296176
3661.000000	78.298430
3660.000000	78.291842
3659.000000	78.276964
3658.000000	78.261523
3657.000000	78.258097
3656.000000	78.267420
3655.000000	78.270151
3654.000000	78.245812
3653.000000	78.199281
3652.000000	78.151936
3651.000000	78.115673
3650.000000	78.097044
3649.000000	78.098872
3648.000000	78.108947
3647.000000	78.113767
3646.000000	78.116651
3645.000000	78.128215
3644.000000	78.153483
3643.000000	78.188110
3642.000000	78.221756
3641.000000	78.244561
3640.000000	78.252420
3639.000000	78.248545
3638.000000	78.238066
3637.000000	78.221787
3636.000000	78.197483
3635.000000	78.166063
3634.000000	78.126629
3633.000000	78.068791
3632.000000	77.982894
3631.000000	77.880570
3630.000000	77.796909
3629.000000	77.759819
3628.000000	77.750725
3627.000000	77.717583
3626.000000	77.647727
3625.000000	77.583530
3624.000000	77.542721
3623.000000	77.493365
3622.000000	77.411283
3621.000000	77.305785
3620.000000	77.200204
3619.000000	77.106092
3618.000000	77.013750
3617.000000	76.906938
3616.000000	76.784234
3615.000000	76.659818
3614.000000	76.544394
3613.000000	76.434772
3612.000000	76.318993
3611.000000	76.189651
3610.000000	76.053119
3609.000000	75.923267
3608.000000	75.805524
3607.000000	75.690625
3606.000000	75.567664
3605.000000	75.437433
3604.000000	75.308606
3603.000000	75.184516
3602.000000	75.062487
3601.000000	74.940301
3600.000000	74.815736
3599.000000	74.685473
3598.000000	74.548494
3597.000000	74.409379
3596.000000	74.273178
3595.000000	74.141833
3594.000000	74.010987
3593.000000	73.871864
3592.000000	73.718135
3591.000000	73.553019
3590.000000	73.389851
3589.000000	73.248621
3588.000000	73.146671
3587.000000	73.080629
3586.000000	73.025494
3585.000000	72.961283
3584.000000	72.892088
3583.000000	72.828010
3582.000000	72.765519
3581.000000	72.693765
3580.000000	72.606824
3579.000000	72.505985
3578.000000	72.395731
3577.000000	72.281322
3576.000000	72.165858
3575.000000	72.049109
3574.000000	71.927471
3573.000000	71.794708
3572.000000	71.643786
3571.000000	71.469598
3570.000000	71.273969
3569.000000	71.070687
3568.000000	70.882060
3567.000000	70.721099
3566.000000	70.577777
3565.000000	70.433484
3564.000000	70.285275
3563.000000	70.143061
3562.000000	70.008919
3561.000000	69.873576
3560.000000	69.727396
3559.000000	69.566085
3558.000000	69.390035
3557.000000	69.202112
3556.000000	69.005277
3555.000000	68.800899
3554.000000	68.590188
3553.000000	68.375363
3552.000000	68.157180
3551.000000	67.931726
3550.000000	67.692982
3549.000000	67.439736
3548.000000	67.177537
3547.000000	66.913984
3546.000000	66.653277
3545.000000	66.394899
3544.000000	66.136578
3543.000000	65.877249
3542.000000	65.615974
3541.000000	65.348742
3540.000000	65.068723
3539.000000	64.769893
3538.000000	64.451198
3537.000000	64.117211
3536.000000	63.773194
3535.000000	63.419899
3534.000000	63.053965
3533.000000	62.673079
3532.000000	62.277331
3531.000000	61.866180
3530.000000	61.437071
3529.000000	60.988574
3528.000000	60.521912
3527.000000	60.038281
3526.000000	59.537323
3525.000000	59.020238
3524.000000	58.491651
3523.000000	57.955110
3522.000000	57.408988
3521.000000	56.848615
3520.000000	56.270943
3519.000000	55.674877
3518.000000	55.058840
3517.000000	54.421152
3516.000000	53.761920
3515.000000	53.083162
3514.000000	52.387096
3513.000000	51.674591
3512.000000	50.944906
3511.000000	50.196961
3510.000000	49.432043
3509.000000	48.655596
3508.000000	47.872793
3507.000000	47.081798
3506.000000	46.274596
3505.000000	45.446067
3504.000000	44.600637
3503.000000	43.748786
3502.000000	42.899042
3501.000000	42.054348
3500.000000	41.212847
3499.000000	40.369784
3498.000000	39.521483
3497.000000	38.669522
3496.000000	37.819379
3495.000000	36.974711
3494.000000	36.136406
3493.000000	35.307056
3492.000000	34.490950
3491.000000	33.688931
3490.000000	32.898460
3489.000000	32.120627
3488.000000	31.363219
3487.000000	30.634430
3486.000000	29.936607
3485.000000	29.266911
3484.000000	28.619268
3483.000000	27.986319
3482.000000	27.365180
3481.000000	26.762604
3480.000000	26.189727
3479.000000	25.649606
3478.000000	25.134342
3477.000000	24.634033
3476.000000	24.143443
3475.000000	23.660844
3474.000000	23.185909
3473.000000	22.721076
3472.000000	22.271316
3471.000000	21.842014
3470.000000	21.441917
3469.000000	21.086104
3468.000000	20.790309
3467.000000	20.561259
3466.000000	20.395855
3465.000000	20.289736
3464.000000	20.240833
3463.000000	20.247189
3462.000000	20.308992
3461.000000	20.431313
3460.000000	20.619372
3459.000000	20.869351
3458.000000	21.168288
3457.000000	21.502693
3456.000000	21.860863
3455.000000	22.229176
3454.000000	22.592630
3453.000000	22.938587
3452.000000	23.255688
3451.000000	23.530121
3450.000000	23.747471
3449.000000	23.899396
3448.000000	23.983913
3447.000000	23.999663
3446.000000	23.946336
3445.000000	23.827810
3444.000000	23.651512
3443.000000	23.425772
3442.000000	23.159940
3441.000000	22.867506
3440.000000	22.563559
3439.000000	22.260629
3438.000000	21.971774
3437.000000	21.714494
3436.000000	21.505803
3435.000000	21.353812
3434.000000	21.257418
3433.000000	21.213050
3432.000000	21.220077
3431.000000	21.280820
3430.000000	21.401563
3429.000000	21.592416
3428.000000	21.859436
3427.000000	22.201159
3426.000000	22.613246
3425.000000	23.094775
3424.000000	23.647605
3423.000000	24.269840
3422.000000	24.958162
3421.000000	25.710671
3420.000000	26.522706
3419.000000	27.383656
3418.000000	28.279784
3417.000000	29.201019
3416.000000	30.140124
3415.000000	31.088641
3414.000000	32.039127
3413.000000	32.987354
3412.000000	33.928855
3411.000000	34.855849
3410.000000	35.761304
3409.000000	36.643490
3408.000000	37.502461
3407.000000	38.333631
3406.000000	39.129597
3405.000000	39.886336
3404.000000	40.604034
3403.000000	41.285693
3402.000000	41.937979
3401.000000	42.570833
3400.000000	43.191536
3399.000000	43.798597
3398.000000	44.384985
3397.000000	44.945575
3396.000000	45.478794
3395.000000	45.985269
3394.000000	46.468382
3393.000000	46.935544
3392.000000	47.394616
3391.000000	47.848193
3390.000000	48.294471
3389.000000	48.731377
3388.000000	49.158175
3387.000000	49.574761
3386.000000	49.981987
3385.000000	50.382155
3384.000000	50.776323
3383.000000	51.162978
3382.000000	51.541187
3381.000000	51.913321
3380.000000	52.282794
3379.000000	52.650721
3378.000000	53.016970
3377.000000	53.382561
3376.000000	53.748074
3375.000000	54.111030
3374.000000	54.467205
3373.000000	54.814026
3372.000000	55.151545
3371.000000	55.481449
3370.000000	55.807276
3369.000000	56.133803
3368.000000	56.463907
3367.000000	56.796428
3366.000000	57.128020
3365.000000	57.455939
3364.000000	57.777921
3363.000000	58.091649
3362.000000	58.396635
3361.000000	58.695238
3360.000000	58.990118
3359.000000	59.281736
3358.000000	59.569661
3357.000000	59.854758
3356.000000	60.137497
3355.000000	60.415739
3354.000000	60.686312
3353.000000	60.948242
3352.000000	61.203144
3351.000000	61.453022
3350.000000	61.699119
3349.000000	61.941820
3348.000000	62.180012
3347.000000	62.411552
3346.000000	62.635306
3345.000000	62.852228
3344.000000	63.063368
3343.000000	63.267658
3342.000000	63.463101
3341.000000	63.648802
3340.000000	63.825083
3339.000000	63.992780
3338.000000	64.153083
3337.000000	64.307328
3336.000000	64.455151
3335.000000	64.593900
3334.000000	64.720956
3333.000000	64.834981
3332.000000	64.934663
3331.000000	65.017147
3330.000000	65.079363
3329.000000	65.120456
3328.000000	65.140667
3327.000000	65.139820
3326.000000	65.116954
3325.000000	65.070344
3324.000000	64.997014
3323.000000	64.891910
3322.000000	64.750240
3321.000000	64.569418
3320.000000	64.347037
3319.000000	64.080263
3318.000000	63.765235
3317.000000	63.398884
3316.000000	62.977554
3315.000000	62.494560
3314.000000	61.942310
3313.000000	61.313019
3312.000000	60.598366
3311.000000	59.789984
3310.000000	58.879484
3309.000000	57.863113
3308.000000	56.738439
3307.000000	55.501728
3306.000000	54.150462
3305.000000	52.681627
3304.000000	51.093158
3303.000000	49.379492
3302.000000	47.535811
3301.000000	45.565264
3300.000000	43.478112
3299.000000	41.292942
3298.000000	39.040014
3297.000000	36.763569
3296.000000	34.516035
3295.000000	32.346984
3294.000000	30.300132
3293.000000	28.414819
3292.000000	26.720563
3291.000000	25.224343
3290.000000	23.913793
3289.000000	22.763059
3288.000000	21.739589
3287.000000	20.809823
3286.000000	19.943600
3285.000000	19.124328
3284.000000	18.344842
3283.000000	17.603812
3282.000000	16.909343
3281.000000	16.279307
3280.000000	15.737063
3279.000000	15.303125
3278.000000	14.995447
3277.000000	14.832801
3276.000000	14.825973
3275.000000	14.971855
3274.000000	15.255144
3273.000000	15.651435
3272.000000	16.127870
3271.000000	16.639594
3270.000000	17.136783
3269.000000	17.572582
3268.000000	17.904909
3267.000000	18.099272
3266.000000	18.138486
3265.000000	18.027105
3264.000000	17.784703
3263.000000	17.440166
3262.000000	17.029368
3261.000000	16.596875
3260.000000	16.186693
3259.000000	15.833539
3258.000000	15.564764
3257.000000	15.403862
3256.000000	15.364984
3255.000000	15.447783
3254.000000	15.642125
3253.000000	15.931706
3252.000000	16.295305
3251.000000	16.704047
3250.000000	17.128175
3249.000000	17.544617
3248.000000	17.934067
3247.000000	18.278544
3246.000000	18.564111
3245.000000	18.784305
3244.000000	18.936833
3243.000000	19.022527
3242.000000	19.047850
3241.000000	19.026430
3240.000000	18.972760
3239.000000	18.895129
3238.000000	18.800033
3237.000000	18.695075
3236.000000	18.586811
3235.000000	18.479475
3234.000000	18.378129
3233.000000	18.288811
3232.000000	18.209849
3231.000000	18.128121
3230.000000	18.028662
3229.000000	17.903640
3228.000000	17.749917
3227.000000	17.563240
3226.000000	17.340436
3225.000000	17.083883
3224.000000	16.797610
3223.000000	16.484007
3222.000000	16.147410
3221.000000	15.797742
3220.000000	15.446486
3219.000000	15.101062
3218.000000	14.766838
3217.000000	14.449288
3216.000000	14.150288
3215.000000	13.866061
3214.000000	13.592872
3213.000000	13.330397
3212.000000	13.076834
3211.000000	12.826095
3210.000000	12.573810
3209.000000	12.322464
3208.000000	12.076417
3207.000000	11.837270
3206.000000	11.608067
3205.000000	11.395861
3204.000000	11.206463
3203.000000	11.040715
3202.000000	10.900065
3201.000000	10.791181
3200.000000	10.719374
3199.000000	10.684120
3198.000000	10.683907
3197.000000	10.720582
3196.000000	10.795711
3195.000000	10.905586
3194.000000	11.047006
3193.000000	11.220920
3192.000000	11.426625
3191.000000	11.659108
3190.000000	11.913602
3189.000000	12.190019
3188.000000	12.487823
3187.000000	12.801386
3186.000000	13.125789
3185.000000	13.460739
3184.000000	13.806211
3183.000000	14.158570
3182.000000	14.514739
3181.000000	14.875863
3180.000000	15.242060
3179.000000	15.608798
3178.000000	15.971756
3177.000000	16.330768
3176.000000	16.685698
3175.000000	17.033155
3174.000000	17.370815
3173.000000	17.700176
3172.000000	18.022006
3171.000000	18.333189
3170.000000	18.631756
3169.000000	18.920125
3168.000000	19.199922
3167.000000	19.468779
3166.000000	19.724551
3165.000000	19.968592
3164.000000	20.201360
3163.000000	20.419030
3162.000000	20.618682
3161.000000	20.801429
3160.000000	20.968248
3159.000000	21.117044
3158.000000	21.246513
3157.000000	21.359847
3156.000000	21.460662
3155.000000	21.550557
3154.000000	21.633568
3153.000000	21.717814
3152.000000	21.809564
3151.000000	21.908962
3150.000000	22.014726
3149.000000	22.128413
3148.000000	22.251109
3147.000000	22.380544
3146.000000	22.515070
3145.000000	22.656217
3144.000000	22.804083
3143.000000	22.954765
3142.000000	23.104938
3141.000000	23.255035
3140.000000	23.404798
3139.000000	23.550126
3138.000000	23.687055
3137.000000	23.814555
3136.000000	23.930510
3135.000000	24.028826
3134.000000	24.103935
3133.000000	24.152751
3132.000000	24.170301
3131.000000	24.147399
3130.000000	24.075183
3129.000000	23.950480
3128.000000	23.772358
3127.000000	23.540765
3126.000000	23.261140
3125.000000	22.945693
3124.000000	22.608715
3123.000000	22.261592
3122.000000	21.915870
3121.000000	21.584488
3120.000000	21.275744
3119.000000	20.989981
3118.000000	20.724935
3117.000000	20.480329
3116.000000	20.254428
3115.000000	20.041862
3114.000000	19.837739
3113.000000	19.640554
3112.000000	19.448273
3111.000000	19.256993
3110.000000	19.067315
3109.000000	18.886514
3108.000000	18.721632
3107.000000	18.575079
3106.000000	18.449167
3105.000000	18.350664
3104.000000	18.285953
3103.000000	18.257770
3102.000000	18.270527
3101.000000	18.331925
3100.000000	18.448041
3099.000000	18.618666
3098.000000	18.842243
3097.000000	19.120544
3096.000000	19.452982
3095.000000	19.834612
3094.000000	20.260020
3093.000000	20.726487
3092.000000	21.231035
3091.000000	21.767196
3090.000000	22.329707
3089.000000	22.915213
3088.000000	23.517350
3087.000000	24.126781
3086.000000	24.737579
3085.000000	25.350038
3084.000000	25.963757
3083.000000	26.573519
3082.000000	27.174482
3081.000000	27.766288
3080.000000	28.349726
3079.000000	28.923636
3078.000000	29.487618
3077.000000	30.042571
3076.000000	30.586752
3075.000000	31.115131
3074.000000	31.625107
3073.000000	32.118975
3072.000000	32.598355
3071.000000	33.061586
3070.000000	33.508144
3069.000000	33.941350
3068.000000	34.364430
3067.000000	34.777099
3066.000000	35.178957
3065.000000	35.571684
3064.000000	35.955872
3063.000000	36.329864
3062.000000	36.693146
3061.000000	37.047888
3060.000000	37.395036
3059.000000	37.732790
3058.000000	38.060996
3057.000000	38.382684
3056.000000	38.699859
3055.000000	39.011180
3054.000000	39.315645
3053.000000	39.615266
3052.000000	39.911931
3051.000000	40.205248
3050.000000	40.494846
3049.000000	40.781211
3048.000000	41.063134
3047.000000	41.337739
3046.000000	41.604931
3045.000000	41.868328
3044.000000	42.130446
3043.000000	42.390632
3042.000000	42.648640
3041.000000	42.906223
3040.000000	43.163302
3039.000000	43.416234
3038.000000	43.662314
3037.000000	43.902935
3036.000000	44.140924
3035.000000	44.377775
3034.000000	44.614738
3033.000000	44.853330
3032.000000	45.092876
3031.000000	45.330473
3030.000000	45.564720
3029.000000	45.796560
3028.000000	46.025768
3027.000000	46.249972
3026.000000	46.468330
3025.000000	46.682812
3024.000000	46.894004
3023.000000	47.098867
3022.000000	47.293994
3021.000000	47.477406
3020.000000	47.645981
3019.000000	47.793429
3018.000000	47.913347
3017.000000	48.001823
3016.000000	48.056554
3015.000000	48.078282
3014.000000	48.075050
3013.000000	48.063903
3012.000000	48.065695
3011.000000	48.099566
3010.000000	48.180382
3009.000000	48.315450
3008.000000	48.499946
3007.000000	48.717264
3006.000000	48.945517
3005.000000	49.162314
3004.000000	49.343836
3003.000000	49.463401
3002.000000	49.494540
3001.000000	49.414423
3000.000000	49.209654
2999.000000	48.887297
2998.000000	48.488257
2997.000000	48.088119
2996.000000	47.777672
2995.000000	47.634817
2994.000000	47.699683
2993.000000	47.964177
2992.000000	48.375639
2991.000000	48.860034
2990.000000	49.350585
2989.000000	49.804737
2988.000000	50.203644
2987.000000	50.543405
2986.000000	50.829326
2985.000000	51.069742
2984.000000	51.270690
2983.000000	51.433268
2982.000000	51.557213
2981.000000	51.642083
2980.000000	51.685147
2979.000000	51.680652
2978.000000	51.623498
2977.000000	51.514372
2976.000000	51.360937
2975.000000	51.179574
2974.000000	50.995817
2973.000000	50.838692
2972.000000	50.729983
2971.000000	50.675513
2970.000000	50.663181
2969.000000	50.662590
2968.000000	50.626748
2967.000000	50.504177
2966.000000	50.261521
2965.000000	49.900669
2964.000000	49.458540
2963.000000	48.992306
2962.000000	48.562697
2961.000000	48.218700
2960.000000	47.989475
2959.000000	47.884836
2958.000000	47.904008
2957.000000	48.038941
2956.000000	48.271111
2955.000000	48.571454
2954.000000	48.906230
2953.000000	49.242499
2952.000000	49.547113
2951.000000	49.790826
2950.000000	49.957814
2949.000000	50.052941
2948.000000	50.096284
2947.000000	50.107583
2946.000000	50.088467
2945.000000	50.006971
2944.000000	49.800111
2943.000000	49.407162
2942.000000	48.827091
2941.000000	48.157762
2940.000000	47.580931
2939.000000	47.292101
2938.000000	47.412792
2937.000000	47.939877
2936.000000	48.756094
2935.000000	49.695204
2934.000000	50.613709
2933.000000	51.429006
2932.000000	52.114640
2931.000000	52.679181
2930.000000	53.147979
2929.000000	53.548816
2928.000000	53.903622
2927.000000	54.225423
2926.000000	54.522562
2925.000000	54.800576
2924.000000	55.060951
2923.000000	55.301323
2922.000000	55.519599
2921.000000	55.715486
2920.000000	55.887774
2919.000000	56.034198
2918.000000	56.154542
2917.000000	56.251789
2916.000000	56.329652
2915.000000	56.391223
2914.000000	56.440450
2913.000000	56.481390
2912.000000	56.515035
2911.000000	56.539177
2910.000000	56.551320
2909.000000	56.549153
2908.000000	56.527697
2907.000000	56.478149
2906.000000	56.390177
2905.000000	56.252022
2904.000000	56.048377
2903.000000	55.763118
2902.000000	55.387821
2901.000000	54.929565
2900.000000	54.413503
2899.000000	53.883172
2898.000000	53.396355
2897.000000	53.014282
2896.000000	52.782975
2895.000000	52.720567
2894.000000	52.817686
2893.000000	53.044157
2892.000000	53.358386
2891.000000	53.717835
2890.000000	54.089660
2889.000000	54.453017
2888.000000	54.795001
2887.000000	55.107516
2886.000000	55.387455
2885.000000	55.636126
2884.000000	55.854932
2883.000000	56.044433
2882.000000	56.207077
2881.000000	56.348141
2880.000000	56.473146
2879.000000	56.586581
2878.000000	56.693253
2877.000000	56.797662
2876.000000	56.901146
2875.000000	57.001841
2874.000000	57.098516
2873.000000	57.192056
2872.000000	57.283524
2871.000000	57.374327
2870.000000	57.468921
2869.000000	57.574182
2868.000000	57.694383
2867.000000	57.828646
2866.000000	57.973528
2865.000000	58.124972
2864.000000	58.277197
2863.000000	58.423412
2862.000000	58.559531
2861.000000	58.685327
2860.000000	58.801676
2859.000000	58.909358
2858.000000	59.011342
2857.000000	59.113205
2856.000000	59.219890
2855.000000	59.333887
2854.000000	59.456323
2853.000000	59.586112
2852.000000	59.716691
2851.000000	59.836778
2850.000000	59.936795
2849.000000	60.013777
2848.000000	60.070672
2847.000000	60.113992
2846.000000	60.152842
2845.000000	60.196591
2844.000000	60.250793
2843.000000	60.315849
2842.000000	60.389837
2841.000000	60.471022
2840.000000	60.557474
2839.000000	60.647099
2838.000000	60.739321
2837.000000	60.835072
2836.000000	60.934705
2835.000000	61.037690
2834.000000	61.144335
2833.000000	61.255504
2832.000000	61.370130
2831.000000	61.484994
2830.000000	61.597487
2829.000000	61.706713
2828.000000	61.811804
2827.000000	61.911690
2826.000000	62.007083
2825.000000	62.100508
2824.000000	62.193596
2823.000000	62.285990
2822.000000	62.377130
2821.000000	62.466851
2820.000000	62.553671
2819.000000	62.634895
2818.000000	62.709351
2817.000000	62.778397
2816.000000	62.843797
2815.000000	62.906442
2814.000000	62.967538
2813.000000	63.028829
2812.000000	63.090728
2811.000000	63.151869
2810.000000	63.210975
2809.000000	63.267594
2808.000000	63.320816
2807.000000	63.369414
2806.000000	63.413968
2805.000000	63.457095
2804.000000	63.501003
2803.000000	63.546353
2802.000000	63.593524
2801.000000	63.642825
2800.000000	63.692906
2799.000000	63.740972
2798.000000	63.785349
2797.000000	63.826358
2796.000000	63.864590
2795.000000	63.900357
2794.000000	63.935172
2793.000000	63.971518
2792.000000	64.010316
2791.000000	64.050197
2790.000000	64.089609
2789.000000	64.127740
2788.000000	64.163087
2787.000000	64.193415
2786.000000	64.218190
2785.000000	64.239678
2784.000000	64.261260
2783.000000	64.286326
2782.000000	64.318699
2781.000000	64.361404
2780.000000	64.413927
2779.000000	64.472302
2778.000000	64.532603
2777.000000	64.593000
2776.000000	64.652391
2775.000000	64.709483
2774.000000	64.764267
2773.000000	64.818463
2772.000000	64.873467
2771.000000	64.929099
2770.000000	64.984657
2769.000000	65.039551
2768.000000	65.092388
2767.000000	65.141112
2766.000000	65.184828
2765.000000	65.224171
2764.000000	65.259694
2763.000000	65.291580
2762.000000	65.321039
2761.000000	65.350112
2760.000000	65.379440
2759.000000	65.407686
2758.000000	65.433505
2757.000000	65.456267
2756.000000	65.474713
2755.000000	65.487232
2754.000000	65.494455
2753.000000	65.500195
2752.000000	65.509129
2751.000000	65.524647
2750.000000	65.548700
2749.000000	65.581163
2748.000000	65.618323
2747.000000	65.653843
2746.000000	65.682685
2745.000000	65.703639
2744.000000	65.718452
2743.000000	65.730307
2742.000000	65.743138
2741.000000	65.759888
2740.000000	65.780023
2739.000000	65.799998
2738.000000	65.817128
2737.000000	65.832552
2736.000000	65.850627
2735.000000	65.877099
2734.000000	65.917679
2733.000000	65.975414
2732.000000	66.048133
2731.000000	66.129520
2730.000000	66.213138
2729.000000	66.294800
2728.000000	66.371604
2727.000000	66.441117
2726.000000	66.502411
2725.000000	66.556174
2724.000000	66.602941
2723.000000	66.642583
2722.000000	66.675593
2721.000000	66.703182
2720.000000	66.726002
2719.000000	66.744132
2718.000000	66.758837
2717.000000	66.772867
2716.000000	66.788369
2715.000000	66.806011
2714.000000	66.826339
2713.000000	66.850337
2712.000000	66.878338
2711.000000	66.909926
2710.000000	66.945148
2709.000000	66.984241
2708.000000	67.025802
2707.000000	67.066747
2706.000000	67.104481
2705.000000	67.137660
2704.000000	67.164678
2703.000000	67.183382
2702.000000	67.192962
2701.000000	67.194437
2700.000000	67.189126
2699.000000	67.177973
2698.000000	67.162659
2697.000000	67.145838
2696.000000	67.129350
2695.000000	67.113705
2694.000000	67.099522
2693.000000	67.087805
2692.000000	67.078550
2691.000000	67.070804
2690.000000	67.064678
2689.000000	67.061888
2688.000000	67.063858
2687.000000	67.070544
2686.000000	67.081461
2685.000000	67.096119
2684.000000	67.113154
2683.000000	67.130993
2682.000000	67.149873
2681.000000	67.172053
2680.000000	67.199478
2679.000000	67.232359
2678.000000	67.270021
2677.000000	67.311027
2676.000000	67.352181
2675.000000	67.389245
2674.000000	67.419349
2673.000000	67.441682
2672.000000	67.456132
2671.000000	67.463232
2670.000000	67.465945
2669.000000	67.469762
2668.000000	67.480061
2667.000000	67.500195
2666.000000	67.531689
2665.000000	67.573934
2664.000000	67.622929
2663.000000	67.672252
2662.000000	67.716315
2661.000000	67.751978
2660.000000	67.777521
2659.000000	67.792133
2658.000000	67.796958
2657.000000	67.795116
2656.000000	67.789898
2655.000000	67.783983
2654.000000	67.780605
2653.000000	67.783552
2652.000000	67.795375
2651.000000	67.816917
2650.000000	67.848683
2649.000000	67.890811
2648.000000	67.941498
2647.000000	67.996897
2646.000000	68.053082
2645.000000	68.107183
2644.000000	68.156634
2643.000000	68.199649
2642.000000	68.237154
2641.000000	68.272650
2640.000000	68.309504
2639.000000	68.349237
2638.000000	68.392272
2637.000000	68.438398
2636.000000	68.485865
2635.000000	68.531384
2634.000000	68.571940
2633.000000	68.605732
2632.000000	68.631553
2631.000000	68.649027
2630.000000	68.659672
2629.000000	68.666613
2628.000000	68.672579
2627.000000	68.678993
2626.000000	68.686919
2625.000000	68.696888
2624.000000	68.707726
2623.000000	68.717027
2622.000000	68.723248
2621.000000	68.726429
2620.000000	68.726743
2619.000000	68.723958
2618.000000	68.718273
2617.000000	68.709985
2616.000000	68.698212
2615.000000	68.681181
2614.000000	68.658232
2613.000000	68.630121
2612.000000	68.597392
2611.000000	68.560617
2610.000000	68.522597
2609.000000	68.488599
2608.000000	68.463680
2607.000000	68.450921
2606.000000	68.451874
2605.000000	68.466947
2604.000000	68.494405
2603.000000	68.530455
2602.000000	68.571547
2601.000000	68.615123
2600.000000	68.658672
2599.000000	68.699741
2598.000000	68.737275
2597.000000	68.772040
2596.000000	68.805210
2595.000000	68.837827
2594.000000	68.871509
2593.000000	68.907877
2592.000000	68.946729
2591.000000	68.985963
2590.000000	69.023345
2589.000000	69.057222
2588.000000	69.085949
2587.000000	69.108438
2586.000000	69.125761
2585.000000	69.140874
2584.000000	69.156595
2583.000000	69.175113
2582.000000	69.199114
2581.000000	69.231286
2580.000000	69.272354
2579.000000	69.321090
2578.000000	69.376195
2577.000000	69.436992
2576.000000	69.502089
2575.000000	69.569268
2574.000000	69.637158
2573.000000	69.705251
2572.000000	69.772386
2571.000000	69.836620
2570.000000	69.896774
2569.000000	69.952613
2568.000000	70.003577
2567.000000	70.048946
2566.000000	70.089648
2565.000000	70.128389
2564.000000	70.167402
2563.000000	70.207451
2562.000000	70.248720
2561.000000	70.290978
2560.000000	70.332609
2559.000000	70.371063
2558.000000	70.405094
2557.000000	70.435410
2556.000000	70.463246
2555.000000	70.489858
2554.000000	70.517532
2553.000000	70.549233
2552.000000	70.586361
2551.000000	70.627872
2550.000000	70.671770
2549.000000	70.716182
2548.000000	70.758865
2547.000000	70.797445
2546.000000	70.831002
2545.000000	70.860587
2544.000000	70.887669
2543.000000	70.913016
2542.000000	70.936934
2541.000000	70.959093
2540.000000	70.977934
2539.000000	70.990992
2538.000000	70.996438
2537.000000	70.993541
2536.000000	70.981690
2535.000000	70.960867
2534.000000	70.932771
2533.000000	70.900397
2532.000000	70.866117
2531.000000	70.830785
2530.000000	70.795025
2529.000000	70.759622
2528.000000	70.724680
2527.000000	70.689825
2526.000000	70.655449
2525.000000	70.622752
2524.000000	70.592328
2523.000000	70.563810
2522.000000	70.536731
2521.000000	70.510176
2520.000000	70.481645
2519.000000	70.447799
2518.000000	70.406702
2517.000000	70.358312
2516.000000	70.302923
2515.000000	70.241267
2514.000000	70.176343
2513.000000	70.113407
2512.000000	70.057423
2511.000000	70.011611
2510.000000	69.978123
2509.000000	69.958287
2508.000000	69.951740
2507.000000	69.956366
2506.000000	69.970345
2505.000000	69.992577
2504.000000	70.021502
2503.000000	70.055368
2502.000000	70.093196
2501.000000	70.134529
2500.000000	70.177557
2499.000000	70.219015
2498.000000	70.256157
2497.000000	70.287352
2496.000000	70.311032
2495.000000	70.326002
2494.000000	70.333310
2493.000000	70.336216
2492.000000	70.338067
2491.000000	70.341077
2490.000000	70.347058
2489.000000	70.357478
2488.000000	70.372164
2487.000000	70.389323
2486.000000	70.407211
2485.000000	70.424875
2484.000000	70.441569
2483.000000	70.457163
2482.000000	70.473119
2481.000000	70.491588
2480.000000	70.513286
2479.000000	70.537359
2478.000000	70.563314
2477.000000	70.591394
2476.000000	70.621334
2475.000000	70.652633
2474.000000	70.686203
2473.000000	70.724450
2472.000000	70.769151
2471.000000	70.820520
2470.000000	70.878155
2469.000000	70.940901
2468.000000	71.005711
2467.000000	71.068165
2466.000000	71.124821
2465.000000	71.174278
2464.000000	71.216307
2463.000000	71.251443
2462.000000	71.281614
2461.000000	71.309664
2460.000000	71.337528
2459.000000	71.365775
2458.000000	71.394191
2457.000000	71.421570
2456.000000	71.445168
2455.000000	71.461912
2454.000000	71.470939
2453.000000	71.474055
2452.000000	71.474273
2451.000000	71.475115
2450.000000	71.480721
2449.000000	71.494483
2448.000000	71.517077
2447.000000	71.546896
2446.000000	71.582280
2445.000000	71.622214
2444.000000	71.664942
2443.000000	71.708018
2442.000000	71.750033
2441.000000	71.790938
2440.000000	71.830666
2439.000000	71.868565
2438.000000	71.904276
2437.000000	71.937747
2436.000000	71.968218
2435.000000	71.994104
2434.000000	72.014190
2433.000000	72.028050
2432.000000	72.035432
2431.000000	72.036638
2430.000000	72.032810
2429.000000	72.024936
2428.000000	72.012406
2427.000000	71.993360
2426.000000	71.966655
2425.000000	71.932087
2424.000000	71.889802
2423.000000	71.841124
2422.000000	71.789996
2421.000000	71.742416
2420.000000	71.704003
2419.000000	71.678605
2418.000000	71.667940
2417.000000	71.670703
2416.000000	71.681751
2415.000000	71.694008
2414.000000	71.701599
2413.000000	71.700748
2412.000000	71.688783
2411.000000	71.664308
2410.000000	71.628277
2409.000000	71.583419
2408.000000	71.532665
2407.000000	71.478525
2406.000000	71.423602
2405.000000	71.369830
2404.000000	71.317646
2403.000000	71.267361
2402.000000	71.220955
2401.000000	71.181255
2400.000000	71.149852
2399.000000	71.127058
2398.000000	71.112624
2397.000000	71.104655
2396.000000	71.098040
2395.000000	71.086302
2394.000000	71.065044
2393.000000	71.032647
2392.000000	70.989124
2391.000000	70.936399
2390.000000	70.879321
2389.000000	70.824422
2388.000000	70.777269
2387.000000	70.742069
2386.000000	70.722628
2385.000000	70.721307
2384.000000	70.738193
2383.000000	70.771392
2382.000000	70.818722
2381.000000	70.876403
2380.000000	70.936610
2379.000000	70.990182
2378.000000	71.030090
2377.000000	71.050994
2376.000000	71.047440
2375.000000	71.017497
2374.000000	70.965518
2373.000000	70.901130
2372.000000	70.832094
2371.000000	70.763272
2370.000000	70.702768
2369.000000	70.660607
2368.000000	70.639043
2367.000000	70.634781
2366.000000	70.651522
2365.000000	70.694270
2364.000000	70.748351
2363.000000	70.809206
2362.000000	70.887943
2361.000000	70.975949
2360.000000	71.062091
2359.000000	71.123422
2358.000000	71.150083
2357.000000	71.158202
2356.000000	71.140495
2355.000000	71.105381
2354.000000	71.052940
2353.000000	70.981011
2352.000000	70.857405
2351.000000	70.665767
2350.000000	70.509188
2349.000000	70.509245
2348.000000	70.712944
2347.000000	71.023680
2346.000000	71.273253
2345.000000	71.395344
2344.000000	71.413923
2343.000000	71.434176
2342.000000	71.481517
2341.000000	71.535100
2340.000000	71.584386
2339.000000	71.621134
2338.000000	71.655189
2337.000000	71.680216
2336.000000	71.704320
2335.000000	71.725987
2334.000000	71.762252
2333.000000	71.803187
2332.000000	71.844512
2331.000000	71.832767
2330.000000	71.782715
2329.000000	71.683302
2328.000000	71.584967
2327.000000	71.514861
2326.000000	71.494855
2325.000000	71.526745
2324.000000	71.567826
2323.000000	71.598709
2322.000000	71.604134
2321.000000	71.592531
2320.000000	71.572628
2319.000000	71.536520
2318.000000	71.502447
2317.000000	71.472542
2316.000000	71.472138
2315.000000	71.478815
2314.000000	71.488764
2313.000000	71.469891
2312.000000	71.428445
2311.000000	71.352285
2310.000000	71.259226
2309.000000	71.148546
2308.000000	71.035223
2307.000000	70.913949
2306.000000	70.791954
2305.000000	70.666658
2304.000000	70.546274
2303.000000	70.425249
2302.000000	70.308704
2301.000000	70.190149
2300.000000	70.075937
2299.000000	69.960855
2298.000000	69.853286
2297.000000	69.753855
2296.000000	69.671254
2295.000000	69.604722
2294.000000	69.557508
2293.000000	69.530617
2292.000000	69.525140
2291.000000	69.539548
2290.000000	69.571600
2289.000000	69.621104
2288.000000	69.685186
2287.000000	69.760925
2286.000000	69.844275
2285.000000	69.934822
2284.000000	70.029611
2283.000000	70.125015
2282.000000	70.215844
2281.000000	70.299629
2280.000000	70.374818
2279.000000	70.441389
2278.000000	70.501519
2277.000000	70.558483
2276.000000	70.615820
2275.000000	70.674130
2274.000000	70.735307
2273.000000	70.801353
2272.000000	70.874220
2271.000000	70.954183
2270.000000	71.042585
2269.000000	71.142066
2268.000000	71.254082
2267.000000	71.376906
2266.000000	71.508227
2265.000000	71.645826
2264.000000	71.786854
2263.000000	71.926996
2262.000000	72.061715
2261.000000	72.189399
2260.000000	72.308334
2259.000000	72.418108
2258.000000	72.519190
2257.000000	72.614019
2256.000000	72.704669
2255.000000	72.790944
2254.000000	72.873201
2253.000000	72.952006
2252.000000	73.028801
2251.000000	73.103327
2250.000000	73.176304
2249.000000	73.248769
2248.000000	73.321276
2247.000000	73.392231
2246.000000	73.459824
2245.000000	73.523217
2244.000000	73.581729
2243.000000	73.634122
2242.000000	73.679567
2241.000000	73.718588
2240.000000	73.751712
2239.000000	73.778986
2238.000000	73.800826
2237.000000	73.818437
2236.000000	73.832275
2235.000000	73.841825
2234.000000	73.847639
2233.000000	73.852404
2232.000000	73.858944
2231.000000	73.868467
2230.000000	73.881337
2229.000000	73.897926
2228.000000	73.917827
2227.000000	73.939439
2226.000000	73.961463
2225.000000	73.983324
2224.000000	74.003766
2223.000000	74.020429
2222.000000	74.032067
2221.000000	74.039691
2220.000000	74.045006
2219.000000	74.049231
2218.000000	74.054386
2217.000000	74.063898
2216.000000	74.080444
2215.000000	74.104229
2214.000000	74.134167
2213.000000	74.169182
2212.000000	74.207446
2211.000000	74.245905
2210.000000	74.282075
2209.000000	74.315334
2208.000000	74.345758
2207.000000	74.372953
2206.000000	74.396848
2205.000000	74.418207
2204.000000	74.436981
2203.000000	74.451365
2202.000000	74.459451
2201.000000	74.460939
2200.000000	74.456461
2199.000000	74.446722
2198.000000	74.433563
2197.000000	74.420652
2196.000000	74.412020
2195.000000	74.410433
2194.000000	74.417748
2193.000000	74.435125
2192.000000	74.461695
2191.000000	74.494277
2190.000000	74.529538
2189.000000	74.565884
2188.000000	74.602823
2187.000000	74.640030
2186.000000	74.677928
2185.000000	74.717858
2184.000000	74.760398
2183.000000	74.804105
2182.000000	74.846578
2181.000000	74.885664
2180.000000	74.919381
2179.000000	74.946137
2178.000000	74.966113
2177.000000	74.981448
2176.000000	74.994178
2175.000000	75.004983
2174.000000	75.014259
2173.000000	75.022877
2172.000000	75.030725
2171.000000	75.035781
2170.000000	75.035774
2169.000000	75.030037
2168.000000	75.019349
2167.000000	75.005264
2166.000000	74.990466
2165.000000	74.978304
2164.000000	74.970762
2163.000000	74.967789
2162.000000	74.969066
2161.000000	74.974948
2160.000000	74.984834
2159.000000	74.996314
2158.000000	75.007326
2157.000000	75.018083
2156.000000	75.029997
2155.000000	75.043958
2154.000000	75.060673
2153.000000	75.081149
2152.000000	75.105421
2151.000000	75.131571
2150.000000	75.157024
2149.000000	75.180053
2148.000000	75.199348
2147.000000	75.213551
2146.000000	75.222453
2145.000000	75.227892
2144.000000	75.232445
2143.000000	75.237917
2142.000000	75.245486
2141.000000	75.255865
2140.000000	75.268230
2139.000000	75.279934
2138.000000	75.288290
2137.000000	75.291956
2136.000000	75.290326
2135.000000	75.282990
2134.000000	75.270820
2133.000000	75.256325
2132.000000	75.241798
2131.000000	75.227760
2130.000000	75.213809
2129.000000	75.199716
2128.000000	75.184912
2127.000000	75.168194
2126.000000	75.149180
2125.000000	75.129502
2124.000000	75.111857
2123.000000	75.099070
2122.000000	75.094440
2121.000000	75.101235
2120.000000	75.120488
2119.000000	75.149964
2118.000000	75.185780
2117.000000	75.224043
2116.000000	75.260726
2115.000000	75.291800
2114.000000	75.315046
2113.000000	75.330996
2112.000000	75.341565
2111.000000	75.348732
2110.000000	75.354754
2109.000000	75.361905
2108.000000	75.370711
2107.000000	75.379376
2106.000000	75.385944
2105.000000	75.390267
2104.000000	75.393299
2103.000000	75.395684
2102.000000	75.397592
2101.000000	75.398781
2100.000000	75.397701
2099.000000	75.391535
2098.000000	75.377940
2097.000000	75.356310
2096.000000	75.327368
2095.000000	75.293034
2094.000000	75.257406
2093.000000	75.226558
2092.000000	75.206477
2091.000000	75.201573
2090.000000	75.214611
2089.000000	75.245851
2088.000000	75.291310
2087.000000	75.343669
2086.000000	75.395722
2085.000000	75.442178
2084.000000	75.479071
2083.000000	75.503658
2082.000000	75.515870
2081.000000	75.518483
2080.000000	75.514670
2079.000000	75.506089
2078.000000	75.493560
2077.000000	75.477466
2076.000000	75.456628
2075.000000	75.428447
2074.000000	75.391220
2073.000000	75.345311
2072.000000	75.291709
2071.000000	75.231248
2070.000000	75.165737
2069.000000	75.097903
2068.000000	75.029162
2067.000000	74.959184
2066.000000	74.888032
2065.000000	74.816719
2064.000000	74.744736
2063.000000	74.669342
2062.000000	74.589026
2061.000000	74.505562
2060.000000	74.421605
2059.000000	74.338361
2058.000000	74.256827
2057.000000	74.178962
2056.000000	74.105995
2055.000000	74.037395
2054.000000	73.973035
2053.000000	73.914407
2052.000000	73.862610
2051.000000	73.817444
2050.000000	73.779170
2049.000000	73.749321
2048.000000	73.728539
2047.000000	73.715325
2046.000000	73.707942
2045.000000	73.705525
2044.000000	73.706926
2043.000000	73.710968
2042.000000	73.718619
2041.000000	73.732910
2040.000000	73.755454
2039.000000	73.785544
2038.000000	73.823315
2037.000000	73.870592
2036.000000	73.927846
2035.000000	73.992576
2034.000000	74.062025
2033.000000	74.135314
2032.000000	74.211565
2031.000000	74.288613
2030.000000	74.364890
2029.000000	74.440502
2028.000000	74.515528
2027.000000	74.588910
2026.000000	74.659891
2025.000000	74.728861
2024.000000	74.795610
2023.000000	74.858925
2022.000000	74.918323
2021.000000	74.975055
2020.000000	75.030716
2019.000000	75.086906
2018.000000	75.146644
2017.000000	75.213395
2016.000000	75.286978
2015.000000	75.362675
2014.000000	75.435955
2013.000000	75.506279
2012.000000	75.575461
2011.000000	75.644709
2010.000000	75.714702
2009.000000	75.786532
2008.000000	75.860579
2007.000000	75.935480
2006.000000	76.009529
2005.000000	76.082022
2004.000000	76.152088
2003.000000	76.217998
2002.000000	76.278604
2001.000000	76.334863
2000.000000	76.388393
1999.000000	76.440033
1998.000000	76.490884
1997.000000	76.541878
1996.000000	76.592220
1995.000000	76.639568
1994.000000	76.683567
1993.000000	76.727782
1992.000000	76.776658
1991.000000	76.831063
1990.000000	76.889183
1989.000000	76.950785
1988.000000	77.017437
1987.000000	77.088807
1986.000000	77.161618
1985.000000	77.232459
1984.000000	77.299821
1983.000000	77.363469
1982.000000	77.423444
1981.000000	77.480455
1980.000000	77.536021
1979.000000	77.591855
1978.000000	77.649776
1977.000000	77.711011
1976.000000	77.775816
1975.000000	77.842689
1974.000000	77.908800
1973.000000	77.971008
1972.000000	78.026680
1971.000000	78.074011
1970.000000	78.112763
1969.000000	78.145543
1968.000000	78.177411
1967.000000	78.212285
1966.000000	78.248953
1965.000000	78.281375
1964.000000	78.303730
1963.000000	78.313699
1962.000000	78.311355
1961.000000	78.297678
1960.000000	78.274586
1959.000000	78.246148
1958.000000	78.218358
1957.000000	78.197014
1956.000000	78.185819
1955.000000	78.185642
1954.000000	78.194771
1953.000000	78.209711
1952.000000	78.226911
1951.000000	78.244058
1950.000000	78.260140
1949.000000	78.275673
1948.000000	78.291318
1947.000000	78.306545
1946.000000	78.319558
1945.000000	78.328874
1944.000000	78.335639
1943.000000	78.343951
1942.000000	78.356876
1941.000000	78.371891
1940.000000	78.383198
1939.000000	78.388168
1938.000000	78.388581
1937.000000	78.387448
1936.000000	78.386391
1935.000000	78.385409
1934.000000	78.383916
1933.000000	78.380871
1932.000000	78.374718
1931.000000	78.364321
1930.000000	78.350434
1929.000000	78.336593
1928.000000	78.325893
1927.000000	78.319243
1926.000000	78.316095
1925.000000	78.316858
1924.000000	78.325171
1923.000000	78.343765
1922.000000	78.370133
1921.000000	78.395391
1920.000000	78.410991
1919.000000	78.415758
1918.000000	78.416259
1917.000000	78.418809
1916.000000	78.422559
1915.000000	78.423254
1914.000000	78.419107
1913.000000	78.410257
1912.000000	78.397286
1911.000000	78.381479
1910.000000	78.366656
1909.000000	78.357535
1908.000000	78.354607
1907.000000	78.355531
1906.000000	78.360111
1905.000000	78.370834
1904.000000	78.389937
1903.000000	78.416384
1902.000000	78.449814
1901.000000	78.490914
1900.000000	78.537375
1899.000000	78.584704
1898.000000	78.630613
1897.000000	78.676232
1896.000000	78.723736
1895.000000	78.772672
1894.000000	78.820329
1893.000000	78.863221
1892.000000	78.899046
1891.000000	78.929226
1890.000000	78.959837
1889.000000	78.995858
1888.000000	79.033910
1887.000000	79.067171
1886.000000	79.095336
1885.000000	79.123307
1884.000000	79.153695
1883.000000	79.184840
1882.000000	79.215599
1881.000000	79.248104
1880.000000	79.283817
1879.000000	79.321911
1878.000000	79.361447
1877.000000	79.402112
1876.000000	79.443233
1875.000000	79.482562
1874.000000	79.517755
1873.000000	79.548737
1872.000000	79.576420
1871.000000	79.601660
1870.000000	79.628495
1869.000000	79.664607
1868.000000	79.711969
1867.000000	79.761901
1866.000000	79.806237
1865.000000	79.845009
1864.000000	79.880991
1863.000000	79.915479
1862.000000	79.949873
1861.000000	79.986176
1860.000000	80.024528
1859.000000	80.062997
1858.000000	80.100700
1857.000000	80.138535
1856.000000	80.176511
1855.000000	80.213012
1854.000000	80.247428
1853.000000	80.280879
1852.000000	80.312217
1851.000000	80.338947
1850.000000	80.362066
1849.000000	80.385163
1848.000000	80.412375
1847.000000	80.444040
1846.000000	80.477235
1845.000000	80.510265
1844.000000	80.544982
1843.000000	80.581184
1842.000000	80.618190
1841.000000	80.658010
1840.000000	80.697328
1839.000000	80.730812
1838.000000	80.759201
1837.000000	80.786619
1836.000000	80.814699
1835.000000	80.841101
1834.000000	80.865295
1833.000000	80.889660
1832.000000	80.916504
1831.000000	80.948426
1830.000000	80.987333
1829.000000	81.027324
1828.000000	81.058670
1827.000000	81.080704
1826.000000	81.102348
1825.000000	81.132778
1824.000000	81.174522
1823.000000	81.221058
1822.000000	81.264253
1821.000000	81.300033
1820.000000	81.328192
1819.000000	81.351666
1818.000000	81.374079
1817.000000	81.398809
1816.000000	81.425835
1815.000000	81.448619
1814.000000	81.461642
1813.000000	81.466574
1812.000000	81.470176
1811.000000	81.475203
1810.000000	81.476593
1809.000000	81.472371
1808.000000	81.467131
1807.000000	81.463446
1806.000000	81.457175
1805.000000	81.443148
1804.000000	81.422254
1803.000000	81.402302
1802.000000	81.395709
1801.000000	81.410405
1800.000000	81.440001
1799.000000	81.467931
1798.000000	81.483764
1797.000000	81.494303
1796.000000	81.510502
1795.000000	81.531767
1794.000000	81.547262
1793.000000	81.550967
1792.000000	81.550846
1791.000000	81.557063
1790.000000	81.570363
1789.000000	81.587799
1788.000000	81.603178
1787.000000	81.609313
1786.000000	81.607593
1785.000000	81.608430
1784.000000	81.617733
1783.000000	81.629447
1782.000000	81.636978
1781.000000	81.640853
1780.000000	81.647022
1779.000000	81.659462
1778.000000	81.675725
1777.000000	81.697683
1776.000000	81.730880
1775.000000	81.779260
1774.000000	81.839179
1773.000000	81.899291
1772.000000	81.945871
1771.000000	81.967215
1770.000000	81.966149
1769.000000	81.964876
1768.000000	81.987359
1767.000000	82.036884
1766.000000	82.095931
1765.000000	82.145831
1764.000000	82.179359
1763.000000	82.198834
1762.000000	82.210421
1761.000000	82.215477
1760.000000	82.213998
1759.000000	82.212259
1758.000000	82.217405
1757.000000	82.235720
1756.000000	82.267688
1755.000000	82.304195
1754.000000	82.330901
1753.000000	82.337976
1752.000000	82.332836
1751.000000	82.340223
1750.000000	82.372801
1749.000000	82.421237
1748.000000	82.472831
1747.000000	82.518959
1746.000000	82.556313
1745.000000	82.586650
1744.000000	82.620920
1743.000000	82.668271
1742.000000	82.719802
1741.000000	82.756199
1740.000000	82.768435
1739.000000	82.764014
1738.000000	82.754689
1737.000000	82.746842
1736.000000	82.734891
1735.000000	82.719684
1734.000000	82.719467
1733.000000	82.727897
1732.000000	82.727004
1731.000000	82.726740
1730.000000	82.729865
1729.000000	82.726175
1728.000000	82.713253
1727.000000	82.695447
1726.000000	82.679361
1725.000000	82.668269
1724.000000	82.667593
1723.000000	82.678954
1722.000000	82.693893
1721.000000	82.702473
1720.000000	82.698114
1719.000000	82.682345
1718.000000	82.668819
1717.000000	82.669650
1716.000000	82.677852
1715.000000	82.686706
1714.000000	82.702581
1713.000000	82.727895
1712.000000	82.757822
1711.000000	82.785991
1710.000000	82.809365
1709.000000	82.828217
1708.000000	82.843782
1707.000000	82.859488
1706.000000	82.879566
1705.000000	82.906025
1704.000000	82.934536
1703.000000	82.963580
1702.000000	82.993312
1701.000000	83.028873
1700.000000	83.072085
1699.000000	83.102173
1698.000000	83.125431
1697.000000	83.158656
1696.000000	83.192449
1695.000000	83.212510
1694.000000	83.212018
1693.000000	83.213478
1692.000000	83.230285
1691.000000	83.246816
1690.000000	83.256182
1689.000000	83.260515
1688.000000	83.261367
1687.000000	83.260909
1686.000000	83.253238
1685.000000	83.234446
1684.000000	83.216034
1683.000000	83.190840
1682.000000	83.149641
1681.000000	83.113760
1680.000000	83.089695
1679.000000	83.066116
1678.000000	83.033920
1677.000000	82.975382
1676.000000	82.887425
1675.000000	82.796411
1674.000000	82.725050
1673.000000	82.667931
1672.000000	82.616115
1671.000000	82.566601
1670.000000	82.516497
1669.000000	82.450071
1668.000000	82.352375
1667.000000	82.244448
1666.000000	82.149498
1665.000000	82.054776
1664.000000	81.941559
1663.000000	81.819127
1662.000000	81.702457
1661.000000	81.577647
1660.000000	81.428939
1659.000000	81.267742
1658.000000	81.104831
1657.000000	80.931308
1656.000000	80.730065
1655.000000	80.486224
1654.000000	80.173713
1653.000000	79.769218
1652.000000	79.282205
1651.000000	78.777825
1650.000000	78.300875
1649.000000	77.720526
1648.000000	76.816702
1647.000000	75.476821
1646.000000	73.748180
1645.000000	71.743753
1644.000000	69.505253
1643.000000	66.977546
1642.000000	64.089727
1641.000000	60.893371
1640.000000	57.637207
1639.000000	54.620095
1638.000000	52.005650
1637.000000	49.873046
1636.000000	48.438652
1635.000000	47.968354
1634.000000	48.390744
1633.000000	49.418964
1632.000000	50.850517
1631.000000	52.558644
1630.000000	54.453681
1629.000000	56.466357
1628.000000	58.511250
1627.000000	60.451520
1626.000000	62.200420
1625.000000	63.821524
1624.000000	65.430375
1623.000000	67.004550
1622.000000	68.388103
1621.000000	69.513443
1620.000000	70.463680
1619.000000	71.342306
1618.000000	72.201541
1617.000000	73.047711
1616.000000	73.812903
1615.000000	74.393483
1614.000000	74.785404
1613.000000	75.076972
1612.000000	75.338943
1611.000000	75.571291
1610.000000	75.728468
1609.000000	75.791675
1608.000000	75.766702
1607.000000	75.624827
1606.000000	75.308904
1605.000000	74.783987
1604.000000	74.047183
1603.000000	73.089943
1602.000000	71.907291
1601.000000	70.556779
1600.000000	69.159574
1599.000000	67.839495
1598.000000	66.673770
1597.000000	65.698900
1596.000000	64.924587
1595.000000	64.314313
1594.000000	63.780563
1593.000000	63.242314
1592.000000	62.675411
1591.000000	62.084496
1590.000000	61.461389
1589.000000	60.796480
1588.000000	60.098391
1587.000000	59.364886
1586.000000	58.560556
1585.000000	57.658002
1584.000000	56.676631
1583.000000	55.650877
1582.000000	54.583237
1581.000000	53.471750
1580.000000	52.344495
1579.000000	51.187263
1578.000000	49.849403
1577.000000	48.105319
1576.000000	45.977308
1575.000000	43.861101
1574.000000	42.063920
1573.000000	40.532405
1572.000000	39.111952
1571.000000	37.760407
1570.000000	36.562536
1569.000000	35.637772
1568.000000	35.056214
1567.000000	34.833812
1566.000000	34.918921
1565.000000	35.205869
1564.000000	35.627194
1563.000000	36.174052
1562.000000	36.865782
1561.000000	37.746710
1560.000000	39.014647
1559.000000	40.814680
1558.000000	42.681334
1557.000000	44.085425
1556.000000	45.146146
1555.000000	46.148705
1554.000000	47.145576
1553.000000	48.036941
1552.000000	48.780876
1551.000000	49.493094
1550.000000	50.293858
1549.000000	51.191696
1548.000000	52.139801
1547.000000	53.158908
1546.000000	54.304722
1545.000000	55.556779
1544.000000	56.822220
1543.000000	58.046231
1542.000000	59.253005
1541.000000	60.479518
1540.000000	61.696705
1539.000000	62.781795
1538.000000	63.642858
1537.000000	64.341276
1536.000000	64.998746
1535.000000	65.711173
1534.000000	66.520378
1533.000000	67.344000
1532.000000	68.064873
1531.000000	68.679868
1530.000000	69.246291
1529.000000	69.784972
1528.000000	70.303236
1527.000000	70.828677
1526.000000	71.365940
1525.000000	71.867298
1524.000000	72.300908
1523.000000	72.693370
1522.000000	73.072803
1521.000000	73.413153
1520.000000	73.681800
1519.000000	73.915238
1518.000000	74.165047
1517.000000	74.432201
1516.000000	74.702101
1515.000000	74.969293
1514.000000	75.226600
1513.000000	75.455192
1512.000000	75.646833
1511.000000	75.818740
1510.000000	75.985520
1509.000000	76.151869
1508.000000	76.354978
1507.000000	76.664542
1506.000000	77.026039
1505.000000	77.277424
1504.000000	77.434608
1503.000000	77.604847
1502.000000	77.790041
1501.000000	77.953172
1500.000000	78.082961
1499.000000	78.203444
1498.000000	78.329535
1497.000000	78.450346
1496.000000	78.569420
1495.000000	78.703917
1494.000000	78.842876
1493.000000	78.949998
1492.000000	79.011447
1491.000000	79.054881
1490.000000	79.102903
1489.000000	79.141248
1488.000000	79.161264
1487.000000	79.175445
1486.000000	79.171634
1485.000000	79.114362
1484.000000	78.987179
1483.000000	78.787160
1482.000000	78.479299
1481.000000	78.016755
1480.000000	77.392045
1479.000000	76.590334
1478.000000	75.521252
1477.000000	74.098856
1476.000000	72.370339
1475.000000	70.445019
1474.000000	68.336414
1473.000000	66.072254
1472.000000	63.926265
1471.000000	62.231127
1470.000000	61.054685
1469.000000	60.294910
1468.000000	59.901921
1467.000000	59.921465
1466.000000	60.431483
1465.000000	61.411402
1464.000000	62.636173
1463.000000	63.780109
1462.000000	64.627112
1461.000000	65.108192
1460.000000	65.203660
1459.000000	64.883184
1458.000000	64.112331
1457.000000	63.029811
1456.000000	62.021036
1455.000000	61.362066
1454.000000	61.025370
1453.000000	60.874577
1452.000000	60.821859
1451.000000	60.840534
1450.000000	60.939134
1449.000000	61.152450
1448.000000	61.506672
1447.000000	61.970239
1446.000000	62.486997
1445.000000	63.043374
1444.000000	63.670827
1443.000000	64.404569
1442.000000	65.262291
1441.000000	66.240894
1440.000000	67.316480
1439.000000	68.476004
1438.000000	69.746025
1437.000000	71.119607
1436.000000	72.429843
1435.000000	73.480198
1434.000000	74.274384
1433.000000	74.929701
1432.000000	75.508135
1431.000000	76.011107
1430.000000	76.436534
1429.000000	76.794832
1428.000000	77.084285
1427.000000	77.305821
1426.000000	77.493910
1425.000000	77.692129
1424.000000	77.912928
1423.000000	78.136409
1422.000000	78.345146
1421.000000	78.537996
1420.000000	78.712143
1419.000000	78.865033
1418.000000	79.006490
1417.000000	79.148848
1416.000000	79.292493
1415.000000	79.432739
1414.000000	79.577509
1413.000000	79.739350
1412.000000	79.913794
1411.000000	80.084254
1410.000000	80.240830
1409.000000	80.376878
1408.000000	80.477438
1407.000000	80.534469
1406.000000	80.570649
1405.000000	80.617457
1404.000000	80.674282
1403.000000	80.711917
1402.000000	80.697409
1401.000000	80.587445
1400.000000	80.328128
1399.000000	79.922073
1398.000000	79.476225
1397.000000	79.134699
1396.000000	78.987026
1395.000000	79.038714
1394.000000	79.219036
1393.000000	79.433015
1392.000000	79.638729
1391.000000	79.857369
1390.000000	80.126267
1389.000000	80.462144
1388.000000	80.847459
1387.000000	81.234325
1386.000000	81.570087
1385.000000	81.824277
1384.000000	81.993156
1383.000000	82.094979
1382.000000	82.162873
1381.000000	82.220797
1380.000000	82.261033
1379.000000	82.252300
1378.000000	82.158086
1377.000000	81.925042
1376.000000	81.440373
1375.000000	80.509612
1374.000000	78.888880
1373.000000	76.384382
1372.000000	72.997422
1371.000000	69.057059
1370.000000	65.271925
1369.000000	62.566546
1368.000000	61.606898
1367.000000	62.327916
1366.000000	64.006427
1365.000000	65.764713
1364.000000	66.938965
1363.000000	67.206639
1362.000000	66.660958
1361.000000	65.813419
1360.000000	65.374889
1359.000000	65.901876
1358.000000	67.523477
1357.000000	69.893033
1356.000000	72.428776
1355.000000	74.657601
1354.000000	76.395019
1353.000000	77.688804
1352.000000	78.662998
1351.000000	79.422350
1350.000000	80.037572
1349.000000	80.545875
1348.000000	80.956319
1347.000000	81.275071
1346.000000	81.521349
1345.000000	81.715065
1344.000000	81.865667
1343.000000	81.980697
1342.000000	82.078920
1341.000000	82.183972
1340.000000	82.308926
1339.000000	82.452601
1338.000000	82.602417
1337.000000	82.737351
1336.000000	82.832485
1335.000000	82.866907
1334.000000	82.824788
1333.000000	82.675490
1332.000000	82.360091
1331.000000	81.806707
1330.000000	80.961237
1329.000000	79.807131
1328.000000	78.344296
1327.000000	76.557474
1326.000000	74.435532
1325.000000	72.074539
1324.000000	69.793372
1323.000000	68.072375
1322.000000	67.264895
1321.000000	67.344803
1320.000000	67.959952
1319.000000	68.719210
1318.000000	69.427108
1317.000000	70.076820
1316.000000	70.709350
1315.000000	71.343570
1314.000000	71.999725
1313.000000	72.728590
1312.000000	73.586500
1311.000000	74.584871
1310.000000	75.665515
1309.000000	76.717010
1308.000000	77.617464
1307.000000	78.279703
1306.000000	78.672036
1305.000000	78.792752
1304.000000	78.640210
1303.000000	78.208145
1302.000000	77.497613
1301.000000	76.542237
1300.000000	75.440342
1299.000000	74.372674
1298.000000	73.547683
1297.000000	73.086705
1296.000000	72.948981
1295.000000	72.957047
1294.000000	72.887181
1293.000000	72.548797
1292.000000	71.823736
1291.000000	70.672987
1290.000000	69.108227
1289.000000	67.173820
1288.000000	64.996464
1287.000000	62.859977
1286.000000	61.166450
1285.000000	60.253234
1284.000000	60.222170
1283.000000	60.933758
1282.000000	62.161462
1281.000000	63.727135
1280.000000	65.497014
1279.000000	67.286911
1278.000000	68.836871
1277.000000	69.917180
1276.000000	70.445782
1275.000000	70.507266
1274.000000	70.293525
1273.000000	70.043648
1272.000000	70.003552
1271.000000	70.372722
1270.000000	71.227754
1269.000000	72.483087
1268.000000	73.938192
1267.000000	75.381816
1266.000000	76.674361
1265.000000	77.764284
1264.000000	78.656910
1263.000000	79.381120
1262.000000	79.971866
1261.000000	80.460913
1260.000000	80.869591
1259.000000	81.210419
1258.000000	81.499360
1257.000000	81.752042
1256.000000	81.976047
1255.000000	82.174539
1254.000000	82.352696
1253.000000	82.516366
1252.000000	82.665021
1251.000000	82.796003
1250.000000	82.912807
1249.000000	83.021194
1248.000000	83.121885
1247.000000	83.214107
1246.000000	83.302774
1245.000000	83.393672
1244.000000	83.483850
1243.000000	83.565122
1242.000000	83.633225
1241.000000	83.686027
1240.000000	83.717388
1239.000000	83.721169
1238.000000	83.700126
1237.000000	83.662084
1236.000000	83.610459
1235.000000	83.545930
1234.000000	83.471242
1233.000000	83.387262
1232.000000	83.286550
1231.000000	83.158103
1230.000000	82.996411
1229.000000	82.796801
1228.000000	82.548820
1227.000000	82.239894
1226.000000	81.858870
1225.000000	81.391919
1224.000000	80.810831
1223.000000	80.077975
1222.000000	79.156707
1221.000000	78.010508
1220.000000	76.614811
1219.000000	74.971322
1218.000000	73.119125
1217.000000	71.129580
1216.000000	69.098168
1215.000000	67.144866
1214.000000	65.407594
1213.000000	64.022300
1212.000000	63.095531
1211.000000	62.678626
1210.000000	62.728725
1209.000000	63.112595
1208.000000	63.650480
1207.000000	64.163422
1206.000000	64.510631
1205.000000	64.601228
1204.000000	64.394664
1203.000000	63.896218
1202.000000	63.158030
1201.000000	62.287655
1200.000000	61.454327
1199.000000	60.861920
1198.000000	60.682130
1197.000000	60.985972
1196.000000	61.736009
1195.000000	62.821065
1194.000000	64.109505
1193.000000	65.494716
1192.000000	66.903345
1191.000000	68.290306
1190.000000	69.622921
1189.000000	70.875093
1188.000000	72.026549
1187.000000	73.064558
1186.000000	73.985074
1185.000000	74.795062
1184.000000	75.508543
1183.000000	76.134350
1182.000000	76.675170
1181.000000	77.128469
1180.000000	77.495374
1179.000000	77.788044
1178.000000	78.021453
1177.000000	78.204210
1176.000000	78.332639
1175.000000	78.398575
1174.000000	78.397744
1173.000000	78.319696
1172.000000	78.141947
1171.000000	77.827852
1170.000000	77.329697
1169.000000	76.596612
1168.000000	75.583514
1167.000000	74.287728
1166.000000	72.781410
1165.000000	71.219770
1164.000000	69.815634
1163.000000	68.786767
1162.000000	68.280185
1161.000000	68.322780
1160.000000	68.829919
1159.000000	69.642996
1158.000000	70.591647
1157.000000	71.533335
1156.000000	72.373495
1155.000000	73.067031
1154.000000	73.604368
1153.000000	73.994799
1152.000000	74.251214
1151.000000	74.382929
1150.000000	74.387248
1149.000000	74.252146
1148.000000	73.948895
1147.000000	73.437015
1146.000000	72.672027
1145.000000	71.594078
1144.000000	70.138510
1143.000000	68.241038
1142.000000	65.866807
1141.000000	63.055419
1140.000000	59.947040
1139.000000	56.773399
1138.000000	53.765435
1137.000000	51.044771
1136.000000	48.584971
1135.000000	46.280229
1134.000000	44.070064
1133.000000	42.074138
1132.000000	40.638166
1131.000000	40.192217
1130.000000	41.041982
1129.000000	43.175057
1128.000000	46.253170
1127.000000	49.735279
1126.000000	53.038242
1125.000000	55.682478
1124.000000	57.351004
1123.000000	57.887359
1122.000000	57.268814
1121.000000	55.603893
1120.000000	53.072808
1119.000000	49.917981
1118.000000	46.487583
1117.000000	43.308900
1116.000000	41.055648
1115.000000	40.323447
1114.000000	41.317005
1113.000000	43.714140
1112.000000	46.816583
1111.000000	49.811063
1110.000000	52.068095
1109.000000	53.363337
1108.000000	53.931142
1107.000000	54.286803
1106.000000	54.896565
1105.000000	55.924347
1104.000000	57.204417
1103.000000	58.383690
1102.000000	59.058397
1101.000000	58.912669
1100.000000	57.857489
1099.000000	56.166730
1098.000000	54.469215
1097.000000	53.524797
1096.000000	53.864822
1095.000000	55.533126
1094.000000	58.099824
1093.000000	60.935219
1092.000000	63.542914
1091.000000	65.696966
1090.000000	67.394245
1089.000000	68.730536
1088.000000	69.811927
1087.000000	70.720132
1086.000000	71.510468
1085.000000	72.210357
1084.000000	72.818927
1083.000000	73.329584
1082.000000	73.738287
1081.000000	74.049891
1080.000000	74.275775
1079.000000	74.428182
1078.000000	74.519567
1077.000000	74.547633
1076.000000	74.487719
1075.000000	74.297829
1074.000000	73.915893
1073.000000	73.269282
1072.000000	72.258170
1071.000000	70.748707
1070.000000	68.576596
1069.000000	65.520962
1068.000000	61.375165
1067.000000	56.075577
1066.000000	49.899847
1065.000000	43.571797
1064.000000	38.103535
1063.000000	34.334858
1062.000000	32.416545
1061.000000	31.668625
1060.000000	30.998661
1059.000000	29.642762
1058.000000	27.637015
1057.000000	25.786422
1056.000000	25.155008
1055.000000	26.392411
1054.000000	29.428731
1053.000000	33.622423
1052.000000	38.195043
1051.000000	42.577744
1050.000000	46.479956
1049.000000	49.838113
1048.000000	52.713116
1047.000000	55.208700
1046.000000	57.400076
1045.000000	59.327654
1044.000000	61.005637
1043.000000	62.449540
1042.000000	63.680500
1041.000000	64.712856
1040.000000	65.567632
1039.000000	66.271121
1038.000000	66.851957
1037.000000	67.335269
1036.000000	67.739265
1035.000000	68.084671
1034.000000	68.387313
1033.000000	68.651774
1032.000000	68.876454
1031.000000	69.061194
1030.000000	69.211065
1029.000000	69.329919
1028.000000	69.419434
1027.000000	69.483754
1026.000000	69.525388
1025.000000	69.539867
1024.000000	69.514560
1023.000000	69.433427
1022.000000	69.281343
1021.000000	69.036754
1020.000000	68.674163
1019.000000	68.166562
1018.000000	67.480786
1017.000000	66.579692
1016.000000	65.423066
1015.000000	63.996221
1014.000000	62.339094
1013.000000	60.568894
1012.000000	58.878643
1011.000000	57.479179
1010.000000	56.489969
1009.000000	55.849821
1008.000000	55.352792
1007.000000	54.807270
1006.000000	54.235358
1005.000000	53.924320
1004.000000	54.261481
1003.000000	55.459385
1002.000000	57.375475
1001.000000	59.599750
1000.000000	61.683065
999.000000	63.317626
998.000000	64.376415
997.000000	64.866809
996.000000	64.889552
995.000000	64.624660
994.000000	64.317400
993.000000	64.228360
992.000000	64.560645
991.000000	65.380501
990.000000	66.586781
989.000000	67.968163
988.000000	69.320952
987.000000	70.524318
986.000000	71.546815
985.000000	72.408222
984.000000	73.145833
983.000000	73.796908
982.000000	74.390102
981.000000	74.938192
980.000000	75.440400
979.000000	75.895576
978.000000	76.301802
977.000000	76.655340
976.000000	76.953925
975.000000	77.204712
974.000000	77.426044
973.000000	77.636387
972.000000	77.848612
971.000000	78.071018
970.000000	78.305716
969.000000	78.544783
968.000000	78.772122
967.000000	78.974258
966.000000	79.147074
965.000000	79.292891
964.000000	79.418494
963.000000	79.537293
962.000000	79.666774
961.000000	79.818372
960.000000	79.991453
959.000000	80.178071
958.000000	80.367388
957.000000	80.545327
956.000000	80.697882
955.000000	80.820981
954.000000	80.924352
953.000000	81.023297
952.000000	81.130258
951.000000	81.255000
950.000000	81.404234
949.000000	81.575102
948.000000	81.752425
947.000000	81.917342
946.000000	82.057437
945.000000	82.167446
944.000000	82.248342
943.000000	82.311147
942.000000	82.376255
941.000000	82.461837
940.000000	82.573697
939.000000	82.707398
938.000000	82.853251
937.000000	82.995329
936.000000	83.113275
935.000000	83.193732
934.000000	83.240082
933.000000	83.268366
932.000000	83.297382
931.000000	83.345279
930.000000	83.426685
929.000000	83.543623
928.000000	83.680556
927.000000	83.813604
926.000000	83.923670
925.000000	83.999257
924.000000	84.035829
923.000000	84.041166
922.000000	84.037739
921.000000	84.051592
920.000000	84.098728
919.000000	84.182396
918.000000	84.295786
917.000000	84.419907
916.000000	84.525457
915.000000	84.587018
914.000000	84.597810
913.000000	84.568400
912.000000	84.515236
911.000000	84.456630
910.000000	84.408393
909.000000	84.367263
908.000000	84.298628
907.000000	84.140223
906.000000	83.823579
905.000000	83.288186
904.000000	82.500827
903.000000	81.499134
902.000000	80.433423
901.000000	79.549478
900.000000	79.093834
899.000000	79.190651
898.000000	79.773388
897.000000	80.634580
896.000000	81.539075
895.000000	82.322347
894.000000	82.922847
893.000000	83.349243
892.000000	83.643599
891.000000	83.859615
890.000000	84.050488
889.000000	84.249410
888.000000	84.460237
887.000000	84.655073
886.000000	84.777781
885.000000	84.752943
884.000000	84.514180
883.000000	84.058105
882.000000	83.467756
881.000000	82.868972
880.000000	82.347520
879.000000	81.909039
878.000000	81.524136
877.000000	81.209583
876.000000	81.060971
875.000000	81.187366
874.000000	81.611943
873.000000	82.231555
872.000000	82.881203
871.000000	83.438201
870.000000	83.872522
869.000000	84.221778
868.000000	84.535995
867.000000	84.845531
866.000000	85.151760
865.000000	85.431352
864.000000	85.647867
863.000000	85.775210
862.000000	85.813920
861.000000	85.788822
860.000000	85.738977
859.000000	85.709029
858.000000	85.737766
857.000000	85.840139
856.000000	85.998527
855.000000	86.174124
854.000000	86.323854
853.000000	86.411118
852.000000	86.415683
851.000000	86.346446
850.000000	86.242521
849.000000	86.154730
848.000000	86.124021
847.000000	86.171766
846.000000	86.295891
845.000000	86.466755
844.000000	86.632746
843.000000	86.742619
842.000000	86.768832
841.000000	86.713558
840.000000	86.603323
839.000000	86.484008
838.000000	86.409264
837.000000	86.417376
836.000000	86.513415
835.000000	86.671133
834.000000	86.845636
833.000000	86.985282
832.000000	87.046038
831.000000	87.011289
830.000000	86.902598
829.000000	86.769021
828.000000	86.665725
827.000000	86.638183
826.000000	86.709408
825.000000	86.866508
824.000000	87.059993
823.000000	87.225719
822.000000	87.312935
821.000000	87.297581
820.000000	87.185556
819.000000	87.015204
818.000000	86.848121
817.000000	86.742287
816.000000	86.726088
815.000000	86.791370
814.000000	86.899506
813.000000	86.989497
812.000000	86.994083
811.000000	86.865292
810.000000	86.594492
809.000000	86.210359
808.000000	85.759687
807.000000	85.290338
806.000000	84.831332
805.000000	84.371574
804.000000	83.854409
803.000000	83.190595
802.000000	82.286944
801.000000	81.066852
800.000000	79.490351
799.000000	77.574241
798.000000	75.387191
797.000000	73.029314
796.000000	70.607230
795.000000	68.221478
794.000000	65.958347
793.000000	63.890586
792.000000	62.089654
791.000000	60.634404
790.000000	59.603470
789.000000	59.050230
788.000000	58.993427
787.000000	59.406313
786.000000	60.215936
785.000000	61.314520
784.000000	62.570415
783.000000	63.842487
782.000000	64.988774
781.000000	65.886613
780.000000	66.457727
779.000000	66.689320
778.000000	66.634758
777.000000	66.390786
776.000000	66.060107
775.000000	65.716903
774.000000	65.399272
773.000000	65.131247
772.000000	64.958573
771.000000	64.958085
770.000000	65.211751
769.000000	65.765818
768.000000	66.613810
767.000000	67.707530
766.000000	68.980662
765.000000	70.369386
764.000000	71.815779
763.000000	73.263073
762.000000	74.648149
761.000000	75.903256
760.000000	76.969834
759.000000	77.820973
758.000000	78.476522
757.000000	78.998085
756.000000	79.469087
755.000000	79.967818
754.000000	80.542364
753.000000	81.192327
752.000000	81.868347
751.000000	82.492335
750.000000	82.986682
749.000000	83.303097
748.000000	83.442936
747.000000	83.461450
746.000000	83.448714
745.000000	83.494550
744.000000	83.657287
743.000000	83.945568
742.000000	84.313766
741.000000	84.675230
740.000000	84.934926
739.000000	85.028283
738.000000	84.943220
737.000000	84.719814
736.000000	84.437451
735.000000	84.190410
734.000000	84.051551
733.000000	84.042292
732.000000	84.128990
731.000000	84.241568
730.000000	84.297390
729.000000	84.225680
728.000000	83.994848
727.000000	83.627711
726.000000	83.187163
725.000000	82.745961
724.000000	82.361049
723.000000	82.047818
722.000000	81.747961
721.000000	81.322364
720.000000	80.606714
719.000000	79.508199
718.000000	78.064742
717.000000	76.434560
716.000000	74.851053
715.000000	73.566107
714.000000	72.783551
713.000000	72.599649
712.000000	72.980507
711.000000	73.784570
710.000000	74.815611
709.000000	75.880729
708.000000	76.838243
707.000000	77.628998
706.000000	78.277100
705.000000	78.859660
704.000000	79.464683
703.000000	80.156429
702.000000	80.950315
701.000000	81.801000
700.000000	82.616254
699.000000	83.294233
698.000000	83.761909
697.000000	84.001030
696.000000	84.061781
695.000000	84.051733
694.000000	84.090529
693.000000	84.259311
692.000000	84.581139
691.000000	85.022865
690.000000	85.498450
689.000000	85.886753
688.000000	86.085898
687.000000	86.072792
686.000000	85.901231
685.000000	85.660080
684.000000	85.454666
683.000000	85.387757
682.000000	85.511547
681.000000	85.790313
680.000000	86.127490
679.000000	86.417583
678.000000	86.569766
677.000000	86.525902
676.000000	86.296266
675.000000	85.980195
674.000000	85.703730
673.000000	85.568945
672.000000	85.678631
671.000000	86.119332
670.000000	86.838539
669.000000	87.475032
668.000000	87.531062
667.000000	86.999827
666.000000	86.338277
665.000000	85.855844
664.000000	85.600898
663.000000	85.498894
662.000000	85.505935
661.000000	85.655690
660.000000	85.936820
659.000000	86.239730
658.000000	86.436580
657.000000	86.470089
656.000000	86.333190
655.000000	86.054888
654.000000	85.724974
653.000000	85.474294
652.000000	85.395525
651.000000	85.495475
650.000000	85.723165
649.000000	85.998331
648.000000	86.208952
647.000000	86.241671
646.000000	86.061993
645.000000	85.736860
644.000000	85.368655
643.000000	85.045421
642.000000	84.842336
641.000000	84.809096
640.000000	84.928240
639.000000	85.108963
638.000000	85.240960
637.000000	85.245939
636.000000	85.084271
635.000000	84.760142
634.000000	84.342577
633.000000	83.944578
632.000000	83.659188
631.000000	83.522063
630.000000	83.519330
629.000000	83.598451
628.000000	83.669934
627.000000	83.632936
626.000000	83.428759
625.000000	83.068250
624.000000	82.607544
623.000000	82.120777
622.000000	81.692998
621.000000	81.398382
620.000000	81.257429
619.000000	81.214596
618.000000	81.159759
617.000000	80.979860
616.000000	80.610048
615.000000	80.055015
614.000000	79.372879
613.000000	78.636316
612.000000	77.904824
611.000000	77.222465
610.000000	76.608550
609.000000	76.035443
608.000000	75.430258
607.000000	74.706973
606.000000	73.799282
605.000000	72.673422
604.000000	71.339016
603.000000	69.857935
602.000000	68.313325
601.000000	66.763737
600.000000	65.238072
599.000000	63.752213
598.000000	62.294047
597.000000	60.808926
596.000000	59.247160
595.000000	57.619084
594.000000	55.974676
593.000000	54.354476
592.000000	52.808527
591.000000	51.422082
590.000000	50.254798
589.000000	49.279089
588.000000	48.419767
587.000000	47.614820
586.000000	46.791163
585.000000	45.841531
584.000000	44.704215
583.000000	43.435906
582.000000	42.164894
581.000000	41.014633
580.000000	40.113643
579.000000	39.615492
578.000000	39.613436
577.000000	40.075640
576.000000	40.894107
575.000000	41.931065
574.000000	43.011225
573.000000	43.953432
572.000000	44.685420
571.000000	45.306146
570.000000	46.006490
569.000000	46.939482
568.000000	48.153352
567.000000	49.580777
566.000000	51.052061
565.000000	52.378942
564.000000	53.467025
563.000000	54.338322
562.000000	55.062957
561.000000	55.703330
560.000000	56.319562
559.000000	56.969845
558.000000	57.673884
557.000000	58.398753
556.000000	59.098222
555.000000	59.749686
554.000000	60.343372
553.000000	60.872123
552.000000	61.353169
551.000000	61.837025
550.000000	62.372219
549.000000	62.967798
548.000000	63.600893
547.000000	64.240736
546.000000	64.851772
545.000000	65.395818
544.000000	65.851768
543.000000	66.231894
542.000000	66.572730
541.000000	66.910773
540.000000	67.270713
539.000000	67.665165
538.000000	68.090950
537.000000	68.526007
536.000000	68.935746
535.000000	69.288359
534.000000	69.566578
533.000000	69.769958
532.000000	69.912384
531.000000	70.015944
530.000000	70.102654
529.000000	70.180123
528.000000	70.231704
527.000000	70.222726
526.000000	70.108147
525.000000	69.844927
524.000000	69.412882
523.000000	68.834612
522.000000	68.182181
521.000000	67.545137
520.000000	66.981568
519.000000	66.471441
518.000000	65.884362
517.000000	65.011068
516.000000	63.672366
515.000000	61.847046
514.000000	59.712021
513.000000	57.577827
512.000000	55.791881
511.000000	54.653623
510.000000	54.318437
509.000000	54.763349
508.000000	55.872426
507.000000	57.479905
506.000000	59.359979
505.000000	61.282564
504.000000	63.109566
503.000000	64.806522
502.000000	66.358678
501.000000	67.735341
500.000000	68.928087
499.000000	69.969710
498.000000	70.899312
497.000000	71.737187
496.000000	72.488704
495.000000	73.156060
494.000000	73.752404
493.000000	74.299306
492.000000	74.816988
491.000000	75.313225
490.000000	75.782354
489.000000	76.216766
488.000000	76.609841
487.000000	76.958527
486.000000	77.270059
485.000000	77.559442
484.000000	77.836360
483.000000	78.098203
482.000000	78.342708
481.000000	78.572511
480.000000	78.776267
479.000000	78.924783
478.000000	78.992728
477.000000	78.975760
476.000000	78.874813
475.000000	78.668121
474.000000	78.311832
473.000000	77.753479
472.000000	76.959933
471.000000	75.971131
470.000000	74.922637
469.000000	73.998169
468.000000	73.354839
467.000000	73.041350
466.000000	72.929803
465.000000	72.763035
464.000000	72.309563
463.000000	71.521908
462.000000	70.615183
461.000000	69.971132
460.000000	69.945299
459.000000	70.723080
458.000000	72.206711
457.000000	73.985796
456.000000	75.604569
455.000000	76.882227
454.000000	77.881444
453.000000	78.704908
452.000000	79.377665
451.000000	79.853887
450.000000	80.076550
449.000000	80.009267
448.000000	79.630193
447.000000	78.942505
446.000000	78.021730
445.000000	77.027828
444.000000	76.180630
443.000000	75.707613
442.000000	75.732455
441.000000	76.184808
440.000000	76.862827
439.000000	77.565132
438.000000	78.169521
437.000000	78.650154
436.000000	79.036545
435.000000	79.364187
434.000000	79.657294
433.000000	79.927691
432.000000	80.160258
431.000000	80.314396
430.000000	80.359077
429.000000	80.295673
428.000000	80.140101
427.000000	79.907446
426.000000	79.634562
425.000000	79.388404
424.000000	79.232523
423.000000	79.182397
422.000000	79.188913
421.000000	79.173895
420.000000	79.081599
419.000000	78.930013
418.000000	78.803342
417.000000	78.750587
416.000000	78.740508
415.000000	78.742834
414.000000	78.791445
413.000000	78.936984
412.000000	79.163582
411.000000	79.388067
410.000000	79.536648
409.000000	79.593814
408.000000	79.582694
407.000000	79.541966
406.000000	79.539704
405.000000	79.637318
404.000000	79.843332
403.000000	80.100699
402.000000	80.371442
401.000000	80.631221
400.000000	80.849109
