PE IR       SUBTECH     SPECTRUM    ASCII       PEDS        4.00        
   -1
23ms121-cis.asc
24/10/22
15:24:38.00
24/10/22
15:24:38.00
Administrator
Sample 1330 By Administrator Date Tuesday, October 22 2024
400.000000
#HDR
-1
-1
#GR
cm-1
%T
1.0
0.0
4000.000000
-1.000000
3601
8
85.380779
6.040463
#DATA
4000.000000	57.015074
3999.000000	57.000066
3998.000000	56.988672
3997.000000	56.979929
3996.000000	56.973240
3995.000000	56.968611
3994.000000	56.966438
3993.000000	56.966957
3992.000000	56.969845
3991.000000	56.974380
3990.000000	56.980176
3989.000000	56.988036
3988.000000	56.999874
3987.000000	57.017375
3986.000000	57.041032
3985.000000	57.070197
3984.000000	57.103643
3983.000000	57.140074
3982.000000	57.178641
3981.000000	57.219431
3980.000000	57.263092
3979.000000	57.310190
3978.000000	57.360697
3977.000000	57.413420
3976.000000	57.466303
3975.000000	57.517042
3974.000000	57.563970
3973.000000	57.606768
3972.000000	57.646311
3971.000000	57.684208
3970.000000	57.721616
3969.000000	57.759298
3968.000000	57.798518
3967.000000	57.840919
3966.000000	57.887980
3965.000000	57.940512
3964.000000	57.998316
3963.000000	58.059928
3962.000000	58.123460
3961.000000	58.187205
3960.000000	58.250629
3959.000000	58.314851
3958.000000	58.380318
3957.000000	58.446360
3956.000000	58.512443
3955.000000	58.578660
3954.000000	58.645334
3953.000000	58.711232
3952.000000	58.773904
3951.000000	58.830766
3950.000000	58.880357
3949.000000	58.924440
3948.000000	58.967471
3947.000000	59.013744
3946.000000	59.064570
3945.000000	59.117564
3944.000000	59.167649
3943.000000	59.208807
3942.000000	59.240664
3941.000000	59.270383
3940.000000	59.306624
3939.000000	59.354757
3938.000000	59.412561
3937.000000	59.472620
3936.000000	59.529823
3935.000000	59.583885
3934.000000	59.636854
3933.000000	59.686136
3932.000000	59.726783
3931.000000	59.757454
3930.000000	59.781289
3929.000000	59.805645
3928.000000	59.835280
3927.000000	59.870174
3926.000000	59.905730
3925.000000	59.933253
3924.000000	59.948533
3923.000000	59.956162
3922.000000	59.963118
3921.000000	59.972875
3920.000000	59.984160
3919.000000	59.995449
3918.000000	60.007330
3917.000000	60.020465
3916.000000	60.035170
3915.000000	60.050801
3914.000000	60.069630
3913.000000	60.095137
3912.000000	60.127172
3911.000000	60.165063
3910.000000	60.206913
3909.000000	60.251461
3908.000000	60.298643
3907.000000	60.342670
3906.000000	60.374719
3905.000000	60.386810
3904.000000	60.382111
3903.000000	60.377419
3902.000000	60.386550
3901.000000	60.413079
3900.000000	60.452925
3899.000000	60.498327
3898.000000	60.547669
3897.000000	60.604524
3896.000000	60.670493
3895.000000	60.744618
3894.000000	60.819664
3893.000000	60.887159
3892.000000	60.942862
3891.000000	60.989071
3890.000000	61.028163
3889.000000	61.060692
3888.000000	61.098502
3887.000000	61.156998
3886.000000	61.232239
3885.000000	61.303994
3884.000000	61.356529
3883.000000	61.390259
3882.000000	61.413248
3881.000000	61.428838
3880.000000	61.439140
3879.000000	61.449166
3878.000000	61.462634
3877.000000	61.483665
3876.000000	61.516479
3875.000000	61.555067
3874.000000	61.582339
3873.000000	61.588200
3872.000000	61.585601
3871.000000	61.595698
3870.000000	61.623656
3869.000000	61.660509
3868.000000	61.693639
3867.000000	61.723396
3866.000000	61.762360
3865.000000	61.806032
3864.000000	61.838841
3863.000000	61.859708
3862.000000	61.879915
3861.000000	61.915475
3860.000000	61.973835
3859.000000	62.049754
3858.000000	62.136476
3857.000000	62.226297
3856.000000	62.307817
3855.000000	62.349932
3854.000000	62.335166
3853.000000	62.310086
3852.000000	62.317421
3851.000000	62.336466
3850.000000	62.347229
3849.000000	62.362132
3848.000000	62.391168
3847.000000	62.435503
3846.000000	62.489985
3845.000000	62.546798
3844.000000	62.602310
3843.000000	62.653327
3842.000000	62.695750
3841.000000	62.734924
3840.000000	62.771760
3839.000000	62.800904
3838.000000	62.826889
3837.000000	62.855177
3836.000000	62.882389
3835.000000	62.901272
3834.000000	62.915839
3833.000000	62.939539
3832.000000	62.976961
3831.000000	63.022908
3830.000000	63.072807
3829.000000	63.123171
3828.000000	63.173514
3827.000000	63.226708
3826.000000	63.277623
3825.000000	63.319195
3824.000000	63.353591
3823.000000	63.391686
3822.000000	63.438652
3821.000000	63.485745
3820.000000	63.522395
3819.000000	63.545632
3818.000000	63.567696
3817.000000	63.604059
3816.000000	63.652184
3815.000000	63.697401
3814.000000	63.733269
3813.000000	63.763715
3812.000000	63.794273
3811.000000	63.828732
3810.000000	63.867180
3809.000000	63.908209
3808.000000	63.955330
3807.000000	64.011048
3806.000000	64.067260
3805.000000	64.114157
3804.000000	64.150638
3803.000000	64.193190
3802.000000	64.244497
3801.000000	64.290073
3800.000000	64.320541
3799.000000	64.333753
3798.000000	64.339556
3797.000000	64.350705
3796.000000	64.371704
3795.000000	64.400451
3794.000000	64.436712
3793.000000	64.480282
3792.000000	64.527485
3791.000000	64.576301
3790.000000	64.626515
3789.000000	64.675981
3788.000000	64.721807
3787.000000	64.762374
3786.000000	64.798462
3785.000000	64.830840
3784.000000	64.857844
3783.000000	64.880004
3782.000000	64.901807
3781.000000	64.925619
3780.000000	64.948137
3779.000000	64.968550
3778.000000	64.991303
3777.000000	65.020879
3776.000000	65.058559
3775.000000	65.103495
3774.000000	65.151649
3773.000000	65.196373
3772.000000	65.236780
3771.000000	65.278583
3770.000000	65.324232
3769.000000	65.370029
3768.000000	65.411697
3767.000000	65.453019
3766.000000	65.505068
3765.000000	65.566622
3764.000000	65.625691
3763.000000	65.678817
3762.000000	65.735349
3761.000000	65.801016
3760.000000	65.863611
3759.000000	65.917302
3758.000000	65.970652
3757.000000	66.026508
3756.000000	66.081471
3755.000000	66.135108
3754.000000	66.194332
3753.000000	66.256739
3752.000000	66.304621
3751.000000	66.341510
3750.000000	66.395424
3749.000000	66.466732
3748.000000	66.520360
3747.000000	66.545566
3746.000000	66.569029
3745.000000	66.612509
3744.000000	66.677731
3743.000000	66.747195
3742.000000	66.790325
3741.000000	66.806626
3740.000000	66.820135
3739.000000	66.850554
3738.000000	66.906320
3737.000000	66.977034
3736.000000	67.038125
3735.000000	67.059786
3734.000000	67.046142
3733.000000	67.038668
3732.000000	67.065677
3731.000000	67.117567
3730.000000	67.166588
3729.000000	67.206019
3728.000000	67.253452
3727.000000	67.315784
3726.000000	67.379835
3725.000000	67.433066
3724.000000	67.478693
3723.000000	67.523493
3722.000000	67.569666
3721.000000	67.623027
3720.000000	67.684976
3719.000000	67.757125
3718.000000	67.839746
3717.000000	67.923827
3716.000000	67.998798
3715.000000	68.059129
3714.000000	68.109504
3713.000000	68.155251
3712.000000	68.194183
3711.000000	68.226128
3710.000000	68.260063
3709.000000	68.308297
3708.000000	68.374749
3707.000000	68.450254
3706.000000	68.524841
3705.000000	68.595014
3704.000000	68.661726
3703.000000	68.724177
3702.000000	68.781894
3701.000000	68.840401
3700.000000	68.901077
3699.000000	68.961096
3698.000000	69.024993
3697.000000	69.097854
3696.000000	69.174280
3695.000000	69.245875
3694.000000	69.311438
3693.000000	69.376704
3692.000000	69.439665
3691.000000	69.488716
3690.000000	69.522116
3689.000000	69.564447
3688.000000	69.638324
3687.000000	69.722764
3686.000000	69.786035
3685.000000	69.828636
3684.000000	69.867980
3683.000000	69.914958
3682.000000	69.973523
3681.000000	70.041421
3680.000000	70.110293
3679.000000	70.161515
3678.000000	70.192920
3677.000000	70.226684
3676.000000	70.277351
3675.000000	70.343069
3674.000000	70.400453
3673.000000	70.428658
3672.000000	70.446497
3671.000000	70.484051
3670.000000	70.535748
3669.000000	70.583703
3668.000000	70.626333
3667.000000	70.665329
3666.000000	70.701678
3665.000000	70.740708
3664.000000	70.784504
3663.000000	70.834519
3662.000000	70.888552
3661.000000	70.936758
3660.000000	70.973685
3659.000000	71.000931
3658.000000	71.028664
3657.000000	71.068358
3656.000000	71.123337
3655.000000	71.182788
3654.000000	71.224720
3653.000000	71.245922
3652.000000	71.269105
3651.000000	71.306876
3650.000000	71.345046
3649.000000	71.375878
3648.000000	71.416721
3647.000000	71.475744
3646.000000	71.537284
3645.000000	71.589345
3644.000000	71.636641
3643.000000	71.689703
3642.000000	71.745654
3641.000000	71.793644
3640.000000	71.832787
3639.000000	71.869445
3638.000000	71.905130
3637.000000	71.934647
3636.000000	71.960716
3635.000000	71.992256
3634.000000	72.024505
3633.000000	72.038737
3632.000000	72.023572
3631.000000	71.993358
3630.000000	71.969973
3629.000000	71.964109
3628.000000	71.977581
3627.000000	71.998110
3626.000000	72.003305
3625.000000	71.992037
3624.000000	71.977820
3623.000000	71.964142
3622.000000	71.945678
3621.000000	71.916763
3620.000000	71.870916
3619.000000	71.807434
3618.000000	71.735332
3617.000000	71.659029
3616.000000	71.577029
3615.000000	71.488115
3614.000000	71.388135
3613.000000	71.272532
3612.000000	71.143249
3611.000000	71.008436
3610.000000	70.879731
3609.000000	70.764652
3608.000000	70.655492
3607.000000	70.538383
3606.000000	70.407662
3605.000000	70.268026
3604.000000	70.129105
3603.000000	69.995640
3602.000000	69.869981
3601.000000	69.757178
3600.000000	69.658312
3599.000000	69.567223
3598.000000	69.477031
3597.000000	69.383318
3596.000000	69.285481
3595.000000	69.180680
3594.000000	69.064082
3593.000000	68.937454
3592.000000	68.806574
3591.000000	68.682173
3590.000000	68.584621
3589.000000	68.535226
3588.000000	68.535358
3587.000000	68.565379
3586.000000	68.602930
3585.000000	68.634027
3584.000000	68.650864
3583.000000	68.649701
3582.000000	68.630729
3581.000000	68.597301
3580.000000	68.552536
3579.000000	68.496718
3578.000000	68.430503
3577.000000	68.358074
3576.000000	68.283554
3575.000000	68.209065
3574.000000	68.133489
3573.000000	68.054721
3572.000000	67.968525
3571.000000	67.868692
3570.000000	67.754742
3569.000000	67.634713
3568.000000	67.513162
3567.000000	67.384624
3566.000000	67.244470
3565.000000	67.095027
3564.000000	66.940669
3563.000000	66.783985
3562.000000	66.623856
3561.000000	66.456995
3560.000000	66.280727
3559.000000	66.094397
3558.000000	65.899896
3557.000000	65.700935
3556.000000	65.499164
3555.000000	65.291977
3554.000000	65.074962
3553.000000	64.846213
3552.000000	64.607693
3551.000000	64.360563
3550.000000	64.103015
3549.000000	63.835395
3548.000000	63.560811
3547.000000	63.280266
3546.000000	62.989930
3545.000000	62.686511
3544.000000	62.370807
3543.000000	62.044963
3542.000000	61.708951
3541.000000	61.362029
3540.000000	61.003225
3539.000000	60.629549
3538.000000	60.237195
3537.000000	59.825038
3536.000000	59.396222
3535.000000	58.953426
3534.000000	58.496693
3533.000000	58.025323
3532.000000	57.538135
3531.000000	57.031150
3530.000000	56.498001
3529.000000	55.936716
3528.000000	55.352037
3527.000000	54.749550
3526.000000	54.130451
3525.000000	53.493935
3524.000000	52.840294
3523.000000	52.169619
3522.000000	51.480557
3521.000000	50.772469
3520.000000	50.046297
3519.000000	49.301675
3518.000000	48.536782
3517.000000	47.752298
3516.000000	46.952860
3515.000000	46.142628
3514.000000	45.322410
3513.000000	44.491340
3512.000000	43.647368
3511.000000	42.786260
3510.000000	41.905764
3509.000000	41.012504
3508.000000	40.118226
3507.000000	39.227319
3506.000000	38.333035
3505.000000	37.427584
3504.000000	36.511669
3503.000000	35.593105
3502.000000	34.680335
3501.000000	33.779216
3500.000000	32.891586
3499.000000	32.014084
3498.000000	31.141943
3497.000000	30.275402
3496.000000	29.420128
3495.000000	28.580965
3494.000000	27.759371
3493.000000	26.957419
3492.000000	26.178066
3491.000000	25.420309
3490.000000	24.680112
3489.000000	23.957745
3488.000000	23.259818
3487.000000	22.592608
3486.000000	21.957337
3485.000000	21.352099
3484.000000	20.772373
3483.000000	20.210367
3482.000000	19.660723
3481.000000	19.127868
3480.000000	18.621958
3479.000000	18.145733
3478.000000	17.691297
3477.000000	17.249755
3476.000000	16.817488
3475.000000	16.393490
3474.000000	15.976910
3473.000000	15.569338
3472.000000	15.175058
3471.000000	14.798137
3470.000000	14.444548
3469.000000	14.125561
3468.000000	13.852869
3467.000000	13.629957
3466.000000	13.452583
3465.000000	13.317351
3464.000000	13.223660
3463.000000	13.169572
3462.000000	13.153836
3461.000000	13.180643
3460.000000	13.256034
3459.000000	13.378391
3458.000000	13.537854
3457.000000	13.724896
3456.000000	13.932595
3455.000000	14.151951
3454.000000	14.372023
3453.000000	14.584331
3452.000000	14.782006
3451.000000	14.954953
3450.000000	15.090718
3449.000000	15.180812
3448.000000	15.221509
3447.000000	15.209734
3446.000000	15.145117
3445.000000	15.033436
3444.000000	14.883187
3443.000000	14.699784
3442.000000	14.486583
3441.000000	14.251614
3440.000000	14.006986
3439.000000	13.762940
3438.000000	13.528492
3437.000000	13.315987
3436.000000	13.138619
3435.000000	13.002611
3434.000000	12.906103
3433.000000	12.845394
3432.000000	12.819924
3431.000000	12.831724
3430.000000	12.885476
3429.000000	12.988744
3428.000000	13.146188
3427.000000	13.356772
3426.000000	13.618019
3425.000000	13.931583
3424.000000	14.301698
3423.000000	14.728282
3422.000000	15.209111
3421.000000	15.744081
3420.000000	16.332588
3419.000000	16.969534
3418.000000	17.646245
3417.000000	18.356438
3416.000000	19.095844
3415.000000	19.858645
3414.000000	20.639757
3413.000000	21.436824
3412.000000	22.246932
3411.000000	23.062915
3410.000000	23.876802
3409.000000	24.685154
3408.000000	25.486161
3407.000000	26.273801
3406.000000	27.039880
3405.000000	27.780316
3404.000000	28.495974
3403.000000	29.189872
3402.000000	29.867303
3401.000000	30.535961
3400.000000	31.200237
3399.000000	31.855288
3398.000000	32.491189
3397.000000	33.102075
3396.000000	33.687970
3395.000000	34.251206
3394.000000	34.795646
3393.000000	35.328644
3392.000000	35.857971
3391.000000	36.385516
3390.000000	36.907934
3389.000000	37.421951
3388.000000	37.926442
3387.000000	38.420724
3386.000000	38.904689
3385.000000	39.380635
3384.000000	39.851391
3383.000000	40.317639
3382.000000	40.779693
3381.000000	41.240192
3380.000000	41.701877
3379.000000	42.164046
3378.000000	42.624489
3377.000000	43.083548
3376.000000	43.542427
3375.000000	43.998956
3374.000000	44.448878
3373.000000	44.890944
3372.000000	45.327760
3371.000000	45.762399
3370.000000	46.197364
3369.000000	46.635344
3368.000000	47.077222
3367.000000	47.519609
3366.000000	47.957276
3365.000000	48.387795
3364.000000	48.811790
3363.000000	49.230148
3362.000000	49.643849
3361.000000	50.055202
3360.000000	50.466202
3359.000000	50.876025
3358.000000	51.282398
3357.000000	51.684589
3356.000000	52.082327
3355.000000	52.473651
3354.000000	52.856840
3353.000000	53.233856
3352.000000	53.609036
3351.000000	53.984364
3350.000000	54.358091
3349.000000	54.727339
3348.000000	55.089798
3347.000000	55.443840
3346.000000	55.789561
3345.000000	56.129286
3344.000000	56.464887
3343.000000	56.794812
3342.000000	57.116119
3341.000000	57.428648
3340.000000	57.735034
3339.000000	58.037047
3338.000000	58.333569
3337.000000	58.622175
3336.000000	58.900192
3335.000000	59.164719
3334.000000	59.413767
3333.000000	59.646811
3332.000000	59.863415
3331.000000	60.060980
3330.000000	60.235435
3329.000000	60.384285
3328.000000	60.506360
3327.000000	60.600235
3326.000000	60.663214
3325.000000	60.691224
3324.000000	60.679203
3323.000000	60.620581
3322.000000	60.509976
3321.000000	60.345053
3320.000000	60.123213
3319.000000	59.839919
3318.000000	59.487840
3317.000000	59.060418
3316.000000	58.551289
3315.000000	57.950750
3314.000000	57.248271
3313.000000	56.434093
3312.000000	55.499887
3311.000000	54.438781
3310.000000	53.244408
3309.000000	51.917178
3308.000000	50.461289
3307.000000	48.880602
3306.000000	47.179332
3305.000000	45.360107
3304.000000	43.426827
3303.000000	41.381870
3302.000000	39.230646
3301.000000	36.988196
3300.000000	34.676861
3299.000000	32.324961
3298.000000	29.969586
3297.000000	27.659122
3296.000000	25.445656
3295.000000	23.374290
3294.000000	21.479352
3293.000000	19.787219
3292.000000	18.312770
3291.000000	17.047787
3290.000000	15.967581
3289.000000	15.038783
3288.000000	14.226418
3287.000000	13.498278
3286.000000	12.827072
3285.000000	12.198754
3284.000000	11.607579
3283.000000	11.051537
3282.000000	10.535564
3281.000000	10.072249
3280.000000	9.677649
3279.000000	9.363605
3278.000000	9.139037
3277.000000	9.014487
3276.000000	8.995895
3275.000000	9.079733
3274.000000	9.255470
3273.000000	9.509260
3272.000000	9.822546
3271.000000	10.166810
3270.000000	10.508086
3269.000000	10.813906
3268.000000	11.053898
3267.000000	11.200583
3266.000000	11.237568
3265.000000	11.165301
3264.000000	10.996826
3263.000000	10.752016
3262.000000	10.455860
3261.000000	10.140063
3260.000000	9.835842
3259.000000	9.566494
3258.000000	9.349934
3257.000000	9.202602
3256.000000	9.135102
3255.000000	9.147522
3254.000000	9.233522
3253.000000	9.384682
3252.000000	9.590148
3251.000000	9.832974
3250.000000	10.094946
3249.000000	10.362963
3248.000000	10.625818
3247.000000	10.870795
3246.000000	11.086279
3245.000000	11.265963
3244.000000	11.406952
3243.000000	11.507608
3242.000000	11.570028
3241.000000	11.602087
3240.000000	11.612379
3239.000000	11.604591
3238.000000	11.581311
3237.000000	11.547636
3236.000000	11.509135
3235.000000	11.469772
3234.000000	11.434026
3233.000000	11.406967
3232.000000	11.386995
3231.000000	11.363014
3230.000000	11.323285
3229.000000	11.263137
3228.000000	11.181734
3227.000000	11.076091
3226.000000	10.943321
3225.000000	10.785014
3224.000000	10.603752
3223.000000	10.399961
3222.000000	10.175807
3221.000000	9.939002
3220.000000	9.698592
3219.000000	9.459248
3218.000000	9.223687
3217.000000	8.995896
3216.000000	8.777904
3215.000000	8.567228
3214.000000	8.361444
3213.000000	8.161502
3212.000000	7.967125
3211.000000	7.773713
3210.000000	7.577994
3209.000000	7.383053
3208.000000	7.193593
3207.000000	7.010758
3206.000000	6.835708
3205.000000	6.673172
3204.000000	6.527455
3203.000000	6.398487
3202.000000	6.285953
3201.000000	6.193430
3200.000000	6.123683
3199.000000	6.075233
3198.000000	6.046722
3197.000000	6.040463
3196.000000	6.058306
3195.000000	6.097286
3194.000000	6.154840
3193.000000	6.232543
3192.000000	6.330958
3191.000000	6.446373
3190.000000	6.575143
3189.000000	6.717924
3188.000000	6.875111
3187.000000	7.042623
3186.000000	7.217053
3185.000000	7.399560
3184.000000	7.591416
3183.000000	7.789818
3182.000000	7.991779
3181.000000	8.198013
3180.000000	8.408565
3179.000000	8.619591
3178.000000	8.828168
3177.000000	9.035814
3176.000000	9.243638
3175.000000	9.448395
3174.000000	9.647150
3173.000000	9.841286
3172.000000	10.032305
3171.000000	10.217893
3170.000000	10.396106
3169.000000	10.568981
3168.000000	10.738176
3167.000000	10.901565
3166.000000	11.057278
3165.000000	11.207046
3164.000000	11.351840
3163.000000	11.488376
3162.000000	11.613919
3161.000000	11.729747
3160.000000	11.836944
3159.000000	11.933154
3158.000000	12.016771
3157.000000	12.090665
3156.000000	12.157878
3155.000000	12.218498
3154.000000	12.274243
3153.000000	12.331248
3152.000000	12.394568
3151.000000	12.463628
3150.000000	12.536712
3149.000000	12.615612
3148.000000	12.702300
3147.000000	12.795234
3146.000000	12.892765
3145.000000	12.996069
3144.000000	13.105155
3143.000000	13.216337
3142.000000	13.326843
3141.000000	13.438022
3140.000000	13.550525
3139.000000	13.660539
3138.000000	13.764121
3137.000000	13.861018
3136.000000	13.950600
3135.000000	14.027887
3134.000000	14.087487
3133.000000	14.126837
3132.000000	14.142933
3131.000000	14.129477
3130.000000	14.080351
3129.000000	13.993660
3128.000000	13.868446
3127.000000	13.703558
3126.000000	13.502625
3125.000000	13.275776
3124.000000	13.034428
3123.000000	12.786604
3122.000000	12.540415
3121.000000	12.306085
3120.000000	12.090343
3119.000000	11.892966
3118.000000	11.711867
3117.000000	11.547383
3116.000000	11.398394
3115.000000	11.259609
3114.000000	11.126070
3113.000000	10.996767
3112.000000	10.870854
3111.000000	10.745295
3110.000000	10.619963
3109.000000	10.499822
3108.000000	10.389059
3107.000000	10.287505
3106.000000	10.195575
3105.000000	10.118288
3104.000000	10.060209
3103.000000	10.021899
3102.000000	10.005002
3101.000000	10.015231
3100.000000	10.057829
3099.000000	10.132929
3098.000000	10.239469
3097.000000	10.379143
3096.000000	10.551998
3095.000000	10.754586
3094.000000	10.984240
3093.000000	11.241715
3092.000000	11.526967
3091.000000	11.835591
3090.000000	12.163611
3089.000000	12.509709
3088.000000	12.870776
3087.000000	13.240680
3086.000000	13.615515
3085.000000	13.996312
3084.000000	14.382948
3083.000000	14.770545
3082.000000	15.154978
3081.000000	15.536845
3080.000000	15.917526
3079.000000	16.295639
3078.000000	16.670232
3077.000000	17.042435
3076.000000	17.411101
3075.000000	17.771266
3074.000000	18.119880
3073.000000	18.458963
3072.000000	18.790339
3071.000000	19.112290
3070.000000	19.423917
3069.000000	19.728327
3068.000000	20.028424
3067.000000	20.323056
3066.000000	20.610555
3065.000000	20.891938
3064.000000	21.167981
3063.000000	21.437266
3062.000000	21.699328
3061.000000	21.956427
3060.000000	22.209621
3059.000000	22.456874
3058.000000	22.697468
3057.000000	22.934060
3056.000000	23.168497
3055.000000	23.399336
3054.000000	23.625826
3053.000000	23.850545
3052.000000	24.075355
3051.000000	24.298616
3050.000000	24.518558
3049.000000	24.735769
3048.000000	24.950428
3047.000000	25.160682
3046.000000	25.366243
3045.000000	25.570070
3044.000000	25.774419
3043.000000	25.978758
3042.000000	26.182917
3041.000000	26.388283
3040.000000	26.593918
3039.000000	26.795594
3038.000000	26.991244
3037.000000	27.183691
3036.000000	27.376301
3035.000000	27.569613
3034.000000	27.763783
3033.000000	27.960180
3032.000000	28.158264
3031.000000	28.354966
3030.000000	28.549188
3029.000000	28.742980
3028.000000	28.936728
3027.000000	29.127601
3026.000000	29.314630
3025.000000	29.500704
3024.000000	29.686794
3023.000000	29.868524
3022.000000	30.040938
3021.000000	30.202324
3020.000000	30.350939
3019.000000	30.481216
3018.000000	30.586776
3017.000000	30.664086
3016.000000	30.711402
3015.000000	30.728989
3014.000000	30.723553
3013.000000	30.710799
3012.000000	30.710352
3011.000000	30.739825
3010.000000	30.813003
3009.000000	30.937641
3008.000000	31.110717
3007.000000	31.317726
3006.000000	31.538569
3005.000000	31.752072
3004.000000	31.934640
3003.000000	32.059265
3002.000000	32.099809
3001.000000	32.034927
3000.000000	31.852242
2999.000000	31.557590
2998.000000	31.188127
2997.000000	30.813814
2996.000000	30.519285
2995.000000	30.377806
2994.000000	30.429470
2993.000000	30.670676
2992.000000	31.054777
2991.000000	31.511856
2990.000000	31.977401
2989.000000	32.410458
2988.000000	32.793022
2987.000000	33.120987
2986.000000	33.399352
2985.000000	33.637051
2984.000000	33.840252
2983.000000	34.008793
2982.000000	34.140733
2981.000000	34.235118
2980.000000	34.288934
2979.000000	34.295113
2978.000000	34.247181
2977.000000	34.146127
2976.000000	34.001293
2975.000000	33.830334
2974.000000	33.659176
2973.000000	33.516990
2972.000000	33.425315
2971.000000	33.388937
2970.000000	33.394541
2969.000000	33.411480
2968.000000	33.393428
2967.000000	33.290214
2966.000000	33.070533
2965.000000	32.738914
2964.000000	32.333377
2963.000000	31.909234
2962.000000	31.522939
2961.000000	31.218946
2960.000000	31.022461
2959.000000	30.940673
2958.000000	30.972247
2957.000000	31.110899
2956.000000	31.340965
2955.000000	31.636284
2954.000000	31.966112
2953.000000	32.299757
2952.000000	32.604031
2951.000000	32.847182
2950.000000	33.011081
2949.000000	33.100401
2948.000000	33.136466
2947.000000	33.140737
2946.000000	33.117753
2945.000000	33.039990
2944.000000	32.847748
2943.000000	32.478472
2942.000000	31.922030
2941.000000	31.261070
2940.000000	30.660653
2939.000000	30.306000
2938.000000	30.322443
2937.000000	30.724784
2936.000000	31.419320
2935.000000	32.258266
2934.000000	33.106951
2933.000000	33.882828
2932.000000	34.554006
2931.000000	35.121355
2930.000000	35.603505
2929.000000	36.023611
2928.000000	36.399574
2927.000000	36.740595
2926.000000	37.053140
2925.000000	37.343765
2924.000000	37.615493
2923.000000	37.866355
2922.000000	38.094534
2921.000000	38.301035
2920.000000	38.485528
2919.000000	38.645178
2918.000000	38.779302
2917.000000	38.891717
2916.000000	38.986588
2915.000000	39.065582
2914.000000	39.130823
2913.000000	39.186161
2912.000000	39.233501
2911.000000	39.271253
2910.000000	39.297386
2909.000000	39.310127
2908.000000	39.303926
2907.000000	39.267635
2906.000000	39.188683
2905.000000	39.054940
2904.000000	38.851967
2903.000000	38.564066
2902.000000	38.184019
2901.000000	37.720796
2900.000000	37.200640
2899.000000	36.666123
2898.000000	36.172709
2897.000000	35.779614
2896.000000	35.531799
2895.000000	35.447263
2894.000000	35.518554
2893.000000	35.719755
2892.000000	36.013694
2891.000000	36.360089
2890.000000	36.726051
2889.000000	37.089472
2888.000000	37.435059
2887.000000	37.751433
2886.000000	38.032940
2885.000000	38.280330
2884.000000	38.495579
2883.000000	38.679709
2882.000000	38.835830
2881.000000	38.970522
2880.000000	39.090287
2879.000000	39.199402
2878.000000	39.302170
2877.000000	39.403231
2876.000000	39.503878
2875.000000	39.601059
2874.000000	39.692127
2873.000000	39.777660
2872.000000	39.859369
2871.000000	39.939691
2870.000000	40.024824
2869.000000	40.124037
2868.000000	40.243081
2867.000000	40.380621
2866.000000	40.531922
2865.000000	40.692009
2864.000000	40.854170
2863.000000	41.010481
2862.000000	41.156813
2861.000000	41.294448
2860.000000	41.425261
2859.000000	41.548673
2858.000000	41.664973
2857.000000	41.777613
2856.000000	41.889744
2855.000000	42.001651
2854.000000	42.113118
2853.000000	42.224482
2852.000000	42.333150
2851.000000	42.432459
2850.000000	42.516632
2849.000000	42.584835
2848.000000	42.639565
2847.000000	42.684457
2846.000000	42.725172
2845.000000	42.768648
2844.000000	42.819085
2843.000000	42.876622
2842.000000	42.940964
2841.000000	43.013687
2840.000000	43.095727
2839.000000	43.185632
2838.000000	43.281683
2837.000000	43.383119
2836.000000	43.488416
2835.000000	43.595328
2834.000000	43.703656
2833.000000	43.815234
2832.000000	43.930212
2831.000000	44.046091
2830.000000	44.161264
2829.000000	44.276412
2828.000000	44.391428
2827.000000	44.504130
2826.000000	44.613133
2825.000000	44.719041
2824.000000	44.821790
2823.000000	44.919769
2822.000000	45.012825
2821.000000	45.103199
2820.000000	45.192177
2819.000000	45.278577
2818.000000	45.361466
2817.000000	45.441550
2816.000000	45.518832
2815.000000	45.591807
2814.000000	45.660205
2813.000000	45.725756
2812.000000	45.789189
2811.000000	45.849345
2810.000000	45.906278
2809.000000	45.962255
2808.000000	46.018483
2807.000000	46.073705
2806.000000	46.127213
2805.000000	46.180343
2804.000000	46.233698
2803.000000	46.285816
2802.000000	46.336001
2801.000000	46.385815
2800.000000	46.436497
2799.000000	46.487417
2798.000000	46.538127
2797.000000	46.589187
2796.000000	46.639831
2795.000000	46.687610
2794.000000	46.731582
2793.000000	46.773333
2792.000000	46.813945
2791.000000	46.852781
2790.000000	46.890171
2789.000000	46.928115
2788.000000	46.966891
2787.000000	47.003850
2786.000000	47.037101
2785.000000	47.068023
2784.000000	47.099055
2783.000000	47.131939
2782.000000	47.169322
2781.000000	47.214863
2780.000000	47.269863
2779.000000	47.331989
2778.000000	47.398603
2777.000000	47.469091
2776.000000	47.542820
2775.000000	47.617502
2774.000000	47.691126
2773.000000	47.763159
2772.000000	47.832728
2771.000000	47.898043
2770.000000	47.958749
2769.000000	48.016600
2768.000000	48.072720
2767.000000	48.126274
2766.000000	48.176728
2765.000000	48.224843
2764.000000	48.270440
2763.000000	48.311815
2762.000000	48.348407
2761.000000	48.381789
2760.000000	48.413066
2759.000000	48.441597
2758.000000	48.467243
2757.000000	48.491188
2756.000000	48.513462
2755.000000	48.532248
2754.000000	48.546915
2753.000000	48.559882
2752.000000	48.574659
2751.000000	48.594145
2750.000000	48.621168
2749.000000	48.657480
2748.000000	48.700644
2747.000000	48.744239
2746.000000	48.782598
2745.000000	48.813924
2744.000000	48.838932
2743.000000	48.859343
2742.000000	48.878211
2741.000000	48.898403
2740.000000	48.918990
2739.000000	48.935408
2738.000000	48.944919
2737.000000	48.950864
2736.000000	48.961283
2735.000000	48.985476
2734.000000	49.031538
2733.000000	49.102769
2732.000000	49.194432
2731.000000	49.295910
2730.000000	49.397253
2729.000000	49.493023
2728.000000	49.580605
2727.000000	49.658547
2726.000000	49.727727
2725.000000	49.791017
2724.000000	49.849961
2723.000000	49.903550
2722.000000	49.950470
2721.000000	49.990053
2720.000000	50.021010
2719.000000	50.041876
2718.000000	50.054089
2717.000000	50.062548
2716.000000	50.072122
2715.000000	50.085761
2714.000000	50.106007
2713.000000	50.135235
2712.000000	50.173364
2711.000000	50.217703
2710.000000	50.265827
2709.000000	50.316523
2708.000000	50.367648
2707.000000	50.415828
2706.000000	50.459129
2705.000000	50.497554
2704.000000	50.530205
2703.000000	50.554637
2702.000000	50.569645
2701.000000	50.575829
2700.000000	50.573131
2699.000000	50.560437
2698.000000	50.538638
2697.000000	50.511902
2696.000000	50.484722
2695.000000	50.459990
2694.000000	50.440078
2693.000000	50.426623
2692.000000	50.418384
2691.000000	50.411906
2690.000000	50.405364
2689.000000	50.399817
2688.000000	50.396580
2687.000000	50.396038
2686.000000	50.399540
2685.000000	50.409248
2684.000000	50.425214
2683.000000	50.445549
2682.000000	50.469941
2681.000000	50.500503
2680.000000	50.538256
2679.000000	50.581335
2678.000000	50.627347
2677.000000	50.674380
2676.000000	50.719220
2675.000000	50.757701
2674.000000	50.787887
2673.000000	50.810588
2672.000000	50.826460
2671.000000	50.835450
2670.000000	50.839797
2669.000000	50.844732
2668.000000	50.855124
2667.000000	50.873807
2666.000000	50.903205
2665.000000	50.944968
2664.000000	50.996705
2663.000000	51.052059
2662.000000	51.104992
2661.000000	51.151677
2660.000000	51.188340
2659.000000	51.210965
2658.000000	51.218571
2657.000000	51.214402
2656.000000	51.202955
2655.000000	51.188391
2654.000000	51.176468
2653.000000	51.174365
2652.000000	51.186892
2651.000000	51.215005
2650.000000	51.258347
2649.000000	51.315920
2648.000000	51.383722
2647.000000	51.454809
2646.000000	51.523243
2645.000000	51.586279
2644.000000	51.642358
2643.000000	51.690661
2642.000000	51.733654
2641.000000	51.776796
2640.000000	51.824118
2639.000000	51.875943
2638.000000	51.931210
2637.000000	51.988885
2636.000000	52.046256
2635.000000	52.098948
2634.000000	52.144387
2633.000000	52.183020
2632.000000	52.215444
2631.000000	52.241093
2630.000000	52.260320
2629.000000	52.275227
2628.000000	52.287081
2627.000000	52.295312
2626.000000	52.300114
2625.000000	52.303102
2624.000000	52.304936
2623.000000	52.304937
2622.000000	52.303852
2621.000000	52.304329
2620.000000	52.307233
2619.000000	52.310072
2618.000000	52.309693
2617.000000	52.303806
2616.000000	52.289488
2615.000000	52.263218
2614.000000	52.224295
2613.000000	52.176000
2612.000000	52.122472
2611.000000	52.067274
2610.000000	52.015516
2609.000000	51.974025
2608.000000	51.947583
2607.000000	51.937116
2606.000000	51.941962
2605.000000	51.961657
2604.000000	51.994383
2603.000000	52.036463
2602.000000	52.085257
2601.000000	52.139465
2600.000000	52.196463
2599.000000	52.252113
2598.000000	52.303956
2597.000000	52.352451
2596.000000	52.398109
2595.000000	52.440470
2594.000000	52.480774
2593.000000	52.522420
2592.000000	52.567192
2591.000000	52.613390
2590.000000	52.658452
2589.000000	52.700782
2588.000000	52.738221
2587.000000	52.767635
2586.000000	52.787952
2585.000000	52.801729
2584.000000	52.812971
2583.000000	52.825783
2582.000000	52.845648
2581.000000	52.878673
2580.000000	52.927820
2579.000000	52.991566
2578.000000	53.066516
2577.000000	53.149434
2576.000000	53.236161
2575.000000	53.321979
2574.000000	53.404717
2573.000000	53.485097
2572.000000	53.563670
2571.000000	53.639562
2570.000000	53.712612
2569.000000	53.783882
2568.000000	53.853052
2567.000000	53.917743
2566.000000	53.976563
2565.000000	54.030721
2564.000000	54.081698
2563.000000	54.129905
2562.000000	54.176151
2561.000000	54.221986
2560.000000	54.267687
2559.000000	54.311876
2558.000000	54.354082
2557.000000	54.395426
2556.000000	54.436456
2555.000000	54.476822
2554.000000	54.517637
2553.000000	54.561557
2552.000000	54.609706
2551.000000	54.660806
2550.000000	54.713804
2549.000000	54.768756
2548.000000	54.824386
2547.000000	54.877532
2546.000000	54.926050
2545.000000	54.970155
2544.000000	55.010158
2543.000000	55.045418
2542.000000	55.076085
2541.000000	55.103111
2540.000000	55.125894
2539.000000	55.141730
2538.000000	55.148653
2537.000000	55.146456
2536.000000	55.134185
2535.000000	55.110190
2534.000000	55.075071
2533.000000	55.032487
2532.000000	54.985996
2531.000000	54.937026
2530.000000	54.887189
2529.000000	54.839333
2528.000000	54.795197
2527.000000	54.754339
2526.000000	54.716265
2525.000000	54.681427
2524.000000	54.649100
2523.000000	54.616705
2522.000000	54.582288
2521.000000	54.545382
2520.000000	54.504767
2519.000000	54.457722
2518.000000	54.402583
2517.000000	54.339949
2516.000000	54.270524
2515.000000	54.194690
2514.000000	54.114943
2513.000000	54.036326
2512.000000	53.963526
2511.000000	53.899942
2510.000000	53.849766
2509.000000	53.817875
2508.000000	53.806344
2507.000000	53.812847
2506.000000	53.834321
2505.000000	53.868873
2504.000000	53.913842
2503.000000	53.965332
2502.000000	54.020149
2501.000000	54.076737
2500.000000	54.132807
2499.000000	54.184607
2498.000000	54.229530
2497.000000	54.266967
2496.000000	54.296185
2495.000000	54.316127
2494.000000	54.328037
2493.000000	54.335395
2492.000000	54.340741
2491.000000	54.344683
2490.000000	54.348641
2489.000000	54.355663
2488.000000	54.367326
2487.000000	54.382594
2486.000000	54.400519
2485.000000	54.421435
2484.000000	54.444667
2483.000000	54.467992
2482.000000	54.490401
2481.000000	54.513130
2480.000000	54.537185
2479.000000	54.562214
2478.000000	54.588791
2477.000000	54.618966
2476.000000	54.653874
2475.000000	54.693312
2474.000000	54.738163
2473.000000	54.790928
2472.000000	54.852574
2471.000000	54.921400
2470.000000	54.995585
2469.000000	55.073928
2468.000000	55.153751
2467.000000	55.230713
2466.000000	55.301872
2465.000000	55.366698
2464.000000	55.424667
2463.000000	55.474525
2462.000000	55.516808
2461.000000	55.554445
2460.000000	55.589588
2459.000000	55.622384
2458.000000	55.652898
2457.000000	55.681706
2456.000000	55.707768
2455.000000	55.728169
2454.000000	55.741565
2453.000000	55.749608
2452.000000	55.754705
2451.000000	55.758867
2450.000000	55.765286
2449.000000	55.778147
2448.000000	55.799713
2447.000000	55.829692
2446.000000	55.867965
2445.000000	55.915556
2444.000000	55.971764
2443.000000	56.033124
2442.000000	56.095976
2441.000000	56.157787
2440.000000	56.215849
2439.000000	56.267385
2438.000000	56.312117
2437.000000	56.352263
2436.000000	56.389245
2435.000000	56.422242
2434.000000	56.450462
2433.000000	56.474102
2432.000000	56.492270
2431.000000	56.503038
2430.000000	56.505741
2429.000000	56.501244
2428.000000	56.489061
2427.000000	56.466605
2426.000000	56.432644
2425.000000	56.388519
2424.000000	56.336080
2423.000000	56.277309
2422.000000	56.216847
2421.000000	56.162205
2420.000000	56.119742
2419.000000	56.092362
2418.000000	56.081066
2417.000000	56.085504
2416.000000	56.101478
2415.000000	56.121118
2414.000000	56.137013
2413.000000	56.144288
2412.000000	56.138520
2411.000000	56.115268
2410.000000	56.073271
2409.000000	56.015713
2408.000000	55.947327
2407.000000	55.871991
2406.000000	55.794160
2405.000000	55.718987
2404.000000	55.649509
2403.000000	55.586202
2402.000000	55.530238
2401.000000	55.484556
2400.000000	55.450559
2399.000000	55.426561
2398.000000	55.410248
2397.000000	55.399893
2396.000000	55.391742
2395.000000	55.379472
2394.000000	55.357876
2393.000000	55.325138
2392.000000	55.280433
2391.000000	55.222944
2390.000000	55.154831
2389.000000	55.081516
2388.000000	55.008666
2387.000000	54.939273
2386.000000	54.875706
2385.000000	54.821300
2384.000000	54.776612
2383.000000	54.739521
2382.000000	54.708255
2381.000000	54.683549
2380.000000	54.665995
2379.000000	54.652931
2378.000000	54.641280
2377.000000	54.629752
2376.000000	54.614090
2375.000000	54.584370
2374.000000	54.530838
2373.000000	54.448887
2372.000000	54.337863
2371.000000	54.198937
2370.000000	54.036590
2369.000000	53.864794
2368.000000	53.700609
2367.000000	53.555875
2366.000000	53.438673
2365.000000	53.361345
2364.000000	53.338753
2363.000000	53.364994
2362.000000	53.431015
2361.000000	53.536573
2360.000000	53.669326
2359.000000	53.819146
2358.000000	53.967035
2357.000000	54.102482
2356.000000	54.216852
2355.000000	54.285302
2354.000000	54.307552
2353.000000	54.314389
2352.000000	54.359379
2351.000000	54.444870
2350.000000	54.516605
2349.000000	54.545032
2348.000000	54.529925
2347.000000	54.521309
2346.000000	54.559398
2345.000000	54.650717
2344.000000	54.762295
2343.000000	54.844006
2342.000000	54.907651
2341.000000	54.965300
2340.000000	55.018258
2339.000000	55.053993
2338.000000	55.076145
2337.000000	55.093416
2336.000000	55.112316
2335.000000	55.123500
2334.000000	55.126263
2333.000000	55.113600
2332.000000	55.089461
2331.000000	55.052915
2330.000000	54.999307
2329.000000	54.946933
2328.000000	54.895803
2327.000000	54.863603
2326.000000	54.849817
2325.000000	54.854356
2324.000000	54.872671
2323.000000	54.889681
2322.000000	54.911594
2321.000000	54.933843
2320.000000	54.960604
2319.000000	54.980082
2318.000000	54.990229
2317.000000	54.987864
2316.000000	54.972001
2315.000000	54.940448
2314.000000	54.891608
2313.000000	54.827454
2312.000000	54.746540
2311.000000	54.652233
2310.000000	54.548238
2309.000000	54.441883
2308.000000	54.333638
2307.000000	54.222571
2306.000000	54.108697
2305.000000	53.993345
2304.000000	53.877369
2303.000000	53.759761
2302.000000	53.642609
2301.000000	53.528557
2300.000000	53.416561
2299.000000	53.305657
2298.000000	53.197113
2297.000000	53.098134
2296.000000	53.012465
2295.000000	52.945052
2294.000000	52.900056
2293.000000	52.883952
2292.000000	52.897688
2291.000000	52.939005
2290.000000	53.004625
2289.000000	53.091267
2288.000000	53.193544
2287.000000	53.305173
2286.000000	53.422863
2285.000000	53.544344
2284.000000	53.665362
2283.000000	53.780414
2282.000000	53.888289
2281.000000	53.990163
2280.000000	54.085634
2279.000000	54.171652
2278.000000	54.247895
2277.000000	54.316873
2276.000000	54.380926
2275.000000	54.442176
2274.000000	54.504998
2273.000000	54.575934
2272.000000	54.659210
2271.000000	54.756639
2270.000000	54.870326
2269.000000	55.001982
2268.000000	55.149826
2267.000000	55.309226
2266.000000	55.476416
2265.000000	55.649551
2264.000000	55.824999
2263.000000	55.998582
2262.000000	56.168067
2261.000000	56.332952
2260.000000	56.491603
2259.000000	56.640647
2258.000000	56.779086
2257.000000	56.907393
2256.000000	57.025829
2255.000000	57.134159
2254.000000	57.234840
2253.000000	57.332370
2252.000000	57.429714
2251.000000	57.528075
2250.000000	57.628788
2249.000000	57.732583
2248.000000	57.836795
2247.000000	57.936832
2246.000000	58.029472
2245.000000	58.113937
2244.000000	58.189472
2243.000000	58.255693
2242.000000	58.314622
2241.000000	58.369602
2240.000000	58.421345
2239.000000	58.467382
2238.000000	58.505108
2237.000000	58.532851
2236.000000	58.549097
2235.000000	58.553672
2234.000000	58.550575
2233.000000	58.546904
2232.000000	58.548827
2231.000000	58.560072
2230.000000	58.582929
2229.000000	58.617114
2228.000000	58.657706
2227.000000	58.697396
2226.000000	58.731379
2225.000000	58.758277
2224.000000	58.777434
2223.000000	58.788812
2222.000000	58.795312
2221.000000	58.801939
2220.000000	58.811997
2219.000000	58.826415
2218.000000	58.846236
2217.000000	58.872773
2216.000000	58.905253
2215.000000	58.941248
2214.000000	58.979752
2213.000000	59.021341
2212.000000	59.065737
2211.000000	59.111851
2210.000000	59.160055
2209.000000	59.211253
2208.000000	59.263690
2207.000000	59.313246
2206.000000	59.356799
2205.000000	59.392838
2204.000000	59.419167
2203.000000	59.433407
2202.000000	59.436074
2201.000000	59.430698
2200.000000	59.420659
2199.000000	59.408210
2198.000000	59.396303
2197.000000	59.388336
2196.000000	59.385862
2195.000000	59.388876
2194.000000	59.398581
2193.000000	59.417411
2192.000000	59.446432
2191.000000	59.485112
2190.000000	59.533153
2189.000000	59.590016
2188.000000	59.652866
2187.000000	59.717863
2186.000000	59.783104
2185.000000	59.847954
2184.000000	59.910181
2183.000000	59.966726
2182.000000	60.017201
2181.000000	60.063750
2180.000000	60.107862
2179.000000	60.149800
2178.000000	60.190545
2177.000000	60.231038
2176.000000	60.269273
2175.000000	60.300982
2174.000000	60.323290
2173.000000	60.335665
2172.000000	60.338038
2171.000000	60.331152
2170.000000	60.318749
2169.000000	60.306359
2168.000000	60.297380
2167.000000	60.292321
2166.000000	60.291313
2165.000000	60.294340
2164.000000	60.299174
2163.000000	60.302365
2162.000000	60.302802
2161.000000	60.302297
2160.000000	60.303060
2159.000000	60.307198
2158.000000	60.318152
2157.000000	60.339223
2156.000000	60.370120
2155.000000	60.407138
2154.000000	60.446549
2153.000000	60.485500
2152.000000	60.520602
2151.000000	60.549062
2150.000000	60.571562
2149.000000	60.591463
2148.000000	60.611021
2147.000000	60.630654
2146.000000	60.651036
2145.000000	60.672828
2144.000000	60.694544
2143.000000	60.713356
2142.000000	60.728069
2141.000000	60.739309
2140.000000	60.747410
2139.000000	60.752628
2138.000000	60.756777
2137.000000	60.761787
2136.000000	60.766760
2135.000000	60.768760
2134.000000	60.766005
2133.000000	60.757776
2132.000000	60.742235
2131.000000	60.717634
2130.000000	60.685635
2129.000000	60.650741
2128.000000	60.616729
2127.000000	60.586023
2126.000000	60.561515
2125.000000	60.545597
2124.000000	60.537555
2123.000000	60.535218
2122.000000	60.539069
2121.000000	60.552017
2120.000000	60.575730
2119.000000	60.609960
2118.000000	60.654461
2117.000000	60.708112
2116.000000	60.766320
2115.000000	60.822434
2114.000000	60.871899
2113.000000	60.912680
2112.000000	60.942803
2111.000000	60.961043
2110.000000	60.969668
2109.000000	60.973425
2108.000000	60.975876
2107.000000	60.979103
2106.000000	60.986229
2105.000000	61.000532
2104.000000	61.021617
2103.000000	61.045071
2102.000000	61.065576
2101.000000	61.078021
2100.000000	61.076806
2099.000000	61.057875
2098.000000	61.022294
2097.000000	60.975412
2096.000000	60.922874
2095.000000	60.870369
2094.000000	60.825657
2093.000000	60.796443
2092.000000	60.785991
2091.000000	60.793426
2090.000000	60.817784
2089.000000	60.858425
2088.000000	60.911925
2087.000000	60.972551
2086.000000	61.035725
2085.000000	61.097854
2084.000000	61.153874
2083.000000	61.198561
2082.000000	61.229856
2081.000000	61.248261
2080.000000	61.253631
2079.000000	61.245545
2078.000000	61.226386
2077.000000	61.200007
2076.000000	61.167422
2075.000000	61.127282
2074.000000	61.079303
2073.000000	61.024315
2072.000000	60.961410
2071.000000	60.888465
2070.000000	60.806455
2069.000000	60.719393
2068.000000	60.629490
2067.000000	60.535532
2066.000000	60.436447
2065.000000	60.333663
2064.000000	60.228984
2063.000000	60.123080
2062.000000	60.016201
2061.000000	59.907476
2060.000000	59.794043
2059.000000	59.674040
2058.000000	59.550501
2057.000000	59.429493
2056.000000	59.315067
2055.000000	59.208970
2054.000000	59.113836
2053.000000	59.032318
2052.000000	58.963262
2051.000000	58.902483
2050.000000	58.847634
2049.000000	58.799307
2048.000000	58.757252
2047.000000	58.719982
2046.000000	58.689170
2045.000000	58.669144
2044.000000	58.661134
2043.000000	58.662123
2042.000000	58.669788
2041.000000	58.684938
2040.000000	58.708325
2039.000000	58.739784
2038.000000	58.780949
2037.000000	58.834317
2036.000000	58.899888
2035.000000	58.976042
2034.000000	59.063181
2033.000000	59.162145
2032.000000	59.269449
2031.000000	59.378926
2030.000000	59.487144
2029.000000	59.593247
2028.000000	59.694785
2027.000000	59.788831
2026.000000	59.876675
2025.000000	59.962777
2024.000000	60.049021
2023.000000	60.133798
2022.000000	60.217332
2021.000000	60.302370
2020.000000	60.388534
2019.000000	60.471096
2018.000000	60.546994
2017.000000	60.618582
2016.000000	60.690867
2015.000000	60.768800
2014.000000	60.856985
2013.000000	60.957249
2012.000000	61.065292
2011.000000	61.173770
2010.000000	61.279044
2009.000000	61.381150
2008.000000	61.478713
2007.000000	61.569676
2006.000000	61.656193
2005.000000	61.743560
2004.000000	61.834157
2003.000000	61.926142
2002.000000	62.018395
2001.000000	62.110553
2000.000000	62.199637
1999.000000	62.281268
1998.000000	62.353464
1997.000000	62.419083
1996.000000	62.483591
1995.000000	62.550349
1994.000000	62.618462
1993.000000	62.685034
1992.000000	62.749962
1991.000000	62.818614
1990.000000	62.897476
1989.000000	62.987074
1988.000000	63.081209
1987.000000	63.173102
1986.000000	63.261323
1985.000000	63.348569
1984.000000	63.436492
1983.000000	63.524818
1982.000000	63.614216
1981.000000	63.705787
1980.000000	63.798967
1979.000000	63.891606
1978.000000	63.981247
1977.000000	64.067250
1976.000000	64.151283
1975.000000	64.235534
1974.000000	64.320997
1973.000000	64.408126
1972.000000	64.498141
1971.000000	64.591574
1970.000000	64.684728
1969.000000	64.769071
1968.000000	64.834806
1967.000000	64.876868
1966.000000	64.899150
1965.000000	64.911025
1964.000000	64.919476
1963.000000	64.924741
1962.000000	64.923070
1961.000000	64.913317
1960.000000	64.898772
1959.000000	64.882737
1958.000000	64.865153
1957.000000	64.844993
1956.000000	64.824256
1955.000000	64.807800
1954.000000	64.800249
1953.000000	64.805223
1952.000000	64.824839
1951.000000	64.858675
1950.000000	64.904179
1949.000000	64.955767
1948.000000	65.006319
1947.000000	65.051605
1946.000000	65.090778
1945.000000	65.121785
1944.000000	65.138390
1943.000000	65.136011
1942.000000	65.121464
1941.000000	65.110574
1940.000000	65.114370
1939.000000	65.131699
1938.000000	65.152805
1937.000000	65.167529
1936.000000	65.171648
1935.000000	65.166007
1934.000000	65.152439
1933.000000	65.133259
1932.000000	65.111135
1931.000000	65.090400
1930.000000	65.077133
1929.000000	65.072778
1928.000000	65.075023
1927.000000	65.083816
1926.000000	65.102248
1925.000000	65.127928
1924.000000	65.147875
1923.000000	65.154806
1922.000000	65.160214
1921.000000	65.178933
1920.000000	65.210002
1919.000000	65.239881
1918.000000	65.259047
1917.000000	65.268483
1916.000000	65.269195
1915.000000	65.260302
1914.000000	65.244811
1913.000000	65.226741
1912.000000	65.206291
1911.000000	65.183989
1910.000000	65.165353
1909.000000	65.154362
1908.000000	65.149861
1907.000000	65.150448
1906.000000	65.159597
1905.000000	65.178804
1904.000000	65.200682
1903.000000	65.222735
1902.000000	65.255273
1901.000000	65.306621
1900.000000	65.374188
1899.000000	65.453562
1898.000000	65.545015
1897.000000	65.643636
1896.000000	65.731939
1895.000000	65.798040
1894.000000	65.851376
1893.000000	65.906851
1892.000000	65.964484
1891.000000	66.014773
1890.000000	66.055067
1889.000000	66.093117
1888.000000	66.135969
1887.000000	66.185083
1886.000000	66.240006
1885.000000	66.294798
1884.000000	66.338933
1883.000000	66.371890
1882.000000	66.406503
1881.000000	66.451160
1880.000000	66.502381
1879.000000	66.556397
1878.000000	66.616592
1877.000000	66.685167
1876.000000	66.753557
1875.000000	66.812649
1874.000000	66.866823
1873.000000	66.925127
1872.000000	66.986418
1871.000000	67.043312
1870.000000	67.092043
1869.000000	67.133570
1868.000000	67.170577
1867.000000	67.209323
1866.000000	67.260617
1865.000000	67.327060
1864.000000	67.395621
1863.000000	67.453443
1862.000000	67.503704
1861.000000	67.556130
1860.000000	67.611013
1859.000000	67.665788
1858.000000	67.726701
1857.000000	67.798510
1856.000000	67.871795
1855.000000	67.934706
1854.000000	67.987042
1853.000000	68.031331
1852.000000	68.068696
1851.000000	68.105752
1850.000000	68.152370
1849.000000	68.213167
1848.000000	68.282977
1847.000000	68.356533
1846.000000	68.431013
1845.000000	68.496329
1844.000000	68.542796
1843.000000	68.576163
1842.000000	68.606914
1841.000000	68.640449
1840.000000	68.680079
1839.000000	68.724453
1838.000000	68.772041
1837.000000	68.823960
1836.000000	68.880230
1835.000000	68.942296
1834.000000	69.011070
1833.000000	69.081567
1832.000000	69.145266
1831.000000	69.188666
1830.000000	69.206641
1829.000000	69.222108
1828.000000	69.261879
1827.000000	69.327459
1826.000000	69.402735
1825.000000	69.474264
1824.000000	69.539719
1823.000000	69.600704
1822.000000	69.658826
1821.000000	69.717869
1820.000000	69.777727
1819.000000	69.830763
1818.000000	69.875605
1817.000000	69.921852
1816.000000	69.973398
1815.000000	70.023949
1814.000000	70.066736
1813.000000	70.098553
1812.000000	70.111320
1811.000000	70.095625
1810.000000	70.065292
1809.000000	70.046928
1808.000000	70.045662
1807.000000	70.051950
1806.000000	70.069144
1805.000000	70.106258
1804.000000	70.151748
1803.000000	70.179140
1802.000000	70.173727
1801.000000	70.147420
1800.000000	70.122960
1799.000000	70.115024
1798.000000	70.135256
1797.000000	70.185662
1796.000000	70.250912
1795.000000	70.315598
1794.000000	70.374147
1793.000000	70.421297
1792.000000	70.444690
1791.000000	70.438239
1790.000000	70.419396
1789.000000	70.412847
1788.000000	70.425592
1787.000000	70.448488
1786.000000	70.477324
1785.000000	70.516992
1784.000000	70.566883
1783.000000	70.618167
1782.000000	70.656847
1781.000000	70.673328
1780.000000	70.671476
1779.000000	70.665159
1778.000000	70.671250
1777.000000	70.697721
1776.000000	70.745650
1775.000000	70.815328
1774.000000	70.898451
1773.000000	70.982342
1772.000000	71.068397
1771.000000	71.154654
1770.000000	71.226708
1769.000000	71.286001
1768.000000	71.345576
1767.000000	71.408628
1766.000000	71.472519
1765.000000	71.541791
1764.000000	71.620775
1763.000000	71.691135
1762.000000	71.726635
1761.000000	71.739198
1760.000000	71.757594
1759.000000	71.784907
1758.000000	71.809244
1757.000000	71.825853
1756.000000	71.857197
1755.000000	71.917278
1754.000000	71.988944
1753.000000	72.058887
1752.000000	72.128387
1751.000000	72.193528
1750.000000	72.240323
1749.000000	72.264526
1748.000000	72.289215
1747.000000	72.344263
1746.000000	72.427414
1745.000000	72.520679
1744.000000	72.615953
1743.000000	72.703659
1742.000000	72.769966
1741.000000	72.811511
1740.000000	72.837703
1739.000000	72.858112
1738.000000	72.870461
1737.000000	72.877293
1736.000000	72.892569
1735.000000	72.912642
1734.000000	72.942794
1733.000000	73.005459
1732.000000	73.071477
1731.000000	73.103376
1730.000000	73.105966
1729.000000	73.086002
1728.000000	73.056746
1727.000000	73.033219
1726.000000	73.020966
1725.000000	73.020586
1724.000000	73.032352
1723.000000	73.059455
1722.000000	73.110470
1721.000000	73.183987
1720.000000	73.264401
1719.000000	73.318603
1718.000000	73.329770
1717.000000	73.333641
1716.000000	73.341674
1715.000000	73.333905
1714.000000	73.338349
1713.000000	73.386139
1712.000000	73.457911
1711.000000	73.526337
1710.000000	73.595211
1709.000000	73.673327
1708.000000	73.750271
1707.000000	73.811209
1706.000000	73.865713
1705.000000	73.939086
1704.000000	74.021786
1703.000000	74.096981
1702.000000	74.175088
1701.000000	74.265147
1700.000000	74.369236
1699.000000	74.466798
1698.000000	74.533168
1697.000000	74.592472
1696.000000	74.669332
1695.000000	74.765403
1694.000000	74.868846
1693.000000	74.960422
1692.000000	75.053623
1691.000000	75.157155
1690.000000	75.252097
1689.000000	75.314014
1688.000000	75.347762
1687.000000	75.381674
1686.000000	75.427135
1685.000000	75.448754
1684.000000	75.445760
1683.000000	75.489314
1682.000000	75.566244
1681.000000	75.617317
1680.000000	75.647528
1679.000000	75.672138
1678.000000	75.685816
1677.000000	75.662886
1676.000000	75.601491
1675.000000	75.545994
1674.000000	75.526655
1673.000000	75.519210
1672.000000	75.514438
1671.000000	75.530756
1670.000000	75.566680
1669.000000	75.596570
1668.000000	75.609397
1667.000000	75.612517
1666.000000	75.603225
1665.000000	75.567495
1664.000000	75.496859
1663.000000	75.414494
1662.000000	75.350775
1661.000000	75.288212
1660.000000	75.204651
1659.000000	75.114677
1658.000000	75.025221
1657.000000	74.911648
1656.000000	74.751824
1655.000000	74.516161
1654.000000	74.078910
1653.000000	73.431019
1652.000000	72.805001
1651.000000	72.224854
1650.000000	71.543453
1649.000000	70.643380
1648.000000	69.296903
1647.000000	67.336200
1646.000000	64.862281
1645.000000	62.095648
1644.000000	59.066737
1643.000000	55.677865
1642.000000	51.879572
1641.000000	47.794124
1640.000000	43.755847
1639.000000	40.113620
1638.000000	37.024979
1637.000000	34.520251
1636.000000	32.770070
1635.000000	32.056878
1634.000000	32.352097
1633.000000	33.358013
1632.000000	34.840971
1631.000000	36.677581
1630.000000	38.787331
1629.000000	41.092364
1628.000000	43.486561
1627.000000	45.811536
1626.000000	47.962335
1625.000000	49.996170
1624.000000	52.030152
1623.000000	54.042139
1622.000000	55.867518
1621.000000	57.415054
1620.000000	58.758182
1619.000000	60.019393
1618.000000	61.267738
1617.000000	62.502234
1616.000000	63.647111
1615.000000	64.585473
1614.000000	65.283895
1613.000000	65.830364
1612.000000	66.322058
1611.000000	66.770287
1610.000000	67.114541
1609.000000	67.316685
1608.000000	67.377231
1607.000000	67.265572
1606.000000	66.904145
1605.000000	66.228905
1604.000000	65.226096
1603.000000	63.887732
1602.000000	62.222688
1601.000000	60.331520
1600.000000	58.403738
1599.000000	56.626426
1598.000000	55.107803
1597.000000	53.888840
1596.000000	52.971503
1595.000000	52.302113
1594.000000	51.762973
1593.000000	51.238363
1592.000000	50.679487
1591.000000	50.076154
1590.000000	49.409015
1589.000000	48.663059
1588.000000	47.852561
1587.000000	46.983056
1586.000000	46.017919
1585.000000	44.922524
1584.000000	43.722657
1583.000000	42.468311
1582.000000	41.168913
1581.000000	39.828689
1580.000000	38.489739
1579.000000	37.148009
1578.000000	35.644279
1577.000000	33.744426
1576.000000	31.499680
1575.000000	29.351550
1574.000000	27.600510
1573.000000	26.159431
1572.000000	24.862261
1571.000000	23.650735
1570.000000	22.570069
1569.000000	21.711177
1568.000000	21.153729
1567.000000	20.919944
1566.000000	20.945002
1565.000000	21.121732
1564.000000	21.403890
1563.000000	21.815040
1562.000000	22.380801
1561.000000	23.112969
1560.000000	24.096874
1559.000000	25.401230
1558.000000	26.783185
1557.000000	27.919484
1556.000000	28.814125
1555.000000	29.629957
1554.000000	30.402825
1553.000000	31.067163
1552.000000	31.609762
1551.000000	32.121069
1550.000000	32.688535
1549.000000	33.333515
1548.000000	34.063271
1547.000000	34.926547
1546.000000	35.957151
1545.000000	37.098262
1544.000000	38.248500
1543.000000	39.371138
1542.000000	40.503755
1541.000000	41.673076
1540.000000	42.853809
1539.000000	43.991350
1538.000000	45.003024
1537.000000	45.855011
1536.000000	46.634351
1535.000000	47.466211
1534.000000	48.389177
1533.000000	49.318031
1532.000000	50.166122
1531.000000	50.942693
1530.000000	51.698964
1529.000000	52.447956
1528.000000	53.175789
1527.000000	53.884234
1526.000000	54.565942
1525.000000	55.188503
1524.000000	55.748190
1523.000000	56.287697
1522.000000	56.822808
1521.000000	57.312110
1520.000000	57.736408
1519.000000	58.132568
1518.000000	58.536139
1517.000000	58.940225
1516.000000	59.329078
1515.000000	59.715627
1514.000000	60.106813
1513.000000	60.494934
1512.000000	60.873992
1511.000000	61.243441
1510.000000	61.599536
1509.000000	61.934737
1508.000000	62.235870
1507.000000	62.505351
1506.000000	62.823534
1505.000000	63.203268
1504.000000	63.557233
1503.000000	63.878636
1502.000000	64.188874
1501.000000	64.475469
1500.000000	64.732449
1499.000000	64.980414
1498.000000	65.230573
1497.000000	65.481107
1496.000000	65.746777
1495.000000	66.039095
1494.000000	66.334543
1493.000000	66.607104
1492.000000	66.864287
1491.000000	67.116657
1490.000000	67.337743
1489.000000	67.501801
1488.000000	67.630850
1487.000000	67.762771
1486.000000	67.893573
1485.000000	67.965953
1484.000000	67.943167
1483.000000	67.816252
1482.000000	67.540190
1481.000000	67.060066
1480.000000	66.371551
1479.000000	65.460110
1478.000000	64.201034
1477.000000	62.455378
1476.000000	60.247275
1475.000000	57.716097
1474.000000	54.911368
1473.000000	51.901046
1472.000000	49.065561
1471.000000	46.850884
1470.000000	45.334149
1469.000000	44.356999
1468.000000	43.830817
1467.000000	43.786896
1466.000000	44.296506
1465.000000	45.341999
1464.000000	46.715712
1463.000000	48.081447
1462.000000	49.172692
1461.000000	49.875044
1460.000000	50.146604
1459.000000	49.929069
1458.000000	49.127458
1457.000000	47.865142
1456.000000	46.641173
1455.000000	45.817681
1454.000000	45.331455
1453.000000	45.022688
1452.000000	44.813856
1451.000000	44.687363
1450.000000	44.651979
1449.000000	44.739821
1448.000000	44.977202
1447.000000	45.337319
1446.000000	45.761951
1445.000000	46.234881
1444.000000	46.794367
1443.000000	47.477998
1442.000000	48.308494
1441.000000	49.308818
1440.000000	50.499743
1439.000000	51.896706
1438.000000	53.516237
1437.000000	55.303075
1436.000000	57.033890
1435.000000	58.465430
1434.000000	59.574352
1433.000000	60.498261
1432.000000	61.328743
1431.000000	62.061842
1430.000000	62.678153
1429.000000	63.200277
1428.000000	63.655272
1427.000000	64.055433
1426.000000	64.417533
1425.000000	64.760490
1424.000000	65.095578
1423.000000	65.420403
1422.000000	65.740876
1421.000000	66.071385
1420.000000	66.401014
1419.000000	66.685574
1418.000000	66.910081
1417.000000	67.117040
1416.000000	67.341037
1415.000000	67.584420
1414.000000	67.839702
1413.000000	68.105832
1412.000000	68.378078
1411.000000	68.639336
1410.000000	68.880682
1409.000000	69.116209
1408.000000	69.354548
1407.000000	69.586402
1406.000000	69.802682
1405.000000	70.001602
1404.000000	70.181347
1403.000000	70.322966
1402.000000	70.386733
1401.000000	70.305377
1400.000000	69.995293
1399.000000	69.452024
1398.000000	68.833274
1397.000000	68.369856
1396.000000	68.211975
1395.000000	68.365778
1394.000000	68.702838
1393.000000	69.067861
1392.000000	69.405059
1391.000000	69.760808
1390.000000	70.205709
1389.000000	70.770369
1388.000000	71.423977
1387.000000	72.091980
1386.000000	72.702585
1385.000000	73.217378
1384.000000	73.628923
1383.000000	73.946966
1382.000000	74.198384
1381.000000	74.414233
1380.000000	74.599417
1379.000000	74.727724
1378.000000	74.757692
1377.000000	74.618375
1376.000000	74.141922
1375.000000	73.016992
1374.000000	70.852951
1373.000000	67.385321
1372.000000	62.685708
1371.000000	57.264906
1370.000000	52.067192
1369.000000	48.250154
1368.000000	46.643646
1367.000000	47.210526
1366.000000	49.118777
1365.000000	51.297066
1364.000000	52.849849
1363.000000	53.235830
1362.000000	52.438545
1361.000000	51.046411
1360.000000	49.993263
1359.000000	50.092586
1358.000000	51.658833
1357.000000	54.383297
1356.000000	57.575411
1355.000000	60.587204
1354.000000	63.089450
1353.000000	65.063086
1352.000000	66.618642
1351.000000	67.865173
1350.000000	68.882896
1349.000000	69.722509
1348.000000	70.414859
1347.000000	70.990482
1346.000000	71.489593
1345.000000	71.946221
1344.000000	72.379205
1343.000000	72.798912
1342.000000	73.215434
1341.000000	73.625563
1340.000000	74.004279
1339.000000	74.330013
1338.000000	74.607005
1337.000000	74.852313
1336.000000	75.070692
1335.000000	75.250465
1334.000000	75.367159
1333.000000	75.359691
1332.000000	75.110608
1331.000000	74.471010
1330.000000	73.322323
1329.000000	71.629736
1328.000000	69.419203
1327.000000	66.715977
1326.000000	63.545125
1325.000000	60.059650
1324.000000	56.710795
1323.000000	54.180522
1322.000000	52.988475
1321.000000	53.123816
1320.000000	54.087126
1319.000000	55.278809
1318.000000	56.360390
1317.000000	57.292045
1316.000000	58.143370
1315.000000	58.963590
1314.000000	59.789898
1313.000000	60.698378
1312.000000	61.787592
1311.000000	63.101815
1310.000000	64.574144
1309.000000	66.041891
1308.000000	67.316649
1307.000000	68.259914
1306.000000	68.816979
1305.000000	68.981918
1304.000000	68.753705
1303.000000	68.119937
1302.000000	67.070438
1301.000000	65.643303
1300.000000	63.982836
1299.000000	62.363221
1298.000000	61.103204
1297.000000	60.397389
1296.000000	60.203509
1295.000000	60.272145
1294.000000	60.276284
1293.000000	59.935405
1292.000000	59.080477
1291.000000	57.660247
1290.000000	55.697959
1289.000000	53.263921
1288.000000	50.529155
1287.000000	47.845950
1286.000000	45.695937
1285.000000	44.476053
1284.000000	44.302595
1283.000000	45.010761
1282.000000	46.342686
1281.000000	48.111555
1280.000000	50.190433
1279.000000	52.376969
1278.000000	54.336445
1277.000000	55.728711
1276.000000	56.383212
1275.000000	56.359836
1274.000000	55.891996
1273.000000	55.308414
1272.000000	54.972700
1271.000000	55.201348
1270.000000	56.147220
1269.000000	57.729466
1268.000000	59.684827
1267.000000	61.709049
1266.000000	63.580148
1265.000000	65.199833
1264.000000	66.564099
1263.000000	67.712056
1262.000000	68.690586
1261.000000	69.538526
1260.000000	70.280989
1259.000000	70.932575
1258.000000	71.509396
1257.000000	72.025404
1256.000000	72.485908
1255.000000	72.893499
1254.000000	73.256296
1253.000000	73.588384
1252.000000	73.899963
1251.000000	74.197214
1250.000000	74.488401
1249.000000	74.779908
1248.000000	75.069495
1247.000000	75.349348
1246.000000	75.614806
1245.000000	75.864625
1244.000000	76.094972
1243.000000	76.302860
1242.000000	76.492663
1241.000000	76.670881
1240.000000	76.835943
1239.000000	76.979066
1238.000000	77.094433
1237.000000	77.178999
1236.000000	77.225648
1235.000000	77.227733
1234.000000	77.187472
1233.000000	77.114172
1232.000000	77.014450
1231.000000	76.890376
1230.000000	76.744516
1229.000000	76.572072
1228.000000	76.352076
1227.000000	76.050236
1226.000000	75.626146
1225.000000	75.038090
1224.000000	74.235065
1223.000000	73.164855
1222.000000	71.786246
1221.000000	70.067363
1220.000000	67.998862
1219.000000	65.606977
1218.000000	62.962753
1217.000000	60.173794
1216.000000	57.370961
1215.000000	54.705304
1214.000000	52.342764
1213.000000	50.445784
1212.000000	49.145875
1211.000000	48.513156
1210.000000	48.505022
1209.000000	48.963444
1208.000000	49.661530
1207.000000	50.357943
1206.000000	50.848660
1205.000000	50.993533
1204.000000	50.726248
1203.000000	50.052235
1202.000000	49.046298
1201.000000	47.856987
1200.000000	46.705290
1199.000000	45.847248
1198.000000	45.494746
1197.000000	45.740007
1196.000000	46.548304
1195.000000	47.795151
1194.000000	49.325592
1193.000000	51.010065
1192.000000	52.761026
1191.000000	54.531059
1190.000000	56.291007
1189.000000	58.016335
1188.000000	59.683777
1187.000000	61.267661
1186.000000	62.740170
1185.000000	64.079457
1184.000000	65.276383
1183.000000	66.330766
1182.000000	67.251749
1181.000000	68.051531
1180.000000	68.743915
1179.000000	69.347860
1178.000000	69.881339
1177.000000	70.354936
1176.000000	70.759261
1175.000000	71.067442
1174.000000	71.248966
1173.000000	71.266595
1172.000000	71.077383
1171.000000	70.630254
1170.000000	69.871036
1169.000000	68.753314
1168.000000	67.245418
1167.000000	65.369351
1166.000000	63.239053
1165.000000	61.069303
1164.000000	59.141259
1163.000000	57.732347
1162.000000	57.023512
1161.000000	57.046323
1160.000000	57.698781
1159.000000	58.791233
1158.000000	60.118618
1157.000000	61.503948
1156.000000	62.817539
1155.000000	63.978346
1154.000000	64.941115
1153.000000	65.684602
1152.000000	66.199753
1151.000000	66.482925
1150.000000	66.528674
1149.000000	66.334322
1148.000000	65.883135
1147.000000	65.139804
1146.000000	64.053192
1145.000000	62.543809
1144.000000	60.523295
1143.000000	57.913296
1142.000000	54.694916
1141.000000	50.969589
1140.000000	46.980905
1139.000000	43.073727
1138.000000	39.563632
1137.000000	36.603236
1136.000000	34.144200
1135.000000	32.026999
1134.000000	30.116728
1133.000000	28.445488
1132.000000	27.263685
1131.000000	26.928014
1130.000000	27.732669
1129.000000	29.738233
1128.000000	32.732130
1127.000000	36.285428
1126.000000	39.847645
1125.000000	42.865627
1124.000000	44.880212
1123.000000	45.590384
1122.000000	44.896618
1121.000000	42.925425
1120.000000	39.956020
1119.000000	36.352115
1118.000000	32.547784
1117.000000	29.082667
1116.000000	26.584417
1115.000000	25.599824
1114.000000	26.342883
1113.000000	28.568943
1112.000000	31.662323
1111.000000	34.816289
1110.000000	37.305926
1109.000000	38.777360
1108.000000	39.400750
1107.000000	39.735454
1106.000000	40.353778
1105.000000	41.507348
1104.000000	43.048973
1103.000000	44.563643
1102.000000	45.528918
1101.000000	45.498198
1100.000000	44.301518
1099.000000	42.219645
1098.000000	39.978511
1097.000000	38.480248
1096.000000	38.394510
1095.000000	39.866193
1094.000000	42.510156
1093.000000	45.676391
1092.000000	48.796555
1091.000000	51.552621
1090.000000	53.860875
1089.000000	55.769998
1088.000000	57.370466
1087.000000	58.752272
1086.000000	59.989405
1085.000000	61.128523
1084.000000	62.184318
1083.000000	63.159273
1082.000000	64.052080
1081.000000	64.862073
1080.000000	65.587895
1079.000000	66.224299
1078.000000	66.767354
1077.000000	67.198304
1076.000000	67.473905
1075.000000	67.530105
1074.000000	67.275493
1073.000000	66.600508
1072.000000	65.352212
1071.000000	63.335897
1070.000000	60.339564
1069.000000	56.150024
1068.000000	50.672949
1067.000000	44.083882
1066.000000	36.948240
1065.000000	30.169587
1064.000000	24.715323
1063.000000	21.198743
1062.000000	19.548183
1061.000000	19.023435
1060.000000	18.625125
1059.000000	17.680227
1058.000000	16.164661
1057.000000	14.650772
1056.000000	13.923988
1055.000000	14.499549
1054.000000	16.405832
1053.000000	19.270786
1052.000000	22.597159
1051.000000	25.984000
1050.000000	29.182397
1049.000000	32.094721
1048.000000	34.730333
1047.000000	37.142389
1046.000000	39.366015
1045.000000	41.404909
1044.000000	43.247087
1043.000000	44.886926
1042.000000	46.331992
1041.000000	47.597637
1040.000000	48.712118
1039.000000	49.703795
1038.000000	50.591629
1037.000000	51.384905
1036.000000	52.084581
1035.000000	52.691675
1034.000000	53.204760
1033.000000	53.623796
1032.000000	53.958629
1031.000000	54.228430
1030.000000	54.459037
1029.000000	54.674348
1028.000000	54.890122
1027.000000	55.110058
1026.000000	55.319989
1025.000000	55.492202
1024.000000	55.592209
1023.000000	55.586055
1022.000000	55.448974
1021.000000	55.162666
1020.000000	54.716145
1019.000000	54.095969
1018.000000	53.272207
1017.000000	52.200146
1016.000000	50.824079
1015.000000	49.111905
1014.000000	47.097692
1013.000000	44.918044
1012.000000	42.811537
1011.000000	41.042865
1010.000000	39.769531
1009.000000	38.936382
1008.000000	38.305735
1007.000000	37.629806
1006.000000	36.882183
1005.000000	36.346151
1004.000000	36.460598
1003.000000	37.515133
1002.000000	39.421175
1001.000000	41.771150
1000.000000	44.073353
999.000000	45.955396
998.000000	47.228153
997.000000	47.853953
996.000000	47.911123
995.000000	47.580393
994.000000	47.131494
993.000000	46.873908
992.000000	47.071083
991.000000	47.838255
990.000000	49.091797
989.000000	50.607885
988.000000	52.156669
987.000000	53.592820
986.000000	54.866834
985.000000	55.985945
984.000000	56.973688
983.000000	57.848788
982.000000	58.620416
981.000000	59.292300
980.000000	59.872694
979.000000	60.383798
978.000000	60.852669
977.000000	61.301973
976.000000	61.745184
975.000000	62.185917
974.000000	62.619848
973.000000	63.034490
972.000000	63.415615
971.000000	63.754530
970.000000	64.049990
969.000000	64.307809
968.000000	64.539971
967.000000	64.764372
966.000000	64.999309
965.000000	65.254603
964.000000	65.529325
963.000000	65.815332
962.000000	66.101119
961.000000	66.373330
960.000000	66.619795
959.000000	66.835816
958.000000	67.026470
957.000000	67.202490
956.000000	67.375205
955.000000	67.554801
954.000000	67.749343
953.000000	67.961113
952.000000	68.185361
951.000000	68.414749
950.000000	68.643694
949.000000	68.867719
948.000000	69.082130
947.000000	69.284668
946.000000	69.477694
945.000000	69.664173
944.000000	69.843716
943.000000	70.014703
942.000000	70.178290
941.000000	70.337496
940.000000	70.494251
939.000000	70.651487
938.000000	70.815687
937.000000	70.992817
936.000000	71.182329
935.000000	71.377604
934.000000	71.570177
933.000000	71.750356
932.000000	71.907261
931.000000	72.035275
930.000000	72.139883
929.000000	72.234123
928.000000	72.330582
927.000000	72.439951
926.000000	72.572945
925.000000	72.735228
924.000000	72.920206
923.000000	73.111667
922.000000	73.293210
921.000000	73.451850
920.000000	73.576687
919.000000	73.663663
918.000000	73.722735
917.000000	73.773728
916.000000	73.835077
915.000000	73.919460
914.000000	74.034956
913.000000	74.180989
912.000000	74.341091
911.000000	74.488151
910.000000	74.593140
909.000000	74.619982
908.000000	74.516552
907.000000	74.214394
906.000000	73.649018
905.000000	72.770016
904.000000	71.554396
903.000000	70.058074
902.000000	68.480834
901.000000	67.162231
900.000000	66.457704
899.000000	66.554489
898.000000	67.363120
897.000000	68.590109
896.000000	69.906491
895.000000	71.087914
894.000000	72.054385
893.000000	72.817145
892.000000	73.420844
891.000000	73.910818
890.000000	74.324998
889.000000	74.685847
888.000000	74.999222
887.000000	75.247626
886.000000	75.382214
885.000000	75.322046
884.000000	74.985045
883.000000	74.365625
882.000000	73.575865
881.000000	72.785055
880.000000	72.088358
879.000000	71.441534
878.000000	70.752679
877.000000	70.043921
876.000000	69.516352
875.000000	69.426632
874.000000	69.894844
873.000000	70.810904
872.000000	71.914971
871.000000	72.957643
870.000000	73.804940
869.000000	74.441457
868.000000	74.911625
867.000000	75.273390
866.000000	75.577034
865.000000	75.858041
864.000000	76.131318
863.000000	76.397243
862.000000	76.650369
861.000000	76.881300
860.000000	77.078147
859.000000	77.232719
858.000000	77.348875
857.000000	77.439434
856.000000	77.516599
855.000000	77.591077
854.000000	77.675195
853.000000	77.778977
852.000000	77.902376
851.000000	78.036991
850.000000	78.174732
849.000000	78.309700
848.000000	78.434886
847.000000	78.544781
846.000000	78.640711
845.000000	78.727895
844.000000	78.808782
843.000000	78.884942
842.000000	78.962319
841.000000	79.046753
840.000000	79.136934
839.000000	79.229570
838.000000	79.329637
837.000000	79.446590
836.000000	79.580766
835.000000	79.721123
834.000000	79.855491
833.000000	79.975821
832.000000	80.075411
831.000000	80.151107
830.000000	80.210584
829.000000	80.270719
828.000000	80.348262
827.000000	80.456874
826.000000	80.608861
825.000000	80.807327
824.000000	81.035516
823.000000	81.262893
822.000000	81.463237
821.000000	81.620791
820.000000	81.725323
819.000000	81.775811
818.000000	81.789074
817.000000	81.793772
816.000000	81.812648
815.000000	81.855737
814.000000	81.924159
813.000000	82.005860
812.000000	82.068495
811.000000	82.066115
810.000000	81.958058
809.000000	81.717945
808.000000	81.325601
807.000000	80.768106
806.000000	80.041531
805.000000	79.139862
804.000000	78.040004
803.000000	76.694265
802.000000	75.046642
801.000000	73.039455
800.000000	70.623114
799.000000	67.785615
798.000000	64.573348
797.000000	61.095218
796.000000	57.498470
795.000000	53.947068
794.000000	50.603611
793.000000	47.617144
792.000000	45.113264
791.000000	43.187936
790.000000	41.906507
789.000000	41.290408
788.000000	41.316616
787.000000	41.908051
786.000000	42.943609
785.000000	44.280648
784.000000	45.764935
783.000000	47.244240
782.000000	48.577625
781.000000	49.651653
780.000000	50.388597
779.000000	50.757823
778.000000	50.784373
777.000000	50.538905
776.000000	50.102723
775.000000	49.535811
774.000000	48.885631
773.000000	48.220062
772.000000	47.655072
771.000000	47.343478
770.000000	47.434440
769.000000	48.016866
768.000000	49.083268
767.000000	50.535464
766.000000	52.231405
765.000000	54.039973
764.000000	55.860710
763.000000	57.625416
762.000000	59.295539
761.000000	60.856112
760.000000	62.299479
759.000000	63.617190
758.000000	64.809200
757.000000	65.889154
756.000000	66.876213
755.000000	67.787865
754.000000	68.645966
753.000000	69.474353
752.000000	70.283353
751.000000	71.064385
750.000000	71.801714
749.000000	72.481816
748.000000	73.088676
747.000000	73.606373
746.000000	74.036325
745.000000	74.402192
744.000000	74.732971
743.000000	75.048878
742.000000	75.364098
741.000000	75.687269
740.000000	76.009599
739.000000	76.303712
738.000000	76.541283
737.000000	76.704494
736.000000	76.781443
735.000000	76.766466
734.000000	76.672936
733.000000	76.533071
732.000000	76.379047
731.000000	76.232619
730.000000	76.110827
729.000000	76.021249
728.000000	75.945100
727.000000	75.837006
726.000000	75.647669
725.000000	75.341331
724.000000	74.887785
723.000000	74.248405
722.000000	73.371549
721.000000	72.197209
720.000000	70.671994
719.000000	68.786021
718.000000	66.615136
717.000000	64.333633
716.000000	62.182594
715.000000	60.410607
714.000000	59.220054
713.000000	58.721987
712.000000	58.906333
711.000000	59.654574
710.000000	60.803443
709.000000	62.201738
708.000000	63.718474
707.000000	65.239716
706.000000	66.687899
705.000000	68.035273
704.000000	69.279426
703.000000	70.421520
702.000000	71.476792
701.000000	72.476294
700.000000	73.434274
699.000000	74.332155
698.000000	75.143884
697.000000	75.858911
696.000000	76.470008
695.000000	76.965986
694.000000	77.361873
693.000000	77.710165
692.000000	78.060394
691.000000	78.427349
690.000000	78.808446
689.000000	79.204375
688.000000	79.598258
687.000000	79.943372
686.000000	80.203604
685.000000	80.381474
684.000000	80.491288
683.000000	80.541328
682.000000	80.565329
681.000000	80.628888
680.000000	80.771651
679.000000	80.974934
678.000000	81.209895
677.000000	81.454345
676.000000	81.659443
675.000000	81.796855
674.000000	81.872103
673.000000	81.941104
672.000000	82.167082
671.000000	82.778858
670.000000	83.810184
669.000000	84.863249
668.000000	85.380779
667.000000	85.083900
666.000000	84.173081
665.000000	83.290425
664.000000	82.817384
663.000000	82.663505
662.000000	82.607700
661.000000	82.556361
660.000000	82.523689
659.000000	82.527667
658.000000	82.571027
657.000000	82.643851
656.000000	82.711645
655.000000	82.766643
654.000000	82.807968
653.000000	82.813182
652.000000	82.774976
651.000000	82.724500
650.000000	82.691965
649.000000	82.673181
648.000000	82.656291
647.000000	82.645552
646.000000	82.634800
645.000000	82.594252
644.000000	82.505676
643.000000	82.384945
642.000000	82.256762
641.000000	82.128124
640.000000	82.006231
639.000000	81.913387
638.000000	81.856123
637.000000	81.800617
636.000000	81.702924
635.000000	81.544072
634.000000	81.323671
633.000000	81.045259
632.000000	80.728646
631.000000	80.418312
630.000000	80.154039
629.000000	79.941394
628.000000	79.763890
627.000000	79.601234
626.000000	79.416617
625.000000	79.157800
624.000000	78.792372
623.000000	78.331781
622.000000	77.810381
621.000000	77.259550
620.000000	76.712195
619.000000	76.200306
618.000000	75.723298
617.000000	75.234062
616.000000	74.679769
615.000000	74.034788
614.000000	73.277521
613.000000	72.373392
612.000000	71.309795
611.000000	70.124288
610.000000	68.866347
609.000000	67.550657
608.000000	66.174449
607.000000	64.742777
606.000000	63.238479
605.000000	61.605290
604.000000	59.801142
603.000000	57.845482
602.000000	55.775481
601.000000	53.600997
600.000000	51.347298
599.000000	49.096322
598.000000	46.922384
597.000000	44.830401
596.000000	42.812275
595.000000	40.904686
594.000000	39.135097
593.000000	37.467595
592.000000	35.882309
591.000000	34.437666
590.000000	33.182860
589.000000	32.076750
588.000000	31.054297
587.000000	30.100218
586.000000	29.184137
585.000000	28.208806
584.000000	27.109412
583.000000	25.941215
582.000000	24.804053
581.000000	23.759791
580.000000	22.886081
579.000000	22.328773
578.000000	22.193040
577.000000	22.458035
576.000000	23.046957
575.000000	23.881205
574.000000	24.823158
573.000000	25.670662
572.000000	26.310336
571.000000	26.824095
570.000000	27.397867
569.000000	28.174576
568.000000	29.217824
567.000000	30.517414
566.000000	31.954118
565.000000	33.336451
564.000000	34.541196
563.000000	35.574552
562.000000	36.482428
561.000000	37.276979
560.000000	37.981907
559.000000	38.666356
558.000000	39.379103
557.000000	40.106081
556.000000	40.828133
555.000000	41.566056
554.000000	42.325916
553.000000	43.066154
552.000000	43.760715
551.000000	44.439581
550.000000	45.129777
549.000000	45.809868
548.000000	46.461688
547.000000	47.111320
546.000000	47.779624
545.000000	48.440099
544.000000	49.064994
543.000000	49.666202
542.000000	50.259761
541.000000	50.833338
540.000000	51.381943
539.000000	51.930083
538.000000	52.486351
537.000000	53.016695
536.000000	53.489350
535.000000	53.913055
534.000000	54.301258
533.000000	54.645560
532.000000	54.943580
531.000000	55.219533
530.000000	55.487304
529.000000	55.716889
528.000000	55.854532
527.000000	55.858958
526.000000	55.686248
525.000000	55.284549
524.000000	54.645819
523.000000	53.839219
522.000000	52.985797
521.000000	52.202028
520.000000	51.556943
519.000000	51.017541
518.000000	50.381162
517.000000	49.329502
516.000000	47.628343
515.000000	45.304874
514.000000	42.634226
513.000000	40.008450
512.000000	37.824249
511.000000	36.403059
510.000000	35.886793
509.000000	36.211093
508.000000	37.229090
507.000000	38.781716
506.000000	40.666083
505.000000	42.660071
504.000000	44.623269
503.000000	46.520329
502.000000	48.315541
501.000000	49.942210
500.000000	51.382643
499.000000	52.697189
498.000000	53.938372
497.000000	55.102136
496.000000	56.172281
495.000000	57.159352
494.000000	58.082488
493.000000	58.941530
492.000000	59.742705
491.000000	60.520878
490.000000	61.301205
489.000000	62.075280
488.000000	62.818684
487.000000	63.515795
486.000000	64.151226
485.000000	64.703219
484.000000	65.173246
483.000000	65.600981
482.000000	66.030576
481.000000	66.476655
480.000000	66.936453
479.000000	67.404549
478.000000	67.838317
477.000000	68.153708
476.000000	68.279578
475.000000	68.174140
474.000000	67.775382
473.000000	66.985021
472.000000	65.776898
471.000000	64.310934
470.000000	62.851857
469.000000	61.636617
468.000000	60.840619
467.000000	60.507606
466.000000	60.409067
465.000000	60.096623
464.000000	59.194748
463.000000	57.676742
462.000000	55.934459
461.000000	54.572539
460.000000	54.144803
459.000000	54.972335
458.000000	56.949214
457.000000	59.474660
456.000000	61.857748
455.000000	63.800199
454.000000	65.316024
453.000000	66.453030
452.000000	67.243369
451.000000	67.783256
450.000000	68.154061
449.000000	68.307893
448.000000	68.098047
447.000000	67.401023
446.000000	66.219666
445.000000	64.716206
444.000000	63.216466
443.000000	62.135186
442.000000	61.756999
441.000000	62.063096
440.000000	62.852880
439.000000	63.927460
438.000000	65.105659
437.000000	66.197474
436.000000	67.053927
435.000000	67.632793
434.000000	67.967723
433.000000	68.107989
432.000000	68.116969
431.000000	68.081928
430.000000	68.063051
429.000000	68.041768
428.000000	67.973930
427.000000	67.854596
426.000000	67.685669
425.000000	67.426550
424.000000	67.061351
423.000000	66.685785
422.000000	66.415952
421.000000	66.260184
420.000000	66.166044
419.000000	66.132564
418.000000	66.164190
417.000000	66.170546
416.000000	66.086118
415.000000	65.956694
414.000000	65.837046
413.000000	65.718203
412.000000	65.620171
411.000000	65.660361
410.000000	65.935058
409.000000	66.361063
408.000000	66.768748
407.000000	67.075882
406.000000	67.262654
405.000000	67.288585
404.000000	67.178317
403.000000	67.094608
402.000000	67.190072
401.000000	67.454365
400.000000	67.792462
