PE IR       SUBTECH     SPECTRUM    ASCII       PEDS        4.00        
   -1
23MS217_trans.asc
24/09/24
16:28:59.00
24/09/24
16:28:59.00
Administrator
Sample 1200 By Administrator Date Tuesday, September 24 2024
400.000000
#HDR
-1
-1
#GR
cm-1
%T
1.0
0.0
4000.000000
-1.000000
3601
8
88.732037
7.839869
#DATA
4000.000000	51.865787
3999.000000	51.838569
3998.000000	51.811321
3997.000000	51.783970
3996.000000	51.756338
3995.000000	51.727959
3994.000000	51.698314
3993.000000	51.667060
3992.000000	51.634034
3991.000000	51.599264
3990.000000	51.563266
3989.000000	51.527321
3988.000000	51.492925
3987.000000	51.460801
3986.000000	51.430613
3985.000000	51.401507
3984.000000	51.372722
3983.000000	51.343647
3982.000000	51.313686
3981.000000	51.282504
3980.000000	51.250550
3979.000000	51.219564
3978.000000	51.192682
3977.000000	51.173569
3976.000000	51.165336
3975.000000	51.169708
3974.000000	51.186864
3973.000000	51.216447
3972.000000	51.258031
3971.000000	51.310856
3970.000000	51.373209
3969.000000	51.442102
3968.000000	51.514180
3967.000000	51.586472
3966.000000	51.656736
3965.000000	51.723472
3964.000000	51.785433
3963.000000	51.841135
3962.000000	51.889158
3961.000000	51.929057
3960.000000	51.961986
3959.000000	51.990405
3958.000000	52.016910
3957.000000	52.043702
3956.000000	52.073048
3955.000000	52.107011
3954.000000	52.147324
3953.000000	52.195071
3952.000000	52.250460
3951.000000	52.312799
3950.000000	52.380419
3949.000000	52.451028
3948.000000	52.522520
3947.000000	52.594471
3946.000000	52.668413
3945.000000	52.745568
3944.000000	52.823705
3943.000000	52.897357
3942.000000	52.963274
3941.000000	53.024045
3940.000000	53.083896
3939.000000	53.143197
3938.000000	53.198314
3937.000000	53.246430
3936.000000	53.289772
3935.000000	53.332800
3934.000000	53.377595
3933.000000	53.422035
3932.000000	53.462817
3931.000000	53.499235
3930.000000	53.532288
3929.000000	53.563661
3928.000000	53.594845
3927.000000	53.626622
3926.000000	53.657517
3925.000000	53.683151
3924.000000	53.702085
3923.000000	53.719350
3922.000000	53.740378
3921.000000	53.765326
3920.000000	53.791485
3919.000000	53.818459
3918.000000	53.847797
3917.000000	53.878971
3916.000000	53.910376
3915.000000	53.942617
3914.000000	53.978202
3913.000000	54.017793
3912.000000	54.059587
3911.000000	54.102610
3910.000000	54.148055
3909.000000	54.197147
3908.000000	54.250950
3907.000000	54.308239
3906.000000	54.365760
3905.000000	54.418278
3904.000000	54.462881
3903.000000	54.504967
3902.000000	54.552709
3901.000000	54.606038
3900.000000	54.654657
3899.000000	54.688742
3898.000000	54.710387
3897.000000	54.729553
3896.000000	54.752163
3895.000000	54.779065
3894.000000	54.810152
3893.000000	54.844480
3892.000000	54.876518
3891.000000	54.898767
3890.000000	54.913978
3889.000000	54.932454
3888.000000	54.959948
3887.000000	54.990910
3886.000000	55.013040
3885.000000	55.024104
3884.000000	55.039021
3883.000000	55.070103
3882.000000	55.109133
3881.000000	55.135934
3880.000000	55.140210
3879.000000	55.133641
3878.000000	55.136554
3877.000000	55.156342
3876.000000	55.184989
3875.000000	55.209115
3874.000000	55.222986
3873.000000	55.236217
3872.000000	55.262763
3871.000000	55.299521
3870.000000	55.326457
3869.000000	55.337165
3868.000000	55.350661
3867.000000	55.381489
3866.000000	55.420351
3865.000000	55.447960
3864.000000	55.459967
3863.000000	55.469997
3862.000000	55.487574
3861.000000	55.509518
3860.000000	55.531863
3859.000000	55.555088
3858.000000	55.583569
3857.000000	55.620071
3856.000000	55.665633
3855.000000	55.713699
3854.000000	55.746330
3853.000000	55.756932
3852.000000	55.767275
3851.000000	55.790512
3850.000000	55.812240
3849.000000	55.818780
3848.000000	55.811879
3847.000000	55.804664
3846.000000	55.808135
3845.000000	55.823682
3844.000000	55.846636
3843.000000	55.871857
3842.000000	55.898414
3841.000000	55.929396
3840.000000	55.962232
3839.000000	55.986157
3838.000000	55.997903
3837.000000	56.006587
3836.000000	56.023272
3835.000000	56.048802
3834.000000	56.076274
3833.000000	56.099252
3832.000000	56.114573
3831.000000	56.125020
3830.000000	56.139288
3829.000000	56.163254
3828.000000	56.193836
3827.000000	56.222190
3826.000000	56.242680
3825.000000	56.261429
3824.000000	56.290461
3823.000000	56.332191
3822.000000	56.372873
3821.000000	56.394420
3820.000000	56.403010
3819.000000	56.422627
3818.000000	56.459777
3817.000000	56.496723
3816.000000	56.512553
3815.000000	56.511608
3814.000000	56.519855
3813.000000	56.547184
3812.000000	56.577952
3811.000000	56.598972
3810.000000	56.615757
3809.000000	56.641619
3808.000000	56.678386
3807.000000	56.714185
3806.000000	56.744745
3805.000000	56.783142
3804.000000	56.836727
3803.000000	56.894579
3802.000000	56.933037
3801.000000	56.941061
3800.000000	56.942035
3799.000000	56.960671
3798.000000	56.991335
3797.000000	57.014383
3796.000000	57.022008
3795.000000	57.025357
3794.000000	57.038786
3793.000000	57.063023
3792.000000	57.088054
3791.000000	57.108567
3790.000000	57.128047
3789.000000	57.151583
3788.000000	57.180907
3787.000000	57.215088
3786.000000	57.251328
3785.000000	57.284873
3784.000000	57.311677
3783.000000	57.333542
3782.000000	57.356137
3781.000000	57.381274
3780.000000	57.404415
3779.000000	57.421738
3778.000000	57.437311
3777.000000	57.457316
3776.000000	57.480325
3775.000000	57.498802
3774.000000	57.509878
3773.000000	57.518883
3772.000000	57.531828
3771.000000	57.546683
3770.000000	57.557019
3769.000000	57.564208
3768.000000	57.576637
3767.000000	57.595699
3766.000000	57.612958
3765.000000	57.619375
3764.000000	57.616851
3763.000000	57.616879
3762.000000	57.626559
3761.000000	57.642748
3760.000000	57.659114
3759.000000	57.676344
3758.000000	57.699374
3757.000000	57.726648
3756.000000	57.754808
3755.000000	57.784639
3754.000000	57.819357
3753.000000	57.859382
3752.000000	57.901493
3751.000000	57.944475
3750.000000	57.987786
3749.000000	58.027674
3748.000000	58.062546
3747.000000	58.097753
3746.000000	58.138444
3745.000000	58.173095
3744.000000	58.186129
3743.000000	58.196456
3742.000000	58.226687
3741.000000	58.264440
3740.000000	58.288696
3739.000000	58.300071
3738.000000	58.320421
3737.000000	58.364708
3736.000000	58.425425
3735.000000	58.483728
3734.000000	58.530473
3733.000000	58.566098
3732.000000	58.588232
3731.000000	58.598385
3730.000000	58.605757
3729.000000	58.619082
3728.000000	58.639894
3727.000000	58.661564
3726.000000	58.678798
3725.000000	58.695335
3724.000000	58.715633
3723.000000	58.735899
3722.000000	58.749964
3721.000000	58.760702
3720.000000	58.774673
3719.000000	58.793609
3718.000000	58.813547
3717.000000	58.829970
3716.000000	58.845582
3715.000000	58.867084
3714.000000	58.897526
3713.000000	58.933753
3712.000000	58.969569
3711.000000	59.000831
3710.000000	59.027266
3709.000000	59.048116
3708.000000	59.061278
3707.000000	59.065154
3706.000000	59.062974
3705.000000	59.061580
3704.000000	59.066301
3703.000000	59.076623
3702.000000	59.087508
3701.000000	59.095805
3700.000000	59.102405
3699.000000	59.109225
3698.000000	59.115495
3697.000000	59.118175
3696.000000	59.116208
3695.000000	59.114592
3694.000000	59.118528
3693.000000	59.128525
3692.000000	59.141919
3691.000000	59.156218
3690.000000	59.169499
3689.000000	59.179173
3688.000000	59.185271
3687.000000	59.189072
3686.000000	59.189922
3685.000000	59.183894
3684.000000	59.167421
3683.000000	59.143044
3682.000000	59.120556
3681.000000	59.106539
3680.000000	59.097537
3679.000000	59.087464
3678.000000	59.079339
3677.000000	59.080453
3676.000000	59.080915
3675.000000	59.065727
3674.000000	59.042616
3673.000000	59.025474
3672.000000	59.009888
3671.000000	58.981785
3670.000000	58.932046
3669.000000	58.870453
3668.000000	58.816355
3667.000000	58.770779
3666.000000	58.719892
3665.000000	58.657041
3664.000000	58.586425
3663.000000	58.515555
3662.000000	58.448179
3661.000000	58.382494
3660.000000	58.317252
3659.000000	58.252759
3658.000000	58.187744
3657.000000	58.117278
3656.000000	58.036751
3655.000000	57.950890
3654.000000	57.866173
3653.000000	57.781122
3652.000000	57.689919
3651.000000	57.589170
3650.000000	57.479732
3649.000000	57.366253
3648.000000	57.252116
3647.000000	57.133964
3646.000000	57.006454
3645.000000	56.869472
3644.000000	56.726493
3643.000000	56.580554
3642.000000	56.433086
3641.000000	56.285436
3640.000000	56.139878
3639.000000	55.995732
3638.000000	55.849192
3637.000000	55.697675
3636.000000	55.542086
3635.000000	55.384227
3634.000000	55.224117
3633.000000	55.063142
3632.000000	54.902381
3631.000000	54.736831
3630.000000	54.554731
3629.000000	54.350077
3628.000000	54.139426
3627.000000	53.946366
3626.000000	53.767280
3625.000000	53.581991
3624.000000	53.382614
3623.000000	53.176344
3622.000000	52.972534
3621.000000	52.771943
3620.000000	52.568080
3619.000000	52.358426
3618.000000	52.150316
3617.000000	51.951256
3616.000000	51.758753
3615.000000	51.563130
3614.000000	51.356844
3613.000000	51.142396
3612.000000	50.929876
3611.000000	50.724619
3610.000000	50.521620
3609.000000	50.313724
3608.000000	50.099906
3607.000000	49.884774
3606.000000	49.672400
3605.000000	49.462380
3604.000000	49.251999
3603.000000	49.038226
3602.000000	48.819341
3601.000000	48.597176
3600.000000	48.376255
3599.000000	48.160017
3598.000000	47.946733
3597.000000	47.731142
3596.000000	47.509346
3595.000000	47.281327
3594.000000	47.050561
3593.000000	46.824389
3592.000000	46.607693
3591.000000	46.397085
3590.000000	46.183254
3589.000000	45.958768
3588.000000	45.723843
3587.000000	45.486697
3586.000000	45.258415
3585.000000	45.044324
3584.000000	44.840366
3583.000000	44.638808
3582.000000	44.435683
3581.000000	44.232974
3580.000000	44.034066
3579.000000	43.839344
3578.000000	43.646716
3577.000000	43.456000
3576.000000	43.269007
3575.000000	43.086962
3574.000000	42.909734
3573.000000	42.738300
3572.000000	42.574685
3571.000000	42.418955
3570.000000	42.269624
3569.000000	42.126422
3568.000000	41.989715
3567.000000	41.857965
3566.000000	41.729484
3565.000000	41.604491
3564.000000	41.482484
3563.000000	41.361567
3562.000000	41.241498
3561.000000	41.125393
3560.000000	41.016270
3559.000000	40.913515
3558.000000	40.814728
3557.000000	40.719373
3556.000000	40.628213
3555.000000	40.540206
3554.000000	40.452972
3553.000000	40.365854
3552.000000	40.280479
3551.000000	40.197495
3550.000000	40.114650
3549.000000	40.028719
3548.000000	39.937990
3547.000000	39.843750
3546.000000	39.750533
3545.000000	39.664171
3544.000000	39.587199
3543.000000	39.516274
3542.000000	39.445371
3541.000000	39.370419
3540.000000	39.289905
3539.000000	39.203315
3538.000000	39.112328
3537.000000	39.021919
3536.000000	38.937014
3535.000000	38.857652
3534.000000	38.779564
3533.000000	38.698960
3532.000000	38.613985
3531.000000	38.523448
3530.000000	38.426597
3529.000000	38.324389
3528.000000	38.218189
3527.000000	38.107845
3526.000000	37.993259
3525.000000	37.877095
3524.000000	37.763029
3523.000000	37.651602
3522.000000	37.540046
3521.000000	37.425385
3520.000000	37.305534
3519.000000	37.178186
3518.000000	37.041918
3517.000000	36.898225
3516.000000	36.750354
3515.000000	36.600644
3514.000000	36.450718
3513.000000	36.302590
3512.000000	36.156219
3511.000000	36.007373
3510.000000	35.851370
3509.000000	35.688472
3508.000000	35.522007
3507.000000	35.352165
3506.000000	35.175569
3505.000000	34.991314
3504.000000	34.804296
3503.000000	34.621724
3502.000000	34.447855
3501.000000	34.281899
3500.000000	34.119235
3499.000000	33.955100
3498.000000	33.789349
3497.000000	33.627094
3496.000000	33.473521
3495.000000	33.329128
3494.000000	33.191590
3493.000000	33.060104
3492.000000	32.934782
3491.000000	32.813938
3490.000000	32.696025
3489.000000	32.583264
3488.000000	32.480246
3487.000000	32.389504
3486.000000	32.310578
3485.000000	32.241627
3484.000000	32.178849
3483.000000	32.116874
3482.000000	32.053978
3481.000000	31.996126
3480.000000	31.952039
3479.000000	31.924434
3478.000000	31.908999
3477.000000	31.900220
3476.000000	31.894561
3475.000000	31.889353
3474.000000	31.882173
3473.000000	31.871417
3472.000000	31.855943
3471.000000	31.835681
3470.000000	31.814973
3469.000000	31.802947
3468.000000	31.806910
3467.000000	31.826045
3466.000000	31.853469
3465.000000	31.881991
3464.000000	31.905743
3463.000000	31.920149
3462.000000	31.925276
3461.000000	31.927739
3460.000000	31.935062
3459.000000	31.948867
3458.000000	31.965900
3457.000000	31.983464
3456.000000	32.000567
3455.000000	32.015885
3454.000000	32.028637
3453.000000	32.040357
3452.000000	32.052709
3451.000000	32.065045
3450.000000	32.076566
3449.000000	32.089126
3448.000000	32.105000
3447.000000	32.123476
3446.000000	32.142466
3445.000000	32.161617
3444.000000	32.180966
3443.000000	32.198576
3442.000000	32.212304
3441.000000	32.222197
3440.000000	32.228875
3439.000000	32.231904
3438.000000	32.232705
3437.000000	32.236792
3436.000000	32.249730
3435.000000	32.271763
3434.000000	32.298492
3433.000000	32.325258
3432.000000	32.349263
3431.000000	32.370132
3430.000000	32.390701
3429.000000	32.415313
3428.000000	32.444832
3427.000000	32.475200
3426.000000	32.502395
3425.000000	32.526366
3424.000000	32.548601
3423.000000	32.569065
3422.000000	32.588216
3421.000000	32.609123
3420.000000	32.634317
3419.000000	32.662216
3418.000000	32.689144
3417.000000	32.712930
3416.000000	32.732904
3415.000000	32.749362
3414.000000	32.765376
3413.000000	32.786267
3412.000000	32.814621
3411.000000	32.848064
3410.000000	32.883962
3409.000000	32.923352
3408.000000	32.967316
3407.000000	33.012278
3406.000000	33.052034
3405.000000	33.082682
3404.000000	33.104024
3403.000000	33.119385
3402.000000	33.137032
3401.000000	33.168233
3400.000000	33.219091
3399.000000	33.284855
3398.000000	33.354372
3397.000000	33.418498
3396.000000	33.472638
3395.000000	33.515374
3394.000000	33.549860
3393.000000	33.585114
3392.000000	33.631109
3391.000000	33.691551
3390.000000	33.762666
3389.000000	33.837542
3388.000000	33.909856
3387.000000	33.975851
3386.000000	34.035932
3385.000000	34.093544
3384.000000	34.150969
3383.000000	34.207697
3382.000000	34.263850
3381.000000	34.322357
3380.000000	34.385501
3379.000000	34.451942
3378.000000	34.519514
3377.000000	34.588627
3376.000000	34.660190
3375.000000	34.732162
3374.000000	34.800916
3373.000000	34.864748
3372.000000	34.924456
3371.000000	34.982755
3370.000000	35.045083
3369.000000	35.118413
3368.000000	35.206201
3367.000000	35.305479
3366.000000	35.410415
3365.000000	35.516501
3364.000000	35.620514
3363.000000	35.720108
3362.000000	35.816249
3361.000000	35.913703
3360.000000	36.016159
3359.000000	36.122506
3358.000000	36.229856
3357.000000	36.337498
3356.000000	36.445363
3355.000000	36.551135
3354.000000	36.652258
3353.000000	36.749919
3352.000000	36.848970
3351.000000	36.954746
3350.000000	37.070556
3349.000000	37.195873
3348.000000	37.325321
3347.000000	37.451402
3346.000000	37.570500
3345.000000	37.685057
3344.000000	37.799116
3343.000000	37.913804
3342.000000	38.028040
3341.000000	38.141166
3340.000000	38.253304
3339.000000	38.365099
3338.000000	38.478148
3337.000000	38.593397
3336.000000	38.707719
3335.000000	38.814577
3334.000000	38.909370
3333.000000	38.991587
3332.000000	39.061360
3331.000000	39.116500
3330.000000	39.154391
3329.000000	39.174413
3328.000000	39.176358
3327.000000	39.159923
3326.000000	39.126267
3325.000000	39.077038
3324.000000	39.010466
3323.000000	38.919744
3322.000000	38.797950
3321.000000	38.641547
3320.000000	38.447111
3319.000000	38.209278
3318.000000	37.921079
3317.000000	37.576183
3316.000000	37.166897
3315.000000	36.682509
3314.000000	36.114092
3313.000000	35.456507
3312.000000	34.707358
3311.000000	33.867758
3310.000000	32.945016
3309.000000	31.956530
3308.000000	30.924181
3307.000000	29.868723
3306.000000	28.810758
3305.000000	27.770432
3304.000000	26.763990
3303.000000	25.801830
3302.000000	24.893727
3301.000000	24.053516
3300.000000	23.296777
3299.000000	22.635619
3298.000000	22.080585
3297.000000	21.641633
3296.000000	21.319064
3295.000000	21.099073
3294.000000	20.956809
3293.000000	20.864458
3292.000000	20.795231
3291.000000	20.723188
3290.000000	20.631282
3289.000000	20.515642
3288.000000	20.382126
3287.000000	20.240461
3286.000000	20.101263
3285.000000	19.973420
3284.000000	19.857676
3283.000000	19.744231
3282.000000	19.618992
3281.000000	19.470278
3280.000000	19.287754
3279.000000	19.061249
3278.000000	18.785444
3277.000000	18.463242
3276.000000	18.102674
3275.000000	17.712536
3274.000000	17.304912
3273.000000	16.898743
3272.000000	16.516976
3271.000000	16.182209
3270.000000	15.916844
3269.000000	15.742111
3268.000000	15.671952
3267.000000	15.712194
3266.000000	15.862635
3265.000000	16.118450
3264.000000	16.464576
3263.000000	16.871338
3262.000000	17.302610
3261.000000	17.721171
3260.000000	18.088338
3259.000000	18.365122
3258.000000	18.520691
3257.000000	18.536200
3256.000000	18.402250
3255.000000	18.113123
3254.000000	17.666648
3253.000000	17.069194
3252.000000	16.328032
3251.000000	15.452212
3250.000000	14.459224
3249.000000	13.380092
3248.000000	12.259850
3247.000000	11.150761
3246.000000	10.112188
3245.000000	9.208773
3244.000000	8.501915
3243.000000	8.036952
3242.000000	7.839869
3241.000000	7.908749
3240.000000	8.203461
3239.000000	8.653735
3238.000000	9.177188
3237.000000	9.703764
3236.000000	10.184761
3235.000000	10.593544
3234.000000	10.926655
3233.000000	11.194429
3232.000000	11.407229
3231.000000	11.569946
3230.000000	11.690093
3229.000000	11.783191
3228.000000	11.868094
3227.000000	11.960815
3226.000000	12.075759
3225.000000	12.227039
3224.000000	12.422885
3223.000000	12.662098
3222.000000	12.938565
3221.000000	13.244564
3220.000000	13.566765
3219.000000	13.884967
3218.000000	14.178987
3217.000000	14.434469
3216.000000	14.641196
3215.000000	14.792562
3214.000000	14.889901
3213.000000	14.944365
3212.000000	14.970244
3211.000000	14.979676
3210.000000	14.985663
3209.000000	15.002787
3208.000000	15.042108
3207.000000	15.108062
3206.000000	15.202822
3205.000000	15.329048
3204.000000	15.486392
3203.000000	15.669840
3202.000000	15.874477
3201.000000	16.098372
3200.000000	16.337773
3199.000000	16.585289
3198.000000	16.834583
3197.000000	17.083026
3196.000000	17.327990
3195.000000	17.564726
3194.000000	17.790481
3193.000000	18.005782
3192.000000	18.209522
3191.000000	18.396898
3190.000000	18.565214
3189.000000	18.717236
3188.000000	18.857037
3187.000000	18.987022
3186.000000	19.110394
3185.000000	19.232180
3184.000000	19.354394
3183.000000	19.474217
3182.000000	19.589013
3181.000000	19.698539
3180.000000	19.801018
3179.000000	19.891607
3178.000000	19.967847
3177.000000	20.033242
3176.000000	20.093616
3175.000000	20.154520
3174.000000	20.223770
3173.000000	20.311737
3172.000000	20.425873
3171.000000	20.569467
3170.000000	20.746547
3169.000000	20.963553
3168.000000	21.224286
3167.000000	21.525868
3166.000000	21.863776
3165.000000	22.235603
3164.000000	22.639211
3163.000000	23.072626
3162.000000	23.535772
3161.000000	24.029327
3160.000000	24.547246
3159.000000	25.074069
3158.000000	25.590412
3157.000000	26.076655
3156.000000	26.511136
3155.000000	26.870565
3154.000000	27.136353
3153.000000	27.297705
3152.000000	27.352719
3151.000000	27.309599
3150.000000	27.190076
3149.000000	27.026725
3148.000000	26.848986
3147.000000	26.673812
3146.000000	26.503688
3145.000000	26.327581
3144.000000	26.123066
3143.000000	25.861665
3142.000000	25.521552
3141.000000	25.094111
3140.000000	24.580549
3139.000000	23.990078
3138.000000	23.340444
3137.000000	22.657511
3136.000000	21.967986
3135.000000	21.294946
3134.000000	20.661805
3133.000000	20.093870
3132.000000	19.612623
3131.000000	19.231292
3130.000000	18.958351
3129.000000	18.797136
3128.000000	18.742867
3127.000000	18.782096
3126.000000	18.899501
3125.000000	19.083525
3124.000000	19.320974
3123.000000	19.597386
3122.000000	19.902514
3121.000000	20.231796
3120.000000	20.581403
3119.000000	20.943945
3118.000000	21.313050
3117.000000	21.685013
3116.000000	22.053853
3115.000000	22.408662
3114.000000	22.737805
3113.000000	23.031371
3112.000000	23.278304
3111.000000	23.467673
3110.000000	23.593099
3109.000000	23.654229
3108.000000	23.650007
3107.000000	23.575979
3106.000000	23.431654
3105.000000	23.223980
3104.000000	22.965700
3103.000000	22.673221
3102.000000	22.369918
3101.000000	22.086071
3100.000000	21.851254
3099.000000	21.688478
3098.000000	21.615200
3097.000000	21.645123
3096.000000	21.782690
3095.000000	22.023071
3094.000000	22.356752
3093.000000	22.772853
3092.000000	23.258501
3091.000000	23.797255
3090.000000	24.374351
3089.000000	24.976875
3088.000000	25.590249
3087.000000	26.200372
3086.000000	26.799052
3085.000000	27.384538
3084.000000	27.954189
3083.000000	28.501814
3082.000000	29.022808
3081.000000	29.517352
3080.000000	29.986890
3079.000000	30.432058
3078.000000	30.855678
3077.000000	31.262381
3076.000000	31.654674
3075.000000	32.031915
3074.000000	32.394761
3073.000000	32.746529
3072.000000	33.088264
3071.000000	33.417585
3070.000000	33.733335
3069.000000	34.038349
3068.000000	34.336401
3067.000000	34.629075
3066.000000	34.917198
3065.000000	35.201535
3064.000000	35.481001
3063.000000	35.753333
3062.000000	36.017811
3061.000000	36.275060
3060.000000	36.523940
3059.000000	36.762206
3058.000000	36.990830
3057.000000	37.213632
3056.000000	37.432332
3055.000000	37.645094
3054.000000	37.850473
3053.000000	38.049691
3052.000000	38.243873
3051.000000	38.432516
3050.000000	38.615151
3049.000000	38.791424
3048.000000	38.959527
3047.000000	39.117380
3046.000000	39.266279
3045.000000	39.410403
3044.000000	39.552324
3043.000000	39.692139
3042.000000	39.830601
3041.000000	39.969628
3040.000000	40.108926
3039.000000	40.245507
3038.000000	40.377922
3037.000000	40.508336
3036.000000	40.640187
3035.000000	40.776251
3034.000000	40.918927
3033.000000	41.069132
3032.000000	41.224146
3031.000000	41.379365
3030.000000	41.532628
3029.000000	41.684560
3028.000000	41.835236
3027.000000	41.984071
3026.000000	42.133135
3025.000000	42.286768
3024.000000	42.446902
3023.000000	42.611418
3022.000000	42.777587
3021.000000	42.944349
3020.000000	43.110809
3019.000000	43.275438
3018.000000	43.437650
3017.000000	43.597944
3016.000000	43.756016
3015.000000	43.910805
3014.000000	44.062445
3013.000000	44.211961
3012.000000	44.358729
3011.000000	44.499689
3010.000000	44.631106
3009.000000	44.748957
3008.000000	44.848014
3007.000000	44.922968
3006.000000	44.969750
3005.000000	44.985343
3004.000000	44.965927
3003.000000	44.907299
3002.000000	44.806408
3001.000000	44.656695
3000.000000	44.440404
2999.000000	44.124709
2998.000000	43.675274
2997.000000	43.090177
2996.000000	42.436788
2995.000000	41.855445
2994.000000	41.502892
2993.000000	41.466974
2992.000000	41.716869
2991.000000	42.134231
2990.000000	42.589066
2989.000000	42.995318
2988.000000	43.319718
2987.000000	43.563439
2986.000000	43.745343
2985.000000	43.888060
2984.000000	44.009065
2983.000000	44.118045
2982.000000	44.220240
2981.000000	44.315346
2980.000000	44.391786
2979.000000	44.426784
2978.000000	44.399322
2977.000000	44.310116
2976.000000	44.195459
2975.000000	44.123932
2974.000000	44.168353
2973.000000	44.365838
2972.000000	44.695331
2971.000000	45.092665
2970.000000	45.486586
2969.000000	45.824511
2968.000000	46.076469
2967.000000	46.229856
2966.000000	46.284673
2965.000000	46.246274
2964.000000	46.119485
2963.000000	45.905766
2962.000000	45.605473
2961.000000	45.213886
2960.000000	44.710274
2959.000000	44.052966
2958.000000	43.193431
2957.000000	42.120915
2956.000000	40.916836
2955.000000	39.775841
2954.000000	38.941241
2953.000000	38.575140
2952.000000	38.659417
2951.000000	39.016210
2950.000000	39.429917
2949.000000	39.760683
2948.000000	39.982826
2947.000000	40.151785
2946.000000	40.347354
2945.000000	40.621754
2944.000000	40.973277
2943.000000	41.359042
2942.000000	41.731777
2941.000000	42.069951
2940.000000	42.382212
2939.000000	42.696045
2938.000000	43.044120
2937.000000	43.449947
2936.000000	43.916806
2935.000000	44.429175
2934.000000	44.964686
2933.000000	45.502482
2932.000000	46.023701
2931.000000	46.513577
2930.000000	46.965987
2929.000000	47.381783
2928.000000	47.761684
2927.000000	48.104705
2926.000000	48.413466
2925.000000	48.694295
2924.000000	48.951370
2923.000000	49.185072
2922.000000	49.396598
2921.000000	49.588875
2920.000000	49.762192
2919.000000	49.914728
2918.000000	50.047689
2917.000000	50.165669
2916.000000	50.271515
2915.000000	50.365136
2914.000000	50.447816
2913.000000	50.522634
2912.000000	50.590505
2911.000000	50.650305
2910.000000	50.703272
2909.000000	50.753156
2908.000000	50.801350
2907.000000	50.846151
2906.000000	50.887259
2905.000000	50.926946
2904.000000	50.966502
2903.000000	51.005395
2902.000000	51.045000
2901.000000	51.088273
2900.000000	51.135387
2899.000000	51.182642
2898.000000	51.225501
2897.000000	51.259073
2896.000000	51.276121
2895.000000	51.269565
2894.000000	51.238181
2893.000000	51.186787
2892.000000	51.120402
2891.000000	51.041814
2890.000000	50.954133
2889.000000	50.861209
2888.000000	50.764652
2887.000000	50.664679
2886.000000	50.564808
2885.000000	50.472007
2884.000000	50.392090
2883.000000	50.328272
2882.000000	50.284218
2881.000000	50.263810
2880.000000	50.266527
2879.000000	50.286821
2878.000000	50.318650
2877.000000	50.357345
2876.000000	50.397641
2875.000000	50.435234
2874.000000	50.471457
2873.000000	50.512103
2872.000000	50.559960
2871.000000	50.612114
2870.000000	50.666427
2869.000000	50.727956
2868.000000	50.808149
2867.000000	50.919967
2866.000000	51.072791
2865.000000	51.266659
2864.000000	51.489477
2863.000000	51.723027
2862.000000	51.952878
2861.000000	52.171329
2860.000000	52.373749
2859.000000	52.557304
2858.000000	52.723626
2857.000000	52.877916
2856.000000	53.023760
2855.000000	53.162020
2854.000000	53.294251
2853.000000	53.423107
2852.000000	53.549218
2851.000000	53.671615
2850.000000	53.791355
2849.000000	53.910978
2848.000000	54.030123
2847.000000	54.145428
2846.000000	54.255260
2845.000000	54.361005
2844.000000	54.463717
2843.000000	54.563186
2842.000000	54.660850
2841.000000	54.760321
2840.000000	54.864182
2839.000000	54.972761
2838.000000	55.085909
2837.000000	55.202968
2836.000000	55.321112
2835.000000	55.436994
2834.000000	55.550345
2833.000000	55.663283
2832.000000	55.776223
2831.000000	55.887278
2830.000000	55.995362
2829.000000	56.100617
2828.000000	56.201918
2827.000000	56.297415
2826.000000	56.387824
2825.000000	56.476058
2824.000000	56.563344
2823.000000	56.648359
2822.000000	56.730175
2821.000000	56.808927
2820.000000	56.883437
2819.000000	56.951499
2818.000000	57.013162
2817.000000	57.071118
2816.000000	57.127534
2815.000000	57.182832
2814.000000	57.237523
2813.000000	57.292516
2812.000000	57.347433
2811.000000	57.401257
2810.000000	57.454726
2809.000000	57.509590
2808.000000	57.565738
2807.000000	57.621650
2806.000000	57.677341
2805.000000	57.734013
2804.000000	57.790932
2803.000000	57.845740
2802.000000	57.898063
2801.000000	57.950090
2800.000000	58.003545
2799.000000	58.058599
2798.000000	58.115532
2797.000000	58.174485
2796.000000	58.233431
2795.000000	58.289256
2794.000000	58.341273
2793.000000	58.391448
2792.000000	58.441338
2791.000000	58.491192
2790.000000	58.541638
2789.000000	58.593282
2788.000000	58.644589
2787.000000	58.692894
2786.000000	58.737787
2785.000000	58.781388
2784.000000	58.825646
2783.000000	58.871915
2782.000000	58.922484
2781.000000	58.979195
2780.000000	59.040290
2779.000000	59.101325
2778.000000	59.159334
2777.000000	59.213967
2776.000000	59.265234
2775.000000	59.313163
2774.000000	59.359557
2773.000000	59.406899
2772.000000	59.455001
2771.000000	59.501240
2770.000000	59.544089
2769.000000	59.583949
2768.000000	59.620877
2767.000000	59.654302
2766.000000	59.685128
2765.000000	59.715304
2764.000000	59.744951
2763.000000	59.772316
2762.000000	59.796517
2761.000000	59.817953
2760.000000	59.836203
2759.000000	59.850217
2758.000000	59.860862
2757.000000	59.870578
2756.000000	59.880235
2755.000000	59.888605
2754.000000	59.894949
2753.000000	59.899864
2752.000000	59.903574
2751.000000	59.905852
2750.000000	59.907926
2749.000000	59.912298
2748.000000	59.920537
2747.000000	59.933293
2746.000000	59.952037
2745.000000	59.978419
2744.000000	60.012235
2743.000000	60.052048
2742.000000	60.097314
2741.000000	60.147326
2740.000000	60.198391
2739.000000	60.245006
2738.000000	60.284026
2737.000000	60.315925
2736.000000	60.343036
2735.000000	60.369410
2734.000000	60.401683
2733.000000	60.446115
2732.000000	60.503677
2731.000000	60.569821
2730.000000	60.638788
2729.000000	60.706060
2728.000000	60.767558
2727.000000	60.820221
2726.000000	60.864429
2725.000000	60.903578
2724.000000	60.940555
2723.000000	60.976202
2722.000000	61.010555
2721.000000	61.043031
2720.000000	61.071695
2719.000000	61.094825
2718.000000	61.113786
2717.000000	61.132826
2716.000000	61.156076
2715.000000	61.186198
2714.000000	61.224736
2713.000000	61.270928
2712.000000	61.320376
2711.000000	61.367545
2710.000000	61.409775
2709.000000	61.447383
2708.000000	61.480857
2707.000000	61.510317
2706.000000	61.536936
2705.000000	61.562134
2704.000000	61.585578
2703.000000	61.606383
2702.000000	61.625879
2701.000000	61.646541
2700.000000	61.668693
2699.000000	61.690791
2698.000000	61.712507
2697.000000	61.734902
2696.000000	61.757902
2695.000000	61.780451
2694.000000	61.803219
2693.000000	61.828624
2692.000000	61.857947
2691.000000	61.890475
2690.000000	61.925097
2689.000000	61.960390
2688.000000	61.993635
2687.000000	62.022398
2686.000000	62.047217
2685.000000	62.070696
2684.000000	62.094200
2683.000000	62.117348
2682.000000	62.139916
2681.000000	62.161469
2680.000000	62.179710
2679.000000	62.192123
2678.000000	62.199411
2677.000000	62.205325
2676.000000	62.213523
2675.000000	62.226676
2674.000000	62.247709
2673.000000	62.278755
2672.000000	62.318604
2671.000000	62.363839
2670.000000	62.412527
2669.000000	62.464628
2668.000000	62.519602
2667.000000	62.576087
2666.000000	62.633795
2665.000000	62.693112
2664.000000	62.752582
2663.000000	62.809276
2662.000000	62.861626
2661.000000	62.909950
2660.000000	62.954650
2659.000000	62.996258
2658.000000	63.036842
2657.000000	63.078978
2656.000000	63.123148
2655.000000	63.167908
2654.000000	63.212168
2653.000000	63.254990
2652.000000	63.293949
2651.000000	63.326195
2650.000000	63.350992
2649.000000	63.369436
2648.000000	63.382066
2647.000000	63.389226
2646.000000	63.393382
2645.000000	63.398508
2644.000000	63.407332
2643.000000	63.421067
2642.000000	63.441151
2641.000000	63.468847
2640.000000	63.503349
2639.000000	63.542389
2638.000000	63.584661
2637.000000	63.629634
2636.000000	63.675565
2635.000000	63.720071
2634.000000	63.762073
2633.000000	63.801179
2632.000000	63.835871
2631.000000	63.864752
2630.000000	63.889367
2629.000000	63.913759
2628.000000	63.941745
2627.000000	63.976184
2626.000000	64.019444
2625.000000	64.071545
2624.000000	64.128172
2623.000000	64.183153
2622.000000	64.232827
2621.000000	64.276370
2620.000000	64.313230
2619.000000	64.343275
2618.000000	64.368721
2617.000000	64.392746
2616.000000	64.416073
2615.000000	64.436814
2614.000000	64.453472
2613.000000	64.465866
2612.000000	64.473646
2611.000000	64.476935
2610.000000	64.478142
2609.000000	64.480781
2608.000000	64.486300
2607.000000	64.493681
2606.000000	64.501559
2605.000000	64.508428
2604.000000	64.511690
2603.000000	64.509519
2602.000000	64.503743
2601.000000	64.498697
2600.000000	64.497483
2599.000000	64.501205
2598.000000	64.510789
2597.000000	64.526501
2596.000000	64.545743
2595.000000	64.564185
2594.000000	64.579514
2593.000000	64.592187
2592.000000	64.603079
2591.000000	64.612669
2590.000000	64.622133
2589.000000	64.632698
2588.000000	64.643824
2587.000000	64.654062
2586.000000	64.663421
2585.000000	64.672873
2584.000000	64.682202
2583.000000	64.690840
2582.000000	64.700537
2581.000000	64.714604
2580.000000	64.734688
2579.000000	64.760419
2578.000000	64.791500
2577.000000	64.827816
2576.000000	64.867584
2575.000000	64.908055
2574.000000	64.948255
2573.000000	64.988904
2572.000000	65.030178
2571.000000	65.071520
2570.000000	65.113135
2569.000000	65.155544
2568.000000	65.197869
2567.000000	65.238678
2566.000000	65.278048
2565.000000	65.316817
2564.000000	65.354612
2563.000000	65.390939
2562.000000	65.427565
2561.000000	65.467317
2560.000000	65.510886
2559.000000	65.557043
2558.000000	65.605231
2557.000000	65.655474
2556.000000	65.706330
2555.000000	65.755596
2554.000000	65.803057
2553.000000	65.850182
2552.000000	65.897519
2551.000000	65.944655
2550.000000	65.992267
2549.000000	66.041578
2548.000000	66.091744
2547.000000	66.139923
2546.000000	66.183870
2545.000000	66.222914
2544.000000	66.256943
2543.000000	66.286866
2542.000000	66.315562
2541.000000	66.345784
2540.000000	66.377184
2539.000000	66.406857
2538.000000	66.432493
2537.000000	66.453184
2536.000000	66.468086
2535.000000	66.477282
2534.000000	66.483742
2533.000000	66.492179
2532.000000	66.505742
2531.000000	66.525204
2530.000000	66.550523
2529.000000	66.580812
2528.000000	66.613280
2527.000000	66.644711
2526.000000	66.674121
2525.000000	66.702199
2524.000000	66.728702
2523.000000	66.752405
2522.000000	66.772949
2521.000000	66.790295
2520.000000	66.802978
2519.000000	66.808943
2518.000000	66.807879
2517.000000	66.800893
2516.000000	66.787900
2515.000000	66.768009
2514.000000	66.741838
2513.000000	66.711327
2512.000000	66.677925
2511.000000	66.642756
2510.000000	66.608455
2509.000000	66.578250
2508.000000	66.553162
2507.000000	66.532085
2506.000000	66.514301
2505.000000	66.499832
2504.000000	66.487882
2503.000000	66.477533
2502.000000	66.469695
2501.000000	66.466646
2500.000000	66.469546
2499.000000	66.478156
2498.000000	66.492552
2497.000000	66.512452
2496.000000	66.535858
2495.000000	66.560656
2494.000000	66.587430
2493.000000	66.618776
2492.000000	66.655710
2491.000000	66.696940
2490.000000	66.740790
2489.000000	66.785438
2488.000000	66.828023
2487.000000	66.866118
2486.000000	66.900630
2485.000000	66.935440
2484.000000	66.974268
2483.000000	67.019519
2482.000000	67.072763
2481.000000	67.133582
2480.000000	67.197948
2479.000000	67.260134
2478.000000	67.316658
2477.000000	67.367084
2476.000000	67.412087
2475.000000	67.452962
2474.000000	67.492493
2473.000000	67.533548
2472.000000	67.576513
2471.000000	67.619444
2470.000000	67.660228
2469.000000	67.697289
2468.000000	67.728937
2467.000000	67.754603
2466.000000	67.776214
2465.000000	67.795997
2464.000000	67.813371
2463.000000	67.825214
2462.000000	67.828913
2461.000000	67.823430
2460.000000	67.808401
2459.000000	67.785337
2458.000000	67.759133
2457.000000	67.736144
2456.000000	67.720237
2455.000000	67.711891
2454.000000	67.710370
2453.000000	67.714570
2452.000000	67.722461
2451.000000	67.732334
2450.000000	67.745073
2449.000000	67.763075
2448.000000	67.787287
2447.000000	67.816686
2446.000000	67.849869
2445.000000	67.885492
2444.000000	67.921388
2443.000000	67.955670
2442.000000	67.988544
2441.000000	68.021311
2440.000000	68.054299
2439.000000	68.087264
2438.000000	68.121092
2437.000000	68.157017
2436.000000	68.194723
2435.000000	68.233098
2434.000000	68.272126
2433.000000	68.311960
2432.000000	68.350666
2431.000000	68.385057
2430.000000	68.413260
2429.000000	68.434890
2428.000000	68.449523
2427.000000	68.457071
2426.000000	68.459496
2425.000000	68.459773
2424.000000	68.459527
2423.000000	68.459001
2422.000000	68.458440
2421.000000	68.457969
2420.000000	68.456870
2419.000000	68.455278
2418.000000	68.455956
2417.000000	68.462386
2416.000000	68.475398
2415.000000	68.493279
2414.000000	68.514058
2413.000000	68.535582
2412.000000	68.554635
2411.000000	68.568730
2410.000000	68.578646
2409.000000	68.587117
2408.000000	68.595419
2407.000000	68.602981
2406.000000	68.609401
2405.000000	68.614392
2404.000000	68.616378
2403.000000	68.613933
2402.000000	68.608176
2401.000000	68.601746
2400.000000	68.595233
2399.000000	68.586026
2398.000000	68.570289
2397.000000	68.543346
2396.000000	68.499480
2395.000000	68.434227
2394.000000	68.347167
2393.000000	68.242035
2392.000000	68.123647
2391.000000	67.996820
2390.000000	67.866488
2389.000000	67.735583
2388.000000	67.603551
2387.000000	67.468833
2386.000000	67.333835
2385.000000	67.205658
2384.000000	67.092478
2383.000000	67.001028
2382.000000	66.936470
2381.000000	66.901013
2380.000000	66.890944
2379.000000	66.898287
2378.000000	66.915798
2377.000000	66.938551
2376.000000	66.962742
2375.000000	66.985106
2374.000000	67.006046
2373.000000	67.028716
2372.000000	67.052410
2371.000000	67.071060
2370.000000	67.081346
2369.000000	67.086824
2368.000000	67.089483
2367.000000	67.087218
2366.000000	67.086024
2365.000000	67.093344
2364.000000	67.104892
2363.000000	67.114916
2362.000000	67.119293
2361.000000	67.124227
2360.000000	67.140041
2359.000000	67.162025
2358.000000	67.187628
2357.000000	67.209634
2356.000000	67.218179
2355.000000	67.205402
2354.000000	67.184101
2353.000000	67.197690
2352.000000	67.255060
2351.000000	67.325141
2350.000000	67.371391
2349.000000	67.389186
2348.000000	67.411850
2347.000000	67.453916
2346.000000	67.519870
2345.000000	67.592544
2344.000000	67.652043
2343.000000	67.690269
2342.000000	67.700177
2341.000000	67.691900
2340.000000	67.669628
2339.000000	67.643065
2338.000000	67.624093
2337.000000	67.628679
2336.000000	67.659681
2335.000000	67.713257
2334.000000	67.777681
2333.000000	67.855807
2332.000000	67.938716
2331.000000	68.026562
2330.000000	68.119260
2329.000000	68.207255
2328.000000	68.285624
2327.000000	68.339293
2326.000000	68.378489
2325.000000	68.408360
2324.000000	68.431834
2323.000000	68.446246
2322.000000	68.446340
2321.000000	68.438280
2320.000000	68.419824
2319.000000	68.394120
2318.000000	68.355518
2317.000000	68.303521
2316.000000	68.232622
2315.000000	68.142825
2314.000000	68.036426
2313.000000	67.916958
2312.000000	67.785583
2311.000000	67.641014
2310.000000	67.486663
2309.000000	67.326912
2308.000000	67.167166
2307.000000	67.009541
2306.000000	66.857109
2305.000000	66.712337
2304.000000	66.577525
2303.000000	66.458446
2302.000000	66.365063
2301.000000	66.307322
2300.000000	66.288674
2299.000000	66.304736
2298.000000	66.347743
2297.000000	66.405371
2296.000000	66.464449
2295.000000	66.512849
2294.000000	66.547645
2293.000000	66.570152
2292.000000	66.583310
2291.000000	66.587343
2290.000000	66.582705
2289.000000	66.567703
2288.000000	66.538217
2287.000000	66.489878
2286.000000	66.422232
2285.000000	66.337608
2284.000000	66.238843
2283.000000	66.130978
2282.000000	66.023885
2281.000000	65.930454
2280.000000	65.860803
2279.000000	65.821104
2278.000000	65.813939
2277.000000	65.838782
2276.000000	65.891411
2275.000000	65.968723
2274.000000	66.071683
2273.000000	66.201730
2272.000000	66.355186
2271.000000	66.523633
2270.000000	66.699386
2269.000000	66.876568
2268.000000	67.049723
2267.000000	67.214811
2266.000000	67.371055
2265.000000	67.518434
2264.000000	67.655170
2263.000000	67.778917
2262.000000	67.890944
2261.000000	67.995120
2260.000000	68.094575
2259.000000	68.191831
2258.000000	68.289729
2257.000000	68.390816
2256.000000	68.495169
2255.000000	68.603177
2254.000000	68.717809
2253.000000	68.842638
2252.000000	68.978162
2251.000000	69.122085
2250.000000	69.272159
2249.000000	69.424892
2248.000000	69.574659
2247.000000	69.716481
2246.000000	69.849568
2245.000000	69.976216
2244.000000	70.098302
2243.000000	70.216890
2242.000000	70.333299
2241.000000	70.447504
2240.000000	70.556237
2239.000000	70.655337
2238.000000	70.743505
2237.000000	70.822051
2236.000000	70.892561
2235.000000	70.956694
2234.000000	71.016776
2233.000000	71.073824
2232.000000	71.125350
2231.000000	71.167623
2230.000000	71.199206
2229.000000	71.221165
2228.000000	71.235263
2227.000000	71.244019
2226.000000	71.251189
2225.000000	71.259266
2224.000000	71.267109
2223.000000	71.271926
2222.000000	71.272795
2221.000000	71.270784
2220.000000	71.267228
2219.000000	71.264296
2218.000000	71.265859
2217.000000	71.274807
2216.000000	71.289798
2215.000000	71.306448
2214.000000	71.320926
2213.000000	71.330842
2212.000000	71.334544
2211.000000	71.332487
2210.000000	71.328695
2209.000000	71.328521
2208.000000	71.335110
2207.000000	71.348962
2206.000000	71.369062
2205.000000	71.392107
2204.000000	71.412408
2203.000000	71.425616
2202.000000	71.432491
2201.000000	71.437698
2200.000000	71.446451
2199.000000	71.464401
2198.000000	71.498315
2197.000000	71.553068
2196.000000	71.627791
2195.000000	71.717041
2194.000000	71.815050
2193.000000	71.916921
2192.000000	72.017356
2191.000000	72.110879
2190.000000	72.193232
2189.000000	72.261072
2188.000000	72.311889
2187.000000	72.346602
2186.000000	72.371066
2185.000000	72.392772
2184.000000	72.415993
2183.000000	72.440938
2182.000000	72.465716
2181.000000	72.487086
2180.000000	72.501110
2179.000000	72.506138
2178.000000	72.505063
2177.000000	72.502861
2176.000000	72.502657
2175.000000	72.505341
2174.000000	72.511086
2173.000000	72.518812
2172.000000	72.525460
2171.000000	72.528736
2170.000000	72.530290
2169.000000	72.534434
2168.000000	72.544335
2167.000000	72.560804
2166.000000	72.583256
2165.000000	72.609476
2164.000000	72.635571
2163.000000	72.658672
2162.000000	72.679511
2161.000000	72.701061
2160.000000	72.725629
2159.000000	72.754392
2158.000000	72.787852
2157.000000	72.824567
2156.000000	72.860792
2155.000000	72.893682
2154.000000	72.924071
2153.000000	72.954544
2152.000000	72.986141
2151.000000	73.018548
2150.000000	73.051671
2149.000000	73.084646
2148.000000	73.114562
2147.000000	73.138668
2146.000000	73.157252
2145.000000	73.172791
2144.000000	73.187458
2143.000000	73.202882
2142.000000	73.220418
2141.000000	73.239319
2140.000000	73.255704
2139.000000	73.265375
2138.000000	73.267198
2137.000000	73.262962
2136.000000	73.256050
2135.000000	73.251911
2134.000000	73.257323
2133.000000	73.276132
2132.000000	73.306198
2131.000000	73.342199
2130.000000	73.380280
2129.000000	73.418471
2128.000000	73.454811
2127.000000	73.487712
2126.000000	73.516640
2125.000000	73.539722
2124.000000	73.551926
2123.000000	73.547908
2122.000000	73.526234
2121.000000	73.489835
2120.000000	73.443998
2119.000000	73.395581
2118.000000	73.352054
2117.000000	73.317912
2116.000000	73.291971
2115.000000	73.269710
2114.000000	73.247271
2113.000000	73.222565
2112.000000	73.195127
2111.000000	73.167368
2110.000000	73.144374
2109.000000	73.129769
2108.000000	73.122490
2107.000000	73.119328
2106.000000	73.119094
2105.000000	73.122558
2104.000000	73.130545
2103.000000	73.144565
2102.000000	73.167464
2101.000000	73.200348
2100.000000	73.239862
2099.000000	73.280786
2098.000000	73.320087
2097.000000	73.356778
2096.000000	73.390121
2095.000000	73.420993
2094.000000	73.453189
2093.000000	73.489807
2092.000000	73.529135
2091.000000	73.566482
2090.000000	73.599172
2089.000000	73.628216
2088.000000	73.657228
2087.000000	73.692511
2086.000000	73.742094
2085.000000	73.811074
2084.000000	73.897891
2083.000000	73.996274
2082.000000	74.099461
2081.000000	74.201312
2080.000000	74.296310
2079.000000	74.382011
2078.000000	74.460528
2077.000000	74.535269
2076.000000	74.607381
2075.000000	74.676542
2074.000000	74.742645
2073.000000	74.804842
2072.000000	74.860898
2071.000000	74.909764
2070.000000	74.953966
2069.000000	74.997339
2068.000000	75.041258
2067.000000	75.084531
2066.000000	75.125309
2065.000000	75.161830
2064.000000	75.192995
2063.000000	75.220365
2062.000000	75.248271
2061.000000	75.280122
2060.000000	75.315847
2059.000000	75.353836
2058.000000	75.393233
2057.000000	75.432641
2056.000000	75.469233
2055.000000	75.501711
2054.000000	75.532521
2053.000000	75.565333
2052.000000	75.601630
2051.000000	75.640979
2050.000000	75.682992
2049.000000	75.726932
2048.000000	75.770348
2047.000000	75.810724
2046.000000	75.848417
2045.000000	75.885967
2044.000000	75.924773
2043.000000	75.964061
2042.000000	76.002289
2041.000000	76.037646
2040.000000	76.068148
2039.000000	76.093299
2038.000000	76.115116
2037.000000	76.136305
2036.000000	76.158403
2035.000000	76.182824
2034.000000	76.211897
2033.000000	76.246615
2032.000000	76.284893
2031.000000	76.324184
2030.000000	76.364498
2029.000000	76.407043
2028.000000	76.451338
2027.000000	76.495757
2026.000000	76.539441
2025.000000	76.581460
2024.000000	76.618790
2023.000000	76.647494
2022.000000	76.666566
2021.000000	76.678573
2020.000000	76.686355
2019.000000	76.691148
2018.000000	76.693962
2017.000000	76.696753
2016.000000	76.701702
2015.000000	76.710664
2014.000000	76.724807
2013.000000	76.743241
2012.000000	76.762665
2011.000000	76.780145
2010.000000	76.795761
2009.000000	76.810957
2008.000000	76.825718
2007.000000	76.839479
2006.000000	76.853107
2005.000000	76.867887
2004.000000	76.883514
2003.000000	76.899292
2002.000000	76.916430
2001.000000	76.936570
2000.000000	76.959778
1999.000000	76.985360
1998.000000	77.013121
1997.000000	77.044101
1996.000000	77.080073
1995.000000	77.120867
1994.000000	77.161856
1993.000000	77.195458
1992.000000	77.216698
1991.000000	77.227032
1990.000000	77.231496
1989.000000	77.233133
1988.000000	77.231899
1987.000000	77.228034
1986.000000	77.224207
1985.000000	77.223991
1984.000000	77.229750
1983.000000	77.242615
1982.000000	77.262565
1981.000000	77.287638
1980.000000	77.315141
1979.000000	77.343315
1978.000000	77.370944
1977.000000	77.397560
1976.000000	77.424881
1975.000000	77.456306
1974.000000	77.493957
1973.000000	77.537938
1972.000000	77.588708
1971.000000	77.647242
1970.000000	77.711892
1969.000000	77.777062
1968.000000	77.836336
1967.000000	77.886176
1966.000000	77.926363
1965.000000	77.958214
1964.000000	77.983133
1963.000000	78.001683
1962.000000	78.013699
1961.000000	78.020636
1960.000000	78.026749
1959.000000	78.035746
1958.000000	78.045671
1957.000000	78.048787
1956.000000	78.037843
1955.000000	78.010917
1954.000000	77.971170
1953.000000	77.925085
1952.000000	77.881080
1951.000000	77.848018
1950.000000	77.831660
1949.000000	77.830587
1948.000000	77.838908
1947.000000	77.853484
1946.000000	77.874386
1945.000000	77.899727
1944.000000	77.924774
1943.000000	77.948167
1942.000000	77.975956
1941.000000	78.016072
1940.000000	78.072018
1939.000000	78.141700
1938.000000	78.218526
1937.000000	78.294578
1936.000000	78.365235
1935.000000	78.430856
1934.000000	78.494035
1933.000000	78.556405
1932.000000	78.616802
1931.000000	78.672882
1930.000000	78.721503
1929.000000	78.757037
1928.000000	78.776419
1927.000000	78.785050
1926.000000	78.793541
1925.000000	78.805984
1924.000000	78.816720
1923.000000	78.824226
1922.000000	78.836599
1921.000000	78.857150
1920.000000	78.875421
1919.000000	78.878280
1918.000000	78.865501
1917.000000	78.847926
1916.000000	78.833475
1915.000000	78.824188
1914.000000	78.821801
1913.000000	78.826932
1912.000000	78.834841
1911.000000	78.839178
1910.000000	78.838165
1909.000000	78.833175
1908.000000	78.825948
1907.000000	78.819415
1906.000000	78.818392
1905.000000	78.822761
1904.000000	78.823428
1903.000000	78.813647
1902.000000	78.795247
1901.000000	78.770749
1900.000000	78.740954
1899.000000	78.711099
1898.000000	78.690764
1897.000000	78.682749
1896.000000	78.679155
1895.000000	78.676922
1894.000000	78.687628
1893.000000	78.722001
1892.000000	78.774983
1891.000000	78.833046
1890.000000	78.887538
1889.000000	78.935129
1888.000000	78.972631
1887.000000	79.001107
1886.000000	79.028434
1885.000000	79.060531
1884.000000	79.096656
1883.000000	79.136775
1882.000000	79.183857
1881.000000	79.234264
1880.000000	79.276681
1879.000000	79.303406
1878.000000	79.317462
1877.000000	79.326502
1876.000000	79.333971
1875.000000	79.344334
1874.000000	79.370453
1873.000000	79.422086
1872.000000	79.490708
1871.000000	79.555243
1870.000000	79.599167
1869.000000	79.619200
1868.000000	79.621475
1867.000000	79.616613
1866.000000	79.616887
1865.000000	79.627988
1864.000000	79.645101
1863.000000	79.661855
1862.000000	79.679390
1861.000000	79.702413
1860.000000	79.732823
1859.000000	79.774663
1858.000000	79.837083
1857.000000	79.922594
1856.000000	80.019164
1855.000000	80.112847
1854.000000	80.199316
1853.000000	80.278226
1852.000000	80.350157
1851.000000	80.419347
1850.000000	80.492756
1849.000000	80.576031
1848.000000	80.666517
1847.000000	80.752322
1846.000000	80.818417
1845.000000	80.856054
1844.000000	80.872983
1843.000000	80.888119
1842.000000	80.909560
1841.000000	80.929251
1840.000000	80.941963
1839.000000	80.953664
1838.000000	80.972050
1837.000000	80.996592
1836.000000	81.023805
1835.000000	81.061915
1834.000000	81.123683
1833.000000	81.208162
1832.000000	81.300190
1831.000000	81.380623
1830.000000	81.442816
1829.000000	81.498032
1828.000000	81.556098
1827.000000	81.612291
1826.000000	81.657598
1825.000000	81.692918
1824.000000	81.726380
1823.000000	81.763356
1822.000000	81.806338
1821.000000	81.859317
1820.000000	81.923497
1819.000000	81.992371
1818.000000	82.060579
1817.000000	82.128458
1816.000000	82.195924
1815.000000	82.262477
1814.000000	82.328823
1813.000000	82.392746
1812.000000	82.444089
1811.000000	82.474077
1810.000000	82.492602
1809.000000	82.516625
1808.000000	82.547738
1807.000000	82.580687
1806.000000	82.621955
1805.000000	82.681766
1804.000000	82.755819
1803.000000	82.827344
1802.000000	82.882136
1801.000000	82.918527
1800.000000	82.941659
1799.000000	82.958684
1798.000000	82.981605
1797.000000	83.015994
1796.000000	83.052476
1795.000000	83.080107
1794.000000	83.098806
1793.000000	83.117055
1792.000000	83.137507
1791.000000	83.151125
1790.000000	83.153409
1789.000000	83.151928
1788.000000	83.157252
1787.000000	83.176098
1786.000000	83.211118
1785.000000	83.258711
1784.000000	83.310613
1783.000000	83.361543
1782.000000	83.406406
1781.000000	83.441865
1780.000000	83.469052
1779.000000	83.491536
1778.000000	83.518636
1777.000000	83.561684
1776.000000	83.624708
1775.000000	83.699127
1774.000000	83.768522
1773.000000	83.833263
1772.000000	83.916058
1771.000000	84.017084
1770.000000	84.103121
1769.000000	84.154112
1768.000000	84.183836
1767.000000	84.216879
1766.000000	84.266668
1765.000000	84.332646
1764.000000	84.406467
1763.000000	84.473462
1762.000000	84.518740
1761.000000	84.548276
1760.000000	84.579592
1759.000000	84.615173
1758.000000	84.642084
1757.000000	84.653461
1756.000000	84.665194
1755.000000	84.689286
1754.000000	84.713979
1753.000000	84.731866
1752.000000	84.757578
1751.000000	84.800407
1750.000000	84.837899
1749.000000	84.840596
1748.000000	84.812593
1747.000000	84.779276
1746.000000	84.749152
1745.000000	84.717626
1744.000000	84.686330
1743.000000	84.655313
1742.000000	84.613366
1741.000000	84.551834
1740.000000	84.488055
1739.000000	84.458395
1738.000000	84.470296
1737.000000	84.490924
1736.000000	84.489645
1735.000000	84.471854
1734.000000	84.472174
1733.000000	84.502479
1732.000000	84.530298
1731.000000	84.520867
1730.000000	84.468017
1729.000000	84.389315
1728.000000	84.314043
1727.000000	84.261004
1726.000000	84.226928
1725.000000	84.199686
1724.000000	84.168544
1723.000000	84.137070
1722.000000	84.123542
1721.000000	84.130510
1720.000000	84.135176
1719.000000	84.114641
1718.000000	84.086467
1717.000000	84.087817
1716.000000	84.097831
1715.000000	84.072231
1714.000000	84.014599
1713.000000	83.952598
1712.000000	83.901112
1711.000000	83.870299
1710.000000	83.876677
1709.000000	83.927048
1708.000000	84.002114
1707.000000	84.070794
1706.000000	84.127608
1705.000000	84.192704
1704.000000	84.263796
1703.000000	84.315677
1702.000000	84.337316
1701.000000	84.348526
1700.000000	84.377406
1699.000000	84.410985
1698.000000	84.403498
1697.000000	84.325275
1696.000000	84.208985
1695.000000	84.124877
1694.000000	84.095388
1693.000000	84.075547
1692.000000	84.023641
1691.000000	83.951324
1690.000000	83.885245
1689.000000	83.827145
1688.000000	83.762817
1687.000000	83.684191
1686.000000	83.590672
1685.000000	83.483798
1684.000000	83.398020
1683.000000	83.350130
1682.000000	83.276575
1681.000000	83.124019
1680.000000	82.928040
1679.000000	82.758028
1678.000000	82.629236
1677.000000	82.497189
1676.000000	82.335741
1675.000000	82.174051
1674.000000	82.031399
1673.000000	81.882630
1672.000000	81.703705
1671.000000	81.499293
1670.000000	81.283906
1669.000000	81.060503
1668.000000	80.840319
1667.000000	80.642466
1666.000000	80.454405
1665.000000	80.237711
1664.000000	79.972431
1663.000000	79.685621
1662.000000	79.411160
1661.000000	79.139161
1660.000000	78.856226
1659.000000	78.580848
1658.000000	78.334175
1657.000000	78.107716
1656.000000	77.857285
1655.000000	77.503752
1654.000000	76.930505
1653.000000	76.167222
1652.000000	75.470174
1651.000000	74.958819
1650.000000	74.478270
1649.000000	73.824514
1648.000000	72.853636
1647.000000	71.555965
1646.000000	70.088886
1645.000000	68.630570
1644.000000	67.235012
1643.000000	65.866309
1642.000000	64.497358
1641.000000	63.177772
1640.000000	62.030586
1639.000000	61.146220
1638.000000	60.528886
1637.000000	60.163301
1636.000000	60.109256
1635.000000	60.402560
1634.000000	60.909470
1633.000000	61.477862
1632.000000	62.068324
1631.000000	62.703003
1630.000000	63.396999
1629.000000	64.134935
1628.000000	64.889935
1627.000000	65.626813
1626.000000	66.310267
1625.000000	66.941278
1624.000000	67.564269
1623.000000	68.210686
1622.000000	68.843618
1621.000000	69.408395
1620.000000	69.910285
1619.000000	70.404125
1618.000000	70.957349
1617.000000	71.612674
1616.000000	72.330928
1615.000000	73.000182
1614.000000	73.542055
1613.000000	73.965509
1612.000000	74.327428
1611.000000	74.657065
1610.000000	74.904035
1609.000000	74.984507
1608.000000	74.843192
1607.000000	74.434531
1606.000000	73.680565
1605.000000	72.488884
1604.000000	70.827235
1603.000000	68.737793
1602.000000	66.298232
1601.000000	63.554815
1600.000000	60.420777
1599.000000	56.648907
1598.000000	51.935466
1597.000000	46.213495
1596.000000	39.955277
1595.000000	34.140145
1594.000000	29.733853
1593.000000	27.096714
1592.000000	25.969387
1591.000000	25.887970
1590.000000	26.459382
1589.000000	27.346746
1588.000000	28.252420
1587.000000	28.972533
1586.000000	29.410967
1585.000000	29.597658
1584.000000	29.683064
1583.000000	29.851837
1582.000000	30.190247
1581.000000	30.664602
1580.000000	31.235400
1579.000000	31.915695
1578.000000	32.700145
1577.000000	33.486875
1576.000000	34.124536
1575.000000	34.550112
1574.000000	34.795870
1573.000000	34.906387
1572.000000	34.976385
1571.000000	35.209874
1570.000000	35.820503
1569.000000	36.820779
1568.000000	38.063804
1567.000000	39.478333
1566.000000	41.052001
1565.000000	42.675435
1564.000000	44.175740
1563.000000	45.464844
1562.000000	46.604312
1561.000000	47.753014
1560.000000	49.175710
1559.000000	51.050441
1558.000000	52.981232
1557.000000	54.480119
1556.000000	55.634797
1555.000000	56.715039
1554.000000	57.814988
1553.000000	58.868102
1552.000000	59.803556
1551.000000	60.650281
1550.000000	61.452711
1549.000000	62.192565
1548.000000	62.839419
1547.000000	63.430772
1546.000000	64.028632
1545.000000	64.637983
1544.000000	65.209652
1543.000000	65.716395
1542.000000	66.184934
1541.000000	66.646754
1540.000000	67.107563
1539.000000	67.557322
1538.000000	67.982874
1537.000000	68.374121
1536.000000	68.730882
1535.000000	69.084125
1534.000000	69.469417
1533.000000	69.865547
1532.000000	70.211655
1531.000000	70.498472
1530.000000	70.775197
1529.000000	71.071588
1528.000000	71.373538
1527.000000	71.665250
1526.000000	71.946380
1525.000000	72.210104
1524.000000	72.444180
1523.000000	72.656257
1522.000000	72.877383
1521.000000	73.114868
1520.000000	73.334506
1519.000000	73.517500
1518.000000	73.671525
1517.000000	73.801209
1516.000000	73.903448
1515.000000	73.984529
1514.000000	74.066918
1513.000000	74.174988
1512.000000	74.320340
1511.000000	74.500860
1510.000000	74.699417
1509.000000	74.885114
1508.000000	75.015201
1507.000000	75.082614
1506.000000	75.133519
1505.000000	75.196342
1504.000000	75.280321
1503.000000	75.385329
1502.000000	75.510547
1501.000000	75.658732
1500.000000	75.820504
1499.000000	75.977935
1498.000000	76.126183
1497.000000	76.281932
1496.000000	76.458200
1495.000000	76.658461
1494.000000	76.887108
1493.000000	77.143682
1492.000000	77.424120
1491.000000	77.723260
1490.000000	78.021803
1489.000000	78.283405
1488.000000	78.485286
1487.000000	78.656120
1486.000000	78.843795
1485.000000	79.051897
1484.000000	79.263876
1483.000000	79.482871
1482.000000	79.715227
1481.000000	79.946903
1480.000000	80.161935
1479.000000	80.376376
1478.000000	80.617343
1477.000000	80.879886
1476.000000	81.132220
1475.000000	81.365813
1474.000000	81.597613
1473.000000	81.827487
1472.000000	82.031522
1471.000000	82.190014
1470.000000	82.302846
1469.000000	82.373564
1468.000000	82.402511
1467.000000	82.374993
1466.000000	82.215191
1465.000000	81.785742
1464.000000	80.988534
1463.000000	79.813179
1462.000000	78.268698
1461.000000	76.360377
1460.000000	74.113940
1459.000000	71.534744
1458.000000	68.576755
1457.000000	65.451721
1456.000000	62.757821
1455.000000	60.764176
1454.000000	59.134008
1453.000000	57.515381
1452.000000	55.887683
1451.000000	54.447413
1450.000000	53.345470
1449.000000	52.586079
1448.000000	52.108129
1447.000000	51.869148
1446.000000	51.923276
1445.000000	52.468691
1444.000000	53.729344
1443.000000	55.714967
1442.000000	58.123797
1441.000000	60.525848
1440.000000	62.618481
1439.000000	64.320443
1438.000000	65.715561
1437.000000	66.941193
1436.000000	68.070283
1435.000000	69.095585
1434.000000	70.040138
1433.000000	70.974978
1432.000000	71.926879
1431.000000	72.837328
1430.000000	73.627979
1429.000000	74.277975
1428.000000	74.806432
1427.000000	75.239892
1426.000000	75.613166
1425.000000	75.965738
1424.000000	76.315237
1423.000000	76.641090
1422.000000	76.932812
1421.000000	77.221006
1420.000000	77.535217
1419.000000	77.849373
1418.000000	78.112379
1417.000000	78.321441
1416.000000	78.504383
1415.000000	78.681169
1414.000000	78.866392
1413.000000	79.067914
1412.000000	79.272477
1411.000000	79.451021
1410.000000	79.593297
1409.000000	79.714134
1408.000000	79.814073
1407.000000	79.860011
1406.000000	79.795192
1405.000000	79.555066
1404.000000	79.102208
1403.000000	78.469287
1402.000000	77.755369
1401.000000	77.066753
1400.000000	76.475401
1399.000000	76.006898
1398.000000	75.646427
1397.000000	75.388406
1396.000000	75.292193
1395.000000	75.453951
1394.000000	75.881202
1393.000000	76.447504
1392.000000	77.004781
1391.000000	77.478108
1390.000000	77.863904
1389.000000	78.195299
1388.000000	78.512368
1387.000000	78.841487
1386.000000	79.188010
1385.000000	79.549547
1384.000000	79.929638
1383.000000	80.330676
1382.000000	80.745982
1381.000000	81.158959
1380.000000	81.546142
1379.000000	81.884193
1378.000000	82.156254
1377.000000	82.346385
1376.000000	82.419225
1375.000000	82.309971
1374.000000	81.934114
1373.000000	81.210280
1372.000000	80.059514
1371.000000	78.365413
1370.000000	75.971942
1369.000000	72.817042
1368.000000	69.164109
1367.000000	65.660273
1366.000000	63.051251
1365.000000	61.813252
1364.000000	62.009003
1363.000000	63.334842
1362.000000	65.293432
1361.000000	67.468914
1360.000000	69.659120
1359.000000	71.773446
1358.000000	73.720202
1357.000000	75.408426
1356.000000	76.796098
1355.000000	77.899533
1354.000000	78.772898
1353.000000	79.485993
1352.000000	80.097045
1351.000000	80.635340
1350.000000	81.109537
1349.000000	81.526623
1348.000000	81.896121
1347.000000	82.221979
1346.000000	82.505813
1345.000000	82.756770
1344.000000	82.991299
1343.000000	83.222226
1342.000000	83.455275
1341.000000	83.688181
1340.000000	83.904629
1339.000000	84.077400
1338.000000	84.190251
1337.000000	84.257073
1336.000000	84.310511
1335.000000	84.379064
1334.000000	84.480158
1333.000000	84.620475
1332.000000	84.790535
1331.000000	84.964209
1330.000000	85.113787
1329.000000	85.226149
1328.000000	85.295421
1327.000000	85.304348
1326.000000	85.212089
1325.000000	84.947111
1324.000000	84.411548
1323.000000	83.494297
1322.000000	82.115112
1321.000000	80.283392
1320.000000	78.120498
1319.000000	75.821341
1318.000000	73.570571
1317.000000	71.504726
1316.000000	69.771927
1315.000000	68.594277
1314.000000	68.186750
1313.000000	68.585865
1312.000000	69.576005
1311.000000	70.803179
1310.000000	71.990806
1309.000000	73.053844
1308.000000	74.060740
1307.000000	75.126852
1306.000000	76.314632
1305.000000	77.591322
1304.000000	78.850831
1303.000000	79.976949
1302.000000	80.904088
1301.000000	81.630493
1300.000000	82.179153
1299.000000	82.567516
1298.000000	82.807051
1297.000000	82.900620
1296.000000	82.836050
1295.000000	82.580881
1294.000000	82.085626
1293.000000	81.277444
1292.000000	80.079181
1291.000000	78.515654
1290.000000	76.802490
1289.000000	75.252622
1288.000000	74.018786
1287.000000	72.923594
1286.000000	71.607992
1285.000000	69.884683
1284.000000	67.932306
1283.000000	66.179162
1282.000000	65.044198
1281.000000	64.744095
1280.000000	65.257103
1279.000000	66.370547
1278.000000	67.757835
1277.000000	69.066588
1276.000000	69.941617
1275.000000	70.039568
1274.000000	69.200046
1273.000000	67.738718
1272.000000	66.520401
1271.000000	66.503597
1270.000000	68.059119
1269.000000	70.728704
1268.000000	73.640571
1267.000000	76.129365
1266.000000	77.996545
1265.000000	79.352201
1264.000000	80.366178
1263.000000	81.159639
1262.000000	81.811388
1261.000000	82.375470
1260.000000	82.881901
1259.000000	83.343944
1258.000000	83.773133
1257.000000	84.170988
1256.000000	84.525355
1255.000000	84.828491
1254.000000	85.089673
1253.000000	85.327041
1252.000000	85.552201
1251.000000	85.771764
1250.000000	85.992722
1249.000000	86.215213
1248.000000	86.428801
1247.000000	86.624644
1246.000000	86.807034
1245.000000	86.986584
1244.000000	87.167478
1243.000000	87.348733
1242.000000	87.530492
1241.000000	87.709763
1240.000000	87.875579
1239.000000	88.018151
1238.000000	88.141135
1237.000000	88.256505
1236.000000	88.370771
1235.000000	88.483168
1234.000000	88.589522
1233.000000	88.679371
1232.000000	88.732037
1231.000000	88.725387
1230.000000	88.650397
1229.000000	88.503920
1228.000000	88.273036
1227.000000	87.925871
1226.000000	87.405457
1225.000000	86.629879
1224.000000	85.490308
1223.000000	83.886798
1222.000000	81.779055
1221.000000	79.210774
1220.000000	76.318155
1219.000000	73.296184
1218.000000	70.335541
1217.000000	67.558239
1216.000000	64.994005
1215.000000	62.608022
1214.000000	60.345965
1213.000000	58.174741
1212.000000	56.108767
1211.000000	54.211959
1210.000000	52.556154
1209.000000	51.200005
1208.000000	50.193328
1207.000000	49.560597
1206.000000	49.277182
1205.000000	49.263130
1204.000000	49.443348
1203.000000	49.804437
1202.000000	50.383691
1201.000000	51.237243
1200.000000	52.394939
1199.000000	53.838698
1198.000000	55.508116
1197.000000	57.325379
1196.000000	59.233355
1195.000000	61.195029
1194.000000	63.174313
1193.000000	65.129821
1192.000000	67.019929
1191.000000	68.805168
1190.000000	70.450285
1189.000000	71.931961
1188.000000	73.242284
1187.000000	74.389118
1186.000000	75.383372
1185.000000	76.234364
1184.000000	76.949749
1183.000000	77.530721
1182.000000	77.979054
1181.000000	78.299303
1180.000000	78.505394
1179.000000	78.624003
1178.000000	78.683288
1177.000000	78.704145
1176.000000	78.695338
1175.000000	78.660292
1174.000000	78.606890
1173.000000	78.550576
1172.000000	78.514777
1171.000000	78.527507
1170.000000	78.612360
1169.000000	78.776676
1168.000000	79.005844
1167.000000	79.264898
1166.000000	79.505947
1165.000000	79.681020
1164.000000	79.760862
1163.000000	79.755119
1162.000000	79.716914
1161.000000	79.722544
1160.000000	79.836157
1159.000000	80.080360
1158.000000	80.431690
1157.000000	80.841377
1156.000000	81.266165
1155.000000	81.686738
1154.000000	82.102672
1153.000000	82.515339
1152.000000	82.913527
1151.000000	83.272040
1150.000000	83.560721
1149.000000	83.758972
1148.000000	83.864718
1147.000000	83.897112
1146.000000	83.888634
1145.000000	83.865601
1144.000000	83.835163
1143.000000	83.778696
1142.000000	83.657117
1141.000000	83.425046
1140.000000	83.040184
1139.000000	82.474636
1138.000000	81.703189
1137.000000	80.688018
1136.000000	79.378856
1135.000000	77.706058
1134.000000	75.593468
1133.000000	72.965883
1132.000000	69.781776
1131.000000	66.088623
1130.000000	62.046627
1129.000000	57.928440
1128.000000	54.087707
1127.000000	50.878963
1126.000000	48.535170
1125.000000	47.103786
1124.000000	46.457104
1123.000000	46.328128
1122.000000	46.333736
1121.000000	46.012204
1120.000000	44.902612
1119.000000	42.637194
1118.000000	39.086121
1117.000000	34.590683
1116.000000	30.105176
1115.000000	26.984811
1114.000000	26.343696
1113.000000	28.446485
1112.000000	32.633797
1111.000000	37.724224
1110.000000	42.574356
1109.000000	46.439188
1108.000000	49.012681
1107.000000	50.229541
1106.000000	50.056316
1105.000000	48.514900
1104.000000	45.983399
1103.000000	43.427080
1102.000000	42.113787
1101.000000	42.900778
1100.000000	45.717136
1099.000000	49.699790
1098.000000	53.818364
1097.000000	57.426575
1096.000000	60.344684
1095.000000	62.652416
1094.000000	64.499251
1093.000000	66.033097
1092.000000	67.370360
1091.000000	68.584339
1090.000000	69.717168
1089.000000	70.802487
1088.000000	71.873753
1087.000000	72.945981
1086.000000	74.017678
1085.000000	75.077462
1084.000000	76.099396
1083.000000	77.048754
1082.000000	77.900706
1081.000000	78.653973
1080.000000	79.317281
1079.000000	79.892167
1078.000000	80.381566
1077.000000	80.790414
1076.000000	81.113921
1075.000000	81.333570
1074.000000	81.425184
1073.000000	81.370922
1072.000000	81.136886
1071.000000	80.661402
1070.000000	79.868344
1069.000000	78.662173
1068.000000	76.938217
1067.000000	74.583405
1066.000000	71.514077
1065.000000	67.737641
1064.000000	63.380312
1063.000000	58.703569
1062.000000	54.036679
1061.000000	49.651468
1060.000000	45.646679
1059.000000	41.908698
1058.000000	38.200934
1057.000000	34.369485
1056.000000	30.547197
1055.000000	27.162685
1054.000000	24.788628
1053.000000	23.890123
1052.000000	24.670875
1051.000000	27.027723
1050.000000	30.552875
1049.000000	34.690682
1048.000000	38.905946
1047.000000	42.819964
1046.000000	46.268928
1045.000000	49.258451
1044.000000	51.875198
1043.000000	54.196307
1042.000000	56.254652
1041.000000	58.051221
1040.000000	59.594018
1039.000000	60.902736
1038.000000	62.010218
1037.000000	62.961811
1036.000000	63.799658
1035.000000	64.559185
1034.000000	65.263883
1033.000000	65.929288
1032.000000	66.565366
1031.000000	67.173678
1030.000000	67.754536
1029.000000	68.311181
1028.000000	68.849365
1027.000000	69.377453
1026.000000	69.909071
1025.000000	70.461199
1024.000000	71.042723
1023.000000	71.646788
1022.000000	72.256511
1021.000000	72.848943
1020.000000	73.393765
1019.000000	73.853630
1018.000000	74.189881
1017.000000	74.366273
1016.000000	74.324791
1015.000000	73.983691
1014.000000	73.246506
1013.000000	72.006769
1012.000000	70.174915
1011.000000	67.687552
1010.000000	64.532036
1009.000000	60.745447
1008.000000	56.447797
1007.000000	51.975301
1006.000000	48.008086
1005.000000	45.447620
1004.000000	44.974483
1003.000000	46.576673
1002.000000	49.468431
1001.000000	52.533686
1000.000000	54.848736
999.000000	55.884300
998.000000	55.453231
997.000000	53.710395
996.000000	51.263463
995.000000	49.083372
994.000000	48.050868
993.000000	48.459024
992.000000	49.946020
991.000000	51.876138
990.000000	53.792639
989.000000	55.580121
988.000000	57.333760
987.000000	59.139248
986.000000	60.982564
985.000000	62.779232
984.000000	64.439401
983.000000	65.905174
982.000000	67.161829
981.000000	68.227750
980.000000	69.132856
979.000000	69.910295
978.000000	70.591116
977.000000	71.205908
976.000000	71.776731
975.000000	72.310219
974.000000	72.805906
973.000000	73.259605
972.000000	73.666047
971.000000	74.022964
970.000000	74.337677
969.000000	74.628564
968.000000	74.913742
967.000000	75.203282
966.000000	75.499788
965.000000	75.798790
964.000000	76.087945
963.000000	76.350780
962.000000	76.578122
961.000000	76.773862
960.000000	76.948728
959.000000	77.114847
958.000000	77.284919
957.000000	77.468414
956.000000	77.663659
955.000000	77.857170
954.000000	78.034631
953.000000	78.188356
952.000000	78.316212
951.000000	78.421655
950.000000	78.516881
949.000000	78.618742
948.000000	78.736234
947.000000	78.865210
946.000000	78.996272
945.000000	79.121062
944.000000	79.231165
943.000000	79.319816
942.000000	79.389766
941.000000	79.454005
940.000000	79.525431
939.000000	79.610297
938.000000	79.710873
937.000000	79.826225
936.000000	79.947873
935.000000	80.062063
934.000000	80.160283
933.000000	80.242938
932.000000	80.312379
931.000000	80.370804
930.000000	80.426201
929.000000	80.490865
928.000000	80.569653
927.000000	80.655909
926.000000	80.741257
925.000000	80.820975
924.000000	80.889126
923.000000	80.939051
922.000000	80.973818
921.000000	81.007983
920.000000	81.055119
919.000000	81.119714
918.000000	81.201705
917.000000	81.298107
916.000000	81.396634
915.000000	81.478355
914.000000	81.533623
913.000000	81.569469
912.000000	81.599373
911.000000	81.635272
910.000000	81.690069
909.000000	81.773347
908.000000	81.877786
907.000000	81.979875
906.000000	82.059923
905.000000	82.112565
904.000000	82.136392
903.000000	82.128954
902.000000	82.097417
901.000000	82.060258
900.000000	82.026798
899.000000	81.978575
898.000000	81.875406
897.000000	81.668486
896.000000	81.324279
895.000000	80.861108
894.000000	80.350317
893.000000	79.836213
892.000000	79.241755
891.000000	78.422122
890.000000	77.369851
889.000000	76.341344
888.000000	75.696501
887.000000	75.604544
886.000000	75.929755
885.000000	76.403752
884.000000	76.857539
883.000000	77.252922
882.000000	77.580995
881.000000	77.815211
880.000000	77.964355
879.000000	78.112141
878.000000	78.363677
877.000000	78.765648
876.000000	79.280039
875.000000	79.820923
874.000000	80.308901
873.000000	80.705491
872.000000	81.015066
871.000000	81.262039
870.000000	81.466475
869.000000	81.632500
868.000000	81.750973
867.000000	81.802911
866.000000	81.766016
865.000000	81.631377
864.000000	81.417486
863.000000	81.172886
862.000000	80.961465
861.000000	80.838534
860.000000	80.829022
859.000000	80.917762
858.000000	81.059064
857.000000	81.203805
856.000000	81.327210
855.000000	81.434450
854.000000	81.547407
853.000000	81.684209
852.000000	81.845423
851.000000	82.012148
850.000000	82.156178
849.000000	82.254785
848.000000	82.301688
847.000000	82.309377
846.000000	82.302904
845.000000	82.308965
844.000000	82.343633
843.000000	82.404990
842.000000	82.475630
841.000000	82.532791
840.000000	82.560114
839.000000	82.555518
838.000000	82.532942
837.000000	82.514779
836.000000	82.518003
835.000000	82.544628
834.000000	82.583185
833.000000	82.617096
832.000000	82.631781
831.000000	82.618931
830.000000	82.581208
829.000000	82.534043
828.000000	82.498754
827.000000	82.490145
826.000000	82.507920
825.000000	82.536921
824.000000	82.554820
823.000000	82.545893
822.000000	82.513536
821.000000	82.478438
820.000000	82.459976
819.000000	82.458991
818.000000	82.458086
817.000000	82.435469
816.000000	82.372969
815.000000	82.256845
814.000000	82.076999
813.000000	81.815268
812.000000	81.425187
811.000000	80.826842
810.000000	79.963189
809.000000	78.894609
808.000000	77.837525
807.000000	77.072902
806.000000	76.785176
805.000000	76.968342
804.000000	77.469191
803.000000	78.103088
802.000000	78.727453
801.000000	79.252370
800.000000	79.626648
799.000000	79.832894
798.000000	79.881929
797.000000	79.795087
796.000000	79.585113
795.000000	79.249400
794.000000	78.777044
793.000000	78.156638
792.000000	77.395768
791.000000	76.540062
790.000000	75.675317
789.000000	74.902148
788.000000	74.301712
787.000000	73.914353
786.000000	73.736076
785.000000	73.727965
784.000000	73.829077
783.000000	73.974024
782.000000	74.108095
781.000000	74.199067
780.000000	74.242771
779.000000	74.259911
778.000000	74.287303
777.000000	74.363221
776.000000	74.514601
775.000000	74.752571
774.000000	75.074629
773.000000	75.469943
772.000000	75.922444
771.000000	76.411896
770.000000	76.913038
769.000000	77.393622
768.000000	77.818409
767.000000	78.161920
766.000000	78.422320
765.000000	78.621850
764.000000	78.794494
763.000000	78.970434
762.000000	79.163286
761.000000	79.362167
760.000000	79.534402
759.000000	79.646027
758.000000	79.686630
757.000000	79.678336
756.000000	79.662685
755.000000	79.678577
754.000000	79.743990
753.000000	79.845805
752.000000	79.943170
751.000000	79.988548
750.000000	79.955540
749.000000	79.853410
748.000000	79.719281
747.000000	79.597228
746.000000	79.516673
745.000000	79.476727
744.000000	79.444032
743.000000	79.369049
742.000000	79.213612
741.000000	78.972227
740.000000	78.676171
739.000000	78.380975
738.000000	78.141375
737.000000	77.981869
736.000000	77.879986
735.000000	77.776063
734.000000	77.604442
733.000000	77.322667
732.000000	76.924112
731.000000	76.436333
730.000000	75.910282
729.000000	75.402452
728.000000	74.955895
727.000000	74.594585
726.000000	74.334395
725.000000	74.194376
724.000000	74.194502
723.000000	74.345728
722.000000	74.645087
721.000000	75.069984
720.000000	75.570012
719.000000	76.073060
718.000000	76.514072
717.000000	76.860927
716.000000	77.116236
715.000000	77.303587
714.000000	77.451210
713.000000	77.576782
712.000000	77.677435
711.000000	77.736120
710.000000	77.741921
709.000000	77.705717
708.000000	77.658126
707.000000	77.636217
706.000000	77.668690
705.000000	77.761927
704.000000	77.891968
703.000000	78.014332
702.000000	78.089664
701.000000	78.104429
700.000000	78.073767
699.000000	78.033681
698.000000	78.026250
697.000000	78.075984
696.000000	78.168841
695.000000	78.257328
694.000000	78.291696
693.000000	78.248479
692.000000	78.138903
691.000000	78.004380
690.000000	77.903584
689.000000	77.885270
688.000000	77.953880
687.000000	78.061642
686.000000	78.142639
685.000000	78.150563
684.000000	78.073586
683.000000	77.937146
682.000000	77.799559
681.000000	77.726558
680.000000	77.749123
679.000000	77.847981
678.000000	77.975115
677.000000	78.088973
676.000000	78.160508
675.000000	78.175343
674.000000	78.166034
673.000000	78.188042
672.000000	78.255092
671.000000	78.334786
670.000000	78.433678
669.000000	78.549451
668.000000	78.605038
667.000000	78.630456
666.000000	78.670013
665.000000	78.669401
664.000000	78.648252
663.000000	78.667948
662.000000	78.735871
661.000000	78.802485
660.000000	78.834013
659.000000	78.839603
658.000000	78.837636
657.000000	78.843890
656.000000	78.874316
655.000000	78.925308
654.000000	78.971068
653.000000	78.982283
652.000000	78.953347
651.000000	78.904703
650.000000	78.866009
649.000000	78.861800
648.000000	78.903893
647.000000	78.980751
646.000000	79.054269
645.000000	79.081258
644.000000	79.042760
643.000000	78.955951
642.000000	78.864758
641.000000	78.816848
640.000000	78.840434
639.000000	78.928466
638.000000	79.039104
637.000000	79.117275
636.000000	79.123925
635.000000	79.054954
634.000000	78.945272
633.000000	78.854269
632.000000	78.834192
631.000000	78.899417
630.000000	79.018827
629.000000	79.136723
628.000000	79.202172
627.000000	79.189926
626.000000	79.112036
625.000000	79.015172
624.000000	78.955340
623.000000	78.965015
622.000000	79.035410
621.000000	79.124891
620.000000	79.184167
619.000000	79.181638
618.000000	79.121240
617.000000	79.039809
616.000000	78.978825
615.000000	78.956869
614.000000	78.968216
613.000000	78.996948
612.000000	79.023828
611.000000	79.028949
610.000000	79.005371
609.000000	78.968158
608.000000	78.938258
607.000000	78.918941
606.000000	78.895914
605.000000	78.855487
604.000000	78.790641
603.000000	78.696969
602.000000	78.576256
601.000000	78.438896
600.000000	78.286679
599.000000	78.096273
598.000000	77.830046
597.000000	77.456459
596.000000	76.956008
595.000000	76.314685
594.000000	75.496171
593.000000	74.382607
592.000000	72.733164
591.000000	70.334745
590.000000	67.340702
589.000000	64.467275
588.000000	62.698664
587.000000	62.638787
586.000000	64.059872
585.000000	66.116396
584.000000	68.050762
583.000000	69.614514
582.000000	70.905097
581.000000	72.028726
580.000000	72.984540
579.000000	73.745463
578.000000	74.320018
577.000000	74.740539
576.000000	75.053134
575.000000	75.317756
574.000000	75.572247
573.000000	75.807585
572.000000	75.992006
571.000000	76.104263
570.000000	76.138622
569.000000	76.093132
568.000000	75.978051
567.000000	75.813300
566.000000	75.589527
565.000000	75.242763
564.000000	74.686565
563.000000	73.887274
562.000000	72.904566
561.000000	71.868550
560.000000	70.919520
559.000000	70.138493
558.000000	69.504865
557.000000	68.943170
556.000000	68.450186
555.000000	68.150428
554.000000	68.201299
553.000000	68.656654
552.000000	69.437136
551.000000	70.384261
550.000000	71.312346
549.000000	72.073985
548.000000	72.616823
547.000000	72.974823
546.000000	73.208043
545.000000	73.363545
544.000000	73.480685
543.000000	73.591963
542.000000	73.700202
541.000000	73.769323
540.000000	73.762634
539.000000	73.676655
538.000000	73.535502
537.000000	73.372489
536.000000	73.222153
535.000000	73.109914
534.000000	73.028516
533.000000	72.941244
532.000000	72.816362
531.000000	72.654113
530.000000	72.477011
529.000000	72.309085
528.000000	72.166280
527.000000	72.046327
526.000000	71.901738
525.000000	71.647447
524.000000	71.221640
523.000000	70.620561
522.000000	69.880205
521.000000	69.048171
520.000000	68.179945
519.000000	67.323719
518.000000	66.479090
517.000000	65.600334
516.000000	64.673913
515.000000	63.773213
514.000000	63.016333
513.000000	62.507972
512.000000	62.321388
511.000000	62.494269
510.000000	62.994041
509.000000	63.718365
508.000000	64.559841
507.000000	65.442300
506.000000	66.312414
505.000000	67.145572
504.000000	67.962684
503.000000	68.794752
502.000000	69.615246
501.000000	70.348266
500.000000	70.951079
499.000000	71.447289
498.000000	71.871639
497.000000	72.237596
496.000000	72.557866
495.000000	72.851270
494.000000	73.117278
493.000000	73.325081
492.000000	73.452880
491.000000	73.518053
490.000000	73.553979
489.000000	73.585926
488.000000	73.627236
487.000000	73.671960
486.000000	73.667267
485.000000	73.506936
484.000000	73.086455
483.000000	72.351711
482.000000	71.303754
481.000000	69.993566
480.000000	68.529482
479.000000	67.053414
478.000000	65.662575
477.000000	64.390054
476.000000	63.288191
475.000000	62.497161
474.000000	62.163153
473.000000	62.334697
472.000000	62.959066
471.000000	63.936328
470.000000	65.155868
469.000000	66.490781
468.000000	67.814250
467.000000	69.024550
466.000000	70.067207
465.000000	70.950806
464.000000	71.723470
463.000000	72.431757
462.000000	73.088761
461.000000	73.681111
460.000000	74.198340
459.000000	74.637722
458.000000	74.979832
457.000000	75.204639
456.000000	75.347075
455.000000	75.486557
454.000000	75.677078
453.000000	75.906663
452.000000	76.123866
451.000000	76.300590
450.000000	76.444393
449.000000	76.567414
448.000000	76.674936
447.000000	76.781648
446.000000	76.907792
445.000000	77.054659
444.000000	77.196162
443.000000	77.304269
442.000000	77.375010
441.000000	77.427956
440.000000	77.494640
439.000000	77.601785
438.000000	77.748951
437.000000	77.889974
436.000000	77.955026
435.000000	77.905776
434.000000	77.762602
433.000000	77.570084
432.000000	77.357072
431.000000	77.135005
430.000000	76.910542
429.000000	76.681863
428.000000	76.458013
427.000000	76.288518
426.000000	76.234644
425.000000	76.304140
424.000000	76.446602
423.000000	76.615566
422.000000	76.806695
421.000000	77.034247
420.000000	77.290687
419.000000	77.532383
418.000000	77.705330
417.000000	77.800591
416.000000	77.884350
415.000000	78.035078
414.000000	78.272573
413.000000	78.539977
412.000000	78.749189
411.000000	78.842814
410.000000	78.818044
409.000000	78.691897
408.000000	78.492451
407.000000	78.288939
406.000000	78.183397
405.000000	78.243027
404.000000	78.474914
403.000000	78.846153
402.000000	79.292060
401.000000	79.714204
400.000000	80.025789
