PE IR       SUBTECH     SPECTRUM    ASCII       PEDS        4.00        
   -1
23ms070_trans.asc
24/10/15
16:38:22.00
24/10/15
16:38:22.00
Administrator
Sample 1281 By Administrator Date Tuesday, October 15 2024
400.000000
#HDR
-1
-1
#GR
cm-1
%T
1.0
0.0
4000.000000
-1.000000
3601
8
107.949494
20.628550
#DATA
4000.000000	79.261242
3999.000000	79.195796
3998.000000	79.135501
3997.000000	79.078853
3996.000000	79.023868
3995.000000	78.970225
3994.000000	78.919133
3993.000000	78.870492
3992.000000	78.821362
3991.000000	78.766641
3990.000000	78.700018
3989.000000	78.616665
3988.000000	78.516599
3987.000000	78.405211
3986.000000	78.290210
3985.000000	78.178007
3984.000000	78.073268
3983.000000	77.979659
3982.000000	77.900448
3981.000000	77.839597
3980.000000	77.801392
3979.000000	77.789159
3978.000000	77.805346
3977.000000	77.849168
3976.000000	77.915126
3975.000000	77.995137
3974.000000	78.083122
3973.000000	78.178609
3972.000000	78.283078
3971.000000	78.397061
3970.000000	78.517676
3969.000000	78.638225
3968.000000	78.752362
3967.000000	78.856859
3966.000000	78.951664
3965.000000	79.038357
3964.000000	79.117684
3963.000000	79.187591
3962.000000	79.246390
3961.000000	79.294601
3960.000000	79.332513
3959.000000	79.364647
3958.000000	79.397262
3957.000000	79.433053
3956.000000	79.472184
3955.000000	79.513890
3954.000000	79.559523
3953.000000	79.609773
3952.000000	79.664472
3951.000000	79.724542
3950.000000	79.787427
3949.000000	79.849093
3948.000000	79.912799
3947.000000	79.988117
3946.000000	80.078506
3945.000000	80.174798
3944.000000	80.263808
3943.000000	80.334467
3942.000000	80.386345
3941.000000	80.432806
3940.000000	80.482852
3939.000000	80.537012
3938.000000	80.589451
3937.000000	80.632000
3936.000000	80.666476
3935.000000	80.703044
3934.000000	80.755347
3933.000000	80.821944
3932.000000	80.884311
3931.000000	80.927544
3930.000000	80.949633
3929.000000	80.970162
3928.000000	81.007112
3927.000000	81.051823
3926.000000	81.086262
3925.000000	81.102257
3924.000000	81.104912
3923.000000	81.104806
3922.000000	81.107157
3921.000000	81.119416
3920.000000	81.147867
3919.000000	81.187157
3918.000000	81.227526
3917.000000	81.266982
3916.000000	81.311901
3915.000000	81.360613
3914.000000	81.403980
3913.000000	81.446197
3912.000000	81.484382
3911.000000	81.513517
3910.000000	81.535206
3909.000000	81.560212
3908.000000	81.607929
3907.000000	81.672296
3906.000000	81.721820
3905.000000	81.731902
3904.000000	81.715342
3903.000000	81.725708
3902.000000	81.794820
3901.000000	81.894975
3900.000000	81.983446
3899.000000	82.031780
3898.000000	82.039236
3897.000000	82.035740
3896.000000	82.047743
3895.000000	82.097308
3894.000000	82.179072
3893.000000	82.248751
3892.000000	82.248543
3891.000000	82.184100
3890.000000	82.133641
3889.000000	82.144858
3888.000000	82.207385
3887.000000	82.287648
3886.000000	82.334461
3885.000000	82.336736
3884.000000	82.340090
3883.000000	82.382537
3882.000000	82.447848
3881.000000	82.475037
3880.000000	82.430098
3879.000000	82.366478
3878.000000	82.357776
3877.000000	82.411015
3876.000000	82.474364
3875.000000	82.496214
3874.000000	82.485780
3873.000000	82.489910
3872.000000	82.525535
3871.000000	82.565895
3870.000000	82.574061
3869.000000	82.574140
3868.000000	82.605608
3867.000000	82.656559
3866.000000	82.719243
3865.000000	82.780348
3864.000000	82.787002
3863.000000	82.745427
3862.000000	82.707073
3861.000000	82.703125
3860.000000	82.723390
3859.000000	82.748596
3858.000000	82.797652
3857.000000	82.909089
3856.000000	83.094568
3855.000000	83.265758
3854.000000	83.237359
3853.000000	83.030440
3852.000000	82.912997
3851.000000	82.960293
3850.000000	83.034693
3849.000000	83.070166
3848.000000	83.063043
3847.000000	83.030739
3846.000000	83.007021
3845.000000	82.997078
3844.000000	82.978404
3843.000000	82.964292
3842.000000	82.974671
3841.000000	83.022304
3840.000000	83.100989
3839.000000	83.164290
3838.000000	83.179776
3837.000000	83.167429
3836.000000	83.173947
3835.000000	83.217170
3834.000000	83.268232
3833.000000	83.295635
3832.000000	83.289875
3831.000000	83.268708
3830.000000	83.274467
3829.000000	83.321251
3828.000000	83.358275
3827.000000	83.352333
3826.000000	83.329679
3825.000000	83.342942
3824.000000	83.418943
3823.000000	83.528871
3822.000000	83.581094
3821.000000	83.522103
3820.000000	83.454356
3819.000000	83.482644
3818.000000	83.590192
3817.000000	83.694842
3816.000000	83.724835
3815.000000	83.696048
3814.000000	83.678850
3813.000000	83.695655
3812.000000	83.724813
3811.000000	83.760011
3810.000000	83.817126
3809.000000	83.882311
3808.000000	83.902492
3807.000000	83.859508
3806.000000	83.816571
3805.000000	83.858535
3804.000000	83.977999
3803.000000	84.111608
3802.000000	84.167686
3801.000000	84.109910
3800.000000	84.042885
3799.000000	84.052431
3798.000000	84.113973
3797.000000	84.160992
3796.000000	84.160763
3795.000000	84.134893
3794.000000	84.127206
3793.000000	84.156793
3792.000000	84.204177
3791.000000	84.239656
3790.000000	84.259001
3789.000000	84.276358
3788.000000	84.305612
3787.000000	84.344777
3786.000000	84.374452
3785.000000	84.385905
3784.000000	84.393622
3783.000000	84.420638
3782.000000	84.473029
3781.000000	84.530394
3780.000000	84.554209
3779.000000	84.539736
3778.000000	84.525936
3777.000000	84.536903
3776.000000	84.556750
3775.000000	84.573468
3774.000000	84.598824
3773.000000	84.634988
3772.000000	84.660550
3771.000000	84.659961
3770.000000	84.633348
3769.000000	84.602116
3768.000000	84.596105
3767.000000	84.611926
3766.000000	84.626954
3765.000000	84.627792
3764.000000	84.621456
3763.000000	84.630700
3762.000000	84.662535
3761.000000	84.715576
3760.000000	84.752462
3759.000000	84.735590
3758.000000	84.697012
3757.000000	84.685102
3756.000000	84.710753
3755.000000	84.756603
3754.000000	84.821892
3753.000000	84.924996
3752.000000	85.024276
3751.000000	85.032285
3750.000000	84.964390
3749.000000	84.947701
3748.000000	85.043650
3747.000000	85.197472
3746.000000	85.351822
3745.000000	85.414893
3744.000000	85.322263
3743.000000	85.219207
3742.000000	85.199855
3741.000000	85.213878
3740.000000	85.231966
3739.000000	85.246889
3738.000000	85.274240
3737.000000	85.331382
3736.000000	85.429741
3735.000000	85.541654
3734.000000	85.612532
3733.000000	85.636314
3732.000000	85.632490
3731.000000	85.620184
3730.000000	85.613721
3729.000000	85.613557
3728.000000	85.629492
3727.000000	85.658787
3726.000000	85.683350
3725.000000	85.696555
3724.000000	85.710762
3723.000000	85.735408
3722.000000	85.746078
3721.000000	85.746800
3720.000000	85.755430
3719.000000	85.758654
3718.000000	85.753232
3717.000000	85.758429
3716.000000	85.799015
3715.000000	85.883970
3714.000000	86.001347
3713.000000	86.119376
3712.000000	86.182515
3711.000000	86.175593
3710.000000	86.153619
3709.000000	86.159833
3708.000000	86.188209
3707.000000	86.217379
3706.000000	86.243769
3705.000000	86.279925
3704.000000	86.326372
3703.000000	86.359140
3702.000000	86.349094
3701.000000	86.312266
3700.000000	86.297205
3699.000000	86.309639
3698.000000	86.326411
3697.000000	86.342794
3696.000000	86.356345
3695.000000	86.361328
3694.000000	86.365689
3693.000000	86.395964
3692.000000	86.461264
3691.000000	86.532608
3690.000000	86.567408
3689.000000	86.553824
3688.000000	86.542694
3687.000000	86.578353
3686.000000	86.631228
3685.000000	86.661753
3684.000000	86.671561
3683.000000	86.669782
3682.000000	86.656239
3681.000000	86.621377
3680.000000	86.593632
3679.000000	86.612970
3678.000000	86.681024
3677.000000	86.769790
3676.000000	86.791974
3675.000000	86.723673
3674.000000	86.681513
3673.000000	86.724098
3672.000000	86.813377
3671.000000	86.902749
3670.000000	86.915286
3669.000000	86.840686
3668.000000	86.783013
3667.000000	86.794791
3666.000000	86.826291
3665.000000	86.839177
3664.000000	86.833012
3663.000000	86.812924
3662.000000	86.784779
3661.000000	86.749521
3660.000000	86.731569
3659.000000	86.747413
3658.000000	86.771916
3657.000000	86.754802
3656.000000	86.681288
3655.000000	86.607841
3654.000000	86.568314
3653.000000	86.546304
3652.000000	86.543908
3651.000000	86.561152
3650.000000	86.548815
3649.000000	86.477778
3648.000000	86.405470
3647.000000	86.387126
3646.000000	86.391349
3645.000000	86.375613
3644.000000	86.337747
3643.000000	86.294325
3642.000000	86.250859
3641.000000	86.196416
3640.000000	86.132335
3639.000000	86.068456
3638.000000	86.014271
3637.000000	85.967146
3636.000000	85.913009
3635.000000	85.842959
3634.000000	85.760164
3633.000000	85.686494
3632.000000	85.645471
3631.000000	85.648756
3630.000000	85.655077
3629.000000	85.578290
3628.000000	85.438175
3627.000000	85.346597
3626.000000	85.312013
3625.000000	85.269585
3624.000000	85.201962
3623.000000	85.127732
3622.000000	85.063467
3621.000000	85.008433
3620.000000	84.927287
3619.000000	84.781352
3618.000000	84.606193
3617.000000	84.469111
3616.000000	84.383079
3615.000000	84.319238
3614.000000	84.246217
3613.000000	84.155101
3612.000000	84.065921
3611.000000	83.999337
3610.000000	83.954830
3609.000000	83.919470
3608.000000	83.870515
3607.000000	83.795041
3606.000000	83.704722
3605.000000	83.614155
3604.000000	83.531408
3603.000000	83.446198
3602.000000	83.341432
3601.000000	83.222467
3600.000000	83.107374
3599.000000	82.996540
3598.000000	82.891333
3597.000000	82.794325
3596.000000	82.696222
3595.000000	82.582519
3594.000000	82.442851
3593.000000	82.291711
3592.000000	82.153745
3591.000000	82.037610
3590.000000	81.942946
3589.000000	81.865029
3588.000000	81.779558
3587.000000	81.664480
3586.000000	81.536043
3585.000000	81.424113
3584.000000	81.332854
3583.000000	81.244249
3582.000000	81.146063
3581.000000	81.043009
3580.000000	80.944762
3579.000000	80.851550
3578.000000	80.758818
3577.000000	80.671807
3576.000000	80.593105
3575.000000	80.517903
3574.000000	80.438988
3573.000000	80.354612
3572.000000	80.272495
3571.000000	80.199915
3570.000000	80.144536
3569.000000	80.119092
3568.000000	80.123360
3567.000000	80.132338
3566.000000	80.129396
3565.000000	80.123152
3564.000000	80.122743
3563.000000	80.127934
3562.000000	80.135822
3561.000000	80.146381
3560.000000	80.159416
3559.000000	80.170668
3558.000000	80.176052
3557.000000	80.181062
3556.000000	80.195200
3555.000000	80.218089
3554.000000	80.240620
3553.000000	80.253245
3552.000000	80.253692
3551.000000	80.245607
3550.000000	80.233465
3549.000000	80.226473
3548.000000	80.235233
3547.000000	80.259948
3546.000000	80.289346
3545.000000	80.315516
3544.000000	80.337910
3543.000000	80.356576
3542.000000	80.369512
3541.000000	80.378289
3540.000000	80.387552
3539.000000	80.396108
3538.000000	80.402341
3537.000000	80.407394
3536.000000	80.412609
3535.000000	80.413111
3534.000000	80.402913
3533.000000	80.385773
3532.000000	80.369023
3531.000000	80.352323
3530.000000	80.326671
3529.000000	80.287738
3528.000000	80.241623
3527.000000	80.196641
3526.000000	80.157546
3525.000000	80.127400
3524.000000	80.103163
3523.000000	80.071734
3522.000000	80.021541
3521.000000	79.954971
3520.000000	79.882488
3519.000000	79.805202
3518.000000	79.716439
3517.000000	79.614570
3516.000000	79.504760
3515.000000	79.390632
3514.000000	79.271224
3513.000000	79.146892
3512.000000	79.020248
3511.000000	78.889116
3510.000000	78.746723
3509.000000	78.592011
3508.000000	78.431276
3507.000000	78.268399
3506.000000	78.102150
3505.000000	77.933868
3504.000000	77.768275
3503.000000	77.607763
3502.000000	77.451749
3501.000000	77.301405
3500.000000	77.158583
3499.000000	77.020908
3498.000000	76.885052
3497.000000	76.752279
3496.000000	76.626170
3495.000000	76.506925
3494.000000	76.393735
3493.000000	76.289666
3492.000000	76.198720
3491.000000	76.120305
3490.000000	76.051362
3489.000000	75.993393
3488.000000	75.950620
3487.000000	75.922950
3486.000000	75.908182
3485.000000	75.906603
3484.000000	75.917934
3483.000000	75.937240
3482.000000	75.960919
3481.000000	75.995059
3480.000000	76.048572
3479.000000	76.120668
3478.000000	76.202084
3477.000000	76.287155
3476.000000	76.376166
3475.000000	76.467660
3474.000000	76.558598
3473.000000	76.649301
3472.000000	76.742019
3471.000000	76.837297
3470.000000	76.936000
3469.000000	77.042624
3468.000000	77.159965
3467.000000	77.282741
3466.000000	77.403417
3465.000000	77.520296
3464.000000	77.635074
3463.000000	77.746573
3462.000000	77.854058
3461.000000	77.963654
3460.000000	78.082359
3459.000000	78.208769
3458.000000	78.336094
3457.000000	78.460287
3456.000000	78.582848
3455.000000	78.704870
3454.000000	78.824955
3453.000000	78.943396
3452.000000	79.061438
3451.000000	79.179388
3450.000000	79.297020
3449.000000	79.415185
3448.000000	79.534004
3447.000000	79.650813
3446.000000	79.764644
3445.000000	79.879258
3444.000000	79.997487
3443.000000	80.115659
3442.000000	80.227571
3441.000000	80.332470
3440.000000	80.435102
3439.000000	80.539344
3438.000000	80.646243
3437.000000	80.756146
3436.000000	80.870878
3435.000000	80.989985
3434.000000	81.108393
3433.000000	81.221426
3432.000000	81.328623
3431.000000	81.434050
3430.000000	81.542024
3429.000000	81.654277
3428.000000	81.769482
3427.000000	81.884178
3426.000000	81.996134
3425.000000	82.106367
3424.000000	82.217801
3423.000000	82.331803
3422.000000	82.447810
3421.000000	82.565329
3420.000000	82.684342
3419.000000	82.803836
3418.000000	82.921577
3417.000000	83.036452
3416.000000	83.149479
3415.000000	83.262684
3414.000000	83.377856
3413.000000	83.495969
3412.000000	83.616667
3411.000000	83.738645
3410.000000	83.861582
3409.000000	83.987153
3408.000000	84.115857
3407.000000	84.244020
3406.000000	84.367015
3405.000000	84.483690
3404.000000	84.597032
3403.000000	84.711669
3402.000000	84.833224
3401.000000	84.967095
3400.000000	85.112544
3399.000000	85.260613
3398.000000	85.401219
3397.000000	85.531777
3396.000000	85.656145
3395.000000	85.778071
3394.000000	85.900207
3393.000000	86.026864
3392.000000	86.161461
3391.000000	86.301387
3390.000000	86.440320
3389.000000	86.575129
3388.000000	86.707234
3387.000000	86.838370
3386.000000	86.969745
3385.000000	87.103695
3384.000000	87.242043
3383.000000	87.383208
3382.000000	87.524439
3381.000000	87.666059
3380.000000	87.809283
3379.000000	87.952750
3378.000000	88.094746
3377.000000	88.237140
3376.000000	88.382235
3375.000000	88.527242
3374.000000	88.667028
3373.000000	88.801405
3372.000000	88.935801
3371.000000	89.075617
3370.000000	89.223435
3369.000000	89.379807
3368.000000	89.542886
3367.000000	89.707836
3366.000000	89.870327
3365.000000	90.030028
3364.000000	90.188713
3363.000000	90.347181
3362.000000	90.506650
3361.000000	90.670654
3360.000000	90.841667
3359.000000	91.017467
3358.000000	91.194056
3357.000000	91.370308
3356.000000	91.546307
3355.000000	91.720040
3354.000000	91.890290
3353.000000	92.061233
3352.000000	92.239354
3351.000000	92.426221
3350.000000	92.617123
3349.000000	92.805850
3348.000000	92.988707
3347.000000	93.164253
3346.000000	93.333895
3345.000000	93.502036
3344.000000	93.671674
3343.000000	93.840601
3342.000000	94.004196
3341.000000	94.161826
3340.000000	94.317461
3339.000000	94.474114
3338.000000	94.629895
3337.000000	94.779378
3336.000000	94.916604
3335.000000	95.037280
3334.000000	95.140203
3333.000000	95.225839
3332.000000	95.293069
3331.000000	95.337094
3330.000000	95.351874
3329.000000	95.334312
3328.000000	95.283642
3327.000000	95.198802
3326.000000	95.077125
3325.000000	94.913963
3324.000000	94.703111
3323.000000	94.436416
3322.000000	94.107248
3321.000000	93.711059
3320.000000	93.240612
3319.000000	92.685063
3318.000000	92.030357
3317.000000	91.263140
3316.000000	90.368676
3315.000000	89.326984
3314.000000	88.120473
3313.000000	86.738153
3312.000000	85.177293
3311.000000	83.443196
3310.000000	81.548200
3309.000000	79.518227
3308.000000	77.387650
3307.000000	75.192066
3306.000000	72.968443
3305.000000	70.753751
3304.000000	68.583362
3303.000000	66.488402
3302.000000	64.499107
3301.000000	62.647584
3300.000000	60.963864
3299.000000	59.468828
3298.000000	58.177664
3297.000000	57.101950
3296.000000	56.235362
3295.000000	55.546007
3294.000000	54.979247
3293.000000	54.471462
3292.000000	53.961211
3291.000000	53.393774
3290.000000	52.735718
3289.000000	51.983541
3288.000000	51.155965
3287.000000	50.278194
3286.000000	49.371420
3285.000000	48.448021
3284.000000	47.506887
3283.000000	46.533298
3282.000000	45.510215
3281.000000	44.432379
3280.000000	43.309065
3279.000000	42.162929
3278.000000	41.034249
3277.000000	39.982050
3276.000000	39.068581
3275.000000	38.342017
3274.000000	37.830566
3273.000000	37.545215
3272.000000	37.483747
3271.000000	37.626642
3270.000000	37.945225
3269.000000	38.410501
3268.000000	38.991990
3267.000000	39.661000
3266.000000	40.389755
3265.000000	41.150225
3264.000000	41.905619
3263.000000	42.604746
3262.000000	43.188641
3261.000000	43.600128
3260.000000	43.782922
3259.000000	43.682210
3258.000000	43.258847
3257.000000	42.488336
3256.000000	41.360720
3255.000000	39.873475
3254.000000	38.036768
3253.000000	35.894841
3252.000000	33.522969
3251.000000	31.029492
3250.000000	28.554650
3249.000000	26.255478
3248.000000	24.273124
3247.000000	22.701857
3246.000000	21.579276
3245.000000	20.898312
3244.000000	20.628550
3243.000000	20.723777
3242.000000	21.138763
3241.000000	21.820151
3240.000000	22.686845
3239.000000	23.636869
3238.000000	24.566566
3237.000000	25.400487
3236.000000	26.099454
3235.000000	26.654962
3234.000000	27.083490
3233.000000	27.413146
3232.000000	27.666061
3231.000000	27.853429
3230.000000	27.989506
3229.000000	28.100031
3228.000000	28.216201
3227.000000	28.365260
3226.000000	28.571506
3225.000000	28.858307
3224.000000	29.239784
3223.000000	29.713469
3222.000000	30.265316
3221.000000	30.875327
3220.000000	31.513388
3219.000000	32.138886
3218.000000	32.712359
3217.000000	33.205986
3216.000000	33.602494
3215.000000	33.893397
3214.000000	34.083520
3213.000000	34.194025
3212.000000	34.252562
3211.000000	34.283604
3210.000000	34.311111
3209.000000	34.359693
3208.000000	34.448379
3207.000000	34.585644
3206.000000	34.774802
3205.000000	35.019022
3204.000000	35.317634
3203.000000	35.662934
3202.000000	36.045400
3201.000000	36.458341
3200.000000	36.892712
3199.000000	37.335004
3198.000000	37.773650
3197.000000	38.203351
3196.000000	38.620327
3195.000000	39.017846
3194.000000	39.389814
3193.000000	39.733086
3192.000000	40.043147
3191.000000	40.312170
3190.000000	40.536764
3189.000000	40.721660
3188.000000	40.872980
3187.000000	40.994161
3186.000000	41.089485
3185.000000	41.166765
3184.000000	41.230894
3183.000000	41.280290
3182.000000	41.313627
3181.000000	41.333644
3180.000000	41.343151
3179.000000	41.343141
3178.000000	41.339605
3177.000000	41.346774
3176.000000	41.379453
3175.000000	41.446104
3174.000000	41.552602
3173.000000	41.707159
3172.000000	41.916807
3171.000000	42.188066
3170.000000	42.531831
3169.000000	42.963445
3168.000000	43.493896
3167.000000	44.121025
3166.000000	44.835802
3165.000000	45.627333
3164.000000	46.481277
3163.000000	47.380887
3162.000000	48.310742
3161.000000	49.258073
3160.000000	50.205001
3159.000000	51.126062
3158.000000	51.994522
3157.000000	52.786640
3156.000000	53.477196
3155.000000	54.037590
3154.000000	54.442704
3153.000000	54.674149
3152.000000	54.725067
3151.000000	54.604107
3150.000000	54.341350
3149.000000	53.985221
3148.000000	53.580040
3147.000000	53.151345
3146.000000	52.701925
3145.000000	52.214876
3144.000000	51.660181
3143.000000	51.002061
3142.000000	50.217152
3141.000000	49.303133
3140.000000	48.272830
3139.000000	47.150058
3138.000000	45.968911
3137.000000	44.773054
3136.000000	43.604770
3135.000000	42.497852
3134.000000	41.482732
3133.000000	40.590170
3132.000000	39.843551
3131.000000	39.253008
3130.000000	38.822470
3129.000000	38.551627
3128.000000	38.434388
3127.000000	38.456705
3126.000000	38.602248
3125.000000	38.858362
3124.000000	39.207751
3123.000000	39.629562
3122.000000	40.106929
3121.000000	40.628856
3120.000000	41.183928
3119.000000	41.755022
3118.000000	42.327509
3117.000000	42.893108
3116.000000	43.443049
3115.000000	43.962936
3114.000000	44.437969
3113.000000	44.857007
3112.000000	45.208998
3111.000000	45.483318
3110.000000	45.673356
3109.000000	45.778104
3108.000000	45.794605
3107.000000	45.716217
3106.000000	45.542095
3105.000000	45.279307
3104.000000	44.938922
3103.000000	44.533025
3102.000000	44.080949
3101.000000	43.612724
3100.000000	43.159591
3099.000000	42.745950
3098.000000	42.390622
3097.000000	42.110053
3096.000000	41.913334
3095.000000	41.799556
3094.000000	41.761825
3093.000000	41.790760
3092.000000	41.873072
3091.000000	41.990309
3090.000000	42.125267
3089.000000	42.264288
3088.000000	42.393886
3087.000000	42.502778
3086.000000	42.589053
3085.000000	42.661453
3084.000000	42.729944
3083.000000	42.800090
3082.000000	42.878632
3081.000000	42.976998
3080.000000	43.106172
3079.000000	43.272396
3078.000000	43.479865
3077.000000	43.732021
3076.000000	44.026280
3075.000000	44.354325
3074.000000	44.709795
3073.000000	45.090733
3072.000000	45.493753
3071.000000	45.910848
3070.000000	46.336343
3069.000000	46.770697
3068.000000	47.214185
3067.000000	47.661963
3066.000000	48.107477
3065.000000	48.546975
3064.000000	48.977429
3063.000000	49.394668
3062.000000	49.796322
3061.000000	50.183234
3060.000000	50.556106
3059.000000	50.914199
3058.000000	51.259577
3057.000000	51.597369
3056.000000	51.930288
3055.000000	52.256466
3054.000000	52.574142
3053.000000	52.885331
3052.000000	53.191853
3051.000000	53.492160
3050.000000	53.783735
3049.000000	54.064908
3048.000000	54.333625
3047.000000	54.587778
3046.000000	54.829115
3045.000000	55.063201
3044.000000	55.293767
3043.000000	55.521307
3042.000000	55.747608
3041.000000	55.976870
3040.000000	56.210529
3039.000000	56.445054
3038.000000	56.677743
3037.000000	56.910747
3036.000000	57.147420
3035.000000	57.388565
3034.000000	57.633804
3033.000000	57.882617
3032.000000	58.132204
3031.000000	58.378497
3030.000000	58.621155
3029.000000	58.863599
3028.000000	59.107121
3027.000000	59.349605
3026.000000	59.591164
3025.000000	59.835805
3024.000000	60.085054
3023.000000	60.334450
3022.000000	60.578803
3021.000000	60.817472
3020.000000	61.052456
3019.000000	61.284639
3018.000000	61.514466
3017.000000	61.743134
3016.000000	61.970830
3015.000000	62.196152
3014.000000	62.418979
3013.000000	62.641313
3012.000000	62.863740
3011.000000	63.083149
3010.000000	63.295605
3009.000000	63.498001
3008.000000	63.685209
3007.000000	63.848019
3006.000000	63.971692
3005.000000	64.031877
3004.000000	63.984475
3003.000000	63.766119
3002.000000	63.321484
3001.000000	62.648254
3000.000000	61.827505
2999.000000	61.002569
2998.000000	60.315199
2997.000000	59.844149
2996.000000	59.595194
2995.000000	59.539520
2994.000000	59.650861
2993.000000	59.906040
2992.000000	60.263624
2991.000000	60.663915
2990.000000	61.051219
2989.000000	61.390967
2988.000000	61.665798
2987.000000	61.864875
2986.000000	61.978256
2985.000000	61.992173
2984.000000	61.888761
2983.000000	61.661257
2982.000000	61.340328
2981.000000	61.001944
2980.000000	60.741170
2979.000000	60.628444
2978.000000	60.683817
2977.000000	60.882429
2976.000000	61.181193
2975.000000	61.545462
2974.000000	61.957731
2973.000000	62.406946
2972.000000	62.873100
2971.000000	63.327127
2970.000000	63.740718
2969.000000	64.094083
2968.000000	64.372842
2967.000000	64.564163
2966.000000	64.653839
2965.000000	64.615852
2964.000000	64.399238
2963.000000	63.922149
2962.000000	63.099067
2961.000000	61.897460
2960.000000	60.397260
2959.000000	58.797506
2958.000000	57.340503
2957.000000	56.199819
2956.000000	55.416995
2955.000000	54.940383
2954.000000	54.704536
2953.000000	54.668487
2952.000000	54.794753
2951.000000	55.028942
2950.000000	55.316255
2949.000000	55.624523
2948.000000	55.949051
2947.000000	56.299545
2946.000000	56.688481
2945.000000	57.117190
2944.000000	57.564911
2943.000000	57.998386
2942.000000	58.396745
2941.000000	58.767790
2940.000000	59.140563
2939.000000	59.548481
2938.000000	60.017544
2937.000000	60.557846
2936.000000	61.158192
2935.000000	61.791891
2934.000000	62.431260
2933.000000	63.055701
2932.000000	63.649607
2931.000000	64.202471
2930.000000	64.712852
2929.000000	65.185955
2928.000000	65.625181
2927.000000	66.030420
2926.000000	66.404778
2925.000000	66.755041
2924.000000	67.084278
2923.000000	67.389211
2922.000000	67.665933
2921.000000	67.912699
2920.000000	68.126585
2919.000000	68.304732
2918.000000	68.449556
2917.000000	68.567782
2916.000000	68.663944
2915.000000	68.739469
2914.000000	68.798042
2913.000000	68.845172
2912.000000	68.882778
2911.000000	68.909575
2910.000000	68.927415
2909.000000	68.942070
2908.000000	68.956817
2907.000000	68.971633
2906.000000	68.988249
2905.000000	69.010609
2904.000000	69.038025
2903.000000	69.064962
2902.000000	69.087295
2901.000000	69.103341
2900.000000	69.110564
2899.000000	69.104447
2898.000000	69.084437
2897.000000	69.054702
2896.000000	69.018499
2895.000000	68.976383
2894.000000	68.930861
2893.000000	68.887047
2892.000000	68.847063
2891.000000	68.808391
2890.000000	68.768588
2889.000000	68.727128
2888.000000	68.682097
2887.000000	68.630612
2886.000000	68.573824
2885.000000	68.516588
2884.000000	68.461119
2883.000000	68.405690
2882.000000	68.350211
2881.000000	68.297771
2880.000000	68.249095
2879.000000	68.200289
2878.000000	68.147620
2877.000000	68.090966
2876.000000	68.033014
2875.000000	67.980199
2874.000000	67.944692
2873.000000	67.938463
2872.000000	67.962879
2871.000000	68.009142
2870.000000	68.070840
2869.000000	68.152302
2868.000000	68.264237
2867.000000	68.415998
2866.000000	68.611986
2865.000000	68.848303
2864.000000	69.109705
2863.000000	69.375193
2862.000000	69.629363
2861.000000	69.865958
2860.000000	70.082339
2859.000000	70.276855
2858.000000	70.453171
2857.000000	70.621204
2856.000000	70.790849
2855.000000	70.968209
2854.000000	71.157442
2853.000000	71.360057
2852.000000	71.570467
2851.000000	71.777188
2850.000000	71.970600
2849.000000	72.146490
2848.000000	72.302709
2847.000000	72.438056
2846.000000	72.555685
2845.000000	72.662641
2844.000000	72.763984
2843.000000	72.860492
2842.000000	72.952971
2841.000000	73.044933
2840.000000	73.139713
2839.000000	73.238500
2838.000000	73.342019
2837.000000	73.450749
2836.000000	73.562890
2835.000000	73.675233
2834.000000	73.786582
2833.000000	73.897521
2832.000000	74.007089
2831.000000	74.113208
2830.000000	74.216287
2829.000000	74.318757
2828.000000	74.420914
2827.000000	74.520894
2826.000000	74.618602
2825.000000	74.715821
2824.000000	74.812392
2823.000000	74.905977
2822.000000	74.995712
2821.000000	75.082310
2820.000000	75.164546
2819.000000	75.239707
2818.000000	75.307774
2817.000000	75.371424
2816.000000	75.431584
2815.000000	75.486682
2814.000000	75.536689
2813.000000	75.584321
2812.000000	75.631882
2811.000000	75.680317
2810.000000	75.731258
2809.000000	75.786159
2808.000000	75.843279
2807.000000	75.899247
2806.000000	75.953943
2805.000000	76.010372
2804.000000	76.069570
2803.000000	76.129389
2802.000000	76.188514
2801.000000	76.248008
2800.000000	76.308768
2799.000000	76.370905
2798.000000	76.435651
2797.000000	76.504204
2796.000000	76.574478
2795.000000	76.642542
2794.000000	76.707300
2793.000000	76.770407
2792.000000	76.832081
2791.000000	76.890962
2790.000000	76.947924
2789.000000	77.005784
2788.000000	77.064822
2787.000000	77.122407
2786.000000	77.177274
2785.000000	77.230477
2784.000000	77.282026
2783.000000	77.330573
2782.000000	77.376779
2781.000000	77.423060
2780.000000	77.469250
2779.000000	77.512032
2778.000000	77.549289
2777.000000	77.581786
2776.000000	77.610390
2775.000000	77.635008
2774.000000	77.656658
2773.000000	77.677375
2772.000000	77.697455
2771.000000	77.715775
2770.000000	77.732757
2769.000000	77.749870
2768.000000	77.766442
2767.000000	77.780069
2766.000000	77.790072
2765.000000	77.797406
2764.000000	77.801708
2763.000000	77.802326
2762.000000	77.802178
2761.000000	77.806836
2760.000000	77.819668
2759.000000	77.841070
2758.000000	77.871707
2757.000000	77.912307
2756.000000	77.959951
2755.000000	78.008502
2754.000000	78.053493
2753.000000	78.093541
2752.000000	78.127308
2751.000000	78.153124
2750.000000	78.171929
2749.000000	78.186991
2748.000000	78.200164
2747.000000	78.211374
2746.000000	78.221697
2745.000000	78.233351
2744.000000	78.246092
2743.000000	78.256929
2742.000000	78.264030
2741.000000	78.268477
2740.000000	78.272896
2739.000000	78.281607
2738.000000	78.301291
2737.000000	78.337614
2736.000000	78.390508
2735.000000	78.455331
2734.000000	78.528400
2733.000000	78.607968
2732.000000	78.690756
2731.000000	78.771889
2730.000000	78.848513
2729.000000	78.920232
2728.000000	78.985877
2727.000000	79.042758
2726.000000	79.089067
2725.000000	79.124280
2724.000000	79.147602
2723.000000	79.159662
2722.000000	79.165463
2721.000000	79.172146
2720.000000	79.184103
2719.000000	79.202825
2718.000000	79.230218
2717.000000	79.267992
2716.000000	79.313952
2715.000000	79.362722
2714.000000	79.410436
2713.000000	79.455764
2712.000000	79.497055
2711.000000	79.532265
2710.000000	79.561503
2709.000000	79.586026
2708.000000	79.604896
2707.000000	79.615866
2706.000000	79.619165
2705.000000	79.617565
2704.000000	79.613441
2703.000000	79.609174
2702.000000	79.609779
2701.000000	79.620977
2700.000000	79.644444
2699.000000	79.678068
2698.000000	79.720044
2697.000000	79.769019
2696.000000	79.821208
2695.000000	79.871525
2694.000000	79.917826
2693.000000	79.960914
2692.000000	80.000694
2691.000000	80.035843
2690.000000	80.066789
2689.000000	80.095255
2688.000000	80.121119
2687.000000	80.143188
2686.000000	80.162381
2685.000000	80.180664
2684.000000	80.197404
2683.000000	80.210436
2682.000000	80.220477
2681.000000	80.230723
2680.000000	80.242498
2679.000000	80.255068
2678.000000	80.269357
2677.000000	80.287912
2676.000000	80.311462
2675.000000	80.339114
2674.000000	80.371718
2673.000000	80.411403
2672.000000	80.457650
2671.000000	80.507444
2670.000000	80.559108
2669.000000	80.612399
2668.000000	80.665373
2667.000000	80.714815
2666.000000	80.759853
2665.000000	80.802022
2664.000000	80.842167
2663.000000	80.880772
2662.000000	80.920647
2661.000000	80.965350
2660.000000	81.014844
2659.000000	81.065940
2658.000000	81.116573
2657.000000	81.166271
2656.000000	81.212962
2655.000000	81.253187
2654.000000	81.285662
2653.000000	81.311134
2652.000000	81.329358
2651.000000	81.339669
2650.000000	81.344226
2649.000000	81.347399
2648.000000	81.351837
2647.000000	81.358343
2646.000000	81.369130
2645.000000	81.387405
2644.000000	81.413739
2643.000000	81.446236
2642.000000	81.483851
2641.000000	81.526278
2640.000000	81.571084
2639.000000	81.614342
2638.000000	81.654104
2637.000000	81.690145
2636.000000	81.721022
2635.000000	81.745043
2634.000000	81.763936
2633.000000	81.782108
2632.000000	81.802350
2631.000000	81.825296
2630.000000	81.852322
2629.000000	81.885233
2628.000000	81.923376
2627.000000	81.964397
2626.000000	82.007686
2625.000000	82.054049
2624.000000	82.102323
2623.000000	82.149669
2622.000000	82.194708
2621.000000	82.237100
2620.000000	82.274504
2619.000000	82.303545
2618.000000	82.323400
2617.000000	82.335229
2616.000000	82.338973
2615.000000	82.333841
2614.000000	82.321754
2613.000000	82.306714
2612.000000	82.290694
2611.000000	82.273707
2610.000000	82.257192
2609.000000	82.243962
2608.000000	82.234883
2607.000000	82.228755
2606.000000	82.225350
2605.000000	82.225633
2604.000000	82.229425
2603.000000	82.236043
2602.000000	82.247090
2601.000000	82.265013
2600.000000	82.289388
2599.000000	82.317427
2598.000000	82.347483
2597.000000	82.379049
2596.000000	82.409885
2595.000000	82.436792
2594.000000	82.459148
2593.000000	82.478648
2592.000000	82.495942
2591.000000	82.510420
2590.000000	82.522588
2589.000000	82.533588
2588.000000	82.543081
2587.000000	82.550576
2586.000000	82.558238
2585.000000	82.569281
2584.000000	82.584172
2583.000000	82.601302
2582.000000	82.620423
2581.000000	82.642205
2580.000000	82.665436
2579.000000	82.688164
2578.000000	82.710827
2577.000000	82.735211
2576.000000	82.761096
2575.000000	82.787187
2574.000000	82.814405
2573.000000	82.844655
2572.000000	82.877238
2571.000000	82.909774
2570.000000	82.941873
2569.000000	82.974608
2568.000000	83.007142
2567.000000	83.037474
2566.000000	83.065972
2565.000000	83.095070
2564.000000	83.126333
2563.000000	83.160726
2562.000000	83.200699
2561.000000	83.248438
2560.000000	83.302653
2559.000000	83.360287
2558.000000	83.420047
2557.000000	83.481214
2556.000000	83.540479
2555.000000	83.593752
2554.000000	83.640364
2553.000000	83.682155
2552.000000	83.719528
2551.000000	83.751845
2550.000000	83.780578
2549.000000	83.807854
2548.000000	83.832909
2547.000000	83.853341
2546.000000	83.868920
2545.000000	83.880961
2544.000000	83.888838
2543.000000	83.891473
2542.000000	83.891612
2541.000000	83.894766
2540.000000	83.904297
2539.000000	83.920825
2538.000000	83.945422
2537.000000	83.979427
2536.000000	84.021447
2535.000000	84.067774
2534.000000	84.115787
2533.000000	84.164004
2532.000000	84.209916
2531.000000	84.251425
2530.000000	84.289554
2529.000000	84.326538
2528.000000	84.362060
2527.000000	84.394444
2526.000000	84.423995
2525.000000	84.451606
2524.000000	84.474938
2523.000000	84.489966
2522.000000	84.495821
2521.000000	84.494019
2520.000000	84.484367
2519.000000	84.465083
2518.000000	84.436525
2517.000000	84.401417
2516.000000	84.361259
2515.000000	84.316663
2514.000000	84.270345
2513.000000	84.226345
2512.000000	84.186767
2511.000000	84.152411
2510.000000	84.125804
2509.000000	84.109850
2508.000000	84.103984
2507.000000	84.104799
2506.000000	84.110249
2505.000000	84.119431
2504.000000	84.129383
2503.000000	84.136233
2502.000000	84.139118
2501.000000	84.139955
2500.000000	84.139846
2499.000000	84.139195
2498.000000	84.140758
2497.000000	84.148334
2496.000000	84.162887
2495.000000	84.183012
2494.000000	84.208526
2493.000000	84.240353
2492.000000	84.277263
2491.000000	84.316722
2490.000000	84.358372
2489.000000	84.403384
2488.000000	84.451394
2487.000000	84.501111
2486.000000	84.553228
2485.000000	84.608854
2484.000000	84.665630
2483.000000	84.719068
2482.000000	84.767235
2481.000000	84.811086
2480.000000	84.851431
2479.000000	84.889221
2478.000000	84.927695
2477.000000	84.970056
2476.000000	85.015100
2475.000000	85.058411
2474.000000	85.097468
2473.000000	85.132111
2472.000000	85.161280
2471.000000	85.183175
2470.000000	85.198263
2469.000000	85.208833
2468.000000	85.215717
2467.000000	85.219003
2466.000000	85.221223
2465.000000	85.226091
2464.000000	85.234532
2463.000000	85.245028
2462.000000	85.257355
2461.000000	85.272550
2460.000000	85.289944
2459.000000	85.307834
2458.000000	85.326799
2457.000000	85.348842
2456.000000	85.373569
2455.000000	85.398626
2454.000000	85.423242
2453.000000	85.448191
2452.000000	85.472888
2451.000000	85.496101
2450.000000	85.519242
2449.000000	85.545361
2448.000000	85.575198
2447.000000	85.607215
2446.000000	85.640961
2445.000000	85.677273
2444.000000	85.715515
2443.000000	85.753815
2442.000000	85.791445
2441.000000	85.827993
2440.000000	85.860931
2439.000000	85.887328
2438.000000	85.907397
2437.000000	85.923418
2436.000000	85.936258
2435.000000	85.945867
2434.000000	85.954319
2433.000000	85.964692
2432.000000	85.977488
2431.000000	85.991424
2430.000000	86.006641
2429.000000	86.023787
2428.000000	86.040827
2427.000000	86.054486
2426.000000	86.064390
2425.000000	86.072518
2424.000000	86.079550
2423.000000	86.085222
2422.000000	86.091282
2421.000000	86.100144
2420.000000	86.111146
2419.000000	86.121865
2418.000000	86.132537
2417.000000	86.145532
2416.000000	86.161043
2415.000000	86.177263
2414.000000	86.194206
2413.000000	86.213272
2412.000000	86.233280
2411.000000	86.250893
2410.000000	86.264875
2409.000000	86.276152
2408.000000	86.283958
2407.000000	86.285535
2406.000000	86.279882
2405.000000	86.267822
2404.000000	86.248462
2403.000000	86.219883
2402.000000	86.182996
2401.000000	86.141247
2400.000000	86.095689
2399.000000	86.043630
2398.000000	85.982774
2397.000000	85.911715
2396.000000	85.826706
2395.000000	85.721854
2394.000000	85.593383
2393.000000	85.442181
2392.000000	85.270532
2391.000000	85.081407
2390.000000	84.881414
2389.000000	84.678904
2388.000000	84.479780
2387.000000	84.285617
2386.000000	84.098286
2385.000000	83.922917
2384.000000	83.761989
2383.000000	83.615488
2382.000000	83.483327
2381.000000	83.367199
2380.000000	83.267801
2379.000000	83.180853
2378.000000	83.103237
2377.000000	83.033803
2376.000000	82.971522
2375.000000	82.914163
2374.000000	82.867548
2373.000000	82.844267
2372.000000	82.848843
2371.000000	82.874247
2370.000000	82.912227
2369.000000	82.959890
2368.000000	83.008097
2367.000000	83.045997
2366.000000	83.072685
2365.000000	83.083041
2364.000000	83.078961
2363.000000	83.064862
2362.000000	83.036665
2361.000000	83.008304
2360.000000	82.988379
2359.000000	82.981624
2358.000000	82.998089
2357.000000	83.018033
2356.000000	83.018744
2355.000000	82.968175
2354.000000	82.839929
2353.000000	82.623016
2352.000000	82.381289
2351.000000	82.284215
2350.000000	82.465277
2349.000000	82.917316
2348.000000	83.463562
2347.000000	83.820105
2346.000000	83.825913
2345.000000	83.561561
2344.000000	83.278364
2343.000000	83.118007
2342.000000	83.069513
2341.000000	83.090270
2340.000000	83.138727
2339.000000	83.198633
2338.000000	83.260656
2337.000000	83.332541
2336.000000	83.412853
2335.000000	83.509529
2334.000000	83.613411
2333.000000	83.709718
2332.000000	83.750471
2331.000000	83.753127
2330.000000	83.743683
2329.000000	83.765261
2328.000000	83.823620
2327.000000	83.897305
2326.000000	83.966309
2325.000000	83.990219
2324.000000	83.958018
2323.000000	83.877621
2322.000000	83.774905
2321.000000	83.673737
2320.000000	83.576222
2319.000000	83.500373
2318.000000	83.447559
2317.000000	83.418098
2316.000000	83.372127
2315.000000	83.289114
2314.000000	83.157966
2313.000000	83.004423
2312.000000	82.845228
2311.000000	82.703875
2310.000000	82.587851
2309.000000	82.504287
2308.000000	82.447805
2307.000000	82.420809
2306.000000	82.423446
2305.000000	82.453654
2304.000000	82.494384
2303.000000	82.534163
2302.000000	82.562846
2301.000000	82.580229
2300.000000	82.579746
2299.000000	82.561864
2298.000000	82.525793
2297.000000	82.473449
2296.000000	82.401500
2295.000000	82.311696
2294.000000	82.213884
2293.000000	82.119795
2292.000000	82.038413
2291.000000	81.976183
2290.000000	81.940508
2289.000000	81.930625
2288.000000	81.936974
2287.000000	81.947496
2286.000000	81.957985
2285.000000	81.968192
2284.000000	81.978764
2283.000000	81.992534
2282.000000	82.017727
2281.000000	82.062706
2280.000000	82.130680
2279.000000	82.221683
2278.000000	82.334665
2277.000000	82.466227
2276.000000	82.607865
2275.000000	82.753636
2274.000000	82.902877
2273.000000	83.055389
2272.000000	83.206337
2271.000000	83.350833
2270.000000	83.488750
2269.000000	83.620691
2268.000000	83.744366
2267.000000	83.859608
2266.000000	83.971331
2265.000000	84.084341
2264.000000	84.198650
2263.000000	84.312934
2262.000000	84.429647
2261.000000	84.549612
2260.000000	84.670099
2259.000000	84.789649
2258.000000	84.912127
2257.000000	85.041428
2256.000000	85.175773
2255.000000	85.312980
2254.000000	85.454182
2253.000000	85.600978
2252.000000	85.750592
2251.000000	85.900346
2250.000000	86.051273
2249.000000	86.203830
2248.000000	86.355664
2247.000000	86.504645
2246.000000	86.651622
2245.000000	86.795519
2244.000000	86.930814
2243.000000	87.053351
2242.000000	87.164422
2241.000000	87.266073
2240.000000	87.357038
2239.000000	87.436688
2238.000000	87.508291
2237.000000	87.574206
2236.000000	87.632598
2235.000000	87.681598
2234.000000	87.722695
2233.000000	87.756713
2232.000000	87.781330
2231.000000	87.796411
2230.000000	87.806984
2229.000000	87.817711
2228.000000	87.828577
2227.000000	87.839178
2226.000000	87.852257
2225.000000	87.869156
2224.000000	87.886190
2223.000000	87.899331
2222.000000	87.908068
2221.000000	87.911731
2220.000000	87.906842
2219.000000	87.892118
2218.000000	87.871816
2217.000000	87.850524
2216.000000	87.829016
2215.000000	87.808464
2214.000000	87.794140
2213.000000	87.790795
2212.000000	87.798278
2211.000000	87.814760
2210.000000	87.839894
2209.000000	87.871529
2208.000000	87.903830
2207.000000	87.932306
2206.000000	87.956329
2205.000000	87.973952
2204.000000	87.979251
2203.000000	87.968863
2202.000000	87.947360
2201.000000	87.923963
2200.000000	87.908656
2199.000000	87.913953
2198.000000	87.952866
2197.000000	88.029230
2196.000000	88.133013
2195.000000	88.248600
2194.000000	88.363700
2193.000000	88.468531
2192.000000	88.554201
2191.000000	88.617480
2190.000000	88.663265
2189.000000	88.697917
2188.000000	88.723804
2187.000000	88.742825
2186.000000	88.759354
2185.000000	88.775711
2184.000000	88.789347
2183.000000	88.798453
2182.000000	88.805722
2181.000000	88.813232
2180.000000	88.818649
2179.000000	88.820096
2178.000000	88.820195
2177.000000	88.821608
2176.000000	88.823449
2175.000000	88.825478
2174.000000	88.831085
2173.000000	88.842683
2172.000000	88.858980
2171.000000	88.880042
2170.000000	88.909687
2169.000000	88.949562
2168.000000	88.995785
2167.000000	89.044946
2166.000000	89.098079
2165.000000	89.155366
2164.000000	89.212690
2163.000000	89.267249
2162.000000	89.321167
2161.000000	89.375783
2160.000000	89.427891
2159.000000	89.475376
2158.000000	89.520919
2157.000000	89.566318
2156.000000	89.608454
2155.000000	89.644449
2154.000000	89.675520
2153.000000	89.702184
2152.000000	89.721454
2151.000000	89.732562
2150.000000	89.740104
2149.000000	89.747637
2148.000000	89.753221
2147.000000	89.754787
2146.000000	89.753910
2145.000000	89.750424
2144.000000	89.739347
2143.000000	89.717399
2142.000000	89.687142
2141.000000	89.652196
2140.000000	89.614131
2139.000000	89.577353
2138.000000	89.550971
2137.000000	89.541503
2136.000000	89.548745
2135.000000	89.571806
2134.000000	89.612656
2133.000000	89.669640
2132.000000	89.733912
2131.000000	89.796833
2130.000000	89.855745
2129.000000	89.909035
2128.000000	89.951884
2127.000000	89.981773
2126.000000	90.002668
2125.000000	90.018985
2124.000000	90.030506
2123.000000	90.036492
2122.000000	90.038659
2121.000000	90.036234
2120.000000	90.024070
2119.000000	89.999763
2118.000000	89.967641
2117.000000	89.932482
2116.000000	89.894821
2115.000000	89.855740
2114.000000	89.819881
2113.000000	89.789675
2112.000000	89.762091
2111.000000	89.734774
2110.000000	89.709983
2109.000000	89.689172
2108.000000	89.669753
2107.000000	89.650924
2106.000000	89.637023
2105.000000	89.631641
2104.000000	89.633945
2103.000000	89.643706
2102.000000	89.664259
2101.000000	89.696498
2100.000000	89.736495
2099.000000	89.781768
2098.000000	89.833668
2097.000000	89.890370
2096.000000	89.943347
2095.000000	89.985721
2094.000000	90.017043
2093.000000	90.036588
2092.000000	90.040290
2091.000000	90.029210
2090.000000	90.014280
2089.000000	90.008178
2088.000000	90.018113
2087.000000	90.049665
2086.000000	90.108540
2085.000000	90.193574
2084.000000	90.294631
2083.000000	90.402026
2082.000000	90.512179
2081.000000	90.621253
2080.000000	90.721579
2079.000000	90.809300
2078.000000	90.888416
2077.000000	90.963121
2076.000000	91.032659
2075.000000	91.098231
2074.000000	91.165155
2073.000000	91.234474
2072.000000	91.300825
2071.000000	91.360117
2070.000000	91.414876
2069.000000	91.467609
2068.000000	91.515715
2067.000000	91.556763
2066.000000	91.592541
2065.000000	91.625537
2064.000000	91.656717
2063.000000	91.689634
2062.000000	91.729112
2061.000000	91.773287
2060.000000	91.814483
2059.000000	91.850628
2058.000000	91.887760
2057.000000	91.928689
2056.000000	91.968648
2055.000000	92.005151
2054.000000	92.042441
2053.000000	92.082957
2052.000000	92.123828
2051.000000	92.163455
2050.000000	92.205159
2049.000000	92.250870
2048.000000	92.296842
2047.000000	92.339288
2046.000000	92.379782
2045.000000	92.419409
2044.000000	92.453486
2043.000000	92.477906
2042.000000	92.495752
2041.000000	92.512662
2040.000000	92.531052
2039.000000	92.553589
2038.000000	92.585059
2037.000000	92.625737
2036.000000	92.669013
2035.000000	92.710493
2034.000000	92.752852
2033.000000	92.797151
2032.000000	92.838095
2031.000000	92.873332
2030.000000	92.907761
2029.000000	92.943853
2028.000000	92.975455
2027.000000	92.996909
2026.000000	93.011523
2025.000000	93.023677
2024.000000	93.032761
2023.000000	93.037097
2022.000000	93.042121
2021.000000	93.055051
2020.000000	93.074491
2019.000000	93.093277
2018.000000	93.108664
2017.000000	93.123306
2016.000000	93.140040
2015.000000	93.162152
2014.000000	93.193264
2013.000000	93.231234
2012.000000	93.266781
2011.000000	93.294663
2010.000000	93.320459
2009.000000	93.349747
2008.000000	93.378422
2007.000000	93.401696
2006.000000	93.423687
2005.000000	93.448562
2004.000000	93.473419
2003.000000	93.494089
2002.000000	93.514917
2001.000000	93.540168
2000.000000	93.566220
1999.000000	93.592242
1998.000000	93.619971
1997.000000	93.649838
1996.000000	93.679446
1995.000000	93.703777
1994.000000	93.712846
1993.000000	93.693844
1992.000000	93.643089
1991.000000	93.574948
1990.000000	93.509743
1989.000000	93.455333
1988.000000	93.408052
1987.000000	93.367397
1986.000000	93.341841
1985.000000	93.337885
1984.000000	93.351980
1983.000000	93.376975
1982.000000	93.410397
1981.000000	93.450678
1980.000000	93.494177
1979.000000	93.539755
1978.000000	93.584562
1977.000000	93.626219
1976.000000	93.667084
1975.000000	93.713357
1974.000000	93.766797
1973.000000	93.823321
1972.000000	93.879679
1971.000000	93.933888
1970.000000	93.977861
1969.000000	93.998091
1968.000000	93.986191
1967.000000	93.945874
1966.000000	93.889770
1965.000000	93.830206
1964.000000	93.773124
1963.000000	93.717329
1962.000000	93.659850
1961.000000	93.605347
1960.000000	93.568167
1959.000000	93.558039
1958.000000	93.567353
1957.000000	93.580059
1956.000000	93.588618
1955.000000	93.596162
1954.000000	93.604378
1953.000000	93.611685
1952.000000	93.620194
1951.000000	93.635348
1950.000000	93.664997
1949.000000	93.709221
1948.000000	93.761612
1947.000000	93.821197
1946.000000	93.889576
1945.000000	93.960239
1944.000000	94.019224
1943.000000	94.059776
1942.000000	94.093036
1941.000000	94.137406
1940.000000	94.202656
1939.000000	94.284564
1938.000000	94.367862
1937.000000	94.438019
1936.000000	94.494071
1935.000000	94.543342
1934.000000	94.585239
1933.000000	94.612771
1932.000000	94.622009
1931.000000	94.616694
1930.000000	94.608049
1929.000000	94.593683
1928.000000	94.568043
1927.000000	94.541295
1926.000000	94.529359
1925.000000	94.533015
1924.000000	94.524081
1923.000000	94.492170
1922.000000	94.465153
1921.000000	94.464787
1920.000000	94.476208
1919.000000	94.471674
1918.000000	94.447283
1917.000000	94.423277
1916.000000	94.409494
1915.000000	94.406378
1914.000000	94.413891
1913.000000	94.424201
1912.000000	94.423800
1911.000000	94.411921
1910.000000	94.402074
1909.000000	94.392942
1908.000000	94.375167
1907.000000	94.354235
1906.000000	94.346010
1905.000000	94.352459
1904.000000	94.347134
1903.000000	94.326958
1902.000000	94.322264
1901.000000	94.341430
1900.000000	94.365461
1899.000000	94.391805
1898.000000	94.438965
1897.000000	94.508810
1896.000000	94.568237
1895.000000	94.603311
1894.000000	94.644536
1893.000000	94.712208
1892.000000	94.783498
1891.000000	94.831790
1890.000000	94.860275
1889.000000	94.886825
1888.000000	94.919455
1887.000000	94.966067
1886.000000	95.036622
1885.000000	95.115882
1884.000000	95.171572
1883.000000	95.203654
1882.000000	95.243688
1881.000000	95.293815
1880.000000	95.326938
1879.000000	95.337748
1878.000000	95.346774
1877.000000	95.363702
1876.000000	95.366797
1875.000000	95.338678
1874.000000	95.298215
1873.000000	95.265641
1872.000000	95.228762
1871.000000	95.172933
1870.000000	95.107140
1869.000000	95.050678
1868.000000	95.015126
1867.000000	95.017997
1866.000000	95.084644
1865.000000	95.203979
1864.000000	95.323836
1863.000000	95.412612
1862.000000	95.489483
1861.000000	95.570620
1860.000000	95.634877
1859.000000	95.671778
1858.000000	95.711351
1857.000000	95.772746
1856.000000	95.832889
1855.000000	95.876149
1854.000000	95.925400
1853.000000	95.987223
1852.000000	96.041709
1851.000000	96.092249
1850.000000	96.151230
1849.000000	96.217743
1848.000000	96.277399
1847.000000	96.332520
1846.000000	96.391443
1845.000000	96.430506
1844.000000	96.433613
1843.000000	96.434983
1842.000000	96.470561
1841.000000	96.530173
1840.000000	96.588368
1839.000000	96.629530
1838.000000	96.661207
1837.000000	96.698885
1836.000000	96.735180
1835.000000	96.771098
1834.000000	96.825234
1833.000000	96.901948
1832.000000	96.988747
1831.000000	97.054771
1830.000000	97.074350
1829.000000	97.078812
1828.000000	97.113728
1827.000000	97.182890
1826.000000	97.260074
1825.000000	97.329845
1824.000000	97.399119
1823.000000	97.477829
1822.000000	97.569666
1821.000000	97.671994
1820.000000	97.768728
1819.000000	97.838508
1818.000000	97.892954
1817.000000	97.963246
1816.000000	98.039362
1815.000000	98.097597
1814.000000	98.146543
1813.000000	98.206796
1812.000000	98.264500
1811.000000	98.282544
1810.000000	98.287193
1809.000000	98.328508
1808.000000	98.386528
1807.000000	98.421847
1806.000000	98.450116
1805.000000	98.498055
1804.000000	98.538859
1803.000000	98.543720
1802.000000	98.531586
1801.000000	98.535768
1800.000000	98.554913
1799.000000	98.565493
1798.000000	98.585813
1797.000000	98.632059
1796.000000	98.672998
1795.000000	98.690168
1794.000000	98.702274
1793.000000	98.720705
1792.000000	98.728839
1791.000000	98.717334
1790.000000	98.726614
1789.000000	98.783199
1788.000000	98.855605
1787.000000	98.906669
1786.000000	98.951856
1785.000000	99.022334
1784.000000	99.102458
1783.000000	99.175088
1782.000000	99.238587
1781.000000	99.285628
1780.000000	99.322765
1779.000000	99.358915
1778.000000	99.414601
1777.000000	99.490058
1776.000000	99.575603
1775.000000	99.679827
1774.000000	99.792089
1773.000000	99.878644
1772.000000	99.940342
1771.000000	99.981187
1770.000000	99.999992
1769.000000	100.035170
1768.000000	100.110562
1767.000000	100.194573
1766.000000	100.261350
1765.000000	100.329660
1764.000000	100.418799
1763.000000	100.492043
1762.000000	100.504274
1761.000000	100.496907
1760.000000	100.523434
1759.000000	100.561688
1758.000000	100.575641
1757.000000	100.547716
1756.000000	100.520835
1755.000000	100.518497
1754.000000	100.507185
1753.000000	100.485295
1752.000000	100.490088
1751.000000	100.528425
1750.000000	100.559387
1749.000000	100.556296
1748.000000	100.535028
1747.000000	100.528497
1746.000000	100.520140
1745.000000	100.495239
1744.000000	100.480985
1743.000000	100.479057
1742.000000	100.475299
1741.000000	100.480640
1740.000000	100.505797
1739.000000	100.532580
1738.000000	100.546686
1737.000000	100.568937
1736.000000	100.632077
1735.000000	100.688325
1734.000000	100.727349
1733.000000	100.806653
1732.000000	100.892121
1731.000000	100.927789
1730.000000	100.938115
1729.000000	100.939804
1728.000000	100.948798
1727.000000	100.980797
1726.000000	101.018214
1725.000000	101.052194
1724.000000	101.077580
1723.000000	101.086401
1722.000000	101.115489
1721.000000	101.196073
1720.000000	101.302160
1719.000000	101.352872
1718.000000	101.340122
1717.000000	101.375388
1716.000000	101.436045
1715.000000	101.434250
1714.000000	101.438101
1713.000000	101.518543
1712.000000	101.612434
1711.000000	101.668279
1710.000000	101.738345
1709.000000	101.862254
1708.000000	102.000674
1707.000000	102.105760
1706.000000	102.193903
1705.000000	102.304911
1704.000000	102.402891
1703.000000	102.480228
1702.000000	102.610331
1701.000000	102.776806
1700.000000	102.923139
1699.000000	103.008441
1698.000000	103.078438
1697.000000	103.204225
1696.000000	103.343908
1695.000000	103.434777
1694.000000	103.504986
1693.000000	103.566591
1692.000000	103.627601
1691.000000	103.687004
1690.000000	103.736953
1689.000000	103.780023
1688.000000	103.851412
1687.000000	103.987789
1686.000000	104.168175
1685.000000	104.274218
1684.000000	104.295334
1683.000000	104.358704
1682.000000	104.452255
1681.000000	104.489605
1680.000000	104.512741
1679.000000	104.569408
1678.000000	104.642621
1677.000000	104.695589
1676.000000	104.731599
1675.000000	104.798641
1674.000000	104.870525
1673.000000	104.897037
1672.000000	104.923547
1671.000000	104.988199
1670.000000	105.053634
1669.000000	105.078188
1668.000000	105.094732
1667.000000	105.137351
1666.000000	105.175856
1665.000000	105.185445
1664.000000	105.161407
1663.000000	105.125886
1662.000000	105.097172
1661.000000	105.039751
1660.000000	104.975678
1659.000000	104.959309
1658.000000	104.954752
1657.000000	104.922421
1656.000000	104.903862
1655.000000	104.934529
1654.000000	104.777457
1653.000000	104.425234
1652.000000	104.146578
1651.000000	103.862342
1650.000000	103.432884
1649.000000	102.931483
1648.000000	102.283734
1647.000000	101.388690
1646.000000	100.341005
1645.000000	99.287666
1644.000000	98.213153
1643.000000	97.069510
1642.000000	95.884037
1641.000000	94.723550
1640.000000	93.711903
1639.000000	92.940126
1638.000000	92.445164
1637.000000	92.228084
1636.000000	92.328486
1635.000000	92.794678
1634.000000	93.492756
1633.000000	94.253674
1632.000000	95.036119
1631.000000	95.877679
1630.000000	96.782775
1629.000000	97.705741
1628.000000	98.594989
1627.000000	99.429508
1626.000000	100.196588
1625.000000	100.902095
1624.000000	101.583964
1623.000000	102.268913
1622.000000	102.912408
1621.000000	103.438972
1620.000000	103.883991
1619.000000	104.342539
1618.000000	104.811895
1617.000000	105.190451
1616.000000	105.424301
1615.000000	105.505801
1614.000000	105.394945
1613.000000	105.070362
1612.000000	104.559397
1611.000000	103.891473
1610.000000	103.010252
1609.000000	101.798491
1608.000000	100.198395
1607.000000	98.197263
1606.000000	95.684906
1605.000000	92.445552
1604.000000	88.342079
1603.000000	83.346302
1602.000000	77.540250
1601.000000	71.230259
1600.000000	64.989376
1599.000000	59.433300
1598.000000	54.795105
1597.000000	50.794717
1596.000000	47.026325
1595.000000	43.440323
1594.000000	40.347822
1593.000000	38.067881
1592.000000	36.740013
1591.000000	36.367639
1590.000000	36.862146
1589.000000	37.989223
1588.000000	39.409395
1587.000000	40.771388
1586.000000	41.764204
1585.000000	42.239348
1584.000000	42.354704
1583.000000	42.484914
1582.000000	42.895757
1581.000000	43.595768
1580.000000	44.499234
1579.000000	45.575879
1578.000000	46.779798
1577.000000	47.943883
1576.000000	48.880939
1575.000000	49.567770
1574.000000	50.075603
1573.000000	50.474165
1572.000000	50.902141
1571.000000	51.568831
1570.000000	52.635240
1569.000000	54.055053
1568.000000	55.694392
1567.000000	57.515197
1566.000000	59.477393
1565.000000	61.424523
1564.000000	63.183596
1563.000000	64.732365
1562.000000	66.164581
1561.000000	67.602114
1560.000000	69.149053
1559.000000	70.883382
1558.000000	72.614052
1557.000000	74.052716
1556.000000	75.218780
1555.000000	76.327057
1554.000000	77.411839
1553.000000	78.375150
1552.000000	79.194633
1551.000000	79.907137
1550.000000	80.541681
1549.000000	81.098774
1548.000000	81.602688
1547.000000	82.116334
1546.000000	82.664183
1545.000000	83.204808
1544.000000	83.712883
1543.000000	84.212833
1542.000000	84.743507
1541.000000	85.284779
1540.000000	85.780177
1539.000000	86.259763
1538.000000	86.727254
1537.000000	87.129725
1536.000000	87.499930
1535.000000	87.895517
1534.000000	88.284674
1533.000000	88.626479
1532.000000	88.944526
1531.000000	89.262494
1530.000000	89.596732
1529.000000	89.937654
1528.000000	90.238078
1527.000000	90.495051
1526.000000	90.746100
1525.000000	91.010275
1524.000000	91.284151
1523.000000	91.548432
1522.000000	91.762546
1521.000000	91.914164
1520.000000	92.036749
1519.000000	92.158264
1518.000000	92.274942
1517.000000	92.367683
1516.000000	92.432216
1515.000000	92.510503
1514.000000	92.636718
1513.000000	92.819104
1512.000000	93.022752
1511.000000	93.201275
1510.000000	93.367297
1509.000000	93.568192
1508.000000	93.757674
1507.000000	93.831179
1506.000000	93.917722
1505.000000	94.128175
1504.000000	94.329277
1503.000000	94.467203
1502.000000	94.600714
1501.000000	94.757405
1500.000000	94.926942
1499.000000	95.080116
1498.000000	95.219131
1497.000000	95.405678
1496.000000	95.657609
1495.000000	95.918599
1494.000000	96.167775
1493.000000	96.427263
1492.000000	96.690377
1491.000000	96.914555
1490.000000	97.099747
1489.000000	97.300424
1488.000000	97.515711
1487.000000	97.716214
1486.000000	97.940485
1485.000000	98.177492
1484.000000	98.383408
1483.000000	98.567222
1482.000000	98.745257
1481.000000	98.917579
1480.000000	99.068704
1479.000000	99.213283
1478.000000	99.375550
1477.000000	99.548422
1476.000000	99.693552
1475.000000	99.829066
1474.000000	100.012129
1473.000000	100.240292
1472.000000	100.487677
1471.000000	100.731664
1470.000000	100.954511
1469.000000	101.141965
1468.000000	101.271899
1467.000000	101.310445
1466.000000	101.182891
1465.000000	100.759282
1464.000000	99.975939
1463.000000	98.846612
1462.000000	97.394634
1461.000000	95.668261
1460.000000	93.734608
1459.000000	91.605499
1458.000000	89.177725
1457.000000	86.587101
1456.000000	84.341313
1455.000000	82.613958
1454.000000	81.053461
1453.000000	79.368786
1452.000000	77.551924
1451.000000	75.692061
1450.000000	73.751197
1449.000000	71.591776
1448.000000	69.266582
1447.000000	67.195107
1446.000000	65.920171
1445.000000	65.813552
1444.000000	67.000709
1443.000000	69.267059
1442.000000	72.094023
1441.000000	74.929717
1440.000000	77.430097
1439.000000	79.467107
1438.000000	81.053631
1437.000000	82.326279
1436.000000	83.480053
1435.000000	84.608440
1434.000000	85.725217
1433.000000	86.888580
1432.000000	88.116676
1431.000000	89.301013
1430.000000	90.319689
1429.000000	91.179362
1428.000000	91.933840
1427.000000	92.596016
1426.000000	93.162091
1425.000000	93.655717
1424.000000	94.134245
1423.000000	94.591233
1422.000000	94.995066
1421.000000	95.370460
1420.000000	95.752333
1419.000000	96.101680
1418.000000	96.375647
1417.000000	96.647111
1416.000000	96.981222
1415.000000	97.338955
1414.000000	97.650848
1413.000000	97.916434
1412.000000	98.181460
1411.000000	98.431701
1410.000000	98.623475
1409.000000	98.781032
1408.000000	98.933715
1407.000000	99.043238
1406.000000	99.037442
1405.000000	98.877990
1404.000000	98.596041
1403.000000	98.225782
1402.000000	97.793891
1401.000000	97.355689
1400.000000	96.969902
1399.000000	96.650097
1398.000000	96.377725
1397.000000	96.162653
1396.000000	96.042500
1395.000000	96.038688
1394.000000	96.099648
1393.000000	96.135897
1392.000000	96.092014
1391.000000	95.942086
1390.000000	95.694478
1389.000000	95.417548
1388.000000	95.234821
1387.000000	95.276021
1386.000000	95.600895
1385.000000	96.173056
1384.000000	96.910324
1383.000000	97.710129
1382.000000	98.482114
1381.000000	99.191560
1380.000000	99.836898
1379.000000	100.404634
1378.000000	100.865889
1377.000000	101.194723
1376.000000	101.348246
1375.000000	101.233735
1374.000000	100.698610
1373.000000	99.554414
1372.000000	97.566270
1371.000000	94.480381
1370.000000	90.234153
1369.000000	85.279163
1368.000000	80.650301
1367.000000	77.435303
1366.000000	76.117066
1365.000000	76.475899
1364.000000	77.943745
1363.000000	79.953404
1362.000000	82.121139
1361.000000	84.292797
1360.000000	86.442862
1359.000000	88.531989
1358.000000	90.467642
1357.000000	92.156017
1356.000000	93.561664
1355.000000	94.709738
1354.000000	95.655612
1353.000000	96.465101
1352.000000	97.181973
1351.000000	97.823900
1350.000000	98.397538
1349.000000	98.906842
1348.000000	99.365988
1347.000000	99.785221
1346.000000	100.166406
1345.000000	100.514160
1344.000000	100.838615
1343.000000	101.143450
1342.000000	101.424674
1341.000000	101.681034
1340.000000	101.916434
1339.000000	102.135972
1338.000000	102.344828
1337.000000	102.554170
1336.000000	102.772513
1335.000000	102.995479
1334.000000	103.217416
1333.000000	103.443592
1332.000000	103.676196
1331.000000	103.899222
1330.000000	104.090555
1329.000000	104.244432
1328.000000	104.360720
1327.000000	104.423199
1326.000000	104.394946
1325.000000	104.221528
1324.000000	103.833409
1323.000000	103.124141
1322.000000	101.953772
1321.000000	100.180074
1320.000000	97.699830
1319.000000	94.556925
1318.000000	91.081613
1317.000000	87.873763
1316.000000	85.532327
1315.000000	84.321479
1314.000000	84.068627
1313.000000	84.410269
1312.000000	85.113474
1311.000000	86.144732
1310.000000	87.512381
1309.000000	89.126081
1308.000000	90.833137
1307.000000	92.522983
1306.000000	94.147378
1305.000000	95.673132
1304.000000	97.050477
1303.000000	98.227637
1302.000000	99.184528
1301.000000	99.941035
1300.000000	100.523127
1299.000000	100.933985
1298.000000	101.131766
1297.000000	100.986940
1296.000000	100.280586
1295.000000	98.838423
1294.000000	96.774936
1293.000000	94.587972
1292.000000	92.911792
1291.000000	92.100377
1290.000000	92.029696
1289.000000	92.281627
1288.000000	92.443424
1287.000000	92.240628
1286.000000	91.534813
1285.000000	90.357248
1284.000000	88.961547
1283.000000	87.753788
1282.000000	87.093808
1281.000000	87.115182
1280.000000	87.679006
1279.000000	88.417333
1278.000000	88.806127
1277.000000	88.307664
1276.000000	86.610395
1275.000000	83.876874
1274.000000	80.822860
1273.000000	78.497762
1272.000000	77.816455
1271.000000	79.074597
1270.000000	81.822956
1269.000000	85.208036
1268.000000	88.467200
1267.000000	91.211041
1266.000000	93.378728
1265.000000	95.072838
1264.000000	96.435465
1263.000000	97.576670
1262.000000	98.552019
1261.000000	99.389427
1260.000000	100.118702
1259.000000	100.762929
1258.000000	101.329895
1257.000000	101.822198
1256.000000	102.252891
1255.000000	102.638662
1254.000000	102.985871
1253.000000	103.301304
1252.000000	103.601157
1251.000000	103.899897
1250.000000	104.198972
1249.000000	104.495754
1248.000000	104.796012
1247.000000	105.104563
1246.000000	105.414077
1245.000000	105.716360
1244.000000	106.013596
1243.000000	106.308521
1242.000000	106.593928
1241.000000	106.861789
1240.000000	107.112106
1239.000000	107.342008
1238.000000	107.538388
1237.000000	107.688778
1236.000000	107.789751
1235.000000	107.838945
1234.000000	107.826531
1233.000000	107.746661
1232.000000	107.604285
1231.000000	107.400733
1230.000000	107.125470
1229.000000	106.759202
1228.000000	106.280434
1227.000000	105.653406
1226.000000	104.814938
1225.000000	103.692180
1224.000000	102.210572
1223.000000	100.302946
1222.000000	97.926407
1221.000000	95.087214
1220.000000	91.873004
1219.000000	88.432304
1218.000000	84.926985
1217.000000	81.497751
1216.000000	78.251044
1215.000000	75.248369
1214.000000	72.495187
1213.000000	69.960745
1212.000000	67.625786
1211.000000	65.520868
1210.000000	63.712936
1209.000000	62.308149
1208.000000	61.446685
1207.000000	61.233142
1206.000000	61.666203
1205.000000	62.615935
1204.000000	63.899324
1203.000000	65.355096
1202.000000	66.864845
1201.000000	68.383919
1200.000000	69.939065
1199.000000	71.584685
1198.000000	73.349672
1197.000000	75.225057
1196.000000	77.191190
1195.000000	79.219493
1194.000000	81.261404
1193.000000	83.262490
1192.000000	85.186472
1191.000000	87.008035
1190.000000	88.697830
1189.000000	90.232084
1188.000000	91.605033
1187.000000	92.823111
1186.000000	93.886188
1185.000000	94.798489
1184.000000	95.582986
1183.000000	96.262818
1182.000000	96.845919
1181.000000	97.328162
1180.000000	97.714063
1179.000000	98.021479
1178.000000	98.266431
1177.000000	98.463093
1176.000000	98.625938
1175.000000	98.765823
1174.000000	98.888963
1173.000000	99.005749
1172.000000	99.138454
1171.000000	99.310174
1170.000000	99.531565
1169.000000	99.803856
1168.000000	100.124905
1167.000000	100.480557
1166.000000	100.837094
1165.000000	101.154441
1164.000000	101.405933
1163.000000	101.585420
1162.000000	101.708707
1161.000000	101.815749
1160.000000	101.958865
1159.000000	102.173425
1158.000000	102.460558
1157.000000	102.802442
1156.000000	103.185962
1155.000000	103.603322
1154.000000	104.039661
1153.000000	104.471907
1152.000000	104.873882
1151.000000	105.215652
1150.000000	105.467794
1149.000000	105.620156
1148.000000	105.688610
1147.000000	105.699985
1146.000000	105.674979
1145.000000	105.623736
1144.000000	105.550210
1143.000000	105.440675
1142.000000	105.257707
1141.000000	104.956504
1140.000000	104.495802
1139.000000	103.841920
1138.000000	102.951958
1137.000000	101.772119
1136.000000	100.250991
1135.000000	98.323825
1134.000000	95.915394
1133.000000	92.943227
1132.000000	89.347033
1131.000000	85.142483
1130.000000	80.446845
1129.000000	75.502740
1128.000000	70.646698
1127.000000	66.190991
1126.000000	62.257326
1125.000000	58.710031
1124.000000	55.284998
1123.000000	51.841583
1122.000000	48.547286
1121.000000	45.812320
1120.000000	44.024136
1119.000000	43.203858
1118.000000	42.942957
1117.000000	42.796675
1116.000000	42.756691
1115.000000	43.342885
1114.000000	45.135118
1113.000000	48.251902
1112.000000	52.271661
1111.000000	56.520908
1110.000000	60.392250
1109.000000	63.466170
1108.000000	65.444095
1107.000000	66.021191
1106.000000	64.907734
1105.000000	62.054303
1104.000000	57.998459
1103.000000	53.984498
1102.000000	51.525457
1101.000000	51.602318
1100.000000	54.148097
1099.000000	58.224987
1098.000000	62.693549
1097.000000	66.815153
1096.000000	70.350695
1095.000000	73.333373
1094.000000	75.860837
1093.000000	78.034228
1092.000000	79.953835
1091.000000	81.695077
1090.000000	83.300458
1089.000000	84.804372
1088.000000	86.249717
1087.000000	87.654968
1086.000000	89.008841
1085.000000	90.296794
1084.000000	91.510726
1083.000000	92.639712
1082.000000	93.667792
1081.000000	94.598148
1080.000000	95.454684
1079.000000	96.253974
1078.000000	97.000816
1077.000000	97.700242
1076.000000	98.355600
1075.000000	98.948262
1074.000000	99.431901
1073.000000	99.763850
1072.000000	99.901582
1071.000000	99.781571
1070.000000	99.318628
1069.000000	98.407050
1068.000000	96.940423
1067.000000	94.791389
1066.000000	91.832941
1065.000000	88.015261
1064.000000	83.406362
1063.000000	78.221201
1062.000000	72.761599
1061.000000	67.310426
1060.000000	62.021342
1059.000000	56.852310
1058.000000	51.638041
1057.000000	46.320312
1056.000000	41.191045
1055.000000	36.891346
1054.000000	34.183473
1053.000000	33.583021
1052.000000	35.144894
1051.000000	38.467944
1050.000000	42.834442
1049.000000	47.522102
1048.000000	52.013663
1047.000000	56.048300
1046.000000	59.569465
1045.000000	62.634655
1044.000000	65.346897
1043.000000	67.785409
1042.000000	69.977821
1041.000000	71.924445
1040.000000	73.644223
1039.000000	75.163244
1038.000000	76.497799
1037.000000	77.666481
1036.000000	78.696507
1035.000000	79.621054
1034.000000	80.463893
1033.000000	81.249997
1032.000000	82.015040
1031.000000	82.784981
1030.000000	83.562971
1029.000000	84.342023
1028.000000	85.123765
1027.000000	85.915415
1026.000000	86.720959
1025.000000	87.547950
1024.000000	88.410218
1023.000000	89.309357
1022.000000	90.223867
1021.000000	91.120442
1020.000000	91.968311
1019.000000	92.725830
1018.000000	93.321260
1017.000000	93.665577
1016.000000	93.641228
1015.000000	93.105434
1014.000000	91.892364
1013.000000	89.836818
1012.000000	86.829714
1011.000000	82.816737
1010.000000	77.830742
1009.000000	72.071276
1008.000000	66.010827
1007.000000	60.422034
1006.000000	56.219701
1005.000000	54.124427
1004.000000	54.334739
1003.000000	56.427412
1002.000000	59.523283
1001.000000	62.651913
1000.000000	65.021515
999.000000	66.083980
998.000000	65.558414
997.000000	63.553868
996.000000	60.697624
995.000000	58.003885
994.000000	56.417495
993.000000	56.351130
992.000000	57.591620
991.000000	59.594233
990.000000	61.866405
989.000000	64.163243
988.000000	66.446404
987.000000	68.717870
986.000000	70.930540
985.000000	73.006666
984.000000	74.885702
983.000000	76.543148
982.000000	77.985622
981.000000	79.243847
980.000000	80.356916
979.000000	81.359224
978.000000	82.268393
977.000000	83.097160
976.000000	83.857826
975.000000	84.553499
974.000000	85.183133
973.000000	85.749457
972.000000	86.263046
971.000000	86.733092
970.000000	87.163473
969.000000	87.563701
968.000000	87.948121
967.000000	88.325265
966.000000	88.694527
965.000000	89.054123
964.000000	89.405238
963.000000	89.744649
962.000000	90.065553
961.000000	90.367675
960.000000	90.656762
959.000000	90.934489
958.000000	91.197334
957.000000	91.447196
956.000000	91.692682
955.000000	91.937408
954.000000	92.178299
953.000000	92.415228
952.000000	92.652166
951.000000	92.887273
950.000000	93.111582
949.000000	93.320312
948.000000	93.515106
947.000000	93.695172
946.000000	93.857277
945.000000	94.004920
944.000000	94.148167
943.000000	94.293091
942.000000	94.440985
941.000000	94.597447
940.000000	94.769890
939.000000	94.955597
938.000000	95.142845
937.000000	95.324769
936.000000	95.501559
935.000000	95.669220
934.000000	95.819297
933.000000	95.951271
932.000000	96.074320
931.000000	96.195626
930.000000	96.316521
929.000000	96.440178
928.000000	96.572029
927.000000	96.711635
926.000000	96.854106
925.000000	96.998804
924.000000	97.147045
923.000000	97.292638
922.000000	97.425763
921.000000	97.545581
920.000000	97.659208
919.000000	97.771063
918.000000	97.883705
917.000000	98.005626
916.000000	98.145351
915.000000	98.299553
914.000000	98.457955
913.000000	98.617554
912.000000	98.779799
911.000000	98.938381
910.000000	99.083399
909.000000	99.214962
908.000000	99.337050
907.000000	99.434698
906.000000	99.472223
905.000000	99.420783
904.000000	99.292145
903.000000	99.151704
902.000000	99.088388
901.000000	99.146600
900.000000	99.267932
899.000000	99.314475
898.000000	99.175243
897.000000	98.841709
896.000000	98.396317
895.000000	97.947595
894.000000	97.550788
893.000000	97.116085
892.000000	96.358009
891.000000	94.952809
890.000000	92.897382
889.000000	90.720873
888.000000	89.205113
887.000000	88.826420
886.000000	89.452106
885.000000	90.563663
884.000000	91.711709
883.000000	92.707135
882.000000	93.528634
881.000000	94.198571
880.000000	94.760176
879.000000	95.287261
878.000000	95.845364
877.000000	96.453246
876.000000	97.085172
875.000000	97.695180
874.000000	98.237826
873.000000	98.690596
872.000000	99.062259
871.000000	99.373626
870.000000	99.635862
869.000000	99.849042
868.000000	100.013619
867.000000	100.126589
866.000000	100.176358
865.000000	100.158175
864.000000	100.089694
863.000000	100.006972
862.000000	99.948458
861.000000	99.946514
860.000000	100.022010
859.000000	100.173084
858.000000	100.372525
857.000000	100.585953
856.000000	100.791834
855.000000	100.981086
854.000000	101.149527
853.000000	101.298453
852.000000	101.435638
851.000000	101.567783
850.000000	101.696021
849.000000	101.821970
848.000000	101.951003
847.000000	102.085054
846.000000	102.218140
845.000000	102.343292
844.000000	102.457661
843.000000	102.559808
842.000000	102.649933
841.000000	102.734759
840.000000	102.824863
839.000000	102.924724
838.000000	103.031971
837.000000	103.146432
836.000000	103.270831
835.000000	103.402083
834.000000	103.531018
833.000000	103.651855
832.000000	103.763465
831.000000	103.861416
830.000000	103.939854
829.000000	104.002896
828.000000	104.064931
827.000000	104.138260
826.000000	104.228646
825.000000	104.341102
824.000000	104.477379
823.000000	104.625941
822.000000	104.766915
821.000000	104.886412
820.000000	104.976313
819.000000	105.021455
818.000000	104.995073
817.000000	104.868405
816.000000	104.599127
815.000000	104.106672
814.000000	103.258630
813.000000	101.892060
812.000000	99.894113
811.000000	97.319055
810.000000	94.483984
809.000000	91.926052
808.000000	90.191623
807.000000	89.574406
806.000000	90.001244
805.000000	91.130734
804.000000	92.557793
803.000000	93.975770
802.000000	95.219532
801.000000	96.243105
800.000000	97.063644
799.000000	97.709641
798.000000	98.199485
797.000000	98.543148
796.000000	98.741505
795.000000	98.781686
794.000000	98.650847
793.000000	98.355562
792.000000	97.931650
791.000000	97.435901
790.000000	96.937779
789.000000	96.511790
788.000000	96.218564
787.000000	96.086149
786.000000	96.110195
785.000000	96.268042
784.000000	96.522770
783.000000	96.822179
782.000000	97.109232
781.000000	97.342239
780.000000	97.504548
779.000000	97.603271
778.000000	97.672648
777.000000	97.770528
776.000000	97.953359
775.000000	98.247301
774.000000	98.643880
773.000000	99.115759
772.000000	99.626212
771.000000	100.133330
770.000000	100.603596
769.000000	101.023739
768.000000	101.393115
767.000000	101.710431
766.000000	101.977747
765.000000	102.208886
764.000000	102.421753
763.000000	102.626001
762.000000	102.827063
761.000000	103.032938
760.000000	103.244347
759.000000	103.446459
758.000000	103.621589
757.000000	103.764063
756.000000	103.873954
755.000000	103.947896
754.000000	103.989550
753.000000	104.018865
752.000000	104.057622
751.000000	104.112734
750.000000	104.182871
749.000000	104.269551
748.000000	104.367283
747.000000	104.453637
746.000000	104.504636
745.000000	104.511846
744.000000	104.474347
743.000000	104.388649
742.000000	104.261171
741.000000	104.117959
740.000000	103.986173
739.000000	103.875392
738.000000	103.785170
737.000000	103.709627
736.000000	103.616448
735.000000	103.435348
734.000000	103.085970
733.000000	102.509093
732.000000	101.670736
731.000000	100.576411
730.000000	99.312810
729.000000	98.058387
728.000000	97.023745
727.000000	96.368157
726.000000	96.160454
725.000000	96.385826
724.000000	96.953000
723.000000	97.714502
722.000000	98.528552
721.000000	99.314248
720.000000	100.043018
719.000000	100.697026
718.000000	101.260616
717.000000	101.734138
716.000000	102.127633
715.000000	102.448458
714.000000	102.709713
713.000000	102.935168
712.000000	103.137747
711.000000	103.307829
710.000000	103.440847
709.000000	103.553398
708.000000	103.659163
707.000000	103.752574
706.000000	103.828891
705.000000	103.905951
704.000000	104.001097
703.000000	104.101936
702.000000	104.196121
701.000000	104.297979
700.000000	104.414765
699.000000	104.525685
698.000000	104.610086
697.000000	104.678300
696.000000	104.740707
695.000000	104.772131
694.000000	104.761638
693.000000	104.743998
692.000000	104.745434
691.000000	104.751425
690.000000	104.752845
689.000000	104.790862
688.000000	104.893382
687.000000	105.009341
686.000000	105.086371
685.000000	105.142594
684.000000	105.201309
683.000000	105.230183
682.000000	105.209743
681.000000	105.190601
680.000000	105.212033
679.000000	105.234027
678.000000	105.243520
677.000000	105.283385
676.000000	105.359333
675.000000	105.459681
674.000000	105.573394
673.000000	105.707284
672.000000	105.875665
671.000000	106.072895
670.000000	106.294596
669.000000	106.344216
668.000000	105.908195
667.000000	105.471443
666.000000	105.593349
665.000000	105.913373
664.000000	106.120695
663.000000	106.217248
662.000000	106.294927
661.000000	106.384463
660.000000	106.460402
659.000000	106.511093
658.000000	106.551328
657.000000	106.562528
656.000000	106.519811
655.000000	106.495238
654.000000	106.531503
653.000000	106.570962
652.000000	106.584065
651.000000	106.622217
650.000000	106.700419
649.000000	106.748505
648.000000	106.742531
647.000000	106.749146
646.000000	106.795129
645.000000	106.825789
644.000000	106.816094
643.000000	106.817387
642.000000	106.862117
641.000000	106.906484
640.000000	106.919051
639.000000	106.933575
638.000000	106.965144
637.000000	106.972838
636.000000	106.946248
635.000000	106.934690
634.000000	106.963265
633.000000	106.997839
632.000000	107.019083
631.000000	107.057444
630.000000	107.122207
629.000000	107.167968
628.000000	107.169961
627.000000	107.160930
626.000000	107.162440
625.000000	107.156162
624.000000	107.139728
623.000000	107.151578
622.000000	107.209018
621.000000	107.275251
620.000000	107.315350
619.000000	107.332631
618.000000	107.337181
617.000000	107.327830
616.000000	107.320109
615.000000	107.342582
614.000000	107.390169
613.000000	107.431891
612.000000	107.471833
611.000000	107.547822
610.000000	107.666676
609.000000	107.786840
608.000000	107.876356
607.000000	107.935059
606.000000	107.949494
605.000000	107.893973
604.000000	107.776517
603.000000	107.637700
602.000000	107.493202
601.000000	107.318333
600.000000	107.092261
599.000000	106.809874
598.000000	106.432985
597.000000	105.864022
596.000000	104.988520
595.000000	103.684767
594.000000	101.746315
593.000000	98.845846
592.000000	94.671437
591.000000	89.258980
590.000000	83.295292
589.000000	78.077277
588.000000	74.994200
587.000000	74.774747
586.000000	77.013770
585.000000	80.480105
584.000000	84.025653
583.000000	87.130831
582.000000	89.736378
581.000000	91.891595
580.000000	93.648857
579.000000	95.092241
578.000000	96.286124
577.000000	97.243009
576.000000	97.996384
575.000000	98.636220
574.000000	99.215516
573.000000	99.710836
572.000000	100.106771
571.000000	100.436415
570.000000	100.713889
569.000000	100.896880
568.000000	100.965716
567.000000	100.952658
566.000000	100.858543
565.000000	100.619597
564.000000	100.194253
563.000000	99.627437
562.000000	98.994670
561.000000	98.354731
560.000000	97.776293
559.000000	97.319451
558.000000	96.953243
557.000000	96.585020
556.000000	96.223051
555.000000	96.031035
554.000000	96.174784
553.000000	96.677589
552.000000	97.452727
551.000000	98.380860
550.000000	99.310376
549.000000	100.091256
548.000000	100.669417
547.000000	101.091974
546.000000	101.401440
545.000000	101.591716
544.000000	101.678765
543.000000	101.725108
542.000000	101.765951
541.000000	101.779374
540.000000	101.762966
539.000000	101.761505
538.000000	101.790658
537.000000	101.805485
536.000000	101.775274
535.000000	101.720660
534.000000	101.649677
533.000000	101.536746
532.000000	101.378454
531.000000	101.219793
530.000000	101.090555
529.000000	100.966719
528.000000	100.817572
527.000000	100.644430
526.000000	100.426819
525.000000	100.095814
524.000000	99.594233
523.000000	98.885241
522.000000	97.902616
521.000000	96.553524
520.000000	94.805341
519.000000	92.724215
518.000000	90.426620
517.000000	88.078761
516.000000	85.960115
515.000000	84.402255
514.000000	83.596767
513.000000	83.525420
512.000000	84.062256
511.000000	85.069769
510.000000	86.378005
509.000000	87.792098
508.000000	89.192029
507.000000	90.558800
506.000000	91.884841
505.000000	93.135949
504.000000	94.319341
503.000000	95.488555
502.000000	96.642112
501.000000	97.690785
500.000000	98.561808
499.000000	99.265004
498.000000	99.821491
497.000000	100.229269
496.000000	100.520076
495.000000	100.772521
494.000000	101.043291
493.000000	101.323321
492.000000	101.602346
491.000000	101.906068
490.000000	102.221212
489.000000	102.471253
488.000000	102.589299
487.000000	102.564721
486.000000	102.376096
485.000000	101.939251
484.000000	101.186406
483.000000	100.125083
482.000000	98.774503
481.000000	97.110435
480.000000	95.123295
479.000000	92.850202
478.000000	90.289816
477.000000	87.430172
476.000000	84.428619
475.000000	81.670757
474.000000	79.566399
473.000000	78.395153
472.000000	78.333610
471.000000	79.426174
470.000000	81.466261
469.000000	84.037070
468.000000	86.754890
467.000000	89.383997
466.000000	91.761103
465.000000	93.767988
464.000000	95.374702
463.000000	96.646953
462.000000	97.654544
461.000000	98.417254
460.000000	98.969939
459.000000	99.411913
458.000000	99.835089
457.000000	100.264243
456.000000	100.711467
455.000000	101.204870
454.000000	101.727433
453.000000	102.187709
452.000000	102.510860
451.000000	102.717015
450.000000	102.836923
449.000000	102.852740
448.000000	102.777203
447.000000	102.700670
446.000000	102.693455
445.000000	102.748761
444.000000	102.856480
443.000000	103.052578
442.000000	103.328071
441.000000	103.580470
440.000000	103.732670
439.000000	103.793749
438.000000	103.772188
437.000000	103.633665
436.000000	103.407660
435.000000	103.223560
434.000000	103.151578
433.000000	103.122779
432.000000	103.077803
431.000000	103.066995
430.000000	103.133590
429.000000	103.191743
428.000000	103.143444
427.000000	103.021555
426.000000	102.889577
425.000000	102.710217
424.000000	102.467143
423.000000	102.307848
422.000000	102.359453
421.000000	102.534649
420.000000	102.691148
419.000000	102.899009
418.000000	103.289502
417.000000	103.730004
416.000000	104.051216
415.000000	104.269597
414.000000	104.409262
413.000000	104.391722
412.000000	104.204627
411.000000	104.014304
410.000000	103.951679
409.000000	103.867491
408.000000	103.565608
407.000000	103.154091
406.000000	102.917778
405.000000	102.946350
404.000000	103.167945
403.000000	103.522422
402.000000	103.936867
401.000000	104.166599
400.000000	104.094396
