PE IR       SUBTECH     SPECTRUM    ASCII       PEDS        4.00        
   -1
23ms038-trans.asc
24/10/14
15:28:21.00
24/10/14
15:28:21.00
Administrator
Sample 1262 By Administrator Date Monday, October 14 2024
400.000000
#HDR
-1
-1
#GR
cm-1
%T
1.0
0.0
4000.000000
-1.000000
3601
8
109.857576
14.223426
#DATA
4000.000000	81.494883
3999.000000	81.428592
3998.000000	81.370627
3997.000000	81.324157
3996.000000	81.277286
3995.000000	81.215254
3994.000000	81.141308
3993.000000	81.075120
3992.000000	81.026684
3991.000000	80.981914
3990.000000	80.921480
3989.000000	80.845157
3988.000000	80.768238
3987.000000	80.700177
3986.000000	80.637143
3985.000000	80.572333
3984.000000	80.502735
3983.000000	80.425906
3982.000000	80.337188
3981.000000	80.235506
3980.000000	80.131432
3979.000000	80.043792
3978.000000	79.985578
3977.000000	79.957372
3976.000000	79.953106
3975.000000	79.966156
3974.000000	79.992504
3973.000000	80.035058
3972.000000	80.105068
3971.000000	80.208220
3970.000000	80.334830
3969.000000	80.464201
3968.000000	80.576957
3967.000000	80.667794
3966.000000	80.747537
3965.000000	80.833202
3964.000000	80.928796
3963.000000	81.013841
3962.000000	81.059245
3961.000000	81.061027
3960.000000	81.052694
3959.000000	81.064628
3958.000000	81.095388
3957.000000	81.127450
3956.000000	81.152183
3955.000000	81.177094
3954.000000	81.211811
3953.000000	81.267996
3952.000000	81.357910
3951.000000	81.486881
3950.000000	81.640937
3949.000000	81.772746
3948.000000	81.834354
3947.000000	81.855539
3946.000000	81.950382
3945.000000	82.195436
3944.000000	82.519175
3943.000000	82.753007
3942.000000	82.811420
3941.000000	82.788896
3940.000000	82.843298
3939.000000	82.996212
3938.000000	83.134205
3937.000000	83.184064
3936.000000	83.204551
3935.000000	83.299285
3934.000000	83.475824
3933.000000	83.644328
3932.000000	83.715436
3931.000000	83.670831
3930.000000	83.562807
3929.000000	83.471896
3928.000000	83.490502
3927.000000	83.662103
3926.000000	83.883242
3925.000000	83.962734
3924.000000	83.840267
3923.000000	83.670893
3922.000000	83.625506
3921.000000	83.707885
3920.000000	83.845267
3919.000000	84.013819
3918.000000	84.184007
3917.000000	84.260216
3916.000000	84.199965
3915.000000	84.118191
3914.000000	84.171954
3913.000000	84.358657
3912.000000	84.560087
3911.000000	84.662063
3910.000000	84.632591
3909.000000	84.532466
3908.000000	84.469032
3907.000000	84.541775
3906.000000	84.737100
3905.000000	84.893805
3904.000000	84.840916
3903.000000	84.633126
3902.000000	84.555753
3901.000000	84.767728
3900.000000	85.054837
3899.000000	85.113902
3898.000000	84.941488
3897.000000	84.767657
3896.000000	84.769684
3895.000000	84.962852
3894.000000	85.345888
3893.000000	85.858391
3892.000000	86.190944
3891.000000	85.922835
3890.000000	85.171356
3889.000000	84.698561
3888.000000	85.000135
3887.000000	85.757733
3886.000000	86.185341
3885.000000	85.818647
3884.000000	85.129932
3883.000000	84.964457
3882.000000	85.473817
3881.000000	86.065961
3880.000000	86.099415
3879.000000	85.559229
3878.000000	85.097471
3877.000000	85.213331
3876.000000	85.704758
3875.000000	85.979792
3874.000000	85.721288
3873.000000	85.330151
3872.000000	85.448676
3871.000000	86.011512
3870.000000	86.210301
3869.000000	85.599912
3868.000000	84.892549
3867.000000	84.943851
3866.000000	85.577016
3865.000000	86.086940
3864.000000	86.170025
3863.000000	85.992663
3862.000000	85.833663
3861.000000	85.747746
3860.000000	85.638749
3859.000000	85.450605
3858.000000	85.240729
3857.000000	85.200655
3856.000000	85.585003
3855.000000	86.462936
3854.000000	87.254734
3853.000000	86.765402
3852.000000	85.062616
3851.000000	83.910884
3850.000000	84.095125
3849.000000	84.885355
3848.000000	85.607109
3847.000000	86.109630
3846.000000	86.452741
3845.000000	86.662696
3844.000000	86.673973
3843.000000	86.421511
3842.000000	86.092609
3841.000000	85.998494
3840.000000	86.219835
3839.000000	86.522729
3838.000000	86.557371
3837.000000	86.194544
3836.000000	85.714069
3835.000000	85.551241
3834.000000	85.858214
3833.000000	86.375229
3832.000000	86.696249
3831.000000	86.662780
3830.000000	86.515504
3829.000000	86.592690
3828.000000	86.905698
3827.000000	87.057052
3826.000000	86.752173
3825.000000	86.290793
3824.000000	86.290069
3823.000000	86.939018
3822.000000	87.663699
3821.000000	87.507365
3820.000000	86.402023
3819.000000	85.639760
3818.000000	86.086334
3817.000000	87.144172
3816.000000	87.645533
3815.000000	87.161680
3814.000000	86.474895
3813.000000	86.366586
3812.000000	86.655572
3811.000000	86.908492
3810.000000	87.161275
3809.000000	87.655468
3808.000000	88.208522
3807.000000	88.143825
3806.000000	87.251216
3805.000000	86.417449
3804.000000	86.574293
3803.000000	87.562031
3802.000000	88.359664
3801.000000	88.056891
3800.000000	87.023040
3799.000000	86.545026
3798.000000	87.021568
3797.000000	87.763989
3796.000000	88.098346
3795.000000	88.008513
3794.000000	87.915675
3793.000000	88.048491
3792.000000	88.285216
3791.000000	88.458393
3790.000000	88.525107
3789.000000	88.530081
3788.000000	88.545459
3787.000000	88.630359
3786.000000	88.749317
3785.000000	88.746060
3784.000000	88.549473
3783.000000	88.353018
3782.000000	88.428835
3781.000000	88.772718
3780.000000	89.077611
3779.000000	89.039451
3778.000000	88.731361
3777.000000	88.512978
3776.000000	88.529560
3775.000000	88.586607
3774.000000	88.551690
3773.000000	88.580082
3772.000000	88.830818
3771.000000	89.123497
3770.000000	89.094942
3769.000000	88.703601
3768.000000	88.378111
3767.000000	88.455711
3766.000000	88.706865
3765.000000	88.681604
3764.000000	88.366000
3763.000000	88.189929
3762.000000	88.406656
3761.000000	88.778436
3760.000000	88.977175
3759.000000	88.890027
3758.000000	88.557754
3757.000000	88.107566
3756.000000	87.752666
3755.000000	87.686653
3754.000000	87.901951
3753.000000	88.239789
3752.000000	88.569503
3751.000000	88.679744
3750.000000	88.177258
3749.000000	87.101090
3748.000000	86.342774
3747.000000	86.766552
3746.000000	88.223998
3745.000000	89.607276
3744.000000	89.486295
3743.000000	87.992595
3742.000000	86.993806
3741.000000	87.196903
3740.000000	87.817745
3739.000000	88.337952
3738.000000	88.791474
3737.000000	89.210105
3736.000000	89.372316
3735.000000	89.227122
3734.000000	89.128200
3733.000000	89.257004
3732.000000	89.303712
3731.000000	89.063485
3730.000000	88.869981
3729.000000	89.114255
3728.000000	89.679364
3727.000000	90.119730
3726.000000	90.185101
3725.000000	90.068201
3724.000000	90.064962
3723.000000	90.175575
3722.000000	90.245352
3721.000000	90.222427
3720.000000	90.220069
3719.000000	90.297130
3718.000000	90.312701
3717.000000	90.163242
3716.000000	89.996450
3715.000000	90.045821
3714.000000	90.357984
3713.000000	90.746585
3712.000000	90.940394
3711.000000	90.763089
3710.000000	90.358022
3709.000000	90.071065
3708.000000	90.034064
3707.000000	90.140319
3706.000000	90.307417
3705.000000	90.572854
3704.000000	90.962405
3703.000000	91.355152
3702.000000	91.519522
3701.000000	91.317087
3700.000000	90.941930
3699.000000	90.778573
3698.000000	90.914595
3697.000000	91.074394
3696.000000	91.042022
3695.000000	90.884486
3694.000000	90.765619
3693.000000	90.725671
3692.000000	90.768561
3691.000000	90.956479
3690.000000	91.258846
3689.000000	91.349252
3688.000000	90.892916
3687.000000	90.193434
3686.000000	89.931309
3685.000000	90.246873
3684.000000	90.718829
3683.000000	91.026835
3682.000000	91.145591
3681.000000	91.091072
3680.000000	90.777580
3679.000000	90.373385
3678.000000	90.380383
3677.000000	90.981607
3676.000000	91.482803
3675.000000	90.833588
3674.000000	89.411790
3673.000000	88.815570
3672.000000	89.517631
3671.000000	90.609979
3670.000000	91.072848
3669.000000	90.616452
3668.000000	89.938265
3667.000000	89.773614
3666.000000	90.086012
3665.000000	90.478153
3664.000000	90.734514
3663.000000	90.838717
3662.000000	90.769698
3661.000000	90.522529
3660.000000	90.232901
3659.000000	90.165487
3658.000000	90.398623
3657.000000	90.594195
3656.000000	90.229147
3655.000000	89.314831
3654.000000	88.534869
3653.000000	88.364679
3652.000000	88.637830
3651.000000	88.967366
3650.000000	89.073398
3649.000000	88.805656
3648.000000	88.218019
3647.000000	87.582456
3646.000000	87.219297
3645.000000	87.258213
3644.000000	87.579756
3643.000000	87.917506
3642.000000	88.056606
3641.000000	87.991357
3640.000000	87.841870
3639.000000	87.662512
3638.000000	87.416200
3637.000000	87.155175
3636.000000	86.978888
3635.000000	86.787936
3634.000000	86.347000
3633.000000	85.699691
3632.000000	85.279059
3631.000000	85.419067
3630.000000	85.904991
3629.000000	85.948800
3628.000000	85.012344
3627.000000	83.805063
3626.000000	83.289140
3625.000000	83.374561
3624.000000	83.502612
3623.000000	83.478245
3622.000000	83.438533
3621.000000	83.467533
3620.000000	83.406923
3619.000000	83.003855
3618.000000	82.257832
3617.000000	81.560131
3616.000000	81.268116
3615.000000	81.309089
3614.000000	81.333809
3613.000000	81.102792
3612.000000	80.707720
3611.000000	80.427235
3610.000000	80.367818
3609.000000	80.343292
3608.000000	80.118689
3607.000000	79.693978
3606.000000	79.282516
3605.000000	79.040838
3604.000000	78.933189
3603.000000	78.854916
3602.000000	78.719660
3601.000000	78.465625
3600.000000	78.089886
3599.000000	77.687051
3598.000000	77.351519
3597.000000	77.116385
3596.000000	76.935769
3595.000000	76.700024
3594.000000	76.319462
3593.000000	75.821395
3592.000000	75.349787
3591.000000	75.049136
3590.000000	74.952500
3589.000000	74.948526
3588.000000	74.820985
3587.000000	74.406670
3586.000000	73.818030
3585.000000	73.354817
3584.000000	73.146065
3583.000000	73.085710
3582.000000	73.025276
3581.000000	72.898524
3580.000000	72.707410
3579.000000	72.478348
3578.000000	72.239444
3577.000000	72.009810
3576.000000	71.800901
3575.000000	71.595792
3574.000000	71.361489
3573.000000	71.075646
3572.000000	70.756552
3571.000000	70.475771
3570.000000	70.320272
3569.000000	70.304260
3568.000000	70.312751
3567.000000	70.171318
3566.000000	69.847710
3565.000000	69.531540
3564.000000	69.404930
3563.000000	69.452989
3562.000000	69.555771
3561.000000	69.626374
3560.000000	69.642880
3559.000000	69.614983
3558.000000	69.560970
3557.000000	69.498998
3556.000000	69.453953
3555.000000	69.448954
3554.000000	69.473994
3553.000000	69.473429
3552.000000	69.389786
3551.000000	69.239502
3550.000000	69.114000
3549.000000	69.080498
3548.000000	69.116849
3547.000000	69.151155
3546.000000	69.131987
3545.000000	69.064681
3544.000000	68.995926
3543.000000	68.961790
3542.000000	68.960913
3541.000000	68.968987
3540.000000	68.968226
3539.000000	68.958931
3538.000000	68.940381
3537.000000	68.902191
3536.000000	68.829001
3535.000000	68.726681
3534.000000	68.623105
3533.000000	68.539183
3532.000000	68.468257
3531.000000	68.390765
3530.000000	68.294358
3529.000000	68.168936
3528.000000	68.003640
3527.000000	67.809647
3526.000000	67.631779
3525.000000	67.504795
3524.000000	67.408742
3523.000000	67.289676
3522.000000	67.125944
3521.000000	66.950849
3520.000000	66.797108
3519.000000	66.649920
3518.000000	66.469950
3517.000000	66.249280
3516.000000	66.009916
3515.000000	65.761795
3514.000000	65.497873
3513.000000	65.226029
3512.000000	64.966844
3511.000000	64.717457
3510.000000	64.442885
3509.000000	64.115264
3508.000000	63.753123
3507.000000	63.407350
3506.000000	63.107612
3505.000000	62.836268
3504.000000	62.551866
3503.000000	62.228610
3502.000000	61.879315
3501.000000	61.543818
3500.000000	61.252440
3499.000000	61.002170
3498.000000	60.767833
3497.000000	60.528074
3496.000000	60.278980
3495.000000	60.029152
3494.000000	59.790374
3493.000000	59.573411
3492.000000	59.381880
3491.000000	59.211365
3490.000000	59.057223
3489.000000	58.916802
3488.000000	58.784569
3487.000000	58.657204
3486.000000	58.546726
3485.000000	58.476398
3484.000000	58.452232
3483.000000	58.449421
3482.000000	58.437952
3481.000000	58.417011
3480.000000	58.414076
3479.000000	58.452223
3478.000000	58.530930
3477.000000	58.633640
3476.000000	58.742137
3475.000000	58.843438
3474.000000	58.933946
3473.000000	59.020528
3472.000000	59.111104
3471.000000	59.205715
3470.000000	59.305091
3469.000000	59.418023
3468.000000	59.548947
3467.000000	59.687895
3466.000000	59.824359
3465.000000	59.962421
3464.000000	60.107429
3463.000000	60.248737
3462.000000	60.371916
3461.000000	60.482441
3460.000000	60.601061
3459.000000	60.737812
3458.000000	60.883421
3457.000000	61.026678
3456.000000	61.163369
3455.000000	61.295245
3454.000000	61.424906
3453.000000	61.549795
3452.000000	61.663544
3451.000000	61.769267
3450.000000	61.887049
3449.000000	62.030471
3448.000000	62.179536
3447.000000	62.297423
3446.000000	62.382814
3445.000000	62.480527
3444.000000	62.624187
3443.000000	62.793561
3442.000000	62.945435
3441.000000	63.067325
3440.000000	63.179484
3439.000000	63.297908
3438.000000	63.419475
3437.000000	63.540732
3436.000000	63.665808
3435.000000	63.797894
3434.000000	63.932630
3433.000000	64.061984
3432.000000	64.181966
3431.000000	64.294729
3430.000000	64.407398
3429.000000	64.525889
3428.000000	64.649323
3427.000000	64.770106
3426.000000	64.881806
3425.000000	64.987289
3424.000000	65.096285
3423.000000	65.214415
3422.000000	65.336185
3421.000000	65.451318
3420.000000	65.556420
3419.000000	65.659404
3418.000000	65.771613
3417.000000	65.895523
3416.000000	66.022906
3415.000000	66.144752
3414.000000	66.260386
3413.000000	66.375361
3412.000000	66.493216
3411.000000	66.613047
3410.000000	66.734281
3409.000000	66.858856
3408.000000	66.987749
3407.000000	67.117480
3406.000000	67.241591
3405.000000	67.356881
3404.000000	67.464772
3403.000000	67.568967
3402.000000	67.676240
3401.000000	67.799351
3400.000000	67.949381
3399.000000	68.119194
3398.000000	68.283514
3397.000000	68.422806
3396.000000	68.542703
3395.000000	68.662844
3394.000000	68.792978
3393.000000	68.928437
3392.000000	69.065018
3391.000000	69.207879
3390.000000	69.362806
3389.000000	69.526093
3388.000000	69.687936
3387.000000	69.842364
3386.000000	69.988805
3385.000000	70.128299
3384.000000	70.262012
3383.000000	70.393846
3382.000000	70.530369
3381.000000	70.675860
3380.000000	70.828047
3379.000000	70.979617
3378.000000	71.126395
3377.000000	71.271342
3376.000000	71.418679
3375.000000	71.565923
3374.000000	71.706407
3373.000000	71.838063
3372.000000	71.965655
3371.000000	72.096050
3370.000000	72.236327
3369.000000	72.394140
3368.000000	72.572146
3367.000000	72.762696
3366.000000	72.953575
3365.000000	73.139111
3364.000000	73.322281
3363.000000	73.507348
3362.000000	73.695141
3361.000000	73.885737
3360.000000	74.080685
3359.000000	74.281038
3358.000000	74.485737
3357.000000	74.691715
3356.000000	74.894519
3355.000000	75.089890
3354.000000	75.277904
3353.000000	75.465298
3352.000000	75.661110
3351.000000	75.869567
3350.000000	76.088466
3349.000000	76.312281
3348.000000	76.533558
3347.000000	76.745286
3346.000000	76.945213
3345.000000	77.138248
3344.000000	77.330809
3343.000000	77.521781
3342.000000	77.703393
3341.000000	77.871073
3340.000000	78.029189
3339.000000	78.185179
3338.000000	78.339785
3337.000000	78.484519
3336.000000	78.606901
3335.000000	78.698785
3334.000000	78.760312
3333.000000	78.794093
3332.000000	78.797557
3331.000000	78.761385
3330.000000	78.675784
3329.000000	78.536673
3328.000000	78.343540
3327.000000	78.097507
3326.000000	77.799584
3325.000000	77.448026
3324.000000	77.036887
3323.000000	76.554527
3322.000000	75.990936
3321.000000	75.341501
3320.000000	74.599351
3319.000000	73.751300
3318.000000	72.779066
3317.000000	71.667857
3316.000000	70.404328
3315.000000	68.967056
3314.000000	67.334082
3313.000000	65.494198
3312.000000	63.454262
3311.000000	61.235788
3310.000000	58.867444
3309.000000	56.390274
3308.000000	53.856445
3307.000000	51.321413
3306.000000	48.838193
3305.000000	46.451454
3304.000000	44.193237
3303.000000	42.084662
3302.000000	40.144664
3301.000000	38.395396
3300.000000	36.858503
3299.000000	35.545473
3298.000000	34.463062
3297.000000	33.618433
3296.000000	33.004795
3295.000000	32.593441
3294.000000	32.334768
3293.000000	32.171854
3292.000000	32.050965
3291.000000	31.923031
3290.000000	31.757672
3289.000000	31.549205
3288.000000	31.310631
3287.000000	31.064019
3286.000000	30.832833
3285.000000	30.636144
3284.000000	30.477825
3283.000000	30.343205
3282.000000	30.210130
3281.000000	30.060745
3280.000000	29.879827
3279.000000	29.651215
3278.000000	29.364938
3277.000000	29.024380
3276.000000	28.641366
3275.000000	28.227420
3274.000000	27.796716
3273.000000	27.373497
3272.000000	26.989658
3271.000000	26.676152
3270.000000	26.461638
3269.000000	26.372158
3268.000000	26.424944
3267.000000	26.627377
3266.000000	26.978019
3265.000000	27.467421
3264.000000	28.070494
3263.000000	28.740319
3262.000000	29.418909
3261.000000	30.047163
3260.000000	30.565309
3259.000000	30.915657
3258.000000	31.057040
3257.000000	30.970500
3256.000000	30.654096
3255.000000	30.110775
3254.000000	29.346981
3253.000000	28.381734
3252.000000	27.233719
3251.000000	25.916998
3250.000000	24.448891
3249.000000	22.861755
3248.000000	21.208772
3247.000000	19.555618
3246.000000	17.981678
3245.000000	16.581829
3244.000000	15.453435
3243.000000	14.669630
3242.000000	14.265215
3241.000000	14.223426
3240.000000	14.468347
3239.000000	14.886162
3238.000000	15.358803
3237.000000	15.798888
3236.000000	16.156943
3235.000000	16.414718
3234.000000	16.581890
3233.000000	16.681790
3232.000000	16.732517
3231.000000	16.740615
3230.000000	16.715100
3229.000000	16.678058
3228.000000	16.657061
3227.000000	16.675588
3226.000000	16.755077
3225.000000	16.917184
3224.000000	17.175661
3223.000000	17.528776
3222.000000	17.965414
3221.000000	18.470551
3220.000000	19.018942
3219.000000	19.573994
3218.000000	20.100052
3217.000000	20.572731
3216.000000	20.974305
3215.000000	21.290467
3214.000000	21.519695
3213.000000	21.680029
3212.000000	21.797783
3211.000000	21.894427
3210.000000	21.989449
3209.000000	22.105008
3208.000000	22.260265
3207.000000	22.464559
3206.000000	22.721856
3205.000000	23.035754
3204.000000	23.405792
3203.000000	23.823937
3202.000000	24.280937
3201.000000	24.772217
3200.000000	25.291344
3199.000000	25.825973
3198.000000	26.363934
3197.000000	26.898818
3196.000000	27.425678
3195.000000	27.936581
3194.000000	28.424915
3193.000000	28.887977
3192.000000	29.321352
3191.000000	29.715476
3190.000000	30.063985
3189.000000	30.369110
3188.000000	30.635942
3187.000000	30.867081
3186.000000	31.065986
3185.000000	31.241239
3184.000000	31.400156
3183.000000	31.544712
3182.000000	31.677418
3181.000000	31.803225
3180.000000	31.922975
3179.000000	32.030846
3178.000000	32.124452
3177.000000	32.212593
3176.000000	32.308521
3175.000000	32.421496
3174.000000	32.558556
3173.000000	32.728325
3172.000000	32.936757
3171.000000	33.185393
3170.000000	33.476643
3169.000000	33.816312
3168.000000	34.207748
3167.000000	34.646103
3166.000000	35.124975
3165.000000	35.641142
3164.000000	36.190813
3163.000000	36.768987
3162.000000	37.373416
3161.000000	38.003813
3160.000000	38.651048
3159.000000	39.293082
3158.000000	39.902658
3157.000000	40.453163
3156.000000	40.914532
3155.000000	41.252887
3154.000000	41.440167
3153.000000	41.459515
3152.000000	41.308625
3151.000000	41.003606
3150.000000	40.586262
3149.000000	40.119158
3148.000000	39.659487
3147.000000	39.239641
3146.000000	38.863589
3145.000000	38.511001
3144.000000	38.142448
3143.000000	37.709303
3142.000000	37.174435
3141.000000	36.523970
3140.000000	35.761496
3139.000000	34.901463
3138.000000	33.969895
3137.000000	33.005780
3136.000000	32.050508
3135.000000	31.138547
3134.000000	30.301133
3133.000000	29.570530
3132.000000	28.973394
3131.000000	28.525396
3130.000000	28.236891
3129.000000	28.111277
3128.000000	28.139936
3127.000000	28.302731
3126.000000	28.580288
3125.000000	28.960635
3124.000000	29.426082
3123.000000	29.952738
3122.000000	30.522354
3121.000000	31.127813
3120.000000	31.764446
3119.000000	32.419994
3118.000000	33.081793
3117.000000	33.742400
3116.000000	34.393149
3115.000000	35.019234
3114.000000	35.606307
3113.000000	36.145029
3112.000000	36.625190
3111.000000	37.035159
3110.000000	37.368416
3109.000000	37.626090
3108.000000	37.806391
3107.000000	37.901072
3106.000000	37.908092
3105.000000	37.836190
3104.000000	37.699776
3103.000000	37.514878
3102.000000	37.304840
3101.000000	37.103394
3100.000000	36.946966
3099.000000	36.867488
3098.000000	36.891466
3097.000000	37.038272
3096.000000	37.311422
3095.000000	37.701126
3094.000000	38.194622
3093.000000	38.780236
3092.000000	39.442008
3091.000000	40.156420
3090.000000	40.902545
3089.000000	41.665377
3088.000000	42.429933
3087.000000	43.180898
3086.000000	43.909698
3085.000000	44.615808
3084.000000	45.297210
3083.000000	45.946829
3082.000000	46.559816
3081.000000	47.138693
3080.000000	47.687796
3079.000000	48.209251
3078.000000	48.707132
3077.000000	49.187863
3076.000000	49.654044
3075.000000	50.102572
3074.000000	50.531968
3073.000000	50.945370
3072.000000	51.344644
3071.000000	51.728711
3070.000000	52.099065
3069.000000	52.461859
3068.000000	52.821904
3067.000000	53.178269
3066.000000	53.527849
3065.000000	53.869046
3064.000000	54.201377
3063.000000	54.525166
3062.000000	54.841711
3061.000000	55.151722
3060.000000	55.453332
3059.000000	55.744614
3058.000000	56.027051
3057.000000	56.302851
3056.000000	56.570283
3055.000000	56.826041
3054.000000	57.071628
3053.000000	57.312226
3052.000000	57.549943
3051.000000	57.782375
3050.000000	58.006505
3049.000000	58.220264
3048.000000	58.421548
3047.000000	58.610057
3046.000000	58.790099
3045.000000	58.967082
3044.000000	59.141895
3043.000000	59.312552
3042.000000	59.480215
3041.000000	59.648538
3040.000000	59.816800
3039.000000	59.980286
3038.000000	60.137488
3037.000000	60.291927
3036.000000	60.447492
3035.000000	60.606542
3034.000000	60.772620
3033.000000	60.948500
3032.000000	61.129750
3031.000000	61.307368
3030.000000	61.479306
3029.000000	61.652682
3028.000000	61.832128
3027.000000	62.013274
3026.000000	62.191346
3025.000000	62.368971
3024.000000	62.551009
3023.000000	62.737047
3022.000000	62.923411
3021.000000	63.108774
3020.000000	63.294220
3019.000000	63.479968
3018.000000	63.664330
3017.000000	63.844686
3016.000000	64.018096
3015.000000	64.182696
3014.000000	64.338842
3013.000000	64.487402
3012.000000	64.626423
3011.000000	64.750439
3010.000000	64.853640
3009.000000	64.930563
3008.000000	64.973813
3007.000000	64.974074
3006.000000	64.921899
3005.000000	64.810037
3004.000000	64.633314
3003.000000	64.390325
3002.000000	64.084770
3001.000000	63.718946
3000.000000	63.285097
2999.000000	62.760166
2998.000000	62.118780
2997.000000	61.366177
2996.000000	60.574034
2995.000000	59.884010
2994.000000	59.451488
2993.000000	59.359843
2992.000000	59.570598
2991.000000	59.957382
2990.000000	60.385029
2989.000000	60.765142
2988.000000	61.062257
2987.000000	61.274586
2986.000000	61.420167
2985.000000	61.525012
2984.000000	61.612198
2983.000000	61.697995
2982.000000	61.796193
2981.000000	61.916840
2980.000000	62.055334
2979.000000	62.188132
2978.000000	62.287596
2977.000000	62.346362
2976.000000	62.392758
2975.000000	62.485635
2974.000000	62.686214
2973.000000	63.020080
2972.000000	63.456651
2971.000000	63.925302
2970.000000	64.351029
2969.000000	64.679218
2968.000000	64.876771
2967.000000	64.926601
2966.000000	64.825504
2965.000000	64.580176
2964.000000	64.201093
2963.000000	63.697085
2962.000000	63.078420
2961.000000	62.354497
2960.000000	61.523242
2959.000000	60.563315
2958.000000	59.444608
2957.000000	58.167950
2956.000000	56.813543
2955.000000	55.560360
2954.000000	54.627147
2953.000000	54.152842
2952.000000	54.106433
2951.000000	54.313593
2950.000000	54.579397
2949.000000	54.793236
2948.000000	54.951994
2947.000000	55.115420
2946.000000	55.348652
2945.000000	55.677190
2944.000000	56.068822
2943.000000	56.457714
2942.000000	56.793248
2941.000000	57.075494
2940.000000	57.352026
2939.000000	57.690360
2938.000000	58.149976
2937.000000	58.761063
2936.000000	59.514145
2935.000000	60.369244
2934.000000	61.277652
2933.000000	62.196447
2932.000000	63.089545
2931.000000	63.929587
2930.000000	64.703170
2929.000000	65.408504
2928.000000	66.046403
2927.000000	66.617606
2926.000000	67.128938
2925.000000	67.592271
2924.000000	68.015223
2923.000000	68.397797
2922.000000	68.739348
2921.000000	69.042602
2920.000000	69.309204
2919.000000	69.538790
2918.000000	69.733345
2917.000000	69.897900
2916.000000	70.036052
2915.000000	70.149573
2914.000000	70.243311
2913.000000	70.324052
2912.000000	70.394284
2911.000000	70.452745
2910.000000	70.500603
2909.000000	70.542841
2908.000000	70.582712
2907.000000	70.619874
2906.000000	70.655670
2905.000000	70.694116
2904.000000	70.736566
2903.000000	70.780399
2902.000000	70.824067
2901.000000	70.868291
2900.000000	70.910854
2899.000000	70.945692
2898.000000	70.968066
2897.000000	70.975140
2896.000000	70.960979
2895.000000	70.916716
2894.000000	70.837508
2893.000000	70.724961
2892.000000	70.581223
2891.000000	70.405967
2890.000000	70.200516
2889.000000	69.970492
2888.000000	69.722859
2887.000000	69.465234
2886.000000	69.209420
2885.000000	68.970264
2884.000000	68.759530
2883.000000	68.583740
2882.000000	68.448747
2881.000000	68.361038
2880.000000	68.322640
2879.000000	68.329958
2878.000000	68.378384
2877.000000	68.463692
2876.000000	68.578517
2875.000000	68.713373
2874.000000	68.862266
2873.000000	69.022406
2872.000000	69.187510
2871.000000	69.347426
2870.000000	69.497468
2869.000000	69.643950
2868.000000	69.799471
2867.000000	69.976217
2866.000000	70.183106
2865.000000	70.422284
2864.000000	70.685236
2863.000000	70.956838
2862.000000	71.225377
2861.000000	71.486146
2860.000000	71.736544
2859.000000	71.973627
2858.000000	72.197837
2857.000000	72.413838
2856.000000	72.625369
2855.000000	72.833027
2854.000000	73.037141
2853.000000	73.237898
2852.000000	73.431717
2851.000000	73.612159
2850.000000	73.775885
2849.000000	73.924154
2848.000000	74.058392
2847.000000	74.178941
2846.000000	74.289157
2845.000000	74.395926
2844.000000	74.504599
2843.000000	74.616640
2842.000000	74.733190
2841.000000	74.857728
2840.000000	74.993818
2839.000000	75.142890
2838.000000	75.304552
2837.000000	75.476205
2836.000000	75.652493
2835.000000	75.828280
2834.000000	76.002277
2833.000000	76.175196
2832.000000	76.345194
2831.000000	76.508441
2830.000000	76.663625
2829.000000	76.812173
2828.000000	76.954234
2827.000000	77.088350
2826.000000	77.214928
2825.000000	77.336226
2824.000000	77.452756
2823.000000	77.563020
2822.000000	77.666950
2821.000000	77.766176
2820.000000	77.860634
2819.000000	77.948410
2818.000000	78.029231
2817.000000	78.105037
2816.000000	78.176985
2815.000000	78.244801
2814.000000	78.309208
2813.000000	78.372196
2812.000000	78.434955
2811.000000	78.498385
2810.000000	78.564995
2809.000000	78.636993
2808.000000	78.712819
2807.000000	78.788760
2806.000000	78.863561
2805.000000	78.938269
2804.000000	79.012113
2803.000000	79.082432
2802.000000	79.148790
2801.000000	79.213707
2800.000000	79.279227
2799.000000	79.345751
2798.000000	79.413928
2797.000000	79.484218
2796.000000	79.554515
2795.000000	79.621378
2794.000000	79.683719
2793.000000	79.742573
2792.000000	79.797858
2791.000000	79.848652
2790.000000	79.896177
2789.000000	79.942953
2788.000000	79.989146
2787.000000	80.033148
2786.000000	80.075752
2785.000000	80.120503
2784.000000	80.169781
2783.000000	80.223640
2782.000000	80.282341
2781.000000	80.346607
2780.000000	80.415210
2779.000000	80.485373
2778.000000	80.555823
2777.000000	80.626964
2776.000000	80.698194
2775.000000	80.767657
2774.000000	80.834390
2773.000000	80.898029
2772.000000	80.956896
2771.000000	81.009276
2770.000000	81.056032
2769.000000	81.099133
2768.000000	81.138345
2767.000000	81.172151
2766.000000	81.201400
2765.000000	81.228848
2764.000000	81.255485
2763.000000	81.280422
2762.000000	81.303776
2761.000000	81.326535
2760.000000	81.347849
2759.000000	81.365390
2758.000000	81.378206
2757.000000	81.386313
2756.000000	81.388161
2755.000000	81.381629
2754.000000	81.367143
2753.000000	81.347065
2752.000000	81.322365
2751.000000	81.293012
2750.000000	81.261424
2749.000000	81.232465
2748.000000	81.210199
2747.000000	81.197388
2746.000000	81.197390
2745.000000	81.213472
2744.000000	81.246597
2743.000000	81.295883
2742.000000	81.360307
2741.000000	81.436983
2740.000000	81.518679
2739.000000	81.597046
2738.000000	81.667973
2737.000000	81.731472
2736.000000	81.788155
2735.000000	81.839401
2734.000000	81.889850
2733.000000	81.945137
2732.000000	82.006423
2731.000000	82.069960
2730.000000	82.131796
2729.000000	82.189979
2728.000000	82.242845
2727.000000	82.288603
2726.000000	82.326909
2725.000000	82.358639
2724.000000	82.384264
2723.000000	82.404757
2722.000000	82.422955
2721.000000	82.441149
2720.000000	82.458451
2719.000000	82.473369
2718.000000	82.488106
2717.000000	82.507415
2716.000000	82.534001
2715.000000	82.567915
2714.000000	82.609449
2713.000000	82.659013
2712.000000	82.714437
2711.000000	82.771469
2710.000000	82.826466
2709.000000	82.876421
2708.000000	82.917873
2707.000000	82.949116
2706.000000	82.972860
2705.000000	82.993906
2704.000000	83.014918
2703.000000	83.036856
2702.000000	83.061897
2701.000000	83.092211
2700.000000	83.126702
2699.000000	83.162154
2698.000000	83.196810
2697.000000	83.230073
2696.000000	83.259970
2695.000000	83.284441
2694.000000	83.304346
2693.000000	83.322168
2692.000000	83.338634
2691.000000	83.353358
2690.000000	83.367521
2689.000000	83.382524
2688.000000	83.397003
2687.000000	83.408672
2686.000000	83.418110
2685.000000	83.427550
2684.000000	83.437054
2683.000000	83.445353
2682.000000	83.453464
2681.000000	83.463763
2680.000000	83.476156
2679.000000	83.488652
2678.000000	83.501102
2677.000000	83.515013
2676.000000	83.530564
2675.000000	83.547291
2674.000000	83.567118
2673.000000	83.593411
2672.000000	83.627295
2671.000000	83.668187
2670.000000	83.717070
2669.000000	83.775601
2668.000000	83.842745
2667.000000	83.915184
2666.000000	83.990742
2665.000000	84.068453
2664.000000	84.146005
2663.000000	84.220771
2662.000000	84.292642
2661.000000	84.362832
2660.000000	84.430613
2659.000000	84.494156
2658.000000	84.553704
2657.000000	84.610891
2656.000000	84.665663
2655.000000	84.716846
2654.000000	84.764962
2653.000000	84.810773
2652.000000	84.851879
2651.000000	84.883869
2650.000000	84.904537
2649.000000	84.914844
2648.000000	84.916417
2647.000000	84.911359
2646.000000	84.903934
2645.000000	84.899233
2644.000000	84.900457
2643.000000	84.909463
2642.000000	84.928489
2641.000000	84.958512
2640.000000	84.997100
2639.000000	85.040699
2638.000000	85.088466
2637.000000	85.141029
2636.000000	85.196838
2635.000000	85.253139
2634.000000	85.309039
2633.000000	85.364528
2632.000000	85.417615
2631.000000	85.465947
2630.000000	85.510776
2629.000000	85.556156
2628.000000	85.604852
2627.000000	85.657630
2626.000000	85.715224
2625.000000	85.777450
2624.000000	85.840948
2623.000000	85.900926
2622.000000	85.954807
2621.000000	86.001965
2620.000000	86.040944
2619.000000	86.070207
2618.000000	86.090624
2617.000000	86.104253
2616.000000	86.111686
2615.000000	86.112832
2614.000000	86.109522
2613.000000	86.104324
2612.000000	86.097457
2611.000000	86.088119
2610.000000	86.077654
2609.000000	86.068540
2608.000000	86.060964
2607.000000	86.053218
2606.000000	86.044918
2605.000000	86.037054
2604.000000	86.029666
2603.000000	86.022277
2602.000000	86.015928
2601.000000	86.012020
2600.000000	86.009868
2599.000000	86.007850
2598.000000	86.005990
2597.000000	86.004791
2596.000000	86.002636
2595.000000	85.997204
2594.000000	85.988646
2593.000000	85.978725
2592.000000	85.967715
2591.000000	85.954817
2590.000000	85.940621
2589.000000	85.926595
2588.000000	85.913209
2587.000000	85.901041
2586.000000	85.892371
2585.000000	85.888937
2584.000000	85.889381
2583.000000	85.891587
2582.000000	85.896545
2581.000000	85.907056
2580.000000	85.924173
2579.000000	85.947863
2578.000000	85.979167
2577.000000	86.018650
2576.000000	86.063625
2575.000000	86.110323
2574.000000	86.158176
2573.000000	86.208749
2572.000000	86.262056
2571.000000	86.316720
2570.000000	86.372582
2569.000000	86.430145
2568.000000	86.488177
2567.000000	86.545020
2566.000000	86.601339
2565.000000	86.658823
2564.000000	86.717363
2563.000000	86.776148
2562.000000	86.836399
2561.000000	86.900003
2560.000000	86.966352
2559.000000	87.033345
2558.000000	87.100539
2557.000000	87.168864
2556.000000	87.238326
2555.000000	87.308311
2554.000000	87.378975
2553.000000	87.449857
2552.000000	87.518495
2551.000000	87.582852
2550.000000	87.643816
2549.000000	87.702924
2548.000000	87.759385
2547.000000	87.811668
2546.000000	87.860182
2545.000000	87.905977
2544.000000	87.948299
2543.000000	87.986407
2542.000000	88.022086
2541.000000	88.057374
2540.000000	88.091452
2539.000000	88.122157
2538.000000	88.149215
2537.000000	88.173371
2536.000000	88.193881
2535.000000	88.210065
2534.000000	88.223787
2533.000000	88.237913
2532.000000	88.253656
2531.000000	88.271716
2530.000000	88.294082
2529.000000	88.321604
2528.000000	88.351260
2527.000000	88.378708
2526.000000	88.402128
2525.000000	88.421205
2524.000000	88.434235
2523.000000	88.439407
2522.000000	88.437658
2521.000000	88.430917
2520.000000	88.419069
2519.000000	88.400785
2518.000000	88.375841
2517.000000	88.344217
2516.000000	88.303963
2515.000000	88.253601
2514.000000	88.195120
2513.000000	88.132119
2512.000000	88.066785
2511.000000	88.000787
2510.000000	87.937580
2509.000000	87.880513
2508.000000	87.829851
2507.000000	87.784265
2506.000000	87.743712
2505.000000	87.708023
2504.000000	87.674685
2503.000000	87.641536
2502.000000	87.609918
2501.000000	87.582731
2500.000000	87.560905
2499.000000	87.544968
2498.000000	87.538573
2497.000000	87.545901
2496.000000	87.567324
2495.000000	87.600307
2494.000000	87.643114
2493.000000	87.694841
2492.000000	87.752535
2491.000000	87.812580
2490.000000	87.873628
2489.000000	87.935312
2488.000000	87.995903
2487.000000	88.054065
2486.000000	88.112004
2485.000000	88.173638
2484.000000	88.240477
2483.000000	88.311990
2482.000000	88.388031
2481.000000	88.467998
2480.000000	88.549100
2479.000000	88.628491
2478.000000	88.705881
2477.000000	88.781381
2476.000000	88.852668
2475.000000	88.917252
2474.000000	88.976092
2473.000000	89.031674
2472.000000	89.084246
2471.000000	89.132576
2470.000000	89.176622
2469.000000	89.216652
2468.000000	89.250689
2467.000000	89.276294
2466.000000	89.293491
2465.000000	89.303048
2464.000000	89.303910
2463.000000	89.294599
2462.000000	89.276262
2461.000000	89.251582
2460.000000	89.221725
2459.000000	89.187526
2458.000000	89.151525
2457.000000	89.116465
2456.000000	89.083146
2455.000000	89.052369
2454.000000	89.027300
2453.000000	89.010916
2452.000000	89.002780
2451.000000	89.001023
2450.000000	89.006221
2449.000000	89.019802
2448.000000	89.040761
2447.000000	89.066914
2446.000000	89.097700
2445.000000	89.133200
2444.000000	89.171546
2443.000000	89.210845
2442.000000	89.252035
2441.000000	89.296658
2440.000000	89.343717
2439.000000	89.391399
2438.000000	89.440382
2437.000000	89.492359
2436.000000	89.546802
2435.000000	89.602355
2434.000000	89.659433
2433.000000	89.718198
2432.000000	89.775422
2431.000000	89.826720
2430.000000	89.870417
2429.000000	89.906509
2428.000000	89.933659
2427.000000	89.950322
2426.000000	89.957877
2425.000000	89.958995
2424.000000	89.954701
2423.000000	89.945854
2422.000000	89.935606
2421.000000	89.927280
2420.000000	89.920674
2419.000000	89.913956
2418.000000	89.907919
2417.000000	89.905286
2416.000000	89.907128
2415.000000	89.913245
2414.000000	89.924580
2413.000000	89.941504
2412.000000	89.960604
2411.000000	89.976454
2410.000000	89.986015
2409.000000	89.988593
2408.000000	89.983085
2407.000000	89.968665
2406.000000	89.947715
2405.000000	89.924700
2404.000000	89.902390
2403.000000	89.881657
2402.000000	89.863211
2401.000000	89.846397
2400.000000	89.826781
2399.000000	89.797704
2398.000000	89.754205
2397.000000	89.692485
2396.000000	89.607655
2395.000000	89.495770
2394.000000	89.357164
2393.000000	89.195911
2392.000000	89.015873
2391.000000	88.821078
2390.000000	88.618450
2389.000000	88.415548
2388.000000	88.217367
2387.000000	88.026771
2386.000000	87.849038
2385.000000	87.692466
2384.000000	87.563487
2383.000000	87.467383
2382.000000	87.410368
2381.000000	87.398385
2380.000000	87.431469
2379.000000	87.498750
2378.000000	87.586683
2377.000000	87.682100
2376.000000	87.769395
2375.000000	87.833290
2374.000000	87.862903
2373.000000	87.862717
2372.000000	87.843544
2371.000000	87.810856
2370.000000	87.766461
2369.000000	87.727688
2368.000000	87.709857
2367.000000	87.701540
2366.000000	87.693916
2365.000000	87.710471
2364.000000	87.745828
2363.000000	87.775907
2362.000000	87.799299
2361.000000	87.814254
2360.000000	87.848781
2359.000000	87.896624
2358.000000	87.921848
2357.000000	87.920639
2356.000000	87.849306
2355.000000	87.699375
2354.000000	87.517974
2353.000000	87.498119
2352.000000	87.773016
2351.000000	88.186567
2350.000000	88.487320
2349.000000	88.506408
2348.000000	88.339891
2347.000000	88.199753
2346.000000	88.184546
2345.000000	88.292755
2344.000000	88.373761
2343.000000	88.422589
2342.000000	88.454803
2341.000000	88.488665
2340.000000	88.523031
2339.000000	88.541754
2338.000000	88.580422
2337.000000	88.646414
2336.000000	88.756211
2335.000000	88.861385
2334.000000	88.956487
2333.000000	89.012001
2332.000000	89.091650
2331.000000	89.149611
2330.000000	89.265149
2329.000000	89.375229
2328.000000	89.489017
2327.000000	89.543189
2326.000000	89.535402
2325.000000	89.502845
2324.000000	89.449347
2323.000000	89.393042
2322.000000	89.319073
2321.000000	89.232468
2320.000000	89.153132
2319.000000	89.065321
2318.000000	88.982007
2317.000000	88.849509
2316.000000	88.689170
2315.000000	88.470150
2314.000000	88.250146
2313.000000	88.006211
2312.000000	87.777004
2311.000000	87.528030
2310.000000	87.289585
2309.000000	87.036319
2308.000000	86.791039
2307.000000	86.536413
2306.000000	86.295632
2305.000000	86.056548
2304.000000	85.836283
2303.000000	85.625541
2302.000000	85.453093
2301.000000	85.312813
2300.000000	85.219924
2299.000000	85.155780
2298.000000	85.130101
2297.000000	85.123563
2296.000000	85.133163
2295.000000	85.140066
2294.000000	85.144936
2293.000000	85.142267
2292.000000	85.130398
2291.000000	85.107089
2290.000000	85.073520
2289.000000	85.031943
2288.000000	84.978841
2287.000000	84.915900
2286.000000	84.844234
2285.000000	84.765756
2284.000000	84.674700
2283.000000	84.573554
2282.000000	84.472340
2281.000000	84.385947
2280.000000	84.322779
2279.000000	84.289248
2278.000000	84.291705
2277.000000	84.330246
2276.000000	84.399936
2275.000000	84.494978
2274.000000	84.617846
2273.000000	84.769530
2272.000000	84.945520
2271.000000	85.137364
2270.000000	85.339813
2269.000000	85.547657
2268.000000	85.754619
2267.000000	85.956122
2266.000000	86.153617
2265.000000	86.346963
2264.000000	86.531935
2263.000000	86.705880
2262.000000	86.869914
2261.000000	87.027855
2260.000000	87.178276
2259.000000	87.322694
2258.000000	87.465715
2257.000000	87.612161
2256.000000	87.763836
2255.000000	87.922986
2254.000000	88.096813
2253.000000	88.287971
2252.000000	88.493956
2251.000000	88.708924
2250.000000	88.931125
2249.000000	89.156034
2248.000000	89.376955
2247.000000	89.588671
2246.000000	89.791837
2245.000000	89.987250
2244.000000	90.172521
2243.000000	90.346772
2242.000000	90.513057
2241.000000	90.673460
2240.000000	90.825221
2239.000000	90.965969
2238.000000	91.096739
2237.000000	91.217872
2236.000000	91.325995
2235.000000	91.418697
2234.000000	91.497562
2233.000000	91.564723
2232.000000	91.620343
2231.000000	91.666121
2230.000000	91.706144
2229.000000	91.741850
2228.000000	91.770952
2227.000000	91.792401
2226.000000	91.808392
2225.000000	91.818706
2224.000000	91.819503
2223.000000	91.809598
2222.000000	91.793513
2221.000000	91.775880
2220.000000	91.758086
2219.000000	91.742508
2218.000000	91.734437
2217.000000	91.736761
2216.000000	91.747294
2215.000000	91.763631
2214.000000	91.785488
2213.000000	91.810227
2212.000000	91.831834
2211.000000	91.847567
2210.000000	91.861107
2209.000000	91.876953
2208.000000	91.896480
2207.000000	91.921102
2206.000000	91.953085
2205.000000	91.990252
2204.000000	92.025116
2203.000000	92.052183
2202.000000	92.071896
2201.000000	92.086586
2200.000000	92.099133
2199.000000	92.118212
2198.000000	92.157670
2197.000000	92.226226
2196.000000	92.321430
2195.000000	92.435415
2194.000000	92.560703
2193.000000	92.688278
2192.000000	92.807459
2191.000000	92.911934
2190.000000	93.001641
2189.000000	93.076319
2188.000000	93.132796
2187.000000	93.171284
2186.000000	93.198149
2185.000000	93.219669
2184.000000	93.237682
2183.000000	93.253478
2182.000000	93.269841
2181.000000	93.286540
2180.000000	93.299408
2179.000000	93.306527
2178.000000	93.310357
2177.000000	93.311667
2176.000000	93.307445
2175.000000	93.297158
2174.000000	93.285221
2173.000000	93.274769
2172.000000	93.264714
2171.000000	93.255274
2170.000000	93.250133
2169.000000	93.250470
2168.000000	93.252652
2167.000000	93.254617
2166.000000	93.258733
2165.000000	93.265744
2164.000000	93.272173
2163.000000	93.276932
2162.000000	93.284543
2161.000000	93.298868
2160.000000	93.319274
2159.000000	93.345515
2158.000000	93.379982
2157.000000	93.421893
2156.000000	93.465194
2155.000000	93.505359
2154.000000	93.543034
2153.000000	93.578634
2152.000000	93.609740
2151.000000	93.636534
2150.000000	93.663776
2149.000000	93.694304
2148.000000	93.726160
2147.000000	93.758681
2146.000000	93.794976
2145.000000	93.835587
2144.000000	93.876239
2143.000000	93.914824
2142.000000	93.954004
2141.000000	93.994700
2140.000000	94.032902
2139.000000	94.065517
2138.000000	94.093254
2137.000000	94.115739
2136.000000	94.130273
2135.000000	94.138087
2134.000000	94.145683
2133.000000	94.157187
2132.000000	94.170834
2131.000000	94.184367
2130.000000	94.197532
2129.000000	94.207220
2128.000000	94.207095
2127.000000	94.194931
2126.000000	94.174534
2125.000000	94.148233
2124.000000	94.114089
2123.000000	94.072238
2122.000000	94.026830
2121.000000	93.979254
2120.000000	93.926529
2119.000000	93.868605
2118.000000	93.810567
2117.000000	93.755163
2116.000000	93.699696
2115.000000	93.642850
2114.000000	93.587777
2113.000000	93.536086
2112.000000	93.485523
2111.000000	93.436157
2110.000000	93.392362
2109.000000	93.356317
2108.000000	93.326014
2107.000000	93.302065
2106.000000	93.289615
2105.000000	93.291092
2104.000000	93.303560
2103.000000	93.324917
2102.000000	93.356000
2101.000000	93.393957
2100.000000	93.431236
2099.000000	93.463840
2098.000000	93.494064
2097.000000	93.523798
2096.000000	93.551731
2095.000000	93.580432
2094.000000	93.617414
2093.000000	93.665422
2092.000000	93.719684
2091.000000	93.777340
2090.000000	93.841812
2089.000000	93.915900
2088.000000	93.998621
2087.000000	94.091866
2086.000000	94.200847
2085.000000	94.324792
2084.000000	94.455620
2083.000000	94.587499
2082.000000	94.719212
2081.000000	94.846139
2080.000000	94.959989
2079.000000	95.059439
2078.000000	95.151553
2077.000000	95.240119
2076.000000	95.321526
2075.000000	95.395180
2074.000000	95.466610
2073.000000	95.537531
2072.000000	95.603881
2071.000000	95.663821
2070.000000	95.721327
2069.000000	95.778779
2068.000000	95.834043
2067.000000	95.887510
2066.000000	95.943504
2065.000000	96.002767
2064.000000	96.061660
2063.000000	96.120596
2062.000000	96.183498
2061.000000	96.247578
2060.000000	96.303424
2059.000000	96.347343
2058.000000	96.384399
2057.000000	96.417323
2056.000000	96.443449
2055.000000	96.464634
2054.000000	96.489309
2053.000000	96.521934
2052.000000	96.560277
2051.000000	96.602893
2050.000000	96.652046
2049.000000	96.707414
2048.000000	96.763755
2047.000000	96.817596
2046.000000	96.871405
2045.000000	96.926918
2044.000000	96.980765
2043.000000	97.030360
2042.000000	97.077266
2041.000000	97.121217
2040.000000	97.158148
2039.000000	97.187570
2038.000000	97.213563
2037.000000	97.236341
2036.000000	97.251466
2035.000000	97.260879
2034.000000	97.275241
2033.000000	97.301000
2032.000000	97.335376
2031.000000	97.378000
2030.000000	97.435556
2029.000000	97.509673
2028.000000	97.590513
2027.000000	97.666590
2026.000000	97.734505
2025.000000	97.792267
2024.000000	97.835076
2023.000000	97.859670
2022.000000	97.870467
2021.000000	97.874223
2020.000000	97.872340
2019.000000	97.864310
2018.000000	97.853209
2017.000000	97.842440
2016.000000	97.832764
2015.000000	97.827674
2014.000000	97.833478
2013.000000	97.849080
2012.000000	97.863640
2011.000000	97.870307
2010.000000	97.874545
2009.000000	97.882078
2008.000000	97.889441
2007.000000	97.893667
2006.000000	97.900686
2005.000000	97.913945
2004.000000	97.927235
2003.000000	97.933904
2002.000000	97.936827
2001.000000	97.939633
2000.000000	97.938945
1999.000000	97.936763
1998.000000	97.939511
1997.000000	97.952060
1996.000000	97.977374
1995.000000	98.017474
1994.000000	98.068121
1993.000000	98.116364
1992.000000	98.150368
1991.000000	98.172525
1990.000000	98.194843
1989.000000	98.221023
1988.000000	98.242408
1987.000000	98.251685
1986.000000	98.253495
1985.000000	98.257400
1984.000000	98.267541
1983.000000	98.283993
1982.000000	98.307570
1981.000000	98.338013
1980.000000	98.371817
1979.000000	98.406854
1978.000000	98.438192
1977.000000	98.462634
1976.000000	98.484978
1975.000000	98.514757
1974.000000	98.556098
1973.000000	98.607959
1972.000000	98.672070
1971.000000	98.750514
1970.000000	98.836516
1969.000000	98.916000
1968.000000	98.978087
1967.000000	99.019623
1966.000000	99.044170
1965.000000	99.061149
1964.000000	99.080468
1963.000000	99.101777
1962.000000	99.114851
1961.000000	99.116608
1960.000000	99.120759
1959.000000	99.140184
1958.000000	99.166894
1957.000000	99.181422
1956.000000	99.175967
1955.000000	99.156410
1954.000000	99.127699
1953.000000	99.090855
1952.000000	99.049851
1951.000000	99.009396
1950.000000	98.973849
1949.000000	98.941417
1948.000000	98.908174
1947.000000	98.878719
1946.000000	98.860373
1945.000000	98.851468
1944.000000	98.842092
1943.000000	98.825197
1942.000000	98.805232
1941.000000	98.796695
1940.000000	98.817335
1939.000000	98.874254
1938.000000	98.955090
1937.000000	99.041960
1936.000000	99.131956
1935.000000	99.231907
1934.000000	99.337444
1933.000000	99.434165
1932.000000	99.514172
1931.000000	99.581251
1930.000000	99.644117
1929.000000	99.695616
1928.000000	99.725652
1927.000000	99.745068
1926.000000	99.771621
1925.000000	99.807979
1924.000000	99.828498
1923.000000	99.823216
1922.000000	99.816534
1921.000000	99.828159
1920.000000	99.848153
1919.000000	99.856817
1918.000000	99.848620
1917.000000	99.833041
1916.000000	99.819574
1915.000000	99.818713
1914.000000	99.832127
1913.000000	99.843687
1912.000000	99.835863
1911.000000	99.813792
1910.000000	99.794770
1909.000000	99.771853
1908.000000	99.729430
1907.000000	99.677991
1906.000000	99.639794
1905.000000	99.614441
1904.000000	99.568560
1903.000000	99.496444
1902.000000	99.428011
1901.000000	99.367084
1900.000000	99.291966
1899.000000	99.208868
1898.000000	99.148995
1897.000000	99.120331
1896.000000	99.091103
1895.000000	99.050148
1894.000000	99.031768
1893.000000	99.056272
1892.000000	99.100033
1891.000000	99.139171
1890.000000	99.174951
1889.000000	99.209485
1888.000000	99.236463
1887.000000	99.268889
1886.000000	99.327748
1885.000000	99.396692
1884.000000	99.437152
1883.000000	99.451862
1882.000000	99.480492
1881.000000	99.525399
1880.000000	99.553547
1879.000000	99.559555
1878.000000	99.568585
1877.000000	99.591143
1876.000000	99.605494
1875.000000	99.600618
1874.000000	99.606180
1873.000000	99.646717
1872.000000	99.704423
1871.000000	99.758559
1870.000000	99.812002
1869.000000	99.862654
1868.000000	99.890342
1867.000000	99.906176
1866.000000	99.954208
1865.000000	100.037132
1864.000000	100.109128
1863.000000	100.151110
1862.000000	100.198689
1861.000000	100.273493
1860.000000	100.349485
1859.000000	100.414942
1858.000000	100.502484
1857.000000	100.625003
1856.000000	100.745432
1855.000000	100.842030
1854.000000	100.938352
1853.000000	101.039236
1852.000000	101.120671
1851.000000	101.190671
1850.000000	101.269140
1849.000000	101.356615
1848.000000	101.437618
1847.000000	101.513005
1846.000000	101.589717
1845.000000	101.642867
1844.000000	101.650190
1843.000000	101.648166
1842.000000	101.690759
1841.000000	101.766173
1840.000000	101.828758
1839.000000	101.858961
1838.000000	101.875436
1837.000000	101.903619
1836.000000	101.938302
1835.000000	101.983504
1834.000000	102.061553
1833.000000	102.175176
1832.000000	102.305838
1831.000000	102.421861
1830.000000	102.491175
1829.000000	102.529779
1828.000000	102.584482
1827.000000	102.670882
1826.000000	102.763821
1825.000000	102.835683
1824.000000	102.882178
1823.000000	102.924446
1822.000000	102.989169
1821.000000	103.082467
1820.000000	103.181719
1819.000000	103.259928
1818.000000	103.329476
1817.000000	103.417614
1816.000000	103.502373
1815.000000	103.557265
1814.000000	103.606574
1813.000000	103.682274
1812.000000	103.763398
1811.000000	103.800580
1810.000000	103.820299
1809.000000	103.878319
1808.000000	103.950919
1807.000000	103.995866
1806.000000	104.037080
1805.000000	104.107344
1804.000000	104.178553
1803.000000	104.221029
1802.000000	104.257607
1801.000000	104.311892
1800.000000	104.362903
1799.000000	104.385754
1798.000000	104.420512
1797.000000	104.496811
1796.000000	104.572947
1795.000000	104.615931
1794.000000	104.647813
1793.000000	104.690556
1792.000000	104.718591
1791.000000	104.707151
1790.000000	104.704669
1789.000000	104.745314
1788.000000	104.793355
1787.000000	104.816458
1786.000000	104.842830
1785.000000	104.899762
1784.000000	104.957924
1783.000000	105.001973
1782.000000	105.048575
1781.000000	105.094326
1780.000000	105.133787
1779.000000	105.165638
1778.000000	105.216059
1777.000000	105.297010
1776.000000	105.394869
1775.000000	105.502796
1774.000000	105.606330
1773.000000	105.697178
1772.000000	105.794575
1771.000000	105.893654
1770.000000	105.981304
1769.000000	106.078204
1768.000000	106.188715
1767.000000	106.274343
1766.000000	106.332284
1765.000000	106.409572
1764.000000	106.530471
1763.000000	106.649934
1762.000000	106.713413
1761.000000	106.754608
1760.000000	106.836341
1759.000000	106.942429
1758.000000	107.027772
1757.000000	107.065173
1756.000000	107.088473
1755.000000	107.121865
1754.000000	107.138246
1753.000000	107.144307
1752.000000	107.191434
1751.000000	107.284985
1750.000000	107.359963
1749.000000	107.384973
1748.000000	107.382697
1747.000000	107.378655
1746.000000	107.354382
1745.000000	107.309130
1744.000000	107.282333
1743.000000	107.263247
1742.000000	107.218889
1741.000000	107.163748
1740.000000	107.130419
1739.000000	107.115233
1738.000000	107.108260
1737.000000	107.110738
1736.000000	107.117325
1735.000000	107.095172
1734.000000	107.046923
1733.000000	107.022594
1732.000000	107.052031
1731.000000	107.091375
1730.000000	107.091942
1729.000000	107.031015
1728.000000	106.942476
1727.000000	106.876388
1726.000000	106.828834
1725.000000	106.785323
1724.000000	106.733898
1723.000000	106.665489
1722.000000	106.625629
1721.000000	106.643657
1720.000000	106.666582
1719.000000	106.607548
1718.000000	106.497035
1717.000000	106.469129
1716.000000	106.494263
1715.000000	106.485667
1714.000000	106.493718
1713.000000	106.561326
1712.000000	106.622867
1711.000000	106.650349
1710.000000	106.717623
1709.000000	106.864411
1708.000000	107.038087
1707.000000	107.188786
1706.000000	107.345828
1705.000000	107.542121
1704.000000	107.716553
1703.000000	107.842836
1702.000000	107.992401
1701.000000	108.190829
1700.000000	108.351270
1699.000000	108.412765
1698.000000	108.500502
1697.000000	108.656352
1696.000000	108.774781
1695.000000	108.797736
1694.000000	108.847517
1693.000000	108.980992
1692.000000	109.118959
1691.000000	109.207833
1690.000000	109.261857
1689.000000	109.308389
1688.000000	109.364525
1687.000000	109.435043
1686.000000	109.497777
1685.000000	109.503830
1684.000000	109.482224
1683.000000	109.521415
1682.000000	109.622085
1681.000000	109.681322
1680.000000	109.696634
1679.000000	109.721895
1678.000000	109.752528
1677.000000	109.747429
1676.000000	109.717729
1675.000000	109.718338
1674.000000	109.724972
1673.000000	109.706502
1672.000000	109.698927
1671.000000	109.704475
1670.000000	109.665791
1669.000000	109.534113
1668.000000	109.380553
1667.000000	109.295359
1666.000000	109.238500
1665.000000	109.131136
1664.000000	108.945264
1663.000000	108.715385
1662.000000	108.468684
1661.000000	108.172512
1660.000000	107.859923
1659.000000	107.585674
1658.000000	107.317643
1657.000000	107.015452
1656.000000	106.693513
1655.000000	106.306730
1654.000000	105.581766
1653.000000	104.467012
1652.000000	103.370914
1651.000000	102.579453
1650.000000	101.870458
1649.000000	100.921634
1648.000000	99.448100
1647.000000	97.363439
1646.000000	94.934067
1645.000000	92.531766
1644.000000	90.268963
1643.000000	88.055224
1642.000000	85.831715
1641.000000	83.667994
1640.000000	81.773803
1639.000000	80.308364
1638.000000	79.295093
1637.000000	78.720251
1636.000000	78.666525
1635.000000	79.171368
1634.000000	80.032915
1633.000000	81.061281
1632.000000	82.190942
1631.000000	83.424249
1630.000000	84.751775
1629.000000	86.124345
1628.000000	87.482948
1627.000000	88.777190
1626.000000	89.968131
1625.000000	91.071613
1624.000000	92.164853
1623.000000	93.280354
1622.000000	94.327715
1621.000000	95.217408
1620.000000	96.006883
1619.000000	96.806795
1618.000000	97.660128
1617.000000	98.542500
1616.000000	99.419863
1615.000000	100.253253
1614.000000	100.969550
1613.000000	101.520243
1612.000000	101.936720
1611.000000	102.253257
1610.000000	102.387088
1609.000000	102.194707
1608.000000	101.616654
1607.000000	100.627070
1606.000000	99.086299
1605.000000	96.802302
1604.000000	93.752729
1603.000000	90.071863
1602.000000	85.942561
1601.000000	81.551275
1600.000000	76.960343
1599.000000	71.965195
1598.000000	66.128262
1597.000000	59.184664
1596.000000	51.501819
1595.000000	44.079287
1594.000000	37.979353
1593.000000	33.704264
1592.000000	31.165833
1591.000000	30.031743
1590.000000	29.918393
1589.000000	30.382707
1588.000000	31.011863
1587.000000	31.528675
1586.000000	31.748677
1585.000000	31.598714
1584.000000	31.215333
1583.000000	30.886577
1582.000000	30.797679
1581.000000	30.938583
1580.000000	31.268502
1579.000000	31.807181
1578.000000	32.517673
1577.000000	33.213982
1576.000000	33.699584
1575.000000	33.971274
1574.000000	34.115758
1573.000000	34.164016
1572.000000	34.214661
1571.000000	34.516805
1570.000000	35.308333
1569.000000	36.554768
1568.000000	38.087415
1567.000000	39.881311
1566.000000	41.926614
1565.000000	44.040055
1564.000000	45.980009
1563.000000	47.665935
1562.000000	49.191223
1561.000000	50.755535
1560.000000	52.712912
1559.000000	55.317991
1558.000000	57.964289
1557.000000	60.022620
1556.000000	61.696679
1555.000000	63.355594
1554.000000	65.039919
1553.000000	66.580759
1552.000000	67.921478
1551.000000	69.153364
1550.000000	70.331516
1549.000000	71.400216
1548.000000	72.327508
1547.000000	73.207047
1546.000000	74.121390
1545.000000	75.035459
1544.000000	75.873940
1543.000000	76.632987
1542.000000	77.377533
1541.000000	78.137103
1540.000000	78.864590
1539.000000	79.526299
1538.000000	80.140074
1537.000000	80.711851
1536.000000	81.246677
1535.000000	81.788779
1534.000000	82.347520
1533.000000	82.862889
1532.000000	83.300568
1531.000000	83.703352
1530.000000	84.132976
1529.000000	84.585469
1528.000000	85.000801
1527.000000	85.372628
1526.000000	85.736265
1525.000000	86.088506
1524.000000	86.412151
1523.000000	86.715244
1522.000000	87.014685
1521.000000	87.290733
1520.000000	87.519930
1519.000000	87.740841
1518.000000	87.970825
1517.000000	88.169278
1516.000000	88.295969
1515.000000	88.382839
1514.000000	88.496647
1513.000000	88.666036
1512.000000	88.860984
1511.000000	89.044936
1510.000000	89.230840
1509.000000	89.450860
1508.000000	89.664482
1507.000000	89.802271
1506.000000	89.900630
1505.000000	90.034946
1504.000000	90.216627
1503.000000	90.411202
1502.000000	90.604393
1501.000000	90.798992
1500.000000	90.990463
1499.000000	91.163920
1498.000000	91.341064
1497.000000	91.598091
1496.000000	91.944874
1495.000000	92.324866
1494.000000	92.732851
1493.000000	93.178235
1492.000000	93.632747
1491.000000	94.062302
1490.000000	94.470380
1489.000000	94.866360
1488.000000	95.213881
1487.000000	95.517022
1486.000000	95.857250
1485.000000	96.228999
1484.000000	96.581912
1483.000000	96.932804
1482.000000	97.301772
1481.000000	97.664070
1480.000000	97.979665
1479.000000	98.277055
1478.000000	98.610992
1477.000000	98.973504
1476.000000	99.298831
1475.000000	99.596550
1474.000000	99.944835
1473.000000	100.345358
1472.000000	100.729143
1471.000000	101.052218
1470.000000	101.331363
1469.000000	101.557735
1468.000000	101.679592
1467.000000	101.641644
1466.000000	101.334687
1465.000000	100.564266
1464.000000	99.214357
1463.000000	97.295111
1462.000000	94.816025
1461.000000	91.768819
1460.000000	88.170495
1459.000000	84.014873
1458.000000	79.242158
1457.000000	74.279599
1456.000000	70.154624
1455.000000	67.277514
1454.000000	65.085086
1453.000000	63.033323
1452.000000	61.089778
1451.000000	59.514987
1450.000000	58.523911
1449.000000	58.178112
1448.000000	58.421379
1447.000000	59.085751
1446.000000	60.017548
1445.000000	61.273400
1444.000000	63.052742
1443.000000	65.372157
1442.000000	67.962625
1441.000000	70.490319
1440.000000	72.758587
1439.000000	74.725171
1438.000000	76.475212
1437.000000	78.176847
1436.000000	79.880284
1435.000000	81.458216
1434.000000	82.864996
1433.000000	84.210862
1432.000000	85.557307
1431.000000	86.818341
1430.000000	87.888476
1429.000000	88.788639
1428.000000	89.577655
1427.000000	90.272488
1426.000000	90.883239
1425.000000	91.451737
1424.000000	92.029120
1423.000000	92.570853
1422.000000	93.022584
1421.000000	93.427416
1420.000000	93.851921
1419.000000	94.257550
1418.000000	94.578485
1417.000000	94.891060
1416.000000	95.266436
1415.000000	95.657809
1414.000000	96.007867
1413.000000	96.339317
1412.000000	96.694461
1411.000000	97.027605
1410.000000	97.274424
1409.000000	97.457594
1408.000000	97.597329
1407.000000	97.626432
1406.000000	97.430243
1405.000000	96.920644
1404.000000	96.096075
1403.000000	95.023931
1402.000000	93.826377
1401.000000	92.652431
1400.000000	91.621633
1399.000000	90.772882
1398.000000	90.082812
1397.000000	89.581240
1396.000000	89.413993
1395.000000	89.756017
1394.000000	90.601368
1393.000000	91.738272
1392.000000	92.935019
1391.000000	94.026037
1390.000000	94.926149
1389.000000	95.657213
1388.000000	96.320064
1387.000000	96.994799
1386.000000	97.673979
1385.000000	98.309411
1384.000000	98.871102
1383.000000	99.333249
1382.000000	99.691503
1381.000000	99.991273
1380.000000	100.287534
1379.000000	100.594020
1378.000000	100.877941
1377.000000	101.084596
1376.000000	101.136346
1375.000000	100.915219
1374.000000	100.274087
1373.000000	99.103088
1372.000000	97.337649
1371.000000	94.876094
1370.000000	91.581677
1369.000000	87.492369
1368.000000	83.073677
1367.000000	79.120721
1366.000000	76.328982
1365.000000	74.977124
1364.000000	74.949097
1363.000000	75.931124
1362.000000	77.608370
1361.000000	79.791270
1360.000000	82.365278
1359.000000	85.152287
1358.000000	87.883648
1357.000000	90.305974
1356.000000	92.296816
1355.000000	93.868156
1354.000000	95.102539
1353.000000	96.105827
1352.000000	96.961286
1351.000000	97.712196
1350.000000	98.372268
1349.000000	98.948458
1348.000000	99.465753
1347.000000	99.945861
1346.000000	100.393086
1345.000000	100.810465
1344.000000	101.210881
1343.000000	101.601799
1342.000000	101.976754
1341.000000	102.328374
1340.000000	102.655398
1339.000000	102.953209
1338.000000	103.213999
1337.000000	103.448744
1336.000000	103.681781
1335.000000	103.922883
1334.000000	104.165829
1333.000000	104.408486
1332.000000	104.654101
1331.000000	104.893069
1330.000000	105.100275
1329.000000	105.256172
1328.000000	105.345402
1327.000000	105.331575
1326.000000	105.137066
1325.000000	104.644850
1324.000000	103.722294
1323.000000	102.229487
1322.000000	100.069110
1321.000000	97.283045
1320.000000	94.102689
1319.000000	90.885243
1318.000000	87.949701
1317.000000	85.460910
1316.000000	83.479662
1315.000000	82.102582
1314.000000	81.483916
1313.000000	81.699992
1312.000000	82.602776
1311.000000	83.834473
1310.000000	85.049251
1309.000000	86.131520
1308.000000	87.218448
1307.000000	88.532736
1306.000000	90.177305
1305.000000	92.065557
1304.000000	93.995462
1303.000000	95.758852
1302.000000	97.223810
1301.000000	98.364501
1300.000000	99.218665
1299.000000	99.825502
1298.000000	100.201392
1297.000000	100.344274
1296.000000	100.238098
1295.000000	99.837420
1294.000000	99.076979
1293.000000	97.901540
1292.000000	96.292332
1291.000000	94.321498
1290.000000	92.175246
1289.000000	90.065900
1288.000000	88.045252
1287.000000	85.899038
1286.000000	83.317650
1285.000000	80.235794
1284.000000	76.999681
1283.000000	74.215422
1282.000000	72.445397
1281.000000	71.971413
1280.000000	72.749900
1279.000000	74.476301
1278.000000	76.689142
1277.000000	78.911550
1276.000000	80.715656
1275.000000	81.744163
1274.000000	81.848084
1273.000000	81.323358
1272.000000	80.946479
1271.000000	81.549545
1270.000000	83.436264
1269.000000	86.210562
1268.000000	89.153793
1267.000000	91.731215
1266.000000	93.786386
1265.000000	95.413011
1264.000000	96.755749
1263.000000	97.910303
1262.000000	98.922000
1261.000000	99.817294
1260.000000	100.616172
1259.000000	101.327096
1258.000000	101.955339
1257.000000	102.510946
1256.000000	103.007837
1255.000000	103.457664
1254.000000	103.869220
1253.000000	104.256970
1252.000000	104.635944
1251.000000	105.010673
1250.000000	105.376777
1249.000000	105.731323
1248.000000	106.075210
1247.000000	106.404182
1246.000000	106.710298
1245.000000	106.995051
1244.000000	107.268352
1243.000000	107.535252
1242.000000	107.794912
1241.000000	108.051421
1240.000000	108.312304
1239.000000	108.574913
1238.000000	108.827603
1237.000000	109.063427
1236.000000	109.280480
1235.000000	109.471627
1234.000000	109.625864
1233.000000	109.741454
1232.000000	109.822043
1231.000000	109.857576
1230.000000	109.824816
1229.000000	109.693767
1228.000000	109.425593
1227.000000	108.953737
1226.000000	108.172912
1225.000000	106.959117
1224.000000	105.169881
1223.000000	102.671790
1222.000000	99.402877
1221.000000	95.429808
1220.000000	90.977897
1219.000000	86.368993
1218.000000	81.913880
1217.000000	77.821611
1216.000000	74.165519
1215.000000	70.905653
1214.000000	67.948513
1213.000000	65.220012
1212.000000	62.711643
1211.000000	60.475268
1210.000000	58.557704
1209.000000	56.986223
1208.000000	55.795696
1207.000000	55.017841
1206.000000	54.653602
1205.000000	54.650300
1204.000000	54.939354
1203.000000	55.469346
1202.000000	56.202137
1201.000000	57.139254
1200.000000	58.326256
1199.000000	59.821417
1198.000000	61.649334
1197.000000	63.784428
1196.000000	66.181911
1195.000000	68.776978
1194.000000	71.476456
1193.000000	74.182769
1192.000000	76.820082
1191.000000	79.329288
1190.000000	81.654325
1189.000000	83.754921
1188.000000	85.617957
1187.000000	87.248148
1186.000000	88.646193
1185.000000	89.820276
1184.000000	90.800481
1183.000000	91.619320
1182.000000	92.300422
1181.000000	92.852722
1180.000000	93.276156
1179.000000	93.565434
1178.000000	93.714636
1177.000000	93.741148
1176.000000	93.685950
1175.000000	93.592718
1174.000000	93.496112
1173.000000	93.428163
1172.000000	93.424189
1171.000000	93.509001
1170.000000	93.686529
1169.000000	93.949079
1168.000000	94.285034
1167.000000	94.665233
1166.000000	95.035059
1165.000000	95.334931
1164.000000	95.527982
1163.000000	95.615803
1162.000000	95.646043
1161.000000	95.710757
1160.000000	95.912751
1159.000000	96.307298
1158.000000	96.877275
1157.000000	97.564504
1156.000000	98.314824
1155.000000	99.089454
1154.000000	99.855505
1153.000000	100.586645
1152.000000	101.260829
1151.000000	101.846452
1150.000000	102.303091
1149.000000	102.611587
1148.000000	102.789791
1147.000000	102.877207
1146.000000	102.912985
1145.000000	102.922763
1144.000000	102.913695
1143.000000	102.853782
1142.000000	102.671802
1141.000000	102.290617
1140.000000	101.644783
1139.000000	100.686670
1138.000000	99.365972
1137.000000	97.627542
1136.000000	95.421492
1135.000000	92.677103
1134.000000	89.312075
1133.000000	85.251258
1132.000000	80.472827
1131.000000	75.067674
1130.000000	69.265830
1129.000000	63.444803
1128.000000	58.090596
1127.000000	53.677754
1126.000000	50.502656
1125.000000	48.619904
1124.000000	47.868044
1123.000000	47.914917
1122.000000	48.294343
1121.000000	48.466717
1120.000000	47.941381
1119.000000	46.357258
1118.000000	43.582728
1117.000000	39.916239
1116.000000	36.214161
1115.000000	33.694320
1114.000000	33.352217
1113.000000	35.439676
1112.000000	39.429860
1111.000000	44.357416
1110.000000	49.243225
1109.000000	53.367824
1108.000000	56.340725
1107.000000	58.004648
1106.000000	58.303017
1105.000000	57.292333
1104.000000	55.349600
1103.000000	53.326100
1102.000000	52.308094
1101.000000	53.051186
1100.000000	55.563527
1099.000000	59.193490
1098.000000	63.109303
1097.000000	66.743121
1096.000000	69.880594
1095.000000	72.517022
1094.000000	74.726728
1093.000000	76.619189
1092.000000	78.311332
1091.000000	79.890993
1090.000000	81.411948
1089.000000	82.920154
1088.000000	84.463820
1087.000000	86.060847
1086.000000	87.690322
1085.000000	89.312596
1084.000000	90.879229
1083.000000	92.337206
1082.000000	93.644282
1081.000000	94.793501
1080.000000	95.801138
1079.000000	96.671560
1078.000000	97.402365
1077.000000	97.997321
1076.000000	98.458860
1075.000000	98.766280
1074.000000	98.869572
1073.000000	98.723050
1072.000000	98.269774
1071.000000	97.421097
1070.000000	96.066817
1069.000000	94.076581
1068.000000	91.325841
1067.000000	87.686071
1066.000000	83.068754
1065.000000	77.520471
1064.000000	71.265911
1063.000000	64.709678
1062.000000	58.329509
1061.000000	52.516700
1060.000000	47.433565
1059.000000	42.965518
1058.000000	38.811850
1057.000000	34.739871
1056.000000	30.847516
1055.000000	27.580806
1054.000000	25.550674
1053.000000	25.216043
1052.000000	26.697057
1051.000000	29.753632
1050.000000	33.850759
1049.000000	38.387309
1048.000000	42.876171
1047.000000	47.024285
1046.000000	50.727032
1045.000000	54.006724
1044.000000	56.944691
1043.000000	59.603047
1042.000000	61.992714
1041.000000	64.100505
1040.000000	65.939658
1039.000000	67.543905
1038.000000	68.951751
1037.000000	70.209237
1036.000000	71.361178
1035.000000	72.441616
1034.000000	73.461931
1033.000000	74.426789
1032.000000	75.347517
1031.000000	76.228809
1030.000000	77.066538
1029.000000	77.860676
1028.000000	78.623421
1027.000000	79.369316
1026.000000	80.107339
1025.000000	80.849133
1024.000000	81.606671
1023.000000	82.375688
1022.000000	83.135727
1021.000000	83.863845
1020.000000	84.540537
1019.000000	85.134632
1018.000000	85.595245
1017.000000	85.865841
1016.000000	85.863466
1015.000000	85.470564
1014.000000	84.542066
1013.000000	82.934017
1012.000000	80.555824
1011.000000	77.386658
1010.000000	73.508234
1009.000000	69.110296
1008.000000	64.474506
1007.000000	60.001985
1006.000000	56.267941
1005.000000	53.946149
1004.000000	53.511534
1003.000000	54.892733
1002.000000	57.395370
1001.000000	60.053261
1000.000000	62.053434
999.000000	62.898503
998.000000	62.373211
997.000000	60.574166
996.000000	58.022354
995.000000	55.579588
994.000000	54.046079
993.000000	53.740298
992.000000	54.443458
991.000000	55.707329
990.000000	57.204315
989.000000	58.855071
988.000000	60.729673
987.000000	62.857765
986.000000	65.147600
985.000000	67.437736
984.000000	69.585653
983.000000	71.513936
982.000000	73.202667
981.000000	74.671790
980.000000	75.959443
979.000000	77.104061
978.000000	78.128956
977.000000	79.052859
976.000000	79.896327
975.000000	80.671584
974.000000	81.382864
973.000000	82.031740
972.000000	82.625181
971.000000	83.169723
970.000000	83.665746
969.000000	84.117547
968.000000	84.535103
967.000000	84.926906
966.000000	85.296494
965.000000	85.648071
964.000000	85.989510
963.000000	86.323147
962.000000	86.644355
961.000000	86.952016
960.000000	87.251060
959.000000	87.543632
958.000000	87.825725
957.000000	88.096476
956.000000	88.361382
955.000000	88.622008
954.000000	88.872921
953.000000	89.109913
952.000000	89.332738
951.000000	89.537777
950.000000	89.716971
949.000000	89.868660
948.000000	89.999399
947.000000	90.114163
946.000000	90.214972
945.000000	90.309743
944.000000	90.412463
943.000000	90.531027
942.000000	90.664058
941.000000	90.811285
940.000000	90.975841
939.000000	91.153705
938.000000	91.331346
937.000000	91.497481
936.000000	91.648803
935.000000	91.783277
934.000000	91.899209
933.000000	92.003037
932.000000	92.107441
931.000000	92.218925
930.000000	92.334787
929.000000	92.452464
928.000000	92.571824
927.000000	92.688024
926.000000	92.793793
925.000000	92.890342
924.000000	92.986774
923.000000	93.088184
922.000000	93.193936
921.000000	93.306831
920.000000	93.432501
919.000000	93.569197
918.000000	93.708340
917.000000	93.844844
916.000000	93.976697
915.000000	94.095970
914.000000	94.192638
913.000000	94.267628
912.000000	94.331288
911.000000	94.391138
910.000000	94.451854
909.000000	94.524168
908.000000	94.620335
907.000000	94.741054
906.000000	94.877506
905.000000	95.023028
904.000000	95.170412
903.000000	95.302774
902.000000	95.400676
901.000000	95.457872
900.000000	95.474368
899.000000	95.432063
898.000000	95.291892
897.000000	95.012617
896.000000	94.583320
895.000000	94.048398
894.000000	93.489797
893.000000	92.944547
892.000000	92.317613
891.000000	91.434359
890.000000	90.245841
889.000000	88.970712
888.000000	87.962972
887.000000	87.434368
886.000000	87.333882
885.000000	87.486403
884.000000	87.778074
883.000000	88.156400
882.000000	88.544016
881.000000	88.847178
880.000000	89.054958
879.000000	89.278616
878.000000	89.660763
877.000000	90.267070
876.000000	91.050253
875.000000	91.890488
874.000000	92.668191
873.000000	93.319913
872.000000	93.845284
871.000000	94.268771
870.000000	94.606284
869.000000	94.861259
868.000000	95.032645
867.000000	95.107269
866.000000	95.059021
865.000000	94.876363
864.000000	94.585250
863.000000	94.247757
862.000000	93.943212
861.000000	93.748352
860.000000	93.713232
859.000000	93.836779
858.000000	94.067864
857.000000	94.341475
856.000000	94.615702
855.000000	94.874037
854.000000	95.113355
853.000000	95.338419
852.000000	95.557526
851.000000	95.772406
850.000000	95.976412
849.000000	96.166137
848.000000	96.345375
847.000000	96.514102
846.000000	96.663506
845.000000	96.788112
844.000000	96.891666
843.000000	96.977785
842.000000	97.045721
841.000000	97.099592
840.000000	97.151886
839.000000	97.211272
838.000000	97.276073
837.000000	97.343528
836.000000	97.415066
835.000000	97.488923
834.000000	97.557734
833.000000	97.618287
832.000000	97.674424
831.000000	97.727113
830.000000	97.772537
829.000000	97.813898
828.000000	97.864433
827.000000	97.933751
826.000000	98.020391
825.000000	98.119794
824.000000	98.226967
823.000000	98.328149
822.000000	98.404528
821.000000	98.449186
820.000000	98.469537
819.000000	98.471970
818.000000	98.456071
817.000000	98.425702
816.000000	98.388242
815.000000	98.339607
814.000000	98.258407
813.000000	98.110085
812.000000	97.842117
811.000000	97.379564
810.000000	96.671272
809.000000	95.774312
808.000000	94.882504
807.000000	94.237039
806.000000	93.986784
805.000000	94.117467
804.000000	94.494183
803.000000	94.956778
802.000000	95.385336
801.000000	95.716050
800.000000	95.922191
799.000000	95.989316
798.000000	95.901188
797.000000	95.638724
796.000000	95.177275
795.000000	94.486559
794.000000	93.547205
793.000000	92.370823
792.000000	91.014210
791.000000	89.574180
790.000000	88.171940
789.000000	86.930438
788.000000	85.946136
787.000000	85.266236
786.000000	84.887339
785.000000	84.774067
784.000000	84.869427
783.000000	85.095967
782.000000	85.360932
781.000000	85.581617
780.000000	85.714043
779.000000	85.763144
778.000000	85.781625
777.000000	85.854340
776.000000	86.065960
775.000000	86.464015
774.000000	87.042044
773.000000	87.754028
772.000000	88.538063
771.000000	89.334752
770.000000	90.101452
769.000000	90.818130
768.000000	91.479192
767.000000	92.080095
766.000000	92.617281
765.000000	93.094721
764.000000	93.521098
763.000000	93.900427
762.000000	94.233078
761.000000	94.523442
760.000000	94.777607
759.000000	94.997860
758.000000	95.185960
757.000000	95.348917
756.000000	95.493089
755.000000	95.615260
754.000000	95.708480
753.000000	95.772491
752.000000	95.810634
751.000000	95.821015
750.000000	95.800059
749.000000	95.752137
748.000000	95.686117
747.000000	95.605200
746.000000	95.507820
745.000000	95.393684
744.000000	95.260566
743.000000	95.099156
742.000000	94.899997
741.000000	94.662877
740.000000	94.393623
739.000000	94.099358
738.000000	93.793371
737.000000	93.493888
736.000000	93.205246
735.000000	92.903553
734.000000	92.550228
733.000000	92.114792
732.000000	91.582013
731.000000	90.954471
730.000000	90.266596
729.000000	89.591091
728.000000	89.013539
727.000000	88.600647
726.000000	88.394222
725.000000	88.416057
724.000000	88.656724
723.000000	89.068306
722.000000	89.591462
721.000000	90.185974
720.000000	90.820626
719.000000	91.446203
718.000000	92.004852
717.000000	92.460569
716.000000	92.804175
715.000000	93.038515
714.000000	93.177118
713.000000	93.249378
712.000000	93.286816
711.000000	93.307449
710.000000	93.324773
709.000000	93.361724
708.000000	93.438265
707.000000	93.552705
706.000000	93.692278
705.000000	93.851985
704.000000	94.026693
703.000000	94.197646
702.000000	94.346370
701.000000	94.470388
700.000000	94.568466
699.000000	94.626301
698.000000	94.635452
697.000000	94.610670
696.000000	94.568440
695.000000	94.506347
694.000000	94.424845
693.000000	94.347405
692.000000	94.294762
691.000000	94.262372
690.000000	94.247397
689.000000	94.272445
688.000000	94.349512
687.000000	94.445778
686.000000	94.524298
685.000000	94.585783
684.000000	94.635891
683.000000	94.652641
682.000000	94.624662
681.000000	94.584427
680.000000	94.558456
679.000000	94.534617
678.000000	94.505909
677.000000	94.502253
676.000000	94.550068
675.000000	94.633438
674.000000	94.756904
673.000000	94.989738
672.000000	95.402325
671.000000	95.978077
670.000000	96.624334
669.000000	97.112880
668.000000	97.156975
667.000000	96.864598
666.000000	96.573863
665.000000	96.353012
664.000000	96.193374
663.000000	96.138702
662.000000	96.176272
661.000000	96.230008
660.000000	96.247730
659.000000	96.240068
658.000000	96.213349
657.000000	96.139699
656.000000	96.021091
655.000000	95.909888
654.000000	95.844161
653.000000	95.809738
652.000000	95.801387
651.000000	95.844821
650.000000	95.937207
649.000000	96.034371
648.000000	96.116699
647.000000	96.202031
646.000000	96.282499
645.000000	96.316397
644.000000	96.292849
643.000000	96.248363
642.000000	96.208794
641.000000	96.165251
640.000000	96.121310
639.000000	96.107781
638.000000	96.133486
637.000000	96.170513
636.000000	96.202872
635.000000	96.244023
634.000000	96.296143
633.000000	96.339079
632.000000	96.369882
631.000000	96.412869
630.000000	96.479737
629.000000	96.555359
628.000000	96.630000
627.000000	96.708285
626.000000	96.779628
625.000000	96.815628
624.000000	96.806018
623.000000	96.767791
622.000000	96.710588
621.000000	96.625517
620.000000	96.515703
619.000000	96.407728
618.000000	96.328664
617.000000	96.292498
616.000000	96.308124
615.000000	96.374780
614.000000	96.466717
613.000000	96.548253
612.000000	96.604196
611.000000	96.634904
610.000000	96.633500
609.000000	96.591255
608.000000	96.519806
607.000000	96.440368
606.000000	96.355226
605.000000	96.254604
604.000000	96.139627
603.000000	96.013305
602.000000	95.855776
601.000000	95.635129
600.000000	95.336907
599.000000	94.960422
598.000000	94.492983
597.000000	93.914419
596.000000	93.226983
595.000000	92.448838
594.000000	91.555532
593.000000	90.422067
592.000000	88.819611
591.000000	86.549870
590.000000	83.711868
589.000000	80.882591
588.000000	78.911092
587.000000	78.364264
586.000000	79.098335
585.000000	80.427697
584.000000	81.758670
583.000000	82.951384
582.000000	84.123750
581.000000	85.337333
580.000000	86.537698
579.000000	87.653464
578.000000	88.624139
577.000000	89.389932
576.000000	89.932694
575.000000	90.301995
574.000000	90.557068
573.000000	90.723165
572.000000	90.824416
571.000000	90.902373
570.000000	90.971295
569.000000	90.988855
568.000000	90.908227
567.000000	90.702463
566.000000	90.311017
565.000000	89.618844
564.000000	88.530571
563.000000	87.066710
562.000000	85.370931
561.000000	83.649269
560.000000	82.099999
559.000000	80.830343
558.000000	79.794025
557.000000	78.869395
556.000000	78.063970
555.000000	77.588632
554.000000	77.685618
553.000000	78.414046
552.000000	79.626044
551.000000	81.068995
550.000000	82.466354
549.000000	83.612709
548.000000	84.455433
547.000000	85.060258
546.000000	85.495156
545.000000	85.785892
544.000000	85.966000
543.000000	86.090221
542.000000	86.179149
541.000000	86.198653
540.000000	86.124407
539.000000	85.973288
538.000000	85.762090
537.000000	85.492065
536.000000	85.192404
535.000000	84.924275
534.000000	84.716566
533.000000	84.544519
532.000000	84.382709
531.000000	84.243630
530.000000	84.136552
529.000000	84.029058
528.000000	83.872111
527.000000	83.629861
526.000000	83.257981
525.000000	82.708973
524.000000	81.982910
523.000000	81.123440
522.000000	80.167471
521.000000	79.133247
520.000000	78.058383
519.000000	76.993126
518.000000	75.937013
517.000000	74.844825
516.000000	73.727427
515.000000	72.684585
514.000000	71.818630
513.000000	71.183999
512.000000	70.829698
511.000000	70.823476
510.000000	71.180264
509.000000	71.819148
508.000000	72.636826
507.000000	73.567162
506.000000	74.555485
505.000000	75.554242
504.000000	76.570121
503.000000	77.647746
502.000000	78.770759
501.000000	79.843922
500.000000	80.801141
499.000000	81.657399
498.000000	82.427071
497.000000	83.083372
496.000000	83.617753
495.000000	84.068435
494.000000	84.465800
493.000000	84.791154
492.000000	85.036991
491.000000	85.244057
490.000000	85.437859
489.000000	85.594678
488.000000	85.685819
487.000000	85.708372
486.000000	85.627792
485.000000	85.337515
484.000000	84.731667
483.000000	83.769159
482.000000	82.452300
481.000000	80.822704
480.000000	79.032333
479.000000	77.330837
478.000000	75.900739
477.000000	74.758490
476.000000	73.852058
475.000000	73.187949
474.000000	72.793297
473.000000	72.657493
472.000000	72.793325
471.000000	73.272438
470.000000	74.125400
469.000000	75.269095
468.000000	76.590190
467.000000	78.000033
466.000000	79.397133
465.000000	80.676352
464.000000	81.790200
463.000000	82.767121
462.000000	83.637928
461.000000	84.388714
460.000000	85.010644
459.000000	85.534459
458.000000	85.986955
457.000000	86.367308
456.000000	86.695631
455.000000	87.016042
454.000000	87.331457
453.000000	87.587098
452.000000	87.745623
451.000000	87.837734
450.000000	87.896027
449.000000	87.910833
448.000000	87.887499
447.000000	87.881974
446.000000	87.937778
445.000000	88.043690
444.000000	88.180975
443.000000	88.366885
442.000000	88.600318
441.000000	88.821051
440.000000	88.979803
439.000000	89.084368
438.000000	89.144305
437.000000	89.125052
436.000000	89.008016
435.000000	88.836088
434.000000	88.635965
433.000000	88.354804
432.000000	87.933695
431.000000	87.401426
430.000000	86.839083
429.000000	86.287661
428.000000	85.786371
427.000000	85.439041
426.000000	85.317825
425.000000	85.365015
424.000000	85.496437
423.000000	85.720037
422.000000	86.049143
421.000000	86.398175
420.000000	86.669811
419.000000	86.900294
418.000000	87.169769
417.000000	87.422575
416.000000	87.597512
415.000000	87.731566
414.000000	87.861382
413.000000	87.955209
412.000000	87.985369
411.000000	87.997039
410.000000	88.028965
409.000000	88.025019
408.000000	87.953988
407.000000	87.908626
406.000000	87.963346
405.000000	88.054735
404.000000	88.161271
403.000000	88.383219
402.000000	88.775246
401.000000	89.136463
400.000000	89.288929
