PE IR       SUBTECH     SPECTRUM    ASCII       PEDS        4.00        
   -1
23ms175-cis.asc
24/10/17
16:12:39.00
24/10/17
16:12:39.00
Administrator
Sample 1296 By Administrator Date Thursday, October 17 2024
400.000000
#HDR
-1
-1
#GR
cm-1
%T
1.0
0.0
4000.000000
-1.000000
3601
8
81.048343
8.457810
#DATA
4000.000000	53.094013
3999.000000	53.082091
3998.000000	53.073519
3997.000000	53.067640
3996.000000	53.063398
3995.000000	53.059742
3994.000000	53.056248
3993.000000	53.053406
3992.000000	53.052232
3991.000000	53.053196
3990.000000	53.055478
3989.000000	53.058328
3988.000000	53.063122
3987.000000	53.072824
3986.000000	53.089625
3985.000000	53.113293
3984.000000	53.141797
3983.000000	53.172659
3982.000000	53.203747
3981.000000	53.234063
3980.000000	53.263862
3979.000000	53.294744
3978.000000	53.329143
3977.000000	53.368141
3976.000000	53.410210
3975.000000	53.451874
3974.000000	53.490350
3973.000000	53.525352
3972.000000	53.558214
3971.000000	53.591034
3970.000000	53.625068
3969.000000	53.660010
3968.000000	53.695067
3967.000000	53.729752
3966.000000	53.764346
3965.000000	53.800220
3964.000000	53.839279
3963.000000	53.882311
3962.000000	53.929345
3961.000000	53.979380
3960.000000	54.030890
3959.000000	54.084241
3958.000000	54.139946
3957.000000	54.196835
3956.000000	54.253004
3955.000000	54.307212
3954.000000	54.359356
3953.000000	54.408229
3952.000000	54.450950
3951.000000	54.484945
3950.000000	54.509560
3949.000000	54.528031
3948.000000	54.547681
3947.000000	54.575353
3946.000000	54.613121
3945.000000	54.659297
3944.000000	54.709463
3943.000000	54.754243
3942.000000	54.786175
3941.000000	54.808097
3940.000000	54.830298
3939.000000	54.863625
3938.000000	54.908712
3937.000000	54.954741
3936.000000	54.991451
3935.000000	55.018416
3934.000000	55.045656
3933.000000	55.079507
3932.000000	55.116167
3931.000000	55.148308
3930.000000	55.171881
3929.000000	55.192809
3928.000000	55.218107
3927.000000	55.249666
3926.000000	55.284164
3925.000000	55.310837
3924.000000	55.318558
3923.000000	55.306826
3922.000000	55.286197
3921.000000	55.269639
3920.000000	55.262821
3919.000000	55.264286
3918.000000	55.273796
3917.000000	55.293770
3916.000000	55.323019
3915.000000	55.353383
3914.000000	55.381793
3913.000000	55.413463
3912.000000	55.451269
3911.000000	55.493315
3910.000000	55.534380
3909.000000	55.571626
3908.000000	55.606424
3907.000000	55.632219
3906.000000	55.633956
3905.000000	55.596519
3904.000000	55.522197
3903.000000	55.441652
3902.000000	55.392598
3901.000000	55.396358
3900.000000	55.449736
3899.000000	55.527976
3898.000000	55.606411
3897.000000	55.678991
3896.000000	55.751488
3895.000000	55.831914
3894.000000	55.918456
3893.000000	55.998821
3892.000000	56.056531
3891.000000	56.086238
3890.000000	56.092618
3889.000000	56.081080
3888.000000	56.071125
3887.000000	56.095497
3886.000000	56.163126
3885.000000	56.241994
3884.000000	56.293257
3883.000000	56.314508
3882.000000	56.330310
3881.000000	56.355392
3880.000000	56.382878
3879.000000	56.401707
3878.000000	56.411190
3877.000000	56.422709
3876.000000	56.452648
3875.000000	56.502080
3874.000000	56.541392
3873.000000	56.535733
3872.000000	56.488507
3871.000000	56.443366
3870.000000	56.437458
3869.000000	56.464892
3868.000000	56.491921
3867.000000	56.506685
3866.000000	56.535369
3865.000000	56.589972
3864.000000	56.643074
3863.000000	56.671573
3862.000000	56.685666
3861.000000	56.710722
3860.000000	56.764406
3859.000000	56.852951
3858.000000	56.975607
3857.000000	57.115685
3856.000000	57.233745
3855.000000	57.275798
3854.000000	57.209249
3853.000000	57.090139
3852.000000	57.011395
3851.000000	56.988663
3850.000000	56.993552
3849.000000	57.020959
3848.000000	57.071114
3847.000000	57.140497
3846.000000	57.220552
3845.000000	57.295794
3844.000000	57.352183
3843.000000	57.383757
3842.000000	57.390725
3841.000000	57.385276
3840.000000	57.378658
3839.000000	57.371524
3838.000000	57.370480
3837.000000	57.386549
3836.000000	57.419863
3835.000000	57.456683
3834.000000	57.488499
3833.000000	57.525380
3832.000000	57.578292
3831.000000	57.641886
3830.000000	57.704769
3829.000000	57.761438
3828.000000	57.814643
3827.000000	57.870751
3826.000000	57.920506
3825.000000	57.944742
3824.000000	57.940073
3823.000000	57.935141
3822.000000	57.960489
3821.000000	58.004004
3820.000000	58.029148
3819.000000	58.021640
3818.000000	58.004405
3817.000000	58.020588
3816.000000	58.089647
3815.000000	58.183237
3814.000000	58.263245
3813.000000	58.318386
3812.000000	58.359271
3811.000000	58.398170
3810.000000	58.437094
3809.000000	58.472085
3808.000000	58.505791
3807.000000	58.541334
3806.000000	58.568352
3805.000000	58.575543
3804.000000	58.566689
3803.000000	58.575254
3802.000000	58.618712
3801.000000	58.669518
3800.000000	58.694902
3799.000000	58.692913
3798.000000	58.688816
3797.000000	58.709904
3796.000000	58.761244
3795.000000	58.827865
3794.000000	58.897056
3793.000000	58.966907
3792.000000	59.037125
3791.000000	59.104876
3790.000000	59.165025
3789.000000	59.213730
3788.000000	59.252100
3787.000000	59.283721
3786.000000	59.311538
3785.000000	59.335080
3784.000000	59.349546
3783.000000	59.351860
3782.000000	59.349675
3781.000000	59.357243
3780.000000	59.378646
3779.000000	59.404067
3778.000000	59.425091
3777.000000	59.444068
3776.000000	59.469251
3775.000000	59.506270
3774.000000	59.549364
3773.000000	59.583665
3772.000000	59.604054
3771.000000	59.622500
3770.000000	59.645052
3769.000000	59.663724
3768.000000	59.674591
3767.000000	59.689266
3766.000000	59.727425
3765.000000	59.788473
3764.000000	59.847946
3763.000000	59.887795
3762.000000	59.918093
3761.000000	59.961605
3760.000000	60.014662
3759.000000	60.054972
3758.000000	60.080021
3757.000000	60.101892
3756.000000	60.123388
3755.000000	60.138282
3754.000000	60.149660
3753.000000	60.167326
3752.000000	60.181461
3751.000000	60.176834
3750.000000	60.174874
3749.000000	60.202352
3748.000000	60.241043
3747.000000	60.265719
3746.000000	60.296274
3745.000000	60.370616
3744.000000	60.485479
3743.000000	60.595550
3742.000000	60.659088
3741.000000	60.677165
3740.000000	60.679381
3739.000000	60.687794
3738.000000	60.719598
3737.000000	60.786350
3736.000000	60.875704
3735.000000	60.941030
3734.000000	60.961929
3733.000000	60.983316
3732.000000	61.048925
3731.000000	61.148127
3730.000000	61.239205
3729.000000	61.300886
3728.000000	61.351288
3727.000000	61.412519
3726.000000	61.477094
3725.000000	61.521521
3724.000000	61.543830
3723.000000	61.559946
3722.000000	61.577997
3721.000000	61.603416
3720.000000	61.638565
3719.000000	61.683179
3718.000000	61.736727
3717.000000	61.790357
3716.000000	61.832695
3715.000000	61.861066
3714.000000	61.890798
3713.000000	61.938532
3712.000000	61.995784
3711.000000	62.044400
3710.000000	62.088721
3709.000000	62.148151
3708.000000	62.228463
3707.000000	62.321086
3706.000000	62.413527
3705.000000	62.499421
3704.000000	62.580110
3703.000000	62.657486
3702.000000	62.727492
3701.000000	62.785677
3700.000000	62.830834
3699.000000	62.863863
3698.000000	62.897600
3697.000000	62.944881
3696.000000	62.998378
3695.000000	63.038258
3694.000000	63.059537
3693.000000	63.077840
3692.000000	63.100625
3691.000000	63.110711
3690.000000	63.089846
3689.000000	63.063872
3688.000000	63.081266
3687.000000	63.141603
3686.000000	63.204947
3685.000000	63.253410
3684.000000	63.294776
3683.000000	63.338176
3682.000000	63.387882
3681.000000	63.442403
3680.000000	63.493012
3679.000000	63.511892
3678.000000	63.480664
3677.000000	63.432782
3676.000000	63.416253
3675.000000	63.435962
3674.000000	63.449209
3673.000000	63.421798
3672.000000	63.380084
3671.000000	63.395789
3670.000000	63.487909
3669.000000	63.604590
3668.000000	63.705333
3667.000000	63.784058
3666.000000	63.847212
3665.000000	63.910478
3664.000000	63.981047
3663.000000	64.054974
3662.000000	64.123026
3661.000000	64.171323
3660.000000	64.191612
3659.000000	64.184878
3658.000000	64.167169
3657.000000	64.161713
3656.000000	64.174193
3655.000000	64.184546
3654.000000	64.159722
3653.000000	64.093793
3652.000000	64.024248
3651.000000	63.988254
3650.000000	63.976156
3649.000000	63.969078
3648.000000	63.998265
3647.000000	64.086726
3646.000000	64.201759
3645.000000	64.306962
3644.000000	64.401603
3643.000000	64.503601
3642.000000	64.613889
3641.000000	64.712461
3640.000000	64.785512
3639.000000	64.837233
3638.000000	64.873863
3637.000000	64.892931
3636.000000	64.896557
3635.000000	64.900256
3634.000000	64.908782
3633.000000	64.899968
3632.000000	64.848124
3631.000000	64.766427
3630.000000	64.705121
3629.000000	64.692752
3628.000000	64.711914
3627.000000	64.736236
3626.000000	64.743970
3625.000000	64.733053
3624.000000	64.716828
3623.000000	64.700144
3622.000000	64.677795
3621.000000	64.646273
3620.000000	64.597114
3619.000000	64.517960
3618.000000	64.413177
3617.000000	64.297181
3616.000000	64.179233
3615.000000	64.069697
3614.000000	63.974792
3613.000000	63.886050
3612.000000	63.790788
3611.000000	63.689794
3610.000000	63.603752
3609.000000	63.558157
3608.000000	63.546564
3607.000000	63.535883
3606.000000	63.502749
3605.000000	63.447276
3604.000000	63.384043
3603.000000	63.322242
3602.000000	63.261219
3601.000000	63.198318
3600.000000	63.129254
3599.000000	63.047577
3598.000000	62.956526
3597.000000	62.865605
3596.000000	62.783688
3595.000000	62.710661
3594.000000	62.636214
3593.000000	62.550839
3592.000000	62.449177
3591.000000	62.333551
3590.000000	62.223565
3589.000000	62.150198
3588.000000	62.120726
3587.000000	62.109938
3586.000000	62.093323
3585.000000	62.067549
3584.000000	62.039132
3583.000000	62.012995
3582.000000	61.990514
3581.000000	61.968441
3580.000000	61.940988
3579.000000	61.902192
3578.000000	61.851459
3577.000000	61.793214
3576.000000	61.730830
3575.000000	61.664845
3574.000000	61.593232
3573.000000	61.511412
3572.000000	61.412241
3571.000000	61.287820
3570.000000	61.140846
3569.000000	60.994584
3568.000000	60.873484
3567.000000	60.776667
3566.000000	60.685538
3565.000000	60.588397
3564.000000	60.484567
3563.000000	60.380501
3562.000000	60.280402
3561.000000	60.180287
3560.000000	60.070875
3559.000000	59.944829
3558.000000	59.801779
3557.000000	59.645954
3556.000000	59.480830
3555.000000	59.307487
3554.000000	59.126732
3553.000000	58.937999
3552.000000	58.738075
3551.000000	58.521951
3550.000000	58.286879
3549.000000	58.039931
3548.000000	57.794722
3547.000000	57.559675
3546.000000	57.330112
3545.000000	57.095304
3544.000000	56.848855
3543.000000	56.591007
3542.000000	56.323813
3541.000000	56.048181
3540.000000	55.763408
3539.000000	55.466217
3538.000000	55.153093
3537.000000	54.821705
3536.000000	54.471652
3535.000000	54.103115
3534.000000	53.717018
3533.000000	53.316605
3532.000000	52.904506
3531.000000	52.478707
3530.000000	52.031769
3529.000000	51.558698
3528.000000	51.062316
3527.000000	50.549629
3526.000000	50.025813
3525.000000	49.493273
3524.000000	48.951783
3523.000000	48.397373
3522.000000	47.825033
3521.000000	47.233879
3520.000000	46.627849
3519.000000	46.009282
3518.000000	45.376438
3517.000000	44.727842
3516.000000	44.066182
3515.000000	43.395620
3514.000000	42.717171
3513.000000	42.028884
3512.000000	41.328168
3511.000000	40.612664
3510.000000	39.882495
3509.000000	39.144712
3508.000000	38.409730
3507.000000	37.681253
3506.000000	36.953494
3505.000000	36.219588
3504.000000	35.478801
3503.000000	34.735768
3502.000000	33.996793
3501.000000	33.268074
3500.000000	32.553705
3499.000000	31.851900
3498.000000	31.156462
3497.000000	30.463219
3496.000000	29.773710
3495.000000	29.092135
3494.000000	28.422093
3493.000000	27.767369
3492.000000	27.131276
3491.000000	26.513010
3490.000000	25.908666
3489.000000	25.318051
3488.000000	24.747191
3487.000000	24.202361
3486.000000	23.685155
3485.000000	23.193843
3484.000000	22.724802
3483.000000	22.272755
3482.000000	21.834641
3481.000000	21.414871
3480.000000	21.021812
3479.000000	20.657264
3478.000000	20.313993
3477.000000	19.983545
3476.000000	19.661067
3475.000000	19.343134
3474.000000	19.026910
3473.000000	18.713407
3472.000000	18.407761
3471.000000	18.115182
3470.000000	17.840814
3469.000000	17.592666
3468.000000	17.379397
3467.000000	17.204126
3466.000000	17.064415
3465.000000	16.958681
3464.000000	16.887773
3463.000000	16.851261
3462.000000	16.848089
3461.000000	16.880221
3460.000000	16.950643
3459.000000	17.056707
3458.000000	17.189518
3457.000000	17.339841
3456.000000	17.499979
3455.000000	17.660579
3454.000000	17.811184
3453.000000	17.943624
3452.000000	18.051034
3451.000000	18.124653
3450.000000	18.154545
3449.000000	18.134078
3448.000000	18.060458
3447.000000	17.932119
3446.000000	17.751414
3445.000000	17.526688
3444.000000	17.267852
3443.000000	16.981333
3442.000000	16.671596
3441.000000	16.347341
3440.000000	16.021548
3439.000000	15.706620
3438.000000	15.413893
3437.000000	15.155787
3436.000000	14.943025
3435.000000	14.779314
3434.000000	14.662275
3433.000000	14.589253
3432.000000	14.561041
3431.000000	14.580159
3430.000000	14.649978
3429.000000	14.775289
3428.000000	14.958291
3427.000000	15.197173
3426.000000	15.489090
3425.000000	15.833955
3424.000000	16.233865
3423.000000	16.688002
3422.000000	17.193732
3421.000000	17.748322
3420.000000	18.346805
3419.000000	18.981319
3418.000000	19.643654
3417.000000	20.329267
3416.000000	21.034948
3415.000000	21.754857
3414.000000	22.482381
3413.000000	23.212569
3412.000000	23.940751
3411.000000	24.660882
3410.000000	25.367962
3409.000000	26.060184
3408.000000	26.735766
3407.000000	27.389379
3406.000000	28.015433
3405.000000	28.613088
3404.000000	29.185579
3403.000000	29.737127
3402.000000	30.272462
3401.000000	30.796699
3400.000000	31.311751
3399.000000	31.813342
3398.000000	32.294966
3397.000000	32.754064
3396.000000	33.192405
3395.000000	33.613674
3394.000000	34.022770
3393.000000	34.425670
3392.000000	34.825976
3391.000000	35.222030
3390.000000	35.610857
3389.000000	35.992666
3388.000000	36.369486
3387.000000	36.741266
3386.000000	37.106317
3385.000000	37.464442
3384.000000	37.816716
3383.000000	38.163923
3382.000000	38.507666
3381.000000	38.851264
3380.000000	39.196763
3379.000000	39.542735
3378.000000	39.887318
3377.000000	40.231562
3376.000000	40.576599
3375.000000	40.919727
3374.000000	41.256903
3373.000000	41.588016
3372.000000	41.916588
3371.000000	42.245173
3370.000000	42.574174
3369.000000	42.903741
3368.000000	43.233769
3367.000000	43.562505
3366.000000	43.887776
3365.000000	44.209281
3364.000000	44.528049
3363.000000	44.844808
3362.000000	45.160536
3361.000000	45.476830
3360.000000	45.793744
3359.000000	46.108686
3358.000000	46.419331
3357.000000	46.725947
3356.000000	47.028891
3355.000000	47.326655
3354.000000	47.619065
3353.000000	47.910304
3352.000000	48.205470
3351.000000	48.504942
3350.000000	48.804421
3349.000000	49.099358
3348.000000	49.387366
3347.000000	49.667756
3346.000000	49.941992
3345.000000	50.213681
3344.000000	50.485248
3343.000000	50.755078
3342.000000	51.020083
3341.000000	51.280313
3340.000000	51.538753
3339.000000	51.797138
3338.000000	52.053900
3337.000000	52.306044
3336.000000	52.550919
3335.000000	52.786673
3334.000000	53.012979
3333.000000	53.230837
3332.000000	53.440521
3331.000000	53.639685
3330.000000	53.824860
3329.000000	53.994670
3328.000000	54.149656
3327.000000	54.289793
3326.000000	54.412991
3325.000000	54.515653
3324.000000	54.594143
3323.000000	54.645275
3322.000000	54.667283
3321.000000	54.659354
3320.000000	54.618751
3319.000000	54.540494
3318.000000	54.418097
3317.000000	54.245984
3316.000000	54.018364
3315.000000	53.726898
3314.000000	53.363042
3313.000000	52.919114
3312.000000	52.388059
3311.000000	51.762946
3310.000000	51.035661
3309.000000	50.200965
3308.000000	49.254118
3307.000000	48.189326
3306.000000	47.001941
3305.000000	45.686809
3304.000000	44.241218
3303.000000	42.662598
3302.000000	40.951876
3301.000000	39.117415
3300.000000	37.171787
3299.000000	35.133705
3298.000000	33.033234
3297.000000	30.914776
3296.000000	28.830909
3295.000000	26.831849
3294.000000	24.962071
3293.000000	23.260857
3292.000000	21.756034
3291.000000	20.452737
3290.000000	19.338332
3289.000000	18.388319
3288.000000	17.571478
3287.000000	16.854329
3286.000000	16.205375
3285.000000	15.604851
3284.000000	15.040720
3283.000000	14.505159
3282.000000	13.998725
3281.000000	13.531383
3280.000000	13.118591
3279.000000	12.774390
3278.000000	12.513146
3277.000000	12.353340
3276.000000	12.309703
3275.000000	12.386793
3274.000000	12.580062
3273.000000	12.878096
3272.000000	13.260164
3271.000000	13.690357
3270.000000	14.122832
3269.000000	14.510896
3268.000000	14.810635
3267.000000	14.984032
3266.000000	15.008295
3265.000000	14.881928
3264.000000	14.621390
3263.000000	14.256323
3262.000000	13.825867
3261.000000	13.377274
3260.000000	12.955930
3259.000000	12.596609
3258.000000	12.325502
3257.000000	12.163772
3256.000000	12.122477
3255.000000	12.198276
3254.000000	12.378756
3253.000000	12.647387
3252.000000	12.985114
3251.000000	13.367174
3250.000000	13.767945
3249.000000	14.167401
3248.000000	14.548192
3247.000000	14.893266
3246.000000	15.188831
3245.000000	15.428434
3244.000000	15.610644
3243.000000	15.736677
3242.000000	15.811420
3241.000000	15.844691
3240.000000	15.846500
3239.000000	15.821660
3238.000000	15.774185
3237.000000	15.710590
3236.000000	15.637730
3235.000000	15.560165
3234.000000	15.481259
3233.000000	15.404157
3232.000000	15.326616
3231.000000	15.239610
3230.000000	15.134885
3229.000000	15.009984
3228.000000	14.864351
3227.000000	14.694610
3226.000000	14.498217
3225.000000	14.277984
3224.000000	14.037825
3223.000000	13.778864
3222.000000	13.502937
3221.000000	13.216716
3220.000000	12.928468
3219.000000	12.643172
3218.000000	12.364534
3217.000000	12.097128
3216.000000	11.842500
3215.000000	11.596688
3214.000000	11.355454
3213.000000	11.118374
3212.000000	10.884710
3211.000000	10.649978
3210.000000	10.410711
3209.000000	10.169314
3208.000000	9.930336
3207.000000	9.696086
3206.000000	9.469632
3205.000000	9.257320
3204.000000	9.064813
3203.000000	8.893837
3202.000000	8.746224
3201.000000	8.627252
3200.000000	8.540426
3199.000000	8.484461
3198.000000	8.457810
3197.000000	8.461969
3196.000000	8.497579
3195.000000	8.560326
3194.000000	8.646398
3193.000000	8.756021
3192.000000	8.888505
3191.000000	9.039600
3190.000000	9.205454
3189.000000	9.386214
3188.000000	9.581549
3187.000000	9.787061
3186.000000	9.999310
3185.000000	10.218791
3184.000000	10.445546
3183.000000	10.676223
3182.000000	10.908769
3181.000000	11.145613
3180.000000	11.388090
3179.000000	11.632719
3178.000000	11.876088
3177.000000	12.118853
3176.000000	12.361712
3175.000000	12.601893
3174.000000	12.837065
3173.000000	13.068199
3172.000000	13.295522
3171.000000	13.515941
3170.000000	13.727762
3169.000000	13.933470
3168.000000	14.134544
3167.000000	14.328347
3166.000000	14.512648
3165.000000	14.688927
3164.000000	14.857948
3163.000000	15.016436
3162.000000	15.161902
3161.000000	15.295709
3160.000000	15.418862
3159.000000	15.529144
3158.000000	15.625224
3157.000000	15.710052
3156.000000	15.786740
3155.000000	15.855947
3154.000000	15.920114
3153.000000	15.985128
3152.000000	16.054814
3151.000000	16.127699
3150.000000	16.202440
3149.000000	16.281897
3148.000000	16.368770
3147.000000	16.461743
3146.000000	16.559315
3145.000000	16.663031
3144.000000	16.773672
3143.000000	16.888740
3142.000000	17.006573
3141.000000	17.128879
3140.000000	17.255983
3139.000000	17.383684
3138.000000	17.507937
3137.000000	17.628338
3136.000000	17.744069
3135.000000	17.850406
3134.000000	17.942537
3133.000000	18.018174
3132.000000	18.073859
3131.000000	18.102436
3130.000000	18.096703
3129.000000	18.053196
3128.000000	17.968999
3127.000000	17.841184
3126.000000	17.671869
3125.000000	17.469531
3124.000000	17.244254
3123.000000	17.003892
3122.000000	16.757566
3121.000000	16.516587
3120.000000	16.288250
3119.000000	16.073391
3118.000000	15.871933
3117.000000	15.686306
3116.000000	15.516664
3115.000000	15.358442
3114.000000	15.207612
3113.000000	15.064096
3112.000000	14.927366
3111.000000	14.794046
3110.000000	14.663334
3109.000000	14.539288
3108.000000	14.425362
3107.000000	14.321683
3106.000000	14.229912
3105.000000	14.156220
3104.000000	14.105443
3103.000000	14.077985
3102.000000	14.075368
3101.000000	14.102627
3100.000000	14.163743
3099.000000	14.258164
3098.000000	14.385535
3097.000000	14.548554
3096.000000	14.747014
3095.000000	14.976304
3094.000000	15.233082
3093.000000	15.518102
3092.000000	15.830797
3091.000000	16.165198
3090.000000	16.515483
3089.000000	16.879178
3088.000000	17.252861
3087.000000	17.630458
3086.000000	18.008061
3085.000000	18.386290
3084.000000	18.764568
3083.000000	19.138365
3082.000000	19.504810
3081.000000	19.865729
3080.000000	20.222437
3079.000000	20.572247
3078.000000	20.913047
3077.000000	21.246038
3076.000000	21.571623
3075.000000	21.887051
3074.000000	22.190873
3073.000000	22.485349
3072.000000	22.771546
3071.000000	23.047379
3070.000000	23.312531
3069.000000	23.570668
3068.000000	23.824211
3067.000000	24.070900
3066.000000	24.308632
3065.000000	24.539022
3064.000000	24.763648
3063.000000	24.981403
3062.000000	25.191894
3061.000000	25.397715
3060.000000	25.600594
3059.000000	25.799116
3058.000000	25.992692
3057.000000	26.183423
3056.000000	26.372161
3055.000000	26.556655
3054.000000	26.735971
3053.000000	26.913047
3052.000000	27.090144
3051.000000	27.265759
3050.000000	27.438092
3049.000000	27.607904
3048.000000	27.776030
3047.000000	27.941624
3046.000000	28.105092
3045.000000	28.269094
3044.000000	28.434455
3043.000000	28.598729
3042.000000	28.760403
3041.000000	28.920736
3040.000000	29.079886
3039.000000	29.235218
3038.000000	29.385906
3037.000000	29.535254
3036.000000	29.686302
3035.000000	29.838694
3034.000000	29.991547
3033.000000	30.145650
3032.000000	30.300721
3031.000000	30.454490
3030.000000	30.606576
3029.000000	30.759506
3028.000000	30.914081
3027.000000	31.067617
3026.000000	31.218424
3025.000000	31.367954
3024.000000	31.516550
3023.000000	31.661207
3022.000000	31.799485
3021.000000	31.931389
3020.000000	32.055430
3019.000000	32.165921
3018.000000	32.256659
3017.000000	32.323736
3016.000000	32.363608
3015.000000	32.373674
3014.000000	32.357809
3013.000000	32.329642
3012.000000	32.308075
3011.000000	32.312013
3010.000000	32.358289
3009.000000	32.457888
3008.000000	32.609639
3007.000000	32.799603
3006.000000	33.008417
3005.000000	33.216643
3004.000000	33.403190
3003.000000	33.543617
3002.000000	33.613869
3001.000000	33.593571
3000.000000	33.468488
2999.000000	33.237771
2998.000000	32.926306
2997.000000	32.588978
2996.000000	32.298255
2995.000000	32.123428
2994.000000	32.110427
2993.000000	32.268956
2992.000000	32.568873
2991.000000	32.954929
2990.000000	33.370924
2989.000000	33.775865
2988.000000	34.145297
2987.000000	34.466678
2986.000000	34.738113
2985.000000	34.964545
2984.000000	35.151275
2983.000000	35.300479
2982.000000	35.414649
2981.000000	35.497485
2980.000000	35.549596
2979.000000	35.566588
2978.000000	35.543368
2977.000000	35.479056
2976.000000	35.376387
2975.000000	35.242853
2974.000000	35.094548
2973.000000	34.955248
2972.000000	34.847964
2971.000000	34.785910
2970.000000	34.768928
2969.000000	34.780298
2968.000000	34.784121
2967.000000	34.733653
2966.000000	34.592242
2965.000000	34.351216
2964.000000	34.031999
2963.000000	33.676227
2962.000000	33.333894
2961.000000	33.050380
2960.000000	32.856149
2959.000000	32.764534
2958.000000	32.778529
2957.000000	32.893767
2956.000000	33.095662
2955.000000	33.360732
2954.000000	33.663089
2953.000000	33.977182
2952.000000	34.273145
2951.000000	34.519773
2950.000000	34.696475
2949.000000	34.802460
2948.000000	34.852781
2947.000000	34.866381
2946.000000	34.852093
2945.000000	34.790344
2944.000000	34.625039
2943.000000	34.286245
2942.000000	33.745637
2941.000000	33.064737
2940.000000	32.395298
2939.000000	31.924783
2938.000000	31.795810
2937.000000	32.046742
2936.000000	32.602214
2935.000000	33.321016
2934.000000	34.065356
2933.000000	34.746250
2932.000000	35.327362
2931.000000	35.808038
2930.000000	36.206895
2929.000000	36.547203
2928.000000	36.846792
2927.000000	37.114955
2926.000000	37.358536
2925.000000	37.584674
2924.000000	37.797042
2923.000000	37.994531
2922.000000	38.176475
2921.000000	38.345180
2920.000000	38.501670
2919.000000	38.644074
2918.000000	38.771452
2917.000000	38.885630
2916.000000	38.987795
2915.000000	39.077123
2914.000000	39.154251
2913.000000	39.222013
2912.000000	39.281739
2911.000000	39.332288
2910.000000	39.373239
2909.000000	39.404806
2908.000000	39.423419
2907.000000	39.420506
2906.000000	39.386621
2905.000000	39.311979
2904.000000	39.183009
2903.000000	38.982899
2902.000000	38.702295
2901.000000	38.344652
2900.000000	37.927440
2899.000000	37.484230
2898.000000	37.063861
2897.000000	36.722102
2896.000000	36.502552
2895.000000	36.423476
2894.000000	36.479181
2893.000000	36.646438
2892.000000	36.890723
2891.000000	37.174538
2890.000000	37.468767
2889.000000	37.756442
2888.000000	38.027886
2887.000000	38.276665
2886.000000	38.500428
2885.000000	38.700803
2884.000000	38.878571
2883.000000	39.032792
2882.000000	39.165016
2881.000000	39.280368
2880.000000	39.383232
2879.000000	39.475524
2878.000000	39.560236
2877.000000	39.642246
2876.000000	39.723952
2875.000000	39.803436
2874.000000	39.878525
2873.000000	39.949144
2872.000000	40.015449
2871.000000	40.078517
2870.000000	40.144141
2869.000000	40.221616
2868.000000	40.316440
2867.000000	40.427105
2866.000000	40.549423
2865.000000	40.679362
2864.000000	40.810890
2863.000000	40.936623
2862.000000	41.053108
2861.000000	41.161788
2860.000000	41.263619
2859.000000	41.356903
2858.000000	41.441862
2857.000000	41.522656
2856.000000	41.602834
2855.000000	41.682691
2854.000000	41.762350
2853.000000	41.842864
2852.000000	41.922548
2851.000000	41.996579
2850.000000	42.062200
2849.000000	42.120823
2848.000000	42.174081
2847.000000	42.222141
2846.000000	42.267300
2845.000000	42.314549
2844.000000	42.366621
2843.000000	42.422148
2842.000000	42.480237
2841.000000	42.543019
2840.000000	42.611856
2839.000000	42.684885
2838.000000	42.760275
2837.000000	42.838637
2836.000000	42.920599
2835.000000	43.005277
2834.000000	43.092514
2833.000000	43.183501
2832.000000	43.277759
2831.000000	43.372503
2830.000000	43.466156
2829.000000	43.559465
2828.000000	43.652246
2827.000000	43.742441
2826.000000	43.829381
2825.000000	43.914664
2824.000000	43.998834
2823.000000	44.080470
2822.000000	44.159554
2821.000000	44.238167
2820.000000	44.316660
2819.000000	44.392516
2818.000000	44.464086
2817.000000	44.532180
2816.000000	44.596984
2815.000000	44.656917
2814.000000	44.711881
2813.000000	44.764393
2812.000000	44.816257
2811.000000	44.867128
2810.000000	44.917178
2809.000000	44.967790
2808.000000	45.018586
2807.000000	45.067158
2806.000000	45.112889
2805.000000	45.157827
2804.000000	45.202772
2803.000000	45.245957
2802.000000	45.286702
2801.000000	45.327026
2800.000000	45.368474
2799.000000	45.410480
2798.000000	45.452910
2797.000000	45.496857
2796.000000	45.541793
2795.000000	45.585157
2794.000000	45.625885
2793.000000	45.665322
2792.000000	45.703905
2791.000000	45.740227
2790.000000	45.774182
2789.000000	45.807524
2788.000000	45.840299
2787.000000	45.870180
2786.000000	45.896483
2785.000000	45.921710
2784.000000	45.948254
2783.000000	45.977061
2782.000000	46.010342
2781.000000	46.051643
2780.000000	46.101682
2779.000000	46.157220
2778.000000	46.215122
2777.000000	46.274502
2776.000000	46.334153
2775.000000	46.391634
2774.000000	46.446406
2773.000000	46.500602
2772.000000	46.555403
2771.000000	46.609628
2770.000000	46.662702
2769.000000	46.715744
2768.000000	46.768643
2767.000000	46.819140
2766.000000	46.865872
2765.000000	46.909234
2764.000000	46.948580
2763.000000	46.982101
2762.000000	47.010410
2761.000000	47.036987
2760.000000	47.064022
2759.000000	47.090919
2758.000000	47.117587
2757.000000	47.145381
2756.000000	47.173628
2755.000000	47.198824
2754.000000	47.218818
2753.000000	47.235137
2752.000000	47.250413
2751.000000	47.266776
2750.000000	47.287510
2749.000000	47.316275
2748.000000	47.352750
2747.000000	47.391910
2746.000000	47.428887
2745.000000	47.462050
2744.000000	47.491056
2743.000000	47.515595
2742.000000	47.536981
2741.000000	47.557353
2740.000000	47.575746
2739.000000	47.588010
2738.000000	47.592211
2737.000000	47.591883
2736.000000	47.593583
2735.000000	47.604475
2734.000000	47.632332
2733.000000	47.682727
2732.000000	47.753836
2731.000000	47.836637
2730.000000	47.921583
2729.000000	48.003279
2728.000000	48.078697
2727.000000	48.145293
2726.000000	48.202794
2725.000000	48.253578
2724.000000	48.299411
2723.000000	48.340178
2722.000000	48.376310
2721.000000	48.409333
2720.000000	48.439325
2719.000000	48.464594
2718.000000	48.484964
2717.000000	48.502686
2716.000000	48.519295
2715.000000	48.534803
2714.000000	48.550642
2713.000000	48.570113
2712.000000	48.595015
2711.000000	48.624690
2710.000000	48.658964
2709.000000	48.698772
2708.000000	48.743039
2707.000000	48.788109
2706.000000	48.831262
2705.000000	48.871740
2704.000000	48.907718
2703.000000	48.935730
2702.000000	48.954084
2701.000000	48.963674
2700.000000	48.964985
2699.000000	48.957477
2698.000000	48.942782
2697.000000	48.925396
2696.000000	48.908887
2695.000000	48.894407
2694.000000	48.883250
2693.000000	48.877073
2692.000000	48.874717
2691.000000	48.872252
2690.000000	48.867525
2689.000000	48.861938
2688.000000	48.857219
2687.000000	48.853759
2686.000000	48.852930
2685.000000	48.857361
2684.000000	48.867741
2683.000000	48.882616
2682.000000	48.902029
2681.000000	48.928277
2680.000000	48.962011
2679.000000	49.000641
2678.000000	49.041477
2677.000000	49.082930
2676.000000	49.122126
2675.000000	49.155010
2674.000000	49.179979
2673.000000	49.198499
2672.000000	49.211594
2671.000000	49.219052
2670.000000	49.222873
2669.000000	49.228052
2668.000000	49.238757
2667.000000	49.256619
2666.000000	49.283075
2665.000000	49.319410
2664.000000	49.363320
2663.000000	49.409003
2662.000000	49.451819
2661.000000	49.489983
2660.000000	49.521467
2659.000000	49.543117
2658.000000	49.554146
2657.000000	49.557439
2656.000000	49.556294
2655.000000	49.552848
2654.000000	49.550471
2653.000000	49.554045
2652.000000	49.566628
2651.000000	49.588665
2650.000000	49.620819
2649.000000	49.663924
2648.000000	49.715511
2647.000000	49.769784
2646.000000	49.822154
2645.000000	49.871206
2644.000000	49.915943
2643.000000	49.955231
2642.000000	49.990861
2641.000000	50.027484
2640.000000	50.068151
2639.000000	50.112516
2638.000000	50.159711
2637.000000	50.209336
2636.000000	50.258933
2635.000000	50.304115
2634.000000	50.342570
2633.000000	50.375084
2632.000000	50.402211
2631.000000	50.423507
2630.000000	50.440431
2629.000000	50.456446
2628.000000	50.472963
2627.000000	50.488198
2626.000000	50.500839
2625.000000	50.511173
2624.000000	50.518389
2623.000000	50.520548
2622.000000	50.518295
2621.000000	50.515309
2620.000000	50.513844
2619.000000	50.513159
2618.000000	50.512760
2617.000000	50.513159
2616.000000	50.512447
2615.000000	50.505644
2614.000000	50.489243
2613.000000	50.463526
2612.000000	50.429755
2611.000000	50.389106
2610.000000	50.345534
2609.000000	50.306201
2608.000000	50.277269
2607.000000	50.261694
2606.000000	50.261204
2605.000000	50.277032
2604.000000	50.307351
2603.000000	50.347251
2602.000000	50.392908
2601.000000	50.442386
2600.000000	50.492487
2599.000000	50.538518
2598.000000	50.578108
2597.000000	50.612467
2596.000000	50.643027
2595.000000	50.670346
2594.000000	50.696876
2593.000000	50.726901
2592.000000	50.762263
2591.000000	50.801102
2590.000000	50.841273
2589.000000	50.881505
2588.000000	50.918664
2587.000000	50.947788
2586.000000	50.966572
2585.000000	50.977061
2584.000000	50.982384
2583.000000	50.985351
2582.000000	50.990861
2581.000000	51.005705
2580.000000	51.034296
2579.000000	51.077034
2578.000000	51.132918
2577.000000	51.200503
2576.000000	51.275427
2575.000000	51.351041
2574.000000	51.423134
2573.000000	51.491069
2572.000000	51.554370
2571.000000	51.611710
2570.000000	51.663956
2569.000000	51.714553
2568.000000	51.765617
2567.000000	51.816643
2566.000000	51.867613
2565.000000	51.919883
2564.000000	51.972819
2563.000000	52.023137
2562.000000	52.068567
2561.000000	52.109318
2560.000000	52.145489
2559.000000	52.176373
2558.000000	52.203432
2557.000000	52.230520
2556.000000	52.260124
2555.000000	52.292265
2554.000000	52.327557
2553.000000	52.367900
2552.000000	52.413210
2551.000000	52.460660
2550.000000	52.508011
2549.000000	52.554788
2548.000000	52.599657
2547.000000	52.640185
2546.000000	52.676156
2545.000000	52.710040
2544.000000	52.743326
2543.000000	52.775312
2542.000000	52.805815
2541.000000	52.835465
2540.000000	52.862824
2539.000000	52.884260
2538.000000	52.897791
2537.000000	52.903979
2536.000000	52.902364
2535.000000	52.891037
2534.000000	52.870069
2533.000000	52.842335
2532.000000	52.810128
2531.000000	52.773966
2530.000000	52.735860
2529.000000	52.699793
2528.000000	52.667973
2527.000000	52.639761
2526.000000	52.614992
2525.000000	52.595016
2524.000000	52.579343
2523.000000	52.564541
2522.000000	52.547499
2521.000000	52.526855
2520.000000	52.500792
2519.000000	52.466908
2518.000000	52.425296
2517.000000	52.378677
2516.000000	52.328417
2515.000000	52.273853
2514.000000	52.215923
2513.000000	52.158099
2512.000000	52.103080
2511.000000	52.052042
2510.000000	52.007788
2509.000000	51.975012
2508.000000	51.956343
2507.000000	51.950918
2506.000000	51.958103
2505.000000	51.978491
2504.000000	52.010797
2503.000000	52.051635
2502.000000	52.098517
2501.000000	52.150432
2500.000000	52.204409
2499.000000	52.255248
2498.000000	52.299852
2497.000000	52.338321
2496.000000	52.370565
2495.000000	52.395474
2494.000000	52.413940
2493.000000	52.428823
2492.000000	52.441290
2491.000000	52.450434
2490.000000	52.457260
2489.000000	52.465411
2488.000000	52.476836
2487.000000	52.490335
2486.000000	52.504929
2485.000000	52.521122
2484.000000	52.538169
2483.000000	52.553804
2482.000000	52.567680
2481.000000	52.581782
2480.000000	52.596825
2479.000000	52.611652
2478.000000	52.626986
2477.000000	52.646031
2476.000000	52.670761
2475.000000	52.700983
2474.000000	52.737348
2473.000000	52.781770
2472.000000	52.833717
2471.000000	52.889775
2470.000000	52.947711
2469.000000	53.007411
2468.000000	53.067786
2467.000000	53.126294
2466.000000	53.182306
2465.000000	53.237348
2464.000000	53.291312
2463.000000	53.341877
2462.000000	53.388166
2461.000000	53.431362
2460.000000	53.470946
2459.000000	53.504292
2458.000000	53.530341
2457.000000	53.550417
2456.000000	53.564979
2455.000000	53.573190
2454.000000	53.576806
2453.000000	53.580548
2452.000000	53.587821
2451.000000	53.599222
2450.000000	53.615518
2449.000000	53.638188
2448.000000	53.666319
2447.000000	53.696805
2446.000000	53.728499
2445.000000	53.763079
2444.000000	53.801127
2443.000000	53.841231
2442.000000	53.883402
2441.000000	53.929314
2440.000000	53.978493
2439.000000	54.027735
2438.000000	54.075143
2437.000000	54.121158
2436.000000	54.165030
2435.000000	54.203870
2434.000000	54.236091
2433.000000	54.262138
2432.000000	54.281116
2431.000000	54.290826
2430.000000	54.291579
2429.000000	54.286723
2428.000000	54.278268
2427.000000	54.265114
2426.000000	54.246663
2425.000000	54.223997
2424.000000	54.197219
2423.000000	54.165379
2422.000000	54.130068
2421.000000	54.095846
2420.000000	54.066056
2419.000000	54.041590
2418.000000	54.024100
2417.000000	54.016525
2416.000000	54.019126
2415.000000	54.028637
2414.000000	54.041937
2413.000000	54.056967
2412.000000	54.069516
2411.000000	54.073177
2410.000000	54.063747
2409.000000	54.040650
2408.000000	54.003975
2407.000000	53.953757
2406.000000	53.893417
2405.000000	53.829721
2404.000000	53.768293
2403.000000	53.712430
2402.000000	53.666380
2401.000000	53.635305
2400.000000	53.620577
2399.000000	53.618720
2398.000000	53.625546
2397.000000	53.637924
2396.000000	53.650692
2395.000000	53.656845
2394.000000	53.652478
2393.000000	53.638635
2392.000000	53.618021
2391.000000	53.594043
2390.000000	53.573989
2389.000000	53.568422
2388.000000	53.586428
2387.000000	53.633317
2386.000000	53.713544
2385.000000	53.830972
2384.000000	53.983631
2383.000000	54.162541
2382.000000	54.355148
2381.000000	54.547322
2380.000000	54.721714
2379.000000	54.859070
2378.000000	54.947906
2377.000000	54.988032
2376.000000	54.986120
2375.000000	54.951861
2374.000000	54.899601
2373.000000	54.848076
2372.000000	54.811196
2371.000000	54.790777
2370.000000	54.784497
2369.000000	54.797180
2368.000000	54.832856
2367.000000	54.883533
2366.000000	54.944112
2365.000000	55.024677
2364.000000	55.126057
2363.000000	55.241261
2362.000000	55.368269
2361.000000	55.493267
2360.000000	55.605357
2359.000000	55.684712
2358.000000	55.719131
2357.000000	55.716426
2356.000000	55.679264
2355.000000	55.624953
2354.000000	55.578249
2353.000000	55.585368
2352.000000	55.657100
2351.000000	55.721768
2350.000000	55.721741
2349.000000	55.662191
2348.000000	55.633730
2347.000000	55.693218
2346.000000	55.797620
2345.000000	55.877815
2344.000000	55.888074
2343.000000	55.860605
2342.000000	55.825237
2341.000000	55.797087
2340.000000	55.776923
2339.000000	55.759755
2338.000000	55.744149
2337.000000	55.739934
2336.000000	55.755105
2335.000000	55.795839
2334.000000	55.844269
2333.000000	55.874880
2332.000000	55.861104
2331.000000	55.777418
2330.000000	55.652643
2329.000000	55.513588
2328.000000	55.400013
2327.000000	55.324945
2326.000000	55.285255
2325.000000	55.276705
2324.000000	55.264278
2323.000000	55.230196
2322.000000	55.157421
2321.000000	55.059965
2320.000000	54.953842
2319.000000	54.858439
2318.000000	54.793321
2317.000000	54.766439
2316.000000	54.770297
2315.000000	54.776048
2314.000000	54.759150
2313.000000	54.703090
2312.000000	54.608643
2311.000000	54.481471
2310.000000	54.334004
2309.000000	54.176603
2308.000000	54.013929
2307.000000	53.847671
2306.000000	53.680606
2305.000000	53.519452
2304.000000	53.364870
2303.000000	53.212995
2302.000000	53.061768
2301.000000	52.912730
2300.000000	52.769264
2299.000000	52.631746
2298.000000	52.504469
2297.000000	52.390657
2296.000000	52.291887
2295.000000	52.205334
2294.000000	52.131065
2293.000000	52.071608
2292.000000	52.027326
2291.000000	51.996684
2290.000000	51.980170
2289.000000	51.981843
2288.000000	52.003492
2287.000000	52.045299
2286.000000	52.108214
2285.000000	52.193845
2284.000000	52.297289
2283.000000	52.408601
2282.000000	52.518220
2281.000000	52.620309
2280.000000	52.709324
2279.000000	52.781346
2278.000000	52.838266
2277.000000	52.886508
2276.000000	52.931995
2275.000000	52.978097
2274.000000	53.030222
2273.000000	53.094169
2272.000000	53.170953
2271.000000	53.256817
2270.000000	53.349170
2269.000000	53.448342
2268.000000	53.553367
2267.000000	53.661344
2266.000000	53.772350
2265.000000	53.888982
2264.000000	54.011995
2263.000000	54.139467
2262.000000	54.270580
2261.000000	54.406312
2260.000000	54.543807
2259.000000	54.677334
2258.000000	54.802551
2257.000000	54.918057
2256.000000	55.021729
2255.000000	55.110849
2254.000000	55.187061
2253.000000	55.255557
2252.000000	55.320788
2251.000000	55.384761
2250.000000	55.451820
2249.000000	55.526774
2248.000000	55.610346
2247.000000	55.699023
2246.000000	55.788768
2245.000000	55.876870
2244.000000	55.958485
2243.000000	56.027826
2242.000000	56.082982
2241.000000	56.126343
2240.000000	56.159449
2239.000000	56.182153
2238.000000	56.196741
2237.000000	56.208240
2236.000000	56.219792
2235.000000	56.231617
2234.000000	56.244965
2233.000000	56.262484
2232.000000	56.284046
2231.000000	56.306535
2230.000000	56.328240
2229.000000	56.349441
2228.000000	56.368617
2227.000000	56.382951
2226.000000	56.393366
2225.000000	56.404543
2224.000000	56.419202
2223.000000	56.436308
2222.000000	56.455100
2221.000000	56.476155
2220.000000	56.497914
2219.000000	56.516911
2218.000000	56.532494
2217.000000	56.547431
2216.000000	56.563353
2215.000000	56.579927
2214.000000	56.598938
2213.000000	56.624523
2212.000000	56.658426
2211.000000	56.698914
2210.000000	56.744736
2209.000000	56.795725
2208.000000	56.849024
2207.000000	56.899205
2206.000000	56.942933
2205.000000	56.979752
2204.000000	57.008022
2203.000000	57.024661
2202.000000	57.029522
2201.000000	57.025922
2200.000000	57.016307
2199.000000	57.001487
2198.000000	56.984492
2197.000000	56.970686
2196.000000	56.963405
2195.000000	56.963297
2194.000000	56.972193
2193.000000	56.992943
2192.000000	57.024845
2191.000000	57.063697
2190.000000	57.106830
2189.000000	57.154030
2188.000000	57.203368
2187.000000	57.251157
2186.000000	57.296756
2185.000000	57.343043
2184.000000	57.391440
2183.000000	57.440433
2182.000000	57.489390
2181.000000	57.539209
2180.000000	57.588680
2179.000000	57.634401
2178.000000	57.674854
2177.000000	57.710697
2176.000000	57.740872
2175.000000	57.762969
2174.000000	57.777691
2173.000000	57.788643
2172.000000	57.797351
2171.000000	57.802718
2170.000000	57.805525
2169.000000	57.808685
2168.000000	57.812500
2167.000000	57.814278
2166.000000	57.813376
2165.000000	57.812157
2164.000000	57.811373
2163.000000	57.809265
2162.000000	57.805915
2161.000000	57.804182
2160.000000	57.805678
2159.000000	57.810128
2158.000000	57.819177
2157.000000	57.836126
2156.000000	57.861154
2155.000000	57.890852
2154.000000	57.922794
2153.000000	57.956243
2152.000000	57.988464
2151.000000	58.015326
2150.000000	58.036401
2149.000000	58.055126
2148.000000	58.073336
2147.000000	58.090178
2146.000000	58.106411
2145.000000	58.124771
2144.000000	58.145416
2143.000000	58.165485
2142.000000	58.183589
2141.000000	58.200594
2140.000000	58.215856
2139.000000	58.227173
2138.000000	58.234768
2137.000000	58.240970
2136.000000	58.245755
2135.000000	58.246950
2134.000000	58.245001
2133.000000	58.242707
2132.000000	58.239970
2131.000000	58.233407
2130.000000	58.221614
2129.000000	58.206298
2128.000000	58.188018
2127.000000	58.165686
2126.000000	58.141006
2125.000000	58.118745
2124.000000	58.101876
2123.000000	58.091027
2122.000000	58.088762
2121.000000	58.099408
2120.000000	58.124027
2119.000000	58.159735
2118.000000	58.203901
2117.000000	58.254387
2116.000000	58.305748
2115.000000	58.350482
2114.000000	58.385341
2113.000000	58.412409
2112.000000	58.433984
2111.000000	58.450911
2110.000000	58.465667
2109.000000	58.482025
2108.000000	58.500793
2107.000000	58.519799
2106.000000	58.538428
2105.000000	58.557938
2104.000000	58.577224
2103.000000	58.592841
2102.000000	58.603238
2101.000000	58.608785
2100.000000	58.607624
2099.000000	58.596150
2098.000000	58.574261
2097.000000	58.545687
2096.000000	58.513091
2095.000000	58.477907
2094.000000	58.444986
2093.000000	58.421661
2092.000000	58.411419
2091.000000	58.412886
2090.000000	58.425172
2089.000000	58.449391
2088.000000	58.484630
2087.000000	58.527820
2086.000000	58.577388
2085.000000	58.632201
2084.000000	58.687674
2083.000000	58.737740
2082.000000	58.780263
2081.000000	58.816080
2080.000000	58.843324
2079.000000	58.857808
2078.000000	58.859103
2077.000000	58.850307
2076.000000	58.832329
2075.000000	58.803918
2074.000000	58.766467
2073.000000	58.723797
2072.000000	58.677093
2071.000000	58.624910
2070.000000	58.568482
2069.000000	58.511987
2068.000000	58.456713
2067.000000	58.399139
2066.000000	58.334989
2065.000000	58.261704
2064.000000	58.177597
2063.000000	58.083875
2062.000000	57.986731
2061.000000	57.892046
2060.000000	57.799034
2059.000000	57.703559
2058.000000	57.606564
2057.000000	57.513176
2056.000000	57.424992
2055.000000	57.340030
2054.000000	57.259309
2053.000000	57.186865
2052.000000	57.123334
2051.000000	57.065267
2050.000000	57.011175
2049.000000	56.963147
2048.000000	56.921290
2047.000000	56.882402
2046.000000	56.846371
2045.000000	56.817826
2044.000000	56.799197
2043.000000	56.787589
2042.000000	56.780396
2041.000000	56.778733
2040.000000	56.783467
2039.000000	56.794223
2038.000000	56.813272
2037.000000	56.843752
2036.000000	56.883589
2035.000000	56.927032
2034.000000	56.973117
2033.000000	57.025852
2032.000000	57.085925
2031.000000	57.149720
2030.000000	57.216800
2029.000000	57.290399
2028.000000	57.369670
2027.000000	57.448795
2026.000000	57.524731
2025.000000	57.599396
2024.000000	57.672264
2023.000000	57.738360
2022.000000	57.796790
2021.000000	57.854559
2020.000000	57.917545
2019.000000	57.983234
2018.000000	58.046220
2017.000000	58.105276
2016.000000	58.162730
2015.000000	58.222894
2014.000000	58.292445
2013.000000	58.375947
2012.000000	58.468615
2011.000000	58.559342
2010.000000	58.643166
2009.000000	58.723623
2008.000000	58.802363
2007.000000	58.876276
2006.000000	58.945996
2005.000000	59.018438
2004.000000	59.097151
2003.000000	59.178691
2002.000000	59.260468
2001.000000	59.343031
2000.000000	59.424088
1999.000000	59.497718
1998.000000	59.560813
1997.000000	59.616434
1996.000000	59.671121
1995.000000	59.729763
1994.000000	59.792741
1993.000000	59.855774
1992.000000	59.912384
1991.000000	59.962161
1990.000000	60.015241
1989.000000	60.082567
1988.000000	60.163836
1987.000000	60.248328
1986.000000	60.327516
1985.000000	60.402998
1984.000000	60.479105
1983.000000	60.555041
1982.000000	60.627755
1981.000000	60.697715
1980.000000	60.769060
1979.000000	60.844814
1978.000000	60.923698
1977.000000	61.002492
1976.000000	61.080771
1975.000000	61.159714
1974.000000	61.237905
1973.000000	61.312529
1972.000000	61.384722
1971.000000	61.459702
1970.000000	61.540207
1969.000000	61.622593
1968.000000	61.697786
1967.000000	61.754671
1966.000000	61.787987
1965.000000	61.804908
1964.000000	61.819251
1963.000000	61.836984
1962.000000	61.850257
1961.000000	61.848941
1960.000000	61.834448
1959.000000	61.817059
1958.000000	61.803516
1957.000000	61.794080
1956.000000	61.789789
1955.000000	61.793130
1954.000000	61.803135
1953.000000	61.817502
1952.000000	61.836550
1951.000000	61.861722
1950.000000	61.892305
1949.000000	61.925645
1948.000000	61.959880
1947.000000	61.995761
1946.000000	62.035476
1945.000000	62.078960
1944.000000	62.120421
1943.000000	62.148121
1942.000000	62.152492
1941.000000	62.138140
1940.000000	62.123284
1939.000000	62.123424
1938.000000	62.137821
1937.000000	62.153555
1936.000000	62.161848
1935.000000	62.164730
1934.000000	62.166376
1933.000000	62.166606
1932.000000	62.161661
1931.000000	62.152256
1930.000000	62.145031
1929.000000	62.143592
1928.000000	62.144517
1927.000000	62.147341
1926.000000	62.162911
1925.000000	62.197891
1924.000000	62.237678
1923.000000	62.257636
1922.000000	62.253567
1921.000000	62.244243
1920.000000	62.244510
1919.000000	62.254883
1918.000000	62.269511
1917.000000	62.281701
1916.000000	62.286469
1915.000000	62.286475
1914.000000	62.291777
1913.000000	62.306243
1912.000000	62.319294
1911.000000	62.320530
1910.000000	62.312940
1909.000000	62.302029
1908.000000	62.284570
1907.000000	62.261334
1906.000000	62.249774
1905.000000	62.263621
1904.000000	62.291625
1903.000000	62.317741
1902.000000	62.347369
1901.000000	62.391617
1900.000000	62.444702
1899.000000	62.497463
1898.000000	62.557785
1897.000000	62.634909
1896.000000	62.713633
1895.000000	62.770498
1894.000000	62.810194
1893.000000	62.857535
1892.000000	62.920420
1891.000000	62.986106
1890.000000	63.041246
1889.000000	63.079495
1888.000000	63.100469
1887.000000	63.115754
1886.000000	63.146899
1885.000000	63.200391
1884.000000	63.254895
1883.000000	63.291816
1882.000000	63.322799
1881.000000	63.365521
1880.000000	63.414409
1879.000000	63.454534
1878.000000	63.489390
1877.000000	63.533375
1876.000000	63.584489
1875.000000	63.631213
1874.000000	63.679038
1873.000000	63.743862
1872.000000	63.823251
1871.000000	63.899024
1870.000000	63.963596
1869.000000	64.017146
1868.000000	64.044124
1867.000000	64.036634
1866.000000	64.026515
1865.000000	64.049173
1864.000000	64.103780
1863.000000	64.168068
1862.000000	64.233831
1861.000000	64.307837
1860.000000	64.383098
1859.000000	64.442043
1858.000000	64.485952
1857.000000	64.530440
1856.000000	64.574025
1855.000000	64.606611
1854.000000	64.633288
1853.000000	64.664593
1852.000000	64.701803
1851.000000	64.743405
1850.000000	64.798741
1849.000000	64.875356
1848.000000	64.960130
1847.000000	65.031527
1846.000000	65.082436
1845.000000	65.118030
1844.000000	65.137698
1843.000000	65.141242
1842.000000	65.144391
1841.000000	65.165913
1840.000000	65.211245
1839.000000	65.272561
1838.000000	65.335655
1837.000000	65.388973
1836.000000	65.429312
1835.000000	65.467026
1834.000000	65.516769
1833.000000	65.582641
1832.000000	65.660854
1831.000000	65.737923
1830.000000	65.788759
1829.000000	65.802625
1828.000000	65.807200
1827.000000	65.832444
1826.000000	65.881418
1825.000000	65.943131
1824.000000	65.998703
1823.000000	66.039354
1822.000000	66.076993
1821.000000	66.132426
1820.000000	66.209339
1819.000000	66.282601
1818.000000	66.333834
1817.000000	66.375265
1816.000000	66.420262
1815.000000	66.459221
1814.000000	66.484861
1813.000000	66.511970
1812.000000	66.546636
1811.000000	66.562205
1810.000000	66.547093
1809.000000	66.535208
1808.000000	66.546293
1807.000000	66.558535
1806.000000	66.563460
1805.000000	66.583430
1804.000000	66.625255
1803.000000	66.658604
1802.000000	66.657047
1801.000000	66.637310
1800.000000	66.624566
1799.000000	66.620045
1798.000000	66.631329
1797.000000	66.675416
1796.000000	66.739512
1795.000000	66.787627
1794.000000	66.806569
1793.000000	66.826320
1792.000000	66.864910
1791.000000	66.888319
1790.000000	66.884077
1789.000000	66.887274
1788.000000	66.915259
1787.000000	66.949199
1786.000000	66.973135
1785.000000	66.993078
1784.000000	67.016774
1783.000000	67.041273
1782.000000	67.063499
1781.000000	67.089142
1780.000000	67.114058
1779.000000	67.129197
1778.000000	67.143992
1777.000000	67.179456
1776.000000	67.241458
1775.000000	67.309435
1774.000000	67.352000
1773.000000	67.367100
1772.000000	67.387837
1771.000000	67.424431
1770.000000	67.464640
1769.000000	67.515162
1768.000000	67.595996
1767.000000	67.696200
1766.000000	67.783223
1765.000000	67.857764
1764.000000	67.943004
1763.000000	68.035313
1762.000000	68.088370
1761.000000	68.084133
1760.000000	68.065433
1759.000000	68.067097
1758.000000	68.082268
1757.000000	68.093970
1756.000000	68.111615
1755.000000	68.149013
1754.000000	68.186740
1753.000000	68.208384
1752.000000	68.240169
1751.000000	68.315864
1750.000000	68.413064
1749.000000	68.480766
1748.000000	68.524351
1747.000000	68.582324
1746.000000	68.656832
1745.000000	68.730102
1744.000000	68.804448
1743.000000	68.877225
1742.000000	68.922575
1741.000000	68.935098
1740.000000	68.956669
1739.000000	69.018547
1738.000000	69.092112
1737.000000	69.142566
1736.000000	69.156285
1735.000000	69.143759
1734.000000	69.136642
1733.000000	69.139948
1732.000000	69.149047
1731.000000	69.171252
1730.000000	69.207510
1729.000000	69.237760
1728.000000	69.252579
1727.000000	69.269722
1726.000000	69.296465
1725.000000	69.324907
1724.000000	69.341389
1723.000000	69.345929
1722.000000	69.356089
1721.000000	69.387187
1720.000000	69.434715
1719.000000	69.469199
1718.000000	69.466069
1717.000000	69.457302
1716.000000	69.461801
1715.000000	69.451058
1714.000000	69.448311
1713.000000	69.491720
1712.000000	69.559958
1711.000000	69.616649
1710.000000	69.662704
1709.000000	69.717702
1708.000000	69.783813
1707.000000	69.843391
1706.000000	69.903164
1705.000000	69.991878
1704.000000	70.095798
1703.000000	70.170041
1702.000000	70.187362
1701.000000	70.210111
1700.000000	70.300841
1699.000000	70.370691
1698.000000	70.376408
1697.000000	70.407206
1696.000000	70.507559
1695.000000	70.609925
1694.000000	70.658582
1693.000000	70.685886
1692.000000	70.732869
1691.000000	70.812266
1690.000000	70.904553
1689.000000	70.985285
1688.000000	71.050758
1687.000000	71.100529
1686.000000	71.124650
1685.000000	71.137480
1684.000000	71.165154
1683.000000	71.201463
1682.000000	71.236047
1681.000000	71.252746
1680.000000	71.257198
1679.000000	71.272456
1678.000000	71.286209
1677.000000	71.269598
1676.000000	71.224983
1675.000000	71.201952
1674.000000	71.198387
1673.000000	71.168659
1672.000000	71.117543
1671.000000	71.094220
1670.000000	71.117241
1669.000000	71.132596
1668.000000	71.107095
1667.000000	71.077852
1666.000000	71.064471
1665.000000	71.044372
1664.000000	71.003661
1663.000000	70.964075
1662.000000	70.932441
1661.000000	70.871168
1660.000000	70.763937
1659.000000	70.661921
1658.000000	70.608782
1657.000000	70.594822
1656.000000	70.568385
1655.000000	70.471338
1654.000000	70.234698
1653.000000	69.811834
1652.000000	69.293184
1651.000000	68.782952
1650.000000	68.242012
1649.000000	67.562918
1648.000000	66.572520
1647.000000	65.092078
1646.000000	63.207136
1645.000000	61.125176
1644.000000	58.865232
1643.000000	56.296820
1642.000000	53.342077
1641.000000	50.079078
1640.000000	46.775197
1639.000000	43.724855
1638.000000	41.045737
1637.000000	38.713193
1636.000000	36.850361
1635.000000	35.790834
1634.000000	35.606303
1633.000000	36.010682
1632.000000	36.736844
1631.000000	37.660655
1630.000000	38.756385
1629.000000	40.035164
1628.000000	41.488004
1627.000000	43.045455
1626.000000	44.658488
1625.000000	46.390769
1624.000000	48.327877
1623.000000	50.374594
1622.000000	52.260746
1621.000000	53.832922
1620.000000	55.168226
1619.000000	56.414341
1618.000000	57.680382
1617.000000	58.989046
1616.000000	60.216701
1615.000000	61.211599
1614.000000	61.978264
1613.000000	62.626022
1612.000000	63.237335
1611.000000	63.810621
1610.000000	64.290028
1609.000000	64.640499
1608.000000	64.859693
1607.000000	64.937143
1606.000000	64.834360
1605.000000	64.513424
1604.000000	63.956428
1603.000000	63.136991
1602.000000	62.035698
1601.000000	60.710001
1600.000000	59.304608
1599.000000	57.979312
1598.000000	56.833288
1597.000000	55.902383
1596.000000	55.184029
1595.000000	54.633677
1594.000000	54.163844
1593.000000	53.689891
1592.000000	53.177471
1591.000000	52.627825
1590.000000	52.040182
1589.000000	51.409157
1588.000000	50.736946
1587.000000	50.014763
1586.000000	49.203841
1585.000000	48.268367
1584.000000	47.227009
1583.000000	46.128079
1582.000000	44.994191
1581.000000	43.840937
1580.000000	42.711963
1579.000000	41.600342
1578.000000	40.340318
1577.000000	38.664068
1576.000000	36.586464
1575.000000	34.582813
1574.000000	32.992034
1573.000000	31.703499
1572.000000	30.504828
1571.000000	29.288840
1570.000000	28.072790
1569.000000	26.976098
1568.000000	26.145377
1567.000000	25.641831
1566.000000	25.400673
1565.000000	25.311593
1564.000000	25.348175
1563.000000	25.555110
1562.000000	25.950860
1561.000000	26.489428
1560.000000	27.230592
1559.000000	28.335065
1558.000000	29.565590
1557.000000	30.569662
1556.000000	31.398843
1555.000000	32.228492
1554.000000	33.082018
1553.000000	33.844602
1552.000000	34.476224
1551.000000	35.057842
1550.000000	35.659105
1549.000000	36.263623
1548.000000	36.862984
1547.000000	37.528049
1546.000000	38.330263
1545.000000	39.243468
1544.000000	40.164003
1543.000000	41.036116
1542.000000	41.901443
1541.000000	42.821184
1540.000000	43.769683
1539.000000	44.652494
1538.000000	45.412952
1537.000000	46.057602
1536.000000	46.657042
1535.000000	47.319375
1534.000000	48.094240
1533.000000	48.898156
1532.000000	49.615505
1531.000000	50.252153
1530.000000	50.881363
1529.000000	51.534005
1528.000000	52.188958
1527.000000	52.817343
1526.000000	53.395440
1525.000000	53.908133
1524.000000	54.373642
1523.000000	54.840591
1522.000000	55.330907
1521.000000	55.785965
1520.000000	56.152016
1519.000000	56.470803
1518.000000	56.806404
1517.000000	57.157672
1516.000000	57.480398
1515.000000	57.767629
1514.000000	58.048702
1513.000000	58.349408
1512.000000	58.689487
1511.000000	59.059602
1510.000000	59.426538
1509.000000	59.761253
1508.000000	60.066548
1507.000000	60.327360
1506.000000	60.540413
1505.000000	60.771076
1504.000000	61.031227
1503.000000	61.314843
1502.000000	61.624458
1501.000000	61.934337
1500.000000	62.233745
1499.000000	62.526669
1498.000000	62.792681
1497.000000	63.019015
1496.000000	63.234209
1495.000000	63.455163
1494.000000	63.660493
1493.000000	63.846647
1492.000000	64.052281
1491.000000	64.319698
1490.000000	64.619272
1489.000000	64.881940
1488.000000	65.091547
1487.000000	65.271056
1486.000000	65.428627
1485.000000	65.532327
1484.000000	65.558990
1483.000000	65.512371
1482.000000	65.367043
1481.000000	65.080335
1480.000000	64.648265
1479.000000	64.060393
1478.000000	63.212964
1477.000000	61.977016
1476.000000	60.340532
1475.000000	58.365756
1474.000000	56.025360
1473.000000	53.340817
1472.000000	50.715862
1471.000000	48.654345
1470.000000	47.242479
1469.000000	46.309271
1468.000000	45.759640
1467.000000	45.617048
1466.000000	45.958632
1465.000000	46.814584
1464.000000	48.032481
1463.000000	49.307001
1462.000000	50.394404
1461.000000	51.204098
1460.000000	51.695208
1459.000000	51.760836
1458.000000	51.186511
1457.000000	49.976882
1456.000000	48.684494
1455.000000	47.799729
1454.000000	47.292626
1453.000000	46.999320
1452.000000	46.841239
1451.000000	46.776786
1450.000000	46.774718
1449.000000	46.836455
1448.000000	46.985784
1447.000000	47.201198
1446.000000	47.429538
1445.000000	47.675996
1444.000000	48.007655
1443.000000	48.477561
1442.000000	49.096857
1441.000000	49.867871
1440.000000	50.809537
1439.000000	51.946555
1438.000000	53.302414
1437.000000	54.838857
1436.000000	56.337125
1435.000000	57.539242
1434.000000	58.426354
1433.000000	59.149194
1432.000000	59.808763
1431.000000	60.407320
1430.000000	60.914713
1429.000000	61.337785
1428.000000	61.709716
1427.000000	62.056406
1426.000000	62.388565
1425.000000	62.705077
1424.000000	63.008506
1423.000000	63.301050
1422.000000	63.584174
1421.000000	63.858257
1420.000000	64.125003
1419.000000	64.366429
1418.000000	64.536457
1417.000000	64.658001
1416.000000	64.805932
1415.000000	65.005182
1414.000000	65.232657
1413.000000	65.465207
1412.000000	65.703393
1411.000000	65.947502
1410.000000	66.179618
1409.000000	66.394765
1408.000000	66.608393
1407.000000	66.827972
1406.000000	67.039021
1405.000000	67.219770
1404.000000	67.367643
1403.000000	67.488861
1402.000000	67.564549
1401.000000	67.540774
1400.000000	67.352004
1399.000000	66.988541
1398.000000	66.555845
1397.000000	66.228402
1396.000000	66.143254
1395.000000	66.324389
1394.000000	66.640076
1393.000000	66.918207
1392.000000	67.123873
1391.000000	67.339175
1390.000000	67.647055
1389.000000	68.075294
1388.000000	68.595289
1387.000000	69.138969
1386.000000	69.634465
1385.000000	70.053029
1384.000000	70.411628
1383.000000	70.732274
1382.000000	71.024740
1381.000000	71.291133
1380.000000	71.525803
1379.000000	71.715320
1378.000000	71.841705
1377.000000	71.865276
1376.000000	71.673449
1375.000000	71.026769
1374.000000	69.570240
1373.000000	67.006817
1372.000000	63.308995
1371.000000	58.810110
1370.000000	54.228551
1369.000000	50.573406
1368.000000	48.724827
1367.000000	48.854005
1366.000000	50.350845
1365.000000	52.293416
1364.000000	53.827808
1363.000000	54.340392
1362.000000	53.693700
1361.000000	52.390550
1360.000000	51.309634
1359.000000	51.215884
1358.000000	52.418398
1357.000000	54.663736
1356.000000	57.340404
1355.000000	59.863506
1354.000000	61.935801
1353.000000	63.545646
1352.000000	64.798810
1351.000000	65.800126
1350.000000	66.632312
1349.000000	67.342145
1348.000000	67.946240
1347.000000	68.463472
1346.000000	68.925558
1345.000000	69.351762
1344.000000	69.742063
1343.000000	70.100943
1342.000000	70.450706
1341.000000	70.802915
1340.000000	71.135096
1339.000000	71.421489
1338.000000	71.667829
1337.000000	71.899702
1336.000000	72.130844
1335.000000	72.355759
1334.000000	72.554986
1333.000000	72.676768
1332.000000	72.621943
1331.000000	72.267140
1330.000000	71.513606
1329.000000	70.324251
1328.000000	68.704679
1327.000000	66.658829
1326.000000	64.183032
1325.000000	61.358825
1324.000000	58.513491
1323.000000	56.196794
1322.000000	54.862163
1321.000000	54.553273
1320.000000	54.936039
1319.000000	55.606463
1318.000000	56.343003
1317.000000	57.099153
1316.000000	57.865839
1315.000000	58.620167
1314.000000	59.361722
1313.000000	60.147074
1312.000000	61.068001
1311.000000	62.186542
1310.000000	63.474506
1309.000000	64.802316
1308.000000	65.990333
1307.000000	66.892623
1306.000000	67.447609
1305.000000	67.647639
1304.000000	67.495891
1303.000000	66.991826
1302.000000	66.136063
1301.000000	64.956650
1300.000000	63.556339
1299.000000	62.149502
1298.000000	61.007897
1297.000000	60.323316
1296.000000	60.103764
1295.000000	60.178691
1294.000000	60.283518
1293.000000	60.154873
1292.000000	59.603921
1291.000000	58.549824
1290.000000	56.990459
1289.000000	54.965272
1288.000000	52.595633
1287.000000	50.171135
1286.000000	48.125676
1285.000000	46.853061
1284.000000	46.517111
1283.000000	47.021768
1282.000000	48.153966
1281.000000	49.734097
1280.000000	51.631878
1279.000000	53.659280
1278.000000	55.509929
1277.000000	56.862396
1276.000000	57.542701
1275.000000	57.588989
1274.000000	57.197025
1273.000000	56.640625
1272.000000	56.223158
1271.000000	56.224256
1270.000000	56.804229
1269.000000	57.931014
1268.000000	59.412104
1267.000000	61.007748
1266.000000	62.528934
1265.000000	63.875415
1264.000000	65.026783
1263.000000	66.010225
1262.000000	66.865579
1261.000000	67.620452
1260.000000	68.285770
1259.000000	68.867528
1258.000000	69.376995
1257.000000	69.823394
1256.000000	70.210643
1255.000000	70.545814
1254.000000	70.841963
1253.000000	71.112637
1252.000000	71.366222
1251.000000	71.611366
1250.000000	71.859450
1249.000000	72.115670
1248.000000	72.376429
1247.000000	72.637786
1246.000000	72.898699
1245.000000	73.154595
1244.000000	73.395153
1243.000000	73.612948
1242.000000	73.807623
1241.000000	73.978786
1240.000000	74.122312
1239.000000	74.236746
1238.000000	74.327850
1237.000000	74.401204
1236.000000	74.456989
1235.000000	74.496589
1234.000000	74.525091
1233.000000	74.543938
1232.000000	74.546914
1231.000000	74.526586
1230.000000	74.479182
1229.000000	74.396605
1228.000000	74.263027
1227.000000	74.061034
1226.000000	73.772798
1225.000000	73.375557
1224.000000	72.833311
1223.000000	72.104294
1222.000000	71.146460
1221.000000	69.911360
1220.000000	68.360813
1219.000000	66.488081
1218.000000	64.330728
1217.000000	61.964862
1216.000000	59.496985
1215.000000	57.065901
1214.000000	54.832324
1213.000000	52.955979
1212.000000	51.573229
1211.000000	50.770766
1210.000000	50.535073
1209.000000	50.747619
1208.000000	51.232493
1207.000000	51.805151
1206.000000	52.304240
1205.000000	52.598679
1204.000000	52.597422
1203.000000	52.259466
1202.000000	51.600146
1201.000000	50.701448
1200.000000	49.721932
1199.000000	48.874890
1198.000000	48.361112
1197.000000	48.299020
1196.000000	48.710855
1195.000000	49.542799
1194.000000	50.697109
1193.000000	52.068086
1192.000000	53.562902
1191.000000	55.115741
1190.000000	56.678338
1189.000000	58.212500
1188.000000	59.691726
1187.000000	61.096811
1186.000000	62.409699
1185.000000	63.615312
1184.000000	64.708072
1183.000000	65.688537
1182.000000	66.559030
1181.000000	67.317230
1180.000000	67.962488
1179.000000	68.506153
1178.000000	68.964206
1177.000000	69.348017
1176.000000	69.656187
1175.000000	69.879988
1174.000000	70.010786
1173.000000	70.029523
1172.000000	69.905410
1171.000000	69.593862
1170.000000	69.036735
1169.000000	68.169831
1168.000000	66.936007
1167.000000	65.329083
1166.000000	63.429489
1165.000000	61.412590
1164.000000	59.528030
1163.000000	58.048255
1162.000000	57.183124
1161.000000	57.015311
1160.000000	57.495988
1159.000000	58.473026
1158.000000	59.750360
1157.000000	61.134186
1156.000000	62.469320
1155.000000	63.656390
1154.000000	64.641393
1153.000000	65.401659
1152.000000	65.934468
1151.000000	66.250488
1150.000000	66.361088
1149.000000	66.274770
1148.000000	65.982453
1147.000000	65.456970
1146.000000	64.654569
1145.000000	63.501325
1144.000000	61.912017
1143.000000	59.808084
1142.000000	57.156274
1141.000000	54.018213
1140.000000	50.576429
1139.000000	47.116334
1138.000000	43.922715
1137.000000	41.161036
1136.000000	38.830402
1135.000000	36.814466
1134.000000	34.978311
1133.000000	33.300523
1132.000000	31.962553
1131.000000	31.295819
1130.000000	31.637106
1129.000000	33.136436
1128.000000	35.673916
1127.000000	38.883948
1126.000000	42.242892
1125.000000	45.205995
1124.000000	47.322158
1123.000000	48.296224
1122.000000	48.011681
1121.000000	46.538284
1120.000000	44.068500
1119.000000	40.871174
1118.000000	37.293467
1117.000000	33.804582
1116.000000	30.996000
1115.000000	29.435753
1114.000000	29.436167
1113.000000	30.924778
1112.000000	33.490059
1111.000000	36.475785
1110.000000	39.161753
1109.000000	41.034357
1108.000000	42.031514
1107.000000	42.546015
1106.000000	43.122470
1105.000000	44.097365
1104.000000	45.442502
1103.000000	46.838273
1102.000000	47.811877
1101.000000	47.914214
1100.000000	46.914057
1099.000000	44.979085
1098.000000	42.720266
1097.000000	40.985509
1096.000000	40.487372
1095.000000	41.480754
1094.000000	43.683409
1093.000000	46.488754
1092.000000	49.319153
1091.000000	51.833985
1090.000000	53.936094
1089.000000	55.666878
1088.000000	57.107650
1087.000000	58.338614
1086.000000	59.426206
1085.000000	60.414953
1084.000000	61.326796
1083.000000	62.178098
1082.000000	62.978865
1081.000000	63.729124
1080.000000	64.420561
1079.000000	65.041728
1078.000000	65.584670
1077.000000	66.030719
1076.000000	66.345090
1075.000000	66.484032
1074.000000	66.387903
1073.000000	65.982302
1072.000000	65.153665
1071.000000	63.746938
1070.000000	61.574243
1069.000000	58.406775
1068.000000	54.063968
1067.000000	48.551980
1066.000000	42.220418
1065.000000	35.806467
1064.000000	30.263422
1063.000000	26.376931
1062.000000	24.344326
1061.000000	23.626853
1060.000000	23.246324
1059.000000	22.389320
1058.000000	20.866854
1057.000000	19.195043
1056.000000	18.236419
1055.000000	18.622611
1054.000000	20.425090
1053.000000	23.217507
1052.000000	26.416341
1051.000000	29.573332
1050.000000	32.443953
1049.000000	34.958360
1048.000000	37.159845
1047.000000	39.138758
1046.000000	40.962410
1045.000000	42.652756
1044.000000	44.205364
1043.000000	45.617440
1042.000000	46.890793
1041.000000	48.023722
1040.000000	49.024196
1039.000000	49.908232
1038.000000	50.689166
1037.000000	51.373055
1036.000000	51.965137
1035.000000	52.480373
1034.000000	52.932536
1033.000000	53.327801
1032.000000	53.674305
1031.000000	53.987112
1030.000000	54.282353
1029.000000	54.566963
1028.000000	54.840979
1027.000000	55.102491
1026.000000	55.340267
1025.000000	55.532256
1024.000000	55.654455
1023.000000	55.690470
1022.000000	55.632442
1021.000000	55.472161
1020.000000	55.204336
1019.000000	54.822237
1018.000000	54.301003
1017.000000	53.593499
1016.000000	52.636650
1015.000000	51.383675
1014.000000	49.835708
1013.000000	48.073200
1012.000000	46.274287
1011.000000	44.668112
1010.000000	43.420466
1009.000000	42.524999
1008.000000	41.807839
1007.000000	41.061866
1006.000000	40.240694
1005.000000	39.556658
1004.000000	39.391370
1003.000000	40.055787
1002.000000	41.557949
1001.000000	43.594371
1000.000000	45.722205
999.000000	47.553226
998.000000	48.851418
997.000000	49.535623
996.000000	49.656696
995.000000	49.375443
994.000000	48.935052
993.000000	48.612114
992.000000	48.651654
991.000000	49.185218
990.000000	50.174872
989.000000	51.442764
988.000000	52.779837
987.000000	54.035099
986.000000	55.140001
985.000000	56.085751
984.000000	56.895023
983.000000	57.602781
982.000000	58.239686
981.000000	58.821298
980.000000	59.351805
979.000000	59.836303
978.000000	60.277853
977.000000	60.675250
976.000000	61.028022
975.000000	61.342688
974.000000	61.631524
973.000000	61.904644
972.000000	62.171338
971.000000	62.443175
970.000000	62.728192
969.000000	63.024189
968.000000	63.321591
967.000000	63.611916
966.000000	63.888925
965.000000	64.144632
964.000000	64.372499
963.000000	64.573430
962.000000	64.754869
961.000000	64.924798
960.000000	65.090568
959.000000	65.261922
958.000000	65.447503
957.000000	65.648593
956.000000	65.860442
955.000000	66.078368
954.000000	66.297909
953.000000	66.510897
952.000000	66.708216
951.000000	66.887340
950.000000	67.052186
949.000000	67.206672
948.000000	67.353457
947.000000	67.498594
946.000000	67.650985
945.000000	67.815387
944.000000	67.990734
943.000000	68.174997
942.000000	68.366495
941.000000	68.559888
940.000000	68.746486
939.000000	68.920550
938.000000	69.081358
937.000000	69.228443
936.000000	69.360429
935.000000	69.479581
934.000000	69.593027
933.000000	69.707375
932.000000	69.826235
931.000000	69.954128
930.000000	70.096815
929.000000	70.255246
928.000000	70.423206
927.000000	70.593000
926.000000	70.759360
925.000000	70.916370
924.000000	71.056335
923.000000	71.175453
922.000000	71.276944
921.000000	71.366784
920.000000	71.450605
919.000000	71.537277
918.000000	71.639773
917.000000	71.767441
916.000000	71.920089
915.000000	72.091715
914.000000	72.275033
913.000000	72.459207
912.000000	72.627056
911.000000	72.761473
910.000000	72.849641
909.000000	72.874162
908.000000	72.804280
907.000000	72.594178
906.000000	72.194761
905.000000	71.557206
904.000000	70.642500
903.000000	69.465522
902.000000	68.155757
901.000000	66.975597
900.000000	66.241883
899.000000	66.168819
898.000000	66.737139
897.000000	67.716031
896.000000	68.807676
895.000000	69.796635
894.000000	70.605487
893.000000	71.247110
892.000000	71.767019
891.000000	72.211600
890.000000	72.617259
889.000000	72.999018
888.000000	73.351120
887.000000	73.649249
886.000000	73.846501
885.000000	73.866976
884.000000	73.627196
883.000000	73.108315
882.000000	72.405369
881.000000	71.686640
880.000000	71.074909
879.000000	70.561116
878.000000	70.050820
877.000000	69.504116
876.000000	69.035409
875.000000	68.853972
874.000000	69.100131
873.000000	69.728914
872.000000	70.548500
871.000000	71.352600
870.000000	72.020838
869.000000	72.532816
868.000000	72.924910
867.000000	73.250065
866.000000	73.551423
865.000000	73.849502
864.000000	74.141656
863.000000	74.415084
862.000000	74.656819
861.000000	74.854429
860.000000	74.999129
859.000000	75.092144
858.000000	75.147260
857.000000	75.183455
856.000000	75.218388
855.000000	75.269603
854.000000	75.352213
853.000000	75.470581
852.000000	75.615284
851.000000	75.770962
850.000000	75.923343
849.000000	76.058254
848.000000	76.162189
847.000000	76.230179
846.000000	76.269644
845.000000	76.294041
844.000000	76.316797
843.000000	76.352439
842.000000	76.415081
841.000000	76.509664
840.000000	76.628603
839.000000	76.759875
838.000000	76.893891
837.000000	77.020535
836.000000	77.127041
835.000000	77.205633
834.000000	77.260160
833.000000	77.301202
832.000000	77.338817
831.000000	77.383629
830.000000	77.448888
829.000000	77.544381
828.000000	77.670163
827.000000	77.819408
826.000000	77.983508
825.000000	78.150617
824.000000	78.305497
823.000000	78.437710
822.000000	78.547600
821.000000	78.640785
820.000000	78.721814
819.000000	78.796756
818.000000	78.875097
817.000000	78.963093
816.000000	79.058190
815.000000	79.153797
814.000000	79.244181
813.000000	79.319363
812.000000	79.361677
811.000000	79.352655
810.000000	79.281038
809.000000	79.140196
808.000000	78.919513
807.000000	78.606416
806.000000	78.187099
805.000000	77.639304
804.000000	76.929164
803.000000	76.012956
802.000000	74.845949
801.000000	73.379095
800.000000	71.564654
799.000000	69.382500
798.000000	66.854331
797.000000	64.046850
796.000000	61.060763
795.000000	58.023132
794.000000	55.072384
793.000000	52.340995
792.000000	49.948989
791.000000	47.999931
790.000000	46.570394
789.000000	45.689576
788.000000	45.340775
787.000000	45.460405
786.000000	45.946897
785.000000	46.684846
784.000000	47.566355
783.000000	48.506629
782.000000	49.434279
781.000000	50.284169
780.000000	50.998594
779.000000	51.536274
778.000000	51.880071
777.000000	52.036078
776.000000	52.022379
775.000000	51.851288
774.000000	51.529191
773.000000	51.080738
772.000000	50.586249
771.000000	50.186703
770.000000	50.041511
769.000000	50.263795
768.000000	50.882358
767.000000	51.846273
766.000000	53.059086
765.000000	54.423696
764.000000	55.867307
763.000000	57.344801
762.000000	58.823870
761.000000	60.270777
760.000000	61.647417
759.000000	62.919872
758.000000	64.069781
757.000000	65.096447
756.000000	66.013281
755.000000	66.843122
754.000000	67.614163
753.000000	68.350474
752.000000	69.064396
751.000000	69.757322
750.000000	70.422198
749.000000	71.043969
748.000000	71.601107
747.000000	72.075200
746.000000	72.462168
745.000000	72.772687
744.000000	73.025915
743.000000	73.245334
742.000000	73.456497
741.000000	73.681340
740.000000	73.931274
739.000000	74.205463
738.000000	74.490800
737.000000	74.759658
736.000000	74.973337
735.000000	75.096046
734.000000	75.109251
733.000000	75.014719
732.000000	74.832451
731.000000	74.600873
730.000000	74.370111
729.000000	74.183512
728.000000	74.061562
727.000000	73.995663
726.000000	73.950872
725.000000	73.878356
724.000000	73.726493
723.000000	73.435939
722.000000	72.919196
721.000000	72.063498
720.000000	70.785321
719.000000	69.099182
718.000000	67.129813
717.000000	65.068838
716.000000	63.131966
715.000000	61.528728
714.000000	60.426081
713.000000	59.903474
712.000000	59.930919
711.000000	60.392277
710.000000	61.142077
709.000000	62.054671
708.000000	63.044130
707.000000	64.064805
706.000000	65.102762
705.000000	66.162503
704.000000	67.245255
703.000000	68.338791
702.000000	69.425364
701.000000	70.486709
700.000000	71.497804
699.000000	72.429028
698.000000	73.258503
697.000000	73.979261
696.000000	74.593437
695.000000	75.109154
694.000000	75.547731
693.000000	75.939850
692.000000	76.310826
691.000000	76.673299
690.000000	77.031558
689.000000	77.387358
688.000000	77.730641
687.000000	78.060377
686.000000	78.339227
685.000000	78.615709
684.000000	78.783505
683.000000	79.021890
682.000000	78.936086
681.000000	77.962002
680.000000	78.186323
679.000000	78.236840
678.000000	78.375104
677.000000	78.485431
676.000000	78.632719
675.000000	78.768571
674.000000	78.902848
673.000000	79.018303
672.000000	79.070747
671.000000	78.997994
670.000000	78.799714
669.000000	78.609578
668.000000	78.642336
667.000000	78.941127
666.000000	79.298025
665.000000	79.536521
664.000000	79.649148
663.000000	79.709593
662.000000	79.763312
661.000000	79.840057
660.000000	79.886532
659.000000	79.973435
658.000000	79.961144
657.000000	80.155441
656.000000	81.048343
655.000000	80.973193
654.000000	81.012751
653.000000	80.982018
652.000000	80.990891
651.000000	80.996214
650.000000	81.015188
649.000000	81.010371
648.000000	80.971006
647.000000	80.905940
646.000000	80.835117
645.000000	80.765545
644.000000	80.687253
643.000000	80.590038
642.000000	80.475282
641.000000	80.346144
640.000000	80.205614
639.000000	80.064322
638.000000	79.936768
637.000000	79.827918
636.000000	79.732328
635.000000	79.643002
634.000000	79.552786
633.000000	79.449718
632.000000	79.321108
631.000000	79.161275
630.000000	78.971475
629.000000	78.754669
628.000000	78.517938
627.000000	78.275270
626.000000	78.037747
625.000000	77.807344
624.000000	77.578781
623.000000	77.350482
622.000000	77.125295
621.000000	76.900412
620.000000	76.660860
619.000000	76.371339
618.000000	75.980276
617.000000	75.454740
616.000000	74.821521
615.000000	74.150338
614.000000	73.486242
613.000000	72.816114
612.000000	72.106390
611.000000	71.343126
610.000000	70.517373
609.000000	69.596823
608.000000	68.545129
607.000000	67.353703
606.000000	66.025618
605.000000	64.555580
604.000000	62.950572
603.000000	61.252176
602.000000	59.497337
601.000000	57.683469
600.000000	55.805817
599.000000	53.904865
598.000000	52.020595
597.000000	50.141151
596.000000	48.255568
595.000000	46.410951
594.000000	44.661620
593.000000	43.001789
592.000000	41.423101
591.000000	39.979270
590.000000	38.721143
589.000000	37.621241
588.000000	36.625413
587.000000	35.716445
586.000000	34.855646
585.000000	33.937622
584.000000	32.882215
583.000000	31.722059
582.000000	30.537513
581.000000	29.382863
580.000000	28.337485
579.000000	27.554051
578.000000	27.149528
577.000000	27.120559
576.000000	27.413565
575.000000	27.979012
574.000000	28.715004
573.000000	29.450675
572.000000	30.077371
571.000000	30.641046
570.000000	31.263352
569.000000	32.025004
568.000000	32.957161
567.000000	34.057074
566.000000	35.243764
565.000000	36.371405
564.000000	37.343599
563.000000	38.169592
562.000000	38.884518
561.000000	39.486888
560.000000	39.989058
559.000000	40.452455
558.000000	40.921416
557.000000	41.381871
556.000000	41.822772
555.000000	42.283956
554.000000	42.798372
553.000000	43.348966
552.000000	43.923985
551.000000	44.555312
550.000000	45.256989
549.000000	45.981972
548.000000	46.684998
547.000000	47.372005
546.000000	48.050660
545.000000	48.686624
544.000000	49.256104
543.000000	49.788211
542.000000	50.317273
541.000000	50.839784
540.000000	51.354296
539.000000	51.893509
538.000000	52.475270
537.000000	53.067359
536.000000	53.632693
535.000000	54.174137
534.000000	54.693234
533.000000	55.166085
532.000000	55.569556
531.000000	55.907448
530.000000	56.189398
529.000000	56.406274
528.000000	56.541233
527.000000	56.597810
526.000000	56.572158
525.000000	56.422932
524.000000	56.119568
523.000000	55.681519
522.000000	55.163692
521.000000	54.624430
520.000000	54.110251
519.000000	53.616926
518.000000	53.010044
517.000000	52.038899
516.000000	50.494137
515.000000	48.366317
514.000000	45.850584
513.000000	43.261943
512.000000	40.960693
511.000000	39.282103
510.000000	38.417589
509.000000	38.365052
508.000000	39.024414
507.000000	40.260977
506.000000	41.873715
505.000000	43.631236
504.000000	45.393125
503.000000	47.136399
502.000000	48.831098
501.000000	50.395597
500.000000	51.787361
499.000000	53.054720
498.000000	54.254588
497.000000	55.387693
496.000000	56.427980
495.000000	57.364317
494.000000	58.205148
493.000000	58.951387
492.000000	59.600177
491.000000	60.178780
490.000000	60.725090
489.000000	61.269090
488.000000	61.825709
487.000000	62.407352
486.000000	63.019470
485.000000	63.639883
484.000000	64.227320
483.000000	64.757650
482.000000	65.231753
481.000000	65.642189
480.000000	65.978034
479.000000	66.259459
478.000000	66.505486
477.000000	66.707232
476.000000	66.854941
475.000000	66.948589
474.000000	66.936320
473.000000	66.675669
472.000000	66.032749
471.000000	65.053120
470.000000	63.907576
469.000000	62.774384
468.000000	61.850847
467.000000	61.306701
466.000000	61.078672
465.000000	60.834327
464.000000	60.206015
463.000000	59.047607
462.000000	57.560833
461.000000	56.194819
460.000000	55.459249
459.000000	55.749613
458.000000	57.112243
457.000000	59.092033
456.000000	61.084313
455.000000	62.832598
454.000000	64.345612
453.000000	65.618203
452.000000	66.612444
451.000000	67.370343
450.000000	67.930491
449.000000	68.225779
448.000000	68.137950
447.000000	67.606217
446.000000	66.653817
445.000000	65.385714
444.000000	64.032907
443.000000	62.948003
442.000000	62.428280
441.000000	62.520507
440.000000	63.103117
439.000000	64.023300
438.000000	65.097505
437.000000	66.113401
436.000000	66.921600
435.000000	67.503925
434.000000	67.906696
433.000000	68.160854
432.000000	68.290407
431.000000	68.331666
430.000000	68.321887
429.000000	68.275489
428.000000	68.211723
427.000000	68.178848
426.000000	68.187284
425.000000	68.144649
424.000000	67.940299
423.000000	67.606635
422.000000	67.260720
421.000000	66.925739
420.000000	66.544307
419.000000	66.198396
418.000000	66.073734
417.000000	66.105757
416.000000	66.156753
415.000000	66.246964
414.000000	66.410423
413.000000	66.582217
412.000000	66.685102
411.000000	66.722068
410.000000	66.758382
409.000000	66.795838
408.000000	66.807272
407.000000	66.849215
406.000000	66.987256
405.000000	67.178582
404.000000	67.386699
403.000000	67.686128
402.000000	68.137653
401.000000	68.635834
400.000000	68.988251
