PE IR       SUBTECH     SPECTRUM    ASCII       PEDS        4.00        
   -1
23MS145.asc
24/09/23
16:29:16.00
24/09/23
16:29:16.00
Administrator
Sample 1189 By Administrator Date Monday, September 23 2024
400.000000
#HDR
-1
-1
#GR
cm-1
%T
1.0
0.0
4000.000000
-1.000000
3601
8
76.666722
6.021134
#DATA
4000.000000	42.642664
3999.000000	42.615342
3998.000000	42.587246
3997.000000	42.559513
3996.000000	42.532624
3995.000000	42.505894
3994.000000	42.477860
3993.000000	42.447313
3992.000000	42.413912
3991.000000	42.377876
3990.000000	42.339793
3989.000000	42.300878
3988.000000	42.263163
3987.000000	42.229191
3986.000000	42.201116
3985.000000	42.179827
3984.000000	42.164521
3983.000000	42.153145
3982.000000	42.143243
3981.000000	42.132487
3980.000000	42.119225
3979.000000	42.103063
3978.000000	42.085022
3977.000000	42.067269
3976.000000	42.052658
3975.000000	42.044138
3974.000000	42.044103
3973.000000	42.053912
3972.000000	42.074141
3971.000000	42.104674
3970.000000	42.144885
3969.000000	42.193715
3968.000000	42.249355
3967.000000	42.309264
3966.000000	42.370630
3965.000000	42.431260
3964.000000	42.489956
3963.000000	42.546337
3962.000000	42.599825
3961.000000	42.649269
3960.000000	42.694516
3959.000000	42.736548
3958.000000	42.776587
3957.000000	42.815502
3956.000000	42.853094
3955.000000	42.888798
3954.000000	42.922375
3953.000000	42.954573
3952.000000	42.986774
3951.000000	43.019887
3950.000000	43.055006
3949.000000	43.093066
3948.000000	43.132837
3947.000000	43.171245
3946.000000	43.207483
3945.000000	43.245342
3944.000000	43.288983
3943.000000	43.338053
3942.000000	43.386793
3941.000000	43.428569
3940.000000	43.463469
3939.000000	43.497039
3938.000000	43.532678
3937.000000	43.568678
3936.000000	43.600144
3935.000000	43.624484
3934.000000	43.642862
3933.000000	43.658975
3932.000000	43.676481
3931.000000	43.695512
3930.000000	43.714225
3929.000000	43.730111
3928.000000	43.742568
3927.000000	43.756514
3926.000000	43.777778
3925.000000	43.805838
3924.000000	43.833129
3923.000000	43.852669
3922.000000	43.865634
3921.000000	43.876577
3920.000000	43.886924
3919.000000	43.897029
3918.000000	43.909280
3917.000000	43.926394
3916.000000	43.947304
3915.000000	43.969738
3914.000000	43.994929
3913.000000	44.024332
3912.000000	44.058475
3911.000000	44.096300
3910.000000	44.134139
3909.000000	44.168441
3908.000000	44.195889
3907.000000	44.217263
3906.000000	44.236414
3905.000000	44.254727
3904.000000	44.267733
3903.000000	44.267483
3902.000000	44.255428
3901.000000	44.248647
3900.000000	44.263194
3899.000000	44.299809
3898.000000	44.346545
3897.000000	44.390278
3896.000000	44.426826
3895.000000	44.456416
3894.000000	44.479776
3893.000000	44.501452
3892.000000	44.529875
3891.000000	44.564607
3890.000000	44.587014
3889.000000	44.586621
3888.000000	44.574961
3887.000000	44.569597
3886.000000	44.584380
3885.000000	44.614735
3884.000000	44.636073
3883.000000	44.636802
3882.000000	44.632036
3881.000000	44.644791
3880.000000	44.681060
3879.000000	44.719107
3878.000000	44.736079
3877.000000	44.736517
3876.000000	44.741815
3875.000000	44.766703
3874.000000	44.800883
3873.000000	44.818223
3872.000000	44.809310
3871.000000	44.792477
3870.000000	44.792845
3869.000000	44.807039
3868.000000	44.812276
3867.000000	44.809862
3866.000000	44.815983
3865.000000	44.837677
3864.000000	44.875423
3863.000000	44.916984
3862.000000	44.947323
3861.000000	44.966101
3860.000000	44.983948
3859.000000	45.012583
3858.000000	45.053258
3857.000000	45.096358
3856.000000	45.121440
3855.000000	45.110361
3854.000000	45.089679
3853.000000	45.099833
3852.000000	45.109606
3851.000000	45.086383
3850.000000	45.061530
3849.000000	45.062941
3848.000000	45.092141
3847.000000	45.137733
3846.000000	45.183403
3845.000000	45.219631
3844.000000	45.248180
3843.000000	45.268655
3842.000000	45.277543
3841.000000	45.275889
3840.000000	45.266912
3839.000000	45.256997
3838.000000	45.251759
3837.000000	45.251612
3836.000000	45.251202
3835.000000	45.248614
3834.000000	45.252424
3833.000000	45.273329
3832.000000	45.312834
3831.000000	45.361004
3830.000000	45.402235
3829.000000	45.431135
3828.000000	45.461213
3827.000000	45.504767
3826.000000	45.553095
3825.000000	45.585534
3824.000000	45.591288
3823.000000	45.577701
3822.000000	45.570743
3821.000000	45.593287
3820.000000	45.619056
3819.000000	45.612853
3818.000000	45.588469
3817.000000	45.580630
3816.000000	45.609351
3815.000000	45.658981
3814.000000	45.696517
3813.000000	45.717016
3812.000000	45.738803
3811.000000	45.771056
3810.000000	45.806753
3809.000000	45.838210
3808.000000	45.870160
3807.000000	45.909115
3806.000000	45.941956
3805.000000	45.946597
3804.000000	45.929405
3803.000000	45.914263
3802.000000	45.923079
3801.000000	45.957893
3800.000000	45.982278
3799.000000	45.973445
3798.000000	45.954189
3797.000000	45.955010
3796.000000	45.983220
3795.000000	46.023218
3794.000000	46.058444
3793.000000	46.086603
3792.000000	46.114669
3791.000000	46.147945
3790.000000	46.184332
3789.000000	46.217740
3788.000000	46.244262
3787.000000	46.265006
3786.000000	46.285764
3785.000000	46.309158
3784.000000	46.329191
3783.000000	46.337455
3782.000000	46.334194
3781.000000	46.329593
3780.000000	46.336287
3779.000000	46.355549
3778.000000	46.374449
3777.000000	46.385488
3776.000000	46.396206
3775.000000	46.414005
3774.000000	46.434428
3773.000000	46.449945
3772.000000	46.460038
3771.000000	46.468366
3770.000000	46.476317
3769.000000	46.478739
3768.000000	46.468741
3767.000000	46.453215
3766.000000	46.447311
3765.000000	46.455708
3764.000000	46.467156
3763.000000	46.468511
3762.000000	46.461929
3761.000000	46.457068
3760.000000	46.462536
3759.000000	46.481551
3758.000000	46.504425
3757.000000	46.521061
3756.000000	46.532599
3755.000000	46.547845
3754.000000	46.569753
3753.000000	46.587362
3752.000000	46.593532
3751.000000	46.601222
3750.000000	46.618708
3749.000000	46.626128
3748.000000	46.606821
3747.000000	46.576570
3746.000000	46.555442
3745.000000	46.564929
3744.000000	46.623257
3743.000000	46.683381
3742.000000	46.699930
3741.000000	46.696002
3740.000000	46.700094
3739.000000	46.717542
3738.000000	46.739452
3737.000000	46.760206
3736.000000	46.781361
3735.000000	46.802439
3734.000000	46.821120
3733.000000	46.839312
3732.000000	46.864295
3731.000000	46.894768
3730.000000	46.920433
3729.000000	46.938423
3728.000000	46.953823
3727.000000	46.972513
3726.000000	46.994351
3725.000000	47.011473
3724.000000	47.018861
3723.000000	47.019949
3722.000000	47.025145
3721.000000	47.036702
3720.000000	47.048955
3719.000000	47.063126
3718.000000	47.081413
3717.000000	47.100309
3716.000000	47.114089
3715.000000	47.120411
3714.000000	47.119173
3713.000000	47.111242
3712.000000	47.105216
3711.000000	47.107296
3710.000000	47.108982
3709.000000	47.105033
3708.000000	47.102521
3707.000000	47.107816
3706.000000	47.118347
3705.000000	47.127276
3704.000000	47.132049
3703.000000	47.136812
3702.000000	47.147528
3701.000000	47.160312
3700.000000	47.161936
3699.000000	47.150811
3698.000000	47.139491
3697.000000	47.135600
3696.000000	47.136279
3695.000000	47.134549
3694.000000	47.126049
3693.000000	47.109690
3692.000000	47.086746
3691.000000	47.059110
3690.000000	47.028769
3689.000000	47.001319
3688.000000	46.977139
3687.000000	46.947681
3686.000000	46.912950
3685.000000	46.884163
3684.000000	46.866562
3683.000000	46.856127
3682.000000	46.847497
3681.000000	46.840826
3680.000000	46.831762
3679.000000	46.806045
3678.000000	46.753476
3677.000000	46.676651
3676.000000	46.606716
3675.000000	46.565551
3674.000000	46.516130
3673.000000	46.431563
3672.000000	46.335495
3671.000000	46.256847
3670.000000	46.214692
3669.000000	46.196816
3668.000000	46.162644
3667.000000	46.099852
3666.000000	46.030709
3665.000000	45.971577
3664.000000	45.919734
3663.000000	45.866462
3662.000000	45.806719
3661.000000	45.739762
3660.000000	45.661111
3659.000000	45.565143
3658.000000	45.455636
3657.000000	45.347154
3656.000000	45.249758
3655.000000	45.149328
3654.000000	45.029462
3653.000000	44.893650
3652.000000	44.747300
3651.000000	44.588227
3650.000000	44.421640
3649.000000	44.258359
3648.000000	44.100363
3647.000000	43.946334
3646.000000	43.801047
3645.000000	43.667571
3644.000000	43.543419
3643.000000	43.423500
3642.000000	43.301380
3641.000000	43.171249
3640.000000	43.028595
3639.000000	42.873848
3638.000000	42.709427
3637.000000	42.535937
3636.000000	42.355640
3635.000000	42.175293
3634.000000	42.001525
3633.000000	41.829643
3632.000000	41.644164
3631.000000	41.426726
3630.000000	41.177624
3629.000000	40.935051
3628.000000	40.724624
3627.000000	40.524394
3626.000000	40.321448
3625.000000	40.128546
3624.000000	39.951660
3623.000000	39.781565
3622.000000	39.602070
3621.000000	39.401168
3620.000000	39.181874
3619.000000	38.959474
3618.000000	38.738984
3617.000000	38.514308
3616.000000	38.286206
3615.000000	38.062053
3614.000000	37.847140
3613.000000	37.639847
3612.000000	37.431295
3611.000000	37.212631
3610.000000	36.983835
3609.000000	36.754561
3608.000000	36.536416
3607.000000	36.330656
3606.000000	36.129181
3605.000000	35.927643
3604.000000	35.726568
3603.000000	35.526215
3602.000000	35.324939
3601.000000	35.120082
3600.000000	34.910958
3599.000000	34.699758
3598.000000	34.486931
3597.000000	34.270943
3596.000000	34.053097
3595.000000	33.836780
3594.000000	33.625491
3593.000000	33.419755
3592.000000	33.217252
3591.000000	33.013273
3590.000000	32.800654
3589.000000	32.575130
3588.000000	32.343784
3587.000000	32.118625
3586.000000	31.903711
3585.000000	31.698923
3584.000000	31.505527
3583.000000	31.322531
3582.000000	31.145386
3581.000000	30.969655
3580.000000	30.793378
3579.000000	30.615636
3578.000000	30.435954
3577.000000	30.254635
3576.000000	30.073939
3575.000000	29.895688
3574.000000	29.720007
3573.000000	29.547233
3572.000000	29.377546
3571.000000	29.209376
3570.000000	29.039688
3569.000000	28.867585
3568.000000	28.697699
3567.000000	28.536350
3566.000000	28.382610
3565.000000	28.231726
3564.000000	28.083725
3563.000000	27.941287
3562.000000	27.805548
3561.000000	27.676334
3560.000000	27.552406
3559.000000	27.431068
3558.000000	27.309934
3557.000000	27.188523
3556.000000	27.066905
3555.000000	26.944096
3554.000000	26.819169
3553.000000	26.694036
3552.000000	26.571622
3551.000000	26.451267
3550.000000	26.328882
3549.000000	26.200812
3548.000000	26.066350
3547.000000	25.928516
3546.000000	25.793631
3545.000000	25.668260
3544.000000	25.555333
3543.000000	25.452696
3542.000000	25.355706
3541.000000	25.259977
3540.000000	25.161401
3539.000000	25.056739
3538.000000	24.946221
3537.000000	24.835417
3536.000000	24.730808
3535.000000	24.633523
3534.000000	24.539552
3533.000000	24.444764
3532.000000	24.347556
3531.000000	24.247350
3530.000000	24.143988
3529.000000	24.037960
3528.000000	23.928932
3527.000000	23.814671
3526.000000	23.694588
3525.000000	23.573853
3524.000000	23.461016
3523.000000	23.360467
3522.000000	23.268930
3521.000000	23.179756
3520.000000	23.088213
3519.000000	22.992445
3518.000000	22.891940
3517.000000	22.786857
3516.000000	22.678202
3515.000000	22.567837
3514.000000	22.458620
3513.000000	22.353340
3512.000000	22.252181
3511.000000	22.152011
3510.000000	22.049689
3509.000000	21.944885
3508.000000	21.838084
3507.000000	21.727510
3506.000000	21.610762
3505.000000	21.489069
3504.000000	21.368091
3503.000000	21.253833
3502.000000	21.148583
3501.000000	21.050305
3500.000000	20.954605
3499.000000	20.857849
3498.000000	20.760227
3497.000000	20.665373
3496.000000	20.575827
3495.000000	20.490101
3494.000000	20.405447
3493.000000	20.321577
3492.000000	20.239261
3491.000000	20.157193
3490.000000	20.073507
3489.000000	19.989314
3488.000000	19.908312
3487.000000	19.833422
3486.000000	19.765348
3485.000000	19.702997
3484.000000	19.642698
3483.000000	19.579020
3482.000000	19.509858
3481.000000	19.440113
3480.000000	19.377735
3479.000000	19.326240
3478.000000	19.283123
3477.000000	19.243787
3476.000000	19.204214
3475.000000	19.161128
3474.000000	19.112306
3473.000000	19.057069
3472.000000	18.995457
3471.000000	18.928353
3470.000000	18.860255
3469.000000	18.799816
3468.000000	18.754452
3467.000000	18.724588
3466.000000	18.704507
3465.000000	18.687131
3464.000000	18.666288
3463.000000	18.637500
3462.000000	18.600732
3461.000000	18.561585
3460.000000	18.526685
3459.000000	18.497865
3458.000000	18.472322
3457.000000	18.446945
3456.000000	18.419891
3455.000000	18.389943
3454.000000	18.357426
3453.000000	18.324661
3452.000000	18.293195
3451.000000	18.261567
3450.000000	18.228242
3449.000000	18.195100
3448.000000	18.165470
3447.000000	18.139933
3446.000000	18.116579
3445.000000	18.094327
3444.000000	18.073146
3443.000000	18.051946
3442.000000	18.028738
3441.000000	18.001925
3440.000000	17.969986
3439.000000	17.931959
3438.000000	17.890486
3437.000000	17.852635
3436.000000	17.824749
3435.000000	17.807314
3434.000000	17.796063
3433.000000	17.785998
3432.000000	17.773476
3431.000000	17.757306
3430.000000	17.740548
3429.000000	17.728823
3428.000000	17.724332
3427.000000	17.723508
3426.000000	17.721715
3425.000000	17.717518
3424.000000	17.710906
3423.000000	17.701018
3422.000000	17.688453
3421.000000	17.676843
3420.000000	17.668966
3419.000000	17.663288
3418.000000	17.656593
3417.000000	17.647425
3416.000000	17.635271
3415.000000	17.619820
3414.000000	17.603518
3413.000000	17.591532
3412.000000	17.586371
3411.000000	17.585345
3410.000000	17.585768
3409.000000	17.589370
3408.000000	17.598269
3407.000000	17.609514
3406.000000	17.616810
3405.000000	17.615687
3404.000000	17.605021
3403.000000	17.587037
3402.000000	17.569194
3401.000000	17.562774
3400.000000	17.574930
3399.000000	17.602367
3398.000000	17.634717
3397.000000	17.662328
3396.000000	17.679433
3395.000000	17.684046
3394.000000	17.679833
3393.000000	17.676719
3392.000000	17.685277
3391.000000	17.709555
3390.000000	17.746079
3389.000000	17.788004
3388.000000	17.828512
3387.000000	17.863068
3386.000000	17.891555
3385.000000	17.917208
3384.000000	17.941984
3383.000000	17.964731
3382.000000	17.984912
3381.000000	18.005158
3380.000000	18.028169
3379.000000	18.053654
3378.000000	18.080627
3377.000000	18.110162
3376.000000	18.143176
3375.000000	18.177251
3374.000000	18.208162
3373.000000	18.233520
3372.000000	18.253804
3371.000000	18.272151
3370.000000	18.294692
3369.000000	18.328590
3368.000000	18.376970
3367.000000	18.436682
3366.000000	18.501908
3365.000000	18.567637
3364.000000	18.629389
3363.000000	18.683704
3362.000000	18.731507
3361.000000	18.778395
3360.000000	18.829023
3359.000000	18.883097
3358.000000	18.938444
3357.000000	18.994754
3356.000000	19.051734
3355.000000	19.106534
3354.000000	19.156371
3353.000000	19.202612
3352.000000	19.250343
3351.000000	19.305074
3350.000000	19.370350
3349.000000	19.445813
3348.000000	19.525789
3347.000000	19.602177
3346.000000	19.671034
3345.000000	19.734962
3344.000000	19.798306
3343.000000	19.862317
3342.000000	19.926010
3341.000000	19.989024
3340.000000	20.052113
3339.000000	20.117049
3338.000000	20.187093
3337.000000	20.264812
3336.000000	20.348014
3335.000000	20.430490
3334.000000	20.508079
3333.000000	20.581465
3332.000000	20.652280
3331.000000	20.719609
3330.000000	20.781700
3329.000000	20.838149
3328.000000	20.888844
3327.000000	20.933903
3326.000000	20.975783
3325.000000	21.018059
3324.000000	21.060556
3323.000000	21.098204
3322.000000	21.126526
3321.000000	21.145079
3320.000000	21.154073
3319.000000	21.151369
3318.000000	21.134327
3317.000000	21.102119
3316.000000	21.053677
3315.000000	20.985678
3314.000000	20.894985
3313.000000	20.779919
3312.000000	20.638779
3311.000000	20.470128
3310.000000	20.275980
3309.000000	20.063208
3308.000000	19.839163
3307.000000	19.609098
3306.000000	19.378901
3305.000000	19.155603
3304.000000	18.943171
3303.000000	18.740558
3302.000000	18.546479
3301.000000	18.363460
3300.000000	18.195657
3299.000000	18.045870
3298.000000	17.917491
3297.000000	17.815457
3296.000000	17.741397
3295.000000	17.690841
3294.000000	17.656331
3293.000000	17.631154
3292.000000	17.608164
3291.000000	17.578144
3290.000000	17.533560
3289.000000	17.471783
3288.000000	17.393038
3287.000000	17.297953
3286.000000	17.188454
3285.000000	17.066939
3284.000000	16.932432
3283.000000	16.779204
3282.000000	16.600906
3281.000000	16.394140
3280.000000	16.155273
3279.000000	15.878910
3278.000000	15.561953
3277.000000	15.206385
3276.000000	14.817161
3275.000000	14.398725
3274.000000	13.957470
3273.000000	13.505570
3272.000000	13.059998
3271.000000	12.639972
3270.000000	12.266699
3269.000000	11.961358
3268.000000	11.739960
3267.000000	11.613335
3266.000000	11.588552
3265.000000	11.668839
3264.000000	11.847749
3263.000000	12.105346
3262.000000	12.415873
3261.000000	12.751493
3260.000000	13.081449
3259.000000	13.373173
3258.000000	13.598430
3257.000000	13.736812
3256.000000	13.773085
3255.000000	13.693011
3254.000000	13.484563
3253.000000	13.142604
3252.000000	12.664342
3251.000000	12.051703
3250.000000	11.317263
3249.000000	10.487369
3248.000000	9.601907
3247.000000	8.708374
3246.000000	7.861220
3245.000000	7.119373
3244.000000	6.538571
3243.000000	6.162336
3242.000000	6.021134
3241.000000	6.125074
3240.000000	6.453098
3239.000000	6.957044
3238.000000	7.572865
3237.000000	8.239605
3236.000000	8.907581
3235.000000	9.541599
3234.000000	10.126137
3233.000000	10.658189
3232.000000	11.136195
3231.000000	11.555897
3230.000000	11.916741
3229.000000	12.225528
3228.000000	12.492113
3227.000000	12.724618
3226.000000	12.930666
3225.000000	13.119345
3224.000000	13.296430
3223.000000	13.462906
3222.000000	13.618369
3221.000000	13.762851
3220.000000	13.894275
3219.000000	14.006663
3218.000000	14.094715
3217.000000	14.156016
3216.000000	14.188422
3215.000000	14.190060
3214.000000	14.162723
3213.000000	14.113269
3212.000000	14.048748
3211.000000	13.973637
3210.000000	13.893440
3209.000000	13.815538
3208.000000	13.745371
3207.000000	13.684705
3206.000000	13.635136
3205.000000	13.599500
3204.000000	13.578212
3203.000000	13.568239
3202.000000	13.567397
3201.000000	13.576151
3200.000000	13.593349
3199.000000	13.614933
3198.000000	13.638375
3197.000000	13.664702
3196.000000	13.694612
3195.000000	13.726115
3194.000000	13.758036
3193.000000	13.791407
3192.000000	13.825671
3191.000000	13.857664
3190.000000	13.886214
3189.000000	13.914515
3188.000000	13.946365
3187.000000	13.983687
3186.000000	14.029187
3185.000000	14.086749
3184.000000	14.157081
3183.000000	14.236171
3182.000000	14.319458
3181.000000	14.404049
3180.000000	14.485378
3179.000000	14.556165
3178.000000	14.611171
3177.000000	14.650136
3176.000000	14.675216
3175.000000	14.689670
3174.000000	14.700282
3173.000000	14.716915
3172.000000	14.747380
3171.000000	14.796255
3170.000000	14.869238
3169.000000	14.974147
3168.000000	15.116044
3167.000000	15.293865
3166.000000	15.505007
3165.000000	15.748706
3164.000000	16.024615
3163.000000	16.333236
3162.000000	16.677355
3161.000000	17.060875
3160.000000	17.481851
3159.000000	17.929649
3158.000000	18.389927
3157.000000	18.847325
3156.000000	19.284863
3155.000000	19.685806
3154.000000	20.039340
3153.000000	20.341628
3152.000000	20.591957
3151.000000	20.790641
3150.000000	20.941759
3149.000000	21.054245
3148.000000	21.135802
3147.000000	21.190015
3146.000000	21.216799
3145.000000	21.212046
3144.000000	21.166691
3143.000000	21.067105
3142.000000	20.902477
3141.000000	20.668243
3140.000000	20.363630
3139.000000	19.992006
3138.000000	19.561729
3137.000000	19.086526
3136.000000	18.581086
3135.000000	18.059387
3134.000000	17.539291
3133.000000	17.042803
3132.000000	16.590719
3131.000000	16.198751
3130.000000	15.879363
3129.000000	15.640712
3128.000000	15.482788
3127.000000	15.396755
3126.000000	15.370856
3125.000000	15.395194
3124.000000	15.458123
3123.000000	15.547511
3122.000000	15.656212
3121.000000	15.783076
3120.000000	15.927772
3119.000000	16.086315
3118.000000	16.254811
3117.000000	16.431197
3116.000000	16.611290
3115.000000	16.786390
3114.000000	16.946214
3113.000000	17.080700
3112.000000	17.178016
3111.000000	17.226606
3110.000000	17.219802
3109.000000	17.157251
3108.000000	17.038665
3107.000000	16.860864
3106.000000	16.623813
3105.000000	16.333636
3104.000000	16.001094
3103.000000	15.639788
3102.000000	15.269329
3101.000000	14.915650
3100.000000	14.604047
3099.000000	14.353372
3098.000000	14.176862
3097.000000	14.084380
3096.000000	14.078533
3095.000000	14.155028
3094.000000	14.306684
3093.000000	14.526136
3092.000000	14.805179
3091.000000	15.133026
3090.000000	15.500449
3089.000000	15.899074
3088.000000	16.317509
3087.000000	16.743414
3086.000000	17.169004
3085.000000	17.592464
3084.000000	18.011375
3083.000000	18.419557
3082.000000	18.811518
3081.000000	19.185805
3080.000000	19.542973
3079.000000	19.883922
3078.000000	20.211446
3077.000000	20.528980
3076.000000	20.837017
3075.000000	21.133251
3074.000000	21.417312
3073.000000	21.691952
3072.000000	21.958556
3071.000000	22.215992
3070.000000	22.464459
3069.000000	22.707284
3068.000000	22.947825
3067.000000	23.187152
3066.000000	23.425682
3065.000000	23.663466
3064.000000	23.898319
3063.000000	24.126975
3062.000000	24.348255
3061.000000	24.562633
3060.000000	24.768741
3059.000000	24.964043
3058.000000	25.149230
3057.000000	25.328035
3056.000000	25.502538
3055.000000	25.671741
3054.000000	25.835059
3053.000000	25.994062
3052.000000	26.150167
3051.000000	26.303915
3050.000000	26.456298
3049.000000	26.607341
3048.000000	26.753668
3047.000000	26.890751
3046.000000	27.018061
3045.000000	27.138848
3044.000000	27.255218
3043.000000	27.367247
3042.000000	27.476382
3041.000000	27.585579
3040.000000	27.695062
3039.000000	27.801518
3038.000000	27.902701
3037.000000	28.000041
3036.000000	28.096758
3035.000000	28.196276
3034.000000	28.302443
3033.000000	28.417768
3032.000000	28.540463
3031.000000	28.665947
3030.000000	28.791502
3029.000000	28.917215
3028.000000	29.042868
3027.000000	29.167520
3026.000000	29.292441
3025.000000	29.420920
3024.000000	29.554356
3023.000000	29.690980
3022.000000	29.828859
3021.000000	29.967458
3020.000000	30.105981
3019.000000	30.243021
3018.000000	30.378374
3017.000000	30.513039
3016.000000	30.647454
3015.000000	30.781951
3014.000000	30.918749
3013.000000	31.060960
3012.000000	31.209420
3011.000000	31.362198
3010.000000	31.516583
3009.000000	31.669379
3008.000000	31.815850
3007.000000	31.951202
3006.000000	32.072633
3005.000000	32.178751
3004.000000	32.266820
3003.000000	32.332058
3002.000000	32.368528
3001.000000	32.364574
3000.000000	32.295547
2999.000000	32.120299
2998.000000	31.794601
2997.000000	31.306438
2996.000000	30.717269
2995.000000	30.170426
2994.000000	29.834841
2993.000000	29.813690
2992.000000	30.087180
2991.000000	30.540115
2990.000000	31.039574
2989.000000	31.494622
2988.000000	31.868817
2987.000000	32.163361
2986.000000	32.398648
2985.000000	32.597065
2984.000000	32.772089
2983.000000	32.926833
2982.000000	33.060128
2981.000000	33.167274
2980.000000	33.234277
2979.000000	33.237027
2978.000000	33.153187
2977.000000	32.983062
2976.000000	32.766094
2975.000000	32.580716
2974.000000	32.515507
2973.000000	32.624013
2972.000000	32.896257
2971.000000	33.271585
2970.000000	33.677486
2969.000000	34.058984
2968.000000	34.385265
2967.000000	34.644807
2966.000000	34.839986
2965.000000	34.978231
2964.000000	35.064102
2963.000000	35.095271
2962.000000	35.063706
2961.000000	34.951855
2960.000000	34.722315
2959.000000	34.314461
2958.000000	33.660291
2957.000000	32.732380
2956.000000	31.605241
2955.000000	30.483835
2954.000000	29.640551
2953.000000	29.275103
2952.000000	29.397827
2951.000000	29.835781
2950.000000	30.353404
2949.000000	30.778123
2948.000000	31.055875
2947.000000	31.231104
2946.000000	31.392848
2945.000000	31.617456
2944.000000	31.931975
2943.000000	32.315614
2942.000000	32.727892
2941.000000	33.136441
2940.000000	33.526027
2939.000000	33.896473
2938.000000	34.258642
2937.000000	34.626248
2936.000000	35.005831
2935.000000	35.394178
2934.000000	35.784257
2933.000000	36.169068
2932.000000	36.540554
2931.000000	36.891793
2930.000000	37.221579
2929.000000	37.532595
2928.000000	37.824121
2927.000000	38.091371
2926.000000	38.332272
2925.000000	38.548992
2924.000000	38.742800
2923.000000	38.912499
2922.000000	39.058822
2921.000000	39.184997
2920.000000	39.291606
2919.000000	39.376031
2918.000000	39.437204
2917.000000	39.476778
2916.000000	39.495764
2915.000000	39.495022
2914.000000	39.480023
2913.000000	39.460025
2912.000000	39.441566
2911.000000	39.426298
2910.000000	39.414807
2909.000000	39.408122
2908.000000	39.404919
2907.000000	39.402221
2906.000000	39.400035
2905.000000	39.401657
2904.000000	39.408913
2903.000000	39.420689
2902.000000	39.436611
2901.000000	39.457704
2900.000000	39.483063
2899.000000	39.508720
2898.000000	39.530919
2897.000000	39.546981
2896.000000	39.552889
2895.000000	39.544739
2894.000000	39.523322
2893.000000	39.493976
2892.000000	39.461233
2891.000000	39.426997
2890.000000	39.393642
2889.000000	39.364775
2888.000000	39.342027
2887.000000	39.325046
2886.000000	39.315438
2885.000000	39.317117
2884.000000	39.332241
2883.000000	39.359963
2882.000000	39.399484
2881.000000	39.450498
2880.000000	39.509972
2879.000000	39.571641
2878.000000	39.629199
2877.000000	39.676771
2876.000000	39.707091
2875.000000	39.714672
2874.000000	39.702227
2873.000000	39.680145
2872.000000	39.657919
2871.000000	39.639124
2870.000000	39.626089
2869.000000	39.626818
2868.000000	39.655720
2867.000000	39.729339
2866.000000	39.860612
2865.000000	40.051853
2864.000000	40.291238
2863.000000	40.558562
2862.000000	40.835658
2861.000000	41.110734
2860.000000	41.375948
2859.000000	41.625680
2858.000000	41.857832
2857.000000	42.072792
2856.000000	42.269414
2855.000000	42.445006
2854.000000	42.598338
2853.000000	42.729328
2852.000000	42.836102
2851.000000	42.915945
2850.000000	42.969827
2849.000000	43.003565
2848.000000	43.024674
2847.000000	43.040598
2846.000000	43.059266
2845.000000	43.086831
2844.000000	43.124155
2843.000000	43.167891
2842.000000	43.215137
2841.000000	43.265258
2840.000000	43.318053
2839.000000	43.373605
2838.000000	43.433716
2837.000000	43.500297
2836.000000	43.572255
2835.000000	43.646660
2834.000000	43.722510
2833.000000	43.800484
2832.000000	43.879426
2831.000000	43.956312
2830.000000	44.029738
2829.000000	44.100531
2828.000000	44.169035
2827.000000	44.234811
2826.000000	44.298967
2825.000000	44.363795
2824.000000	44.429953
2823.000000	44.496448
2822.000000	44.563158
2821.000000	44.630520
2820.000000	44.696918
2819.000000	44.759375
2818.000000	44.816898
2817.000000	44.870595
2816.000000	44.920810
2815.000000	44.967041
2814.000000	45.010568
2813.000000	45.054205
2812.000000	45.099295
2811.000000	45.145481
2810.000000	45.193153
2809.000000	45.243168
2808.000000	45.294274
2807.000000	45.343729
2806.000000	45.390653
2805.000000	45.436250
2804.000000	45.480848
2803.000000	45.523579
2802.000000	45.565010
2801.000000	45.607352
2800.000000	45.651971
2799.000000	45.699094
2798.000000	45.749699
2797.000000	45.804850
2796.000000	45.863088
2795.000000	45.921238
2794.000000	45.977866
2793.000000	46.033573
2792.000000	46.088326
2791.000000	46.141327
2790.000000	46.193491
2789.000000	46.247170
2788.000000	46.303167
2787.000000	46.360517
2786.000000	46.419017
2785.000000	46.479358
2784.000000	46.540775
2783.000000	46.601240
2782.000000	46.660154
2781.000000	46.718395
2780.000000	46.775786
2779.000000	46.831025
2778.000000	46.884065
2777.000000	46.936088
2776.000000	46.987201
2775.000000	47.036501
2774.000000	47.084251
2773.000000	47.131560
2772.000000	47.178004
2771.000000	47.222101
2770.000000	47.263948
2769.000000	47.304900
2768.000000	47.344915
2767.000000	47.382633
2766.000000	47.417945
2765.000000	47.451848
2764.000000	47.483814
2763.000000	47.511976
2762.000000	47.535854
2761.000000	47.556545
2760.000000	47.574305
2759.000000	47.588432
2758.000000	47.599672
2757.000000	47.610286
2756.000000	47.621629
2755.000000	47.633901
2754.000000	47.647979
2753.000000	47.665134
2752.000000	47.685128
2751.000000	47.706976
2750.000000	47.731458
2749.000000	47.760518
2748.000000	47.794239
2747.000000	47.830936
2746.000000	47.869951
2745.000000	47.911689
2744.000000	47.955058
2743.000000	47.997354
2742.000000	48.036631
2741.000000	48.071940
2740.000000	48.101445
2739.000000	48.123009
2738.000000	48.136987
2737.000000	48.146508
2736.000000	48.155334
2735.000000	48.167693
2734.000000	48.189404
2733.000000	48.225635
2732.000000	48.276907
2731.000000	48.339146
2730.000000	48.407362
2729.000000	48.477432
2728.000000	48.545098
2727.000000	48.606734
2726.000000	48.661846
2725.000000	48.712491
2724.000000	48.760017
2723.000000	48.804359
2722.000000	48.845932
2721.000000	48.885494
2720.000000	48.922248
2719.000000	48.954515
2718.000000	48.982684
2717.000000	49.009566
2716.000000	49.037841
2715.000000	49.069217
2714.000000	49.105510
2713.000000	49.147724
2712.000000	49.193804
2711.000000	49.239553
2710.000000	49.282032
2709.000000	49.320297
2708.000000	49.353441
2707.000000	49.380478
2706.000000	49.402094
2705.000000	49.420306
2704.000000	49.436219
2703.000000	49.450033
2702.000000	49.462973
2701.000000	49.476849
2700.000000	49.492053
2699.000000	49.508168
2698.000000	49.526068
2697.000000	49.547051
2696.000000	49.570289
2695.000000	49.593748
2694.000000	49.617634
2693.000000	49.644556
2692.000000	49.676284
2691.000000	49.712693
2690.000000	49.753442
2689.000000	49.798004
2688.000000	49.844118
2687.000000	49.888673
2686.000000	49.930474
2685.000000	49.970056
2684.000000	50.006919
2683.000000	50.039325
2682.000000	50.066768
2681.000000	50.090106
2680.000000	50.109339
2679.000000	50.123694
2678.000000	50.134091
2677.000000	50.143563
2676.000000	50.155041
2675.000000	50.170659
2674.000000	50.192957
2673.000000	50.224283
2672.000000	50.264513
2671.000000	50.311355
2670.000000	50.362835
2669.000000	50.417538
2668.000000	50.473108
2667.000000	50.526804
2666.000000	50.577843
2665.000000	50.627319
2664.000000	50.675860
2663.000000	50.723297
2662.000000	50.770150
2661.000000	50.817082
2660.000000	50.862976
2659.000000	50.905692
2658.000000	50.944576
2657.000000	50.980519
2656.000000	51.014078
2655.000000	51.045713
2654.000000	51.077532
2653.000000	51.112037
2652.000000	51.149051
2651.000000	51.185691
2650.000000	51.219081
2649.000000	51.247247
2648.000000	51.267895
2647.000000	51.279324
2646.000000	51.283141
2645.000000	51.284140
2644.000000	51.287411
2643.000000	51.297027
2642.000000	51.316612
2641.000000	51.348347
2640.000000	51.390902
2639.000000	51.440042
2638.000000	51.491526
2637.000000	51.541910
2636.000000	51.587383
2635.000000	51.624561
2634.000000	51.652607
2633.000000	51.672746
2632.000000	51.685967
2631.000000	51.693326
2630.000000	51.698196
2629.000000	51.706099
2628.000000	51.721964
2627.000000	51.748624
2626.000000	51.786992
2625.000000	51.835242
2624.000000	51.888043
2623.000000	51.939229
2622.000000	51.985715
2621.000000	52.027480
2620.000000	52.064774
2619.000000	52.097547
2618.000000	52.127001
2617.000000	52.155077
2616.000000	52.182306
2615.000000	52.207857
2614.000000	52.231380
2613.000000	52.252660
2612.000000	52.269851
2611.000000	52.280792
2610.000000	52.285867
2609.000000	52.287677
2608.000000	52.288164
2607.000000	52.288060
2606.000000	52.288825
2605.000000	52.292255
2604.000000	52.298028
2603.000000	52.303915
2602.000000	52.308555
2601.000000	52.312138
2600.000000	52.314662
2599.000000	52.315915
2598.000000	52.317341
2597.000000	52.321781
2596.000000	52.331071
2595.000000	52.345724
2594.000000	52.366582
2593.000000	52.394253
2592.000000	52.427012
2591.000000	52.461254
2590.000000	52.494268
2589.000000	52.524827
2588.000000	52.551428
2587.000000	52.572590
2586.000000	52.589025
2585.000000	52.603429
2584.000000	52.617922
2583.000000	52.633532
2582.000000	52.651918
2581.000000	52.675253
2580.000000	52.704075
2579.000000	52.737020
2578.000000	52.772564
2577.000000	52.809277
2576.000000	52.844717
2575.000000	52.876500
2574.000000	52.904870
2573.000000	52.932408
2572.000000	52.961398
2571.000000	52.993064
2570.000000	53.028684
2569.000000	53.068919
2568.000000	53.111777
2567.000000	53.153350
2566.000000	53.190861
2565.000000	53.223512
2564.000000	53.250852
2563.000000	53.272758
2562.000000	53.291044
2561.000000	53.309005
2560.000000	53.329057
2559.000000	53.352307
2558.000000	53.380060
2557.000000	53.413544
2556.000000	53.451986
2555.000000	53.492833
2554.000000	53.534076
2553.000000	53.574662
2552.000000	53.613095
2551.000000	53.647839
2550.000000	53.679291
2549.000000	53.709736
2548.000000	53.741231
2547.000000	53.774946
2546.000000	53.811900
2545.000000	53.852215
2544.000000	53.893585
2543.000000	53.932395
2542.000000	53.966382
2541.000000	53.994665
2540.000000	54.016077
2539.000000	54.029546
2538.000000	54.036250
2537.000000	54.039415
2536.000000	54.041797
2535.000000	54.045220
2534.000000	54.051825
2533.000000	54.063574
2532.000000	54.080327
2531.000000	54.100362
2530.000000	54.122792
2529.000000	54.147773
2528.000000	54.174638
2527.000000	54.201884
2526.000000	54.229252
2525.000000	54.257705
2524.000000	54.287466
2523.000000	54.317721
2522.000000	54.348030
2521.000000	54.377984
2520.000000	54.405526
2519.000000	54.427468
2518.000000	54.441828
2517.000000	54.448316
2516.000000	54.446564
2515.000000	54.436327
2514.000000	54.419202
2513.000000	54.398226
2512.000000	54.375896
2511.000000	54.353763
2510.000000	54.333932
2509.000000	54.318625
2508.000000	54.308079
2507.000000	54.300631
2506.000000	54.294987
2505.000000	54.290814
2504.000000	54.287667
2503.000000	54.285602
2502.000000	54.286615
2501.000000	54.293706
2500.000000	54.308123
2499.000000	54.329025
2498.000000	54.355635
2497.000000	54.387169
2496.000000	54.421277
2495.000000	54.454616
2494.000000	54.485376
2493.000000	54.513764
2492.000000	54.540120
2491.000000	54.564671
2490.000000	54.588882
2489.000000	54.614879
2488.000000	54.643341
2487.000000	54.673643
2486.000000	54.705915
2485.000000	54.741016
2484.000000	54.778583
2483.000000	54.817232
2482.000000	54.856616
2481.000000	54.897430
2480.000000	54.939454
2479.000000	54.981438
2478.000000	55.022894
2477.000000	55.063905
2476.000000	55.103260
2475.000000	55.138861
2474.000000	55.170389
2473.000000	55.199849
2472.000000	55.229481
2471.000000	55.260585
2470.000000	55.294012
2469.000000	55.329771
2468.000000	55.365928
2467.000000	55.399829
2466.000000	55.430479
2465.000000	55.458044
2464.000000	55.481435
2463.000000	55.498175
2462.000000	55.506822
2461.000000	55.507708
2460.000000	55.501209
2459.000000	55.487877
2458.000000	55.470146
2457.000000	55.452169
2456.000000	55.437330
2455.000000	55.427319
2454.000000	55.423649
2453.000000	55.427990
2452.000000	55.440718
2451.000000	55.460688
2450.000000	55.487033
2449.000000	55.519155
2448.000000	55.555296
2447.000000	55.592811
2446.000000	55.629993
2445.000000	55.666321
2444.000000	55.700773
2443.000000	55.731958
2442.000000	55.759954
2441.000000	55.786244
2440.000000	55.811586
2439.000000	55.835597
2438.000000	55.858397
2437.000000	55.880875
2436.000000	55.903267
2435.000000	55.925135
2434.000000	55.946962
2433.000000	55.969875
2432.000000	55.993393
2431.000000	56.015135
2430.000000	56.032835
2429.000000	56.045215
2428.000000	56.051015
2427.000000	56.049084
2426.000000	56.040275
2425.000000	56.027445
2424.000000	56.013385
2423.000000	55.999886
2422.000000	55.988687
2421.000000	55.981563
2420.000000	55.978842
2419.000000	55.979496
2418.000000	55.983003
2417.000000	55.989955
2416.000000	56.000553
2415.000000	56.014325
2414.000000	56.031332
2413.000000	56.051902
2412.000000	56.074997
2411.000000	56.098207
2410.000000	56.119917
2409.000000	56.140073
2408.000000	56.158765
2407.000000	56.175588
2406.000000	56.190535
2405.000000	56.203925
2404.000000	56.215080
2403.000000	56.222691
2402.000000	56.226487
2401.000000	56.227278
2400.000000	56.225031
2399.000000	56.218223
2398.000000	56.205540
2397.000000	56.186119
2396.000000	56.158245
2395.000000	56.119311
2394.000000	56.067315
2393.000000	56.001869
2392.000000	55.922779
2391.000000	55.830020
2390.000000	55.725362
2389.000000	55.611824
2388.000000	55.491795
2387.000000	55.365882
2386.000000	55.234889
2385.000000	55.101411
2384.000000	54.968316
2383.000000	54.838584
2382.000000	54.715960
2381.000000	54.604768
2380.000000	54.507978
2379.000000	54.425944
2378.000000	54.358807
2377.000000	54.307407
2376.000000	54.272032
2375.000000	54.251460
2374.000000	54.245918
2373.000000	54.257474
2372.000000	54.286243
2371.000000	54.327832
2370.000000	54.375545
2369.000000	54.423918
2368.000000	54.468028
2367.000000	54.503140
2366.000000	54.528162
2365.000000	54.545118
2364.000000	54.558193
2363.000000	54.566254
2362.000000	54.565632
2361.000000	54.562657
2360.000000	54.563793
2359.000000	54.571733
2358.000000	54.586088
2357.000000	54.598358
2356.000000	54.606373
2355.000000	54.607988
2354.000000	54.612857
2353.000000	54.629805
2352.000000	54.658331
2351.000000	54.695860
2350.000000	54.729088
2349.000000	54.745436
2348.000000	54.744217
2347.000000	54.748508
2346.000000	54.793748
2345.000000	54.875365
2344.000000	54.963420
2343.000000	55.021087
2342.000000	55.040655
2341.000000	55.031115
2340.000000	54.999875
2339.000000	54.960259
2338.000000	54.924173
2337.000000	54.906378
2336.000000	54.907376
2335.000000	54.926853
2334.000000	54.957835
2333.000000	55.002966
2332.000000	55.050766
2331.000000	55.103737
2330.000000	55.154701
2329.000000	55.211483
2328.000000	55.265894
2327.000000	55.309139
2326.000000	55.337694
2325.000000	55.354523
2324.000000	55.371247
2323.000000	55.391146
2322.000000	55.413683
2321.000000	55.435779
2320.000000	55.450584
2319.000000	55.459700
2318.000000	55.459065
2317.000000	55.451919
2316.000000	55.429531
2315.000000	55.394013
2314.000000	55.342735
2313.000000	55.282421
2312.000000	55.208128
2311.000000	55.120900
2310.000000	55.018470
2309.000000	54.907436
2308.000000	54.789023
2307.000000	54.669415
2306.000000	54.553810
2305.000000	54.452819
2304.000000	54.372355
2303.000000	54.321075
2302.000000	54.304664
2301.000000	54.329942
2300.000000	54.393314
2299.000000	54.487883
2298.000000	54.601897
2297.000000	54.725398
2296.000000	54.845434
2295.000000	54.952514
2294.000000	55.041778
2293.000000	55.113288
2292.000000	55.167065
2291.000000	55.202445
2290.000000	55.219928
2289.000000	55.219769
2288.000000	55.200014
2287.000000	55.156816
2286.000000	55.089000
2285.000000	54.997393
2284.000000	54.884738
2283.000000	54.756266
2282.000000	54.623955
2281.000000	54.504356
2280.000000	54.412491
2279.000000	54.356941
2278.000000	54.339046
2277.000000	54.354259
2276.000000	54.394156
2275.000000	54.453890
2274.000000	54.535314
2273.000000	54.643701
2272.000000	54.779531
2271.000000	54.936898
2270.000000	55.107751
2269.000000	55.283942
2268.000000	55.457141
2267.000000	55.620386
2266.000000	55.770403
2265.000000	55.906585
2264.000000	56.028155
2263.000000	56.134792
2262.000000	56.229119
2261.000000	56.315025
2260.000000	56.394725
2259.000000	56.468854
2258.000000	56.539493
2257.000000	56.609857
2256.000000	56.681714
2255.000000	56.755951
2254.000000	56.834516
2253.000000	56.919973
2252.000000	57.012352
2251.000000	57.110020
2250.000000	57.212248
2249.000000	57.319378
2248.000000	57.430417
2247.000000	57.543187
2246.000000	57.656575
2245.000000	57.769840
2244.000000	57.880233
2243.000000	57.983762
2242.000000	58.078057
2241.000000	58.162726
2240.000000	58.237572
2239.000000	58.302835
2238.000000	58.360948
2237.000000	58.415206
2236.000000	58.466927
2235.000000	58.515397
2234.000000	58.560448
2233.000000	58.602576
2232.000000	58.640747
2231.000000	58.672736
2230.000000	58.697736
2229.000000	58.716944
2228.000000	58.731595
2227.000000	58.742483
2226.000000	58.751352
2225.000000	58.760399
2224.000000	58.769938
2223.000000	58.778407
2222.000000	58.784605
2221.000000	58.788357
2220.000000	58.789011
2219.000000	58.785543
2218.000000	58.778456
2217.000000	58.769857
2216.000000	58.761561
2215.000000	58.754535
2214.000000	58.749765
2213.000000	58.747516
2212.000000	58.745735
2211.000000	58.741419
2210.000000	58.733979
2209.000000	58.725937
2208.000000	58.720455
2207.000000	58.719691
2206.000000	58.724645
2205.000000	58.734048
2204.000000	58.743080
2203.000000	58.745534
2202.000000	58.738089
2201.000000	58.722255
2200.000000	58.703404
2199.000000	58.690440
2198.000000	58.694796
2197.000000	58.725724
2196.000000	58.784544
2195.000000	58.864544
2194.000000	58.956461
2193.000000	59.052672
2192.000000	59.147811
2191.000000	59.238657
2190.000000	59.324360
2189.000000	59.404664
2188.000000	59.477184
2187.000000	59.537955
2186.000000	59.584271
2185.000000	59.615872
2184.000000	59.633503
2183.000000	59.638451
2182.000000	59.633389
2181.000000	59.622075
2180.000000	59.607981
2179.000000	59.594502
2178.000000	59.585939
2177.000000	59.585733
2176.000000	59.593631
2175.000000	59.606218
2174.000000	59.620366
2173.000000	59.634711
2172.000000	59.648409
2171.000000	59.661172
2170.000000	59.674801
2169.000000	59.692644
2168.000000	59.716748
2167.000000	59.746766
2166.000000	59.781103
2165.000000	59.817242
2164.000000	59.851302
2163.000000	59.879677
2162.000000	59.901684
2161.000000	59.919226
2160.000000	59.934223
2159.000000	59.948222
2158.000000	59.964324
2157.000000	59.986964
2156.000000	60.019221
2155.000000	60.061669
2154.000000	60.113516
2153.000000	60.172631
2152.000000	60.234340
2151.000000	60.292243
2150.000000	60.340905
2149.000000	60.376930
2148.000000	60.397947
2147.000000	60.403109
2146.000000	60.394732
2145.000000	60.377652
2144.000000	60.356319
2143.000000	60.333715
2142.000000	60.312405
2141.000000	60.294209
2140.000000	60.278053
2139.000000	60.259981
2138.000000	60.236515
2137.000000	60.207382
2136.000000	60.175931
2135.000000	60.149161
2134.000000	60.136880
2133.000000	60.148160
2132.000000	60.186687
2131.000000	60.249671
2130.000000	60.330313
2129.000000	60.419328
2128.000000	60.505094
2127.000000	60.576059
2126.000000	60.624895
2125.000000	60.649681
2124.000000	60.651976
2123.000000	60.635526
2122.000000	60.606582
2121.000000	60.572795
2120.000000	60.540394
2119.000000	60.513007
2118.000000	60.493024
2117.000000	60.481724
2116.000000	60.477580
2115.000000	60.476492
2114.000000	60.474345
2113.000000	60.468615
2112.000000	60.458096
2111.000000	60.443297
2110.000000	60.427182
2109.000000	60.413310
2108.000000	60.402528
2107.000000	60.393012
2106.000000	60.383659
2105.000000	60.375740
2104.000000	60.371287
2103.000000	60.371984
2102.000000	60.379966
2101.000000	60.397480
2100.000000	60.425390
2099.000000	60.463452
2098.000000	60.511786
2097.000000	60.570267
2096.000000	60.636196
2095.000000	60.704124
2094.000000	60.767555
2093.000000	60.819275
2092.000000	60.851115
2091.000000	60.856938
2090.000000	60.837378
2089.000000	60.800650
2088.000000	60.759024
2087.000000	60.725839
2086.000000	60.714176
2085.000000	60.733764
2084.000000	60.786653
2083.000000	60.866897
2082.000000	60.965010
2081.000000	61.071390
2080.000000	61.176892
2079.000000	61.274392
2078.000000	61.361164
2077.000000	61.438531
2076.000000	61.508947
2075.000000	61.574782
2074.000000	61.638794
2073.000000	61.702951
2072.000000	61.765739
2071.000000	61.822215
2070.000000	61.867877
2069.000000	61.900460
2068.000000	61.918830
2067.000000	61.923269
2066.000000	61.918034
2065.000000	61.911528
2064.000000	61.911665
2063.000000	61.922347
2062.000000	61.944983
2061.000000	61.980403
2060.000000	62.027446
2059.000000	62.081621
2058.000000	62.136946
2057.000000	62.188454
2056.000000	62.232681
2055.000000	62.267661
2054.000000	62.294037
2053.000000	62.315208
2052.000000	62.335289
2051.000000	62.357166
2050.000000	62.382819
2049.000000	62.413436
2048.000000	62.448168
2047.000000	62.483956
2046.000000	62.517562
2045.000000	62.546913
2044.000000	62.570804
2043.000000	62.589323
2042.000000	62.605485
2041.000000	62.624683
2040.000000	62.650919
2039.000000	62.684478
2038.000000	62.723668
2037.000000	62.766744
2036.000000	62.811159
2035.000000	62.852697
2034.000000	62.887353
2033.000000	62.913783
2032.000000	62.933161
2031.000000	62.947596
2030.000000	62.959781
2029.000000	62.973256
2028.000000	62.991224
2027.000000	63.015080
2026.000000	63.044823
2025.000000	63.079387
2024.000000	63.116300
2023.000000	63.151022
2022.000000	63.178914
2021.000000	63.196953
2020.000000	63.203927
2019.000000	63.200751
2018.000000	63.192059
2017.000000	63.186142
2016.000000	63.190304
2015.000000	63.206311
2014.000000	63.231307
2013.000000	63.261496
2012.000000	63.293250
2011.000000	63.321969
2010.000000	63.342826
2009.000000	63.353849
2008.000000	63.357457
2007.000000	63.358452
2006.000000	63.361922
2005.000000	63.372749
2004.000000	63.395231
2003.000000	63.430713
2002.000000	63.476822
2001.000000	63.528814
2000.000000	63.581269
1999.000000	63.629391
1998.000000	63.669138
1997.000000	63.699266
1996.000000	63.720702
1995.000000	63.734066
1994.000000	63.739115
1993.000000	63.737953
1992.000000	63.736565
1991.000000	63.739818
1990.000000	63.745922
1989.000000	63.748810
1988.000000	63.744494
1987.000000	63.733655
1986.000000	63.719030
1985.000000	63.702961
1984.000000	63.689034
1983.000000	63.683522
1982.000000	63.692034
1981.000000	63.714731
1980.000000	63.746464
1979.000000	63.781275
1978.000000	63.814164
1977.000000	63.841738
1976.000000	63.862782
1975.000000	63.880201
1974.000000	63.899585
1973.000000	63.925381
1972.000000	63.958999
1971.000000	63.999904
1970.000000	64.046553
1969.000000	64.096636
1968.000000	64.149077
1967.000000	64.205290
1966.000000	64.265185
1965.000000	64.322663
1964.000000	64.368979
1963.000000	64.400006
1962.000000	64.417683
1961.000000	64.424489
1960.000000	64.419541
1959.000000	64.402037
1958.000000	64.374980
1957.000000	64.342271
1956.000000	64.305384
1955.000000	64.264839
1954.000000	64.222274
1953.000000	64.179066
1952.000000	64.135868
1951.000000	64.095299
1950.000000	64.063580
1949.000000	64.045991
1948.000000	64.045241
1947.000000	64.064291
1946.000000	64.104760
1945.000000	64.162349
1944.000000	64.228891
1943.000000	64.301586
1942.000000	64.385073
1941.000000	64.478833
1940.000000	64.572445
1939.000000	64.656518
1938.000000	64.731256
1937.000000	64.802727
1936.000000	64.873336
1935.000000	64.939948
1934.000000	65.000352
1933.000000	65.055718
1932.000000	65.105541
1931.000000	65.145826
1930.000000	65.174121
1929.000000	65.190217
1928.000000	65.195339
1927.000000	65.190715
1926.000000	65.177637
1925.000000	65.158561
1924.000000	65.136249
1923.000000	65.120425
1922.000000	65.121967
1921.000000	65.138567
1920.000000	65.152115
1919.000000	65.145492
1918.000000	65.123721
1917.000000	65.108461
1916.000000	65.105511
1915.000000	65.101070
1914.000000	65.085904
1913.000000	65.066682
1912.000000	65.053964
1911.000000	65.049452
1910.000000	65.051718
1909.000000	65.065090
1908.000000	65.093718
1907.000000	65.132568
1906.000000	65.172928
1905.000000	65.212084
1904.000000	65.247546
1903.000000	65.273221
1902.000000	65.283297
1901.000000	65.279860
1900.000000	65.271069
1899.000000	65.262984
1898.000000	65.258976
1897.000000	65.264523
1896.000000	65.283793
1895.000000	65.316737
1894.000000	65.360446
1893.000000	65.411186
1892.000000	65.462440
1891.000000	65.506677
1890.000000	65.546237
1889.000000	65.595095
1888.000000	65.658801
1887.000000	65.725913
1886.000000	65.784955
1885.000000	65.837517
1884.000000	65.891519
1883.000000	65.946630
1882.000000	65.995196
1881.000000	66.034836
1880.000000	66.070589
1879.000000	66.104365
1878.000000	66.132989
1877.000000	66.156982
1876.000000	66.179593
1875.000000	66.201125
1874.000000	66.222454
1873.000000	66.248846
1872.000000	66.281483
1871.000000	66.307876
1870.000000	66.315100
1869.000000	66.314550
1868.000000	66.328887
1867.000000	66.352337
1866.000000	66.360898
1865.000000	66.346571
1864.000000	66.319065
1863.000000	66.289345
1862.000000	66.261685
1861.000000	66.241720
1860.000000	66.240550
1859.000000	66.265210
1858.000000	66.312654
1857.000000	66.376887
1856.000000	66.453298
1855.000000	66.534276
1854.000000	66.611166
1853.000000	66.682674
1852.000000	66.754057
1851.000000	66.826014
1850.000000	66.892411
1849.000000	66.959204
1848.000000	67.041318
1847.000000	67.137588
1846.000000	67.218708
1845.000000	67.256540
1844.000000	67.264914
1843.000000	67.280077
1842.000000	67.306370
1841.000000	67.326043
1840.000000	67.330819
1839.000000	67.327359
1838.000000	67.329416
1837.000000	67.343393
1836.000000	67.364008
1835.000000	67.389889
1834.000000	67.428356
1833.000000	67.482276
1832.000000	67.541333
1831.000000	67.593984
1830.000000	67.648395
1829.000000	67.719698
1828.000000	67.793558
1827.000000	67.843800
1826.000000	67.861158
1825.000000	67.864934
1824.000000	67.887114
1823.000000	67.933986
1822.000000	67.988134
1821.000000	68.039102
1820.000000	68.092895
1819.000000	68.155962
1818.000000	68.223922
1817.000000	68.291455
1816.000000	68.359955
1815.000000	68.429611
1814.000000	68.490220
1813.000000	68.533637
1812.000000	68.567543
1811.000000	68.603760
1810.000000	68.642646
1809.000000	68.678143
1808.000000	68.713889
1807.000000	68.756737
1806.000000	68.802605
1805.000000	68.843003
1804.000000	68.876730
1803.000000	68.906649
1802.000000	68.932831
1801.000000	68.958165
1800.000000	68.988429
1799.000000	69.015441
1798.000000	69.027642
1797.000000	69.031850
1796.000000	69.050423
1795.000000	69.085827
1794.000000	69.105819
1793.000000	69.084856
1792.000000	69.053549
1791.000000	69.053772
1790.000000	69.078735
1789.000000	69.106250
1788.000000	69.132213
1787.000000	69.158295
1786.000000	69.183747
1785.000000	69.214599
1784.000000	69.262619
1783.000000	69.324999
1782.000000	69.378862
1781.000000	69.409473
1780.000000	69.429176
1779.000000	69.448817
1778.000000	69.466080
1777.000000	69.483779
1776.000000	69.526414
1775.000000	69.609862
1774.000000	69.708267
1773.000000	69.785002
1772.000000	69.851069
1771.000000	69.926829
1770.000000	69.988894
1769.000000	70.017027
1768.000000	70.024513
1767.000000	70.049983
1766.000000	70.112156
1765.000000	70.188034
1764.000000	70.245736
1763.000000	70.276379
1762.000000	70.301252
1761.000000	70.340448
1760.000000	70.386914
1759.000000	70.424012
1758.000000	70.443021
1757.000000	70.446034
1756.000000	70.460772
1755.000000	70.510257
1754.000000	70.580929
1753.000000	70.635780
1752.000000	70.655384
1751.000000	70.673818
1750.000000	70.736156
1749.000000	70.824484
1748.000000	70.890450
1747.000000	70.920004
1746.000000	70.917543
1745.000000	70.885055
1744.000000	70.832430
1743.000000	70.782317
1742.000000	70.739224
1741.000000	70.669946
1740.000000	70.559874
1739.000000	70.466389
1738.000000	70.451766
1737.000000	70.501058
1736.000000	70.542567
1735.000000	70.502128
1734.000000	70.418086
1733.000000	70.386682
1732.000000	70.375324
1731.000000	70.334106
1730.000000	70.274157
1729.000000	70.216732
1728.000000	70.173351
1727.000000	70.142509
1726.000000	70.110736
1725.000000	70.067938
1724.000000	70.020065
1723.000000	69.984677
1722.000000	69.975080
1721.000000	69.984189
1720.000000	69.989558
1719.000000	69.961343
1718.000000	69.897973
1717.000000	69.839451
1716.000000	69.795942
1715.000000	69.742910
1714.000000	69.676058
1713.000000	69.609140
1712.000000	69.558362
1711.000000	69.528134
1710.000000	69.507223
1709.000000	69.487209
1708.000000	69.470011
1707.000000	69.446692
1706.000000	69.403790
1705.000000	69.367444
1704.000000	69.381261
1703.000000	69.444069
1702.000000	69.473620
1701.000000	69.367896
1700.000000	69.219251
1699.000000	69.189163
1698.000000	69.199208
1697.000000	69.120539
1696.000000	68.930399
1695.000000	68.714820
1694.000000	68.545070
1693.000000	68.402863
1692.000000	68.260836
1691.000000	68.116708
1690.000000	67.984489
1689.000000	67.885012
1688.000000	67.832456
1687.000000	67.809965
1686.000000	67.736806
1685.000000	67.516371
1684.000000	67.219767
1683.000000	66.987319
1682.000000	66.777181
1681.000000	66.547922
1680.000000	66.317600
1679.000000	66.124440
1678.000000	65.975327
1677.000000	65.810846
1676.000000	65.567047
1675.000000	65.281996
1674.000000	65.045728
1673.000000	64.855897
1672.000000	64.656751
1671.000000	64.417145
1670.000000	64.148413
1669.000000	63.876532
1668.000000	63.609793
1667.000000	63.354502
1666.000000	63.116204
1665.000000	62.867021
1664.000000	62.565895
1663.000000	62.221992
1662.000000	61.886935
1661.000000	61.569614
1660.000000	61.247222
1659.000000	60.925645
1658.000000	60.643715
1657.000000	60.437099
1656.000000	60.296767
1655.000000	60.136869
1654.000000	59.804830
1653.000000	59.308562
1652.000000	58.823469
1651.000000	58.372313
1650.000000	57.934648
1649.000000	57.452262
1648.000000	56.841109
1647.000000	56.087222
1646.000000	55.288140
1645.000000	54.510465
1644.000000	53.756392
1643.000000	53.019304
1642.000000	52.294459
1641.000000	51.593540
1640.000000	50.970137
1639.000000	50.481134
1638.000000	50.128375
1637.000000	49.858368
1636.000000	49.655885
1635.000000	49.576634
1634.000000	49.615673
1633.000000	49.716522
1632.000000	49.855867
1631.000000	50.039820
1630.000000	50.271397
1629.000000	50.540248
1628.000000	50.831353
1627.000000	51.130207
1626.000000	51.426138
1625.000000	51.721613
1624.000000	52.035188
1623.000000	52.386298
1622.000000	52.761651
1621.000000	53.127451
1620.000000	53.486649
1619.000000	53.876342
1618.000000	54.334391
1617.000000	54.871257
1616.000000	55.428542
1615.000000	55.905703
1614.000000	56.281339
1613.000000	56.613327
1612.000000	56.942149
1611.000000	57.263905
1610.000000	57.546899
1609.000000	57.751144
1608.000000	57.832220
1607.000000	57.744435
1606.000000	57.449567
1605.000000	56.903502
1604.000000	56.061975
1603.000000	54.899587
1602.000000	53.412644
1601.000000	51.566353
1600.000000	49.220824
1599.000000	46.169934
1598.000000	42.259754
1597.000000	37.566113
1596.000000	32.567752
1595.000000	28.135056
1594.000000	25.119594
1593.000000	23.806674
1592.000000	23.870520
1591.000000	24.788733
1590.000000	26.171847
1589.000000	27.757314
1588.000000	29.320470
1587.000000	30.688897
1586.000000	31.809593
1585.000000	32.783172
1584.000000	33.766913
1583.000000	34.827348
1582.000000	35.888821
1581.000000	36.852953
1580.000000	37.739230
1579.000000	38.669893
1578.000000	39.732339
1577.000000	40.866139
1576.000000	41.872434
1575.000000	42.587920
1574.000000	43.031164
1573.000000	43.317699
1572.000000	43.535652
1571.000000	43.751526
1570.000000	44.041079
1569.000000	44.446841
1568.000000	44.949347
1567.000000	45.542112
1566.000000	46.234270
1565.000000	46.982748
1564.000000	47.713837
1563.000000	48.405323
1562.000000	49.089868
1561.000000	49.795636
1560.000000	50.532451
1559.000000	51.396186
1558.000000	52.311110
1557.000000	53.001627
1556.000000	53.520460
1555.000000	54.023585
1554.000000	54.558724
1553.000000	55.092769
1552.000000	55.587803
1551.000000	56.054131
1550.000000	56.525114
1549.000000	56.994137
1548.000000	57.419039
1547.000000	57.783900
1546.000000	58.111012
1545.000000	58.436148
1544.000000	58.779937
1543.000000	59.135652
1542.000000	59.485677
1541.000000	59.815263
1540.000000	60.112952
1539.000000	60.343644
1538.000000	60.485350
1537.000000	60.598192
1536.000000	60.732060
1535.000000	60.888022
1534.000000	61.053249
1533.000000	61.234824
1532.000000	61.418246
1531.000000	61.580288
1530.000000	61.734686
1529.000000	61.898405
1528.000000	62.075527
1527.000000	62.264217
1526.000000	62.462161
1525.000000	62.666716
1524.000000	62.866961
1523.000000	63.034747
1522.000000	63.144040
1521.000000	63.207829
1520.000000	63.251481
1519.000000	63.283471
1518.000000	63.312043
1517.000000	63.347927
1516.000000	63.402212
1515.000000	63.472737
1514.000000	63.544251
1513.000000	63.601144
1512.000000	63.646032
1511.000000	63.709724
1510.000000	63.815437
1509.000000	63.949979
1508.000000	64.083864
1507.000000	64.232521
1506.000000	64.386237
1505.000000	64.459323
1504.000000	64.470898
1503.000000	64.491318
1502.000000	64.552132
1501.000000	64.647790
1500.000000	64.762875
1499.000000	64.888957
1498.000000	65.014079
1497.000000	65.120545
1496.000000	65.207106
1495.000000	65.295326
1494.000000	65.404893
1493.000000	65.539819
1492.000000	65.696395
1491.000000	65.881257
1490.000000	66.112845
1489.000000	66.373552
1488.000000	66.611571
1487.000000	66.806905
1486.000000	66.975767
1485.000000	67.136070
1484.000000	67.302974
1483.000000	67.489315
1482.000000	67.702278
1481.000000	67.938530
1480.000000	68.180054
1479.000000	68.410673
1478.000000	68.625311
1477.000000	68.833533
1476.000000	69.054286
1475.000000	69.297822
1474.000000	69.553889
1473.000000	69.816243
1472.000000	70.084527
1471.000000	70.330687
1470.000000	70.528363
1469.000000	70.683779
1468.000000	70.812931
1467.000000	70.911996
1466.000000	70.925401
1465.000000	70.757765
1464.000000	70.348330
1463.000000	69.701764
1462.000000	68.850690
1461.000000	67.834426
1460.000000	66.701193
1459.000000	65.465592
1458.000000	64.065685
1457.000000	62.553645
1456.000000	61.203370
1455.000000	60.125044
1454.000000	59.115749
1453.000000	57.950407
1452.000000	56.589312
1451.000000	55.140122
1450.000000	53.653701
1449.000000	52.026712
1448.000000	50.188103
1447.000000	48.323428
1446.000000	46.838048
1445.000000	46.168238
1444.000000	46.623895
1443.000000	48.212450
1442.000000	50.543958
1441.000000	53.023000
1440.000000	55.189037
1439.000000	56.868327
1438.000000	58.088948
1437.000000	58.973957
1436.000000	59.699110
1435.000000	60.402697
1434.000000	61.142271
1433.000000	61.935762
1432.000000	62.761184
1431.000000	63.555089
1430.000000	64.253718
1429.000000	64.823949
1428.000000	65.262178
1427.000000	65.595215
1426.000000	65.868511
1425.000000	66.121332
1424.000000	66.373115
1423.000000	66.626022
1422.000000	66.879603
1421.000000	67.127120
1420.000000	67.354130
1419.000000	67.577108
1418.000000	67.820781
1417.000000	68.062083
1416.000000	68.279713
1415.000000	68.483391
1414.000000	68.690999
1413.000000	68.907410
1412.000000	69.116016
1411.000000	69.302344
1410.000000	69.469863
1409.000000	69.616219
1408.000000	69.717695
1407.000000	69.753141
1406.000000	69.717841
1405.000000	69.604114
1404.000000	69.396039
1403.000000	69.104296
1402.000000	68.777198
1401.000000	68.457375
1400.000000	68.170130
1399.000000	67.944696
1398.000000	67.794997
1397.000000	67.701906
1396.000000	67.654409
1395.000000	67.678893
1394.000000	67.784195
1393.000000	67.903750
1392.000000	67.949429
1391.000000	67.894923
1390.000000	67.775700
1389.000000	67.639929
1388.000000	67.528930
1387.000000	67.491253
1386.000000	67.567237
1385.000000	67.759303
1384.000000	68.049629
1383.000000	68.426483
1382.000000	68.879087
1381.000000	69.375928
1380.000000	69.867905
1379.000000	70.317432
1378.000000	70.709043
1377.000000	71.026900
1376.000000	71.232712
1375.000000	71.279263
1374.000000	71.125138
1373.000000	70.718183
1372.000000	69.970682
1371.000000	68.737113
1370.000000	66.811722
1369.000000	64.026824
1368.000000	60.495047
1367.000000	56.784693
1366.000000	53.735702
1365.000000	52.057001
1364.000000	52.061155
1363.000000	53.550446
1362.000000	55.880037
1361.000000	58.348721
1360.000000	60.573843
1359.000000	62.474506
1358.000000	64.079292
1357.000000	65.427166
1356.000000	66.551899
1355.000000	67.480690
1354.000000	68.238973
1353.000000	68.858774
1352.000000	69.370684
1351.000000	69.789031
1350.000000	70.120164
1349.000000	70.382238
1348.000000	70.598487
1347.000000	70.783695
1346.000000	70.951391
1345.000000	71.119930
1344.000000	71.300637
1343.000000	71.486299
1342.000000	71.666302
1341.000000	71.844328
1340.000000	72.028334
1339.000000	72.208660
1338.000000	72.361939
1337.000000	72.476925
1336.000000	72.561786
1335.000000	72.633260
1334.000000	72.710991
1333.000000	72.810757
1332.000000	72.931514
1331.000000	73.053026
1330.000000	73.152476
1329.000000	73.220617
1328.000000	73.255315
1327.000000	73.248244
1326.000000	73.182236
1325.000000	73.029377
1324.000000	72.745709
1323.000000	72.269203
1322.000000	71.539104
1321.000000	70.518634
1320.000000	69.192990
1319.000000	67.557813
1318.000000	65.633636
1317.000000	63.536431
1316.000000	61.556722
1315.000000	60.123665
1314.000000	59.585796
1313.000000	59.977983
1312.000000	61.012139
1311.000000	62.299599
1310.000000	63.587489
1309.000000	64.793505
1308.000000	65.911473
1307.000000	66.952674
1306.000000	67.937673
1305.000000	68.881909
1304.000000	69.767809
1303.000000	70.556913
1302.000000	71.231858
1301.000000	71.804381
1300.000000	72.280836
1299.000000	72.653909
1298.000000	72.922427
1297.000000	73.083172
1296.000000	73.108024
1295.000000	72.943165
1294.000000	72.523441
1293.000000	71.756716
1292.000000	70.541239
1291.000000	68.918465
1290.000000	67.225014
1289.000000	65.976286
1288.000000	65.489632
1287.000000	65.603170
1286.000000	65.815341
1285.000000	65.722218
1284.000000	65.279829
1283.000000	64.709742
1282.000000	64.269630
1281.000000	64.113623
1280.000000	64.270426
1279.000000	64.652515
1278.000000	65.074848
1277.000000	65.283749
1276.000000	64.958437
1275.000000	63.742700
1274.000000	61.470887
1273.000000	58.539689
1272.000000	56.019317
1271.000000	55.120984
1270.000000	56.351162
1269.000000	59.171252
1268.000000	62.473395
1267.000000	65.361511
1266.000000	67.520523
1265.000000	69.053217
1264.000000	70.167387
1263.000000	71.016095
1262.000000	71.690777
1261.000000	72.241611
1260.000000	72.685029
1259.000000	73.026299
1258.000000	73.287602
1257.000000	73.492787
1256.000000	73.651321
1255.000000	73.774645
1254.000000	73.886952
1253.000000	74.009897
1252.000000	74.146070
1251.000000	74.292167
1250.000000	74.453782
1249.000000	74.634741
1248.000000	74.825696
1247.000000	75.017548
1246.000000	75.215479
1245.000000	75.426960
1244.000000	75.646278
1243.000000	75.862749
1242.000000	76.073252
1241.000000	76.273243
1240.000000	76.445232
1239.000000	76.569645
1238.000000	76.641935
1237.000000	76.666722
1236.000000	76.645860
1235.000000	76.587232
1234.000000	76.513836
1233.000000	76.450459
1232.000000	76.405871
1231.000000	76.376442
1230.000000	76.357217
1229.000000	76.332268
1228.000000	76.265343
1227.000000	76.109830
1226.000000	75.819756
1225.000000	75.347126
1224.000000	74.631734
1223.000000	73.623820
1222.000000	72.315289
1221.000000	70.741604
1220.000000	68.976951
1219.000000	67.118962
1218.000000	65.261474
1217.000000	63.456890
1216.000000	61.699659
1215.000000	59.951871
1214.000000	58.175461
1213.000000	56.353574
1212.000000	54.507641
1211.000000	52.708331
1210.000000	51.056832
1209.000000	49.661707
1208.000000	48.618926
1207.000000	47.970772
1206.000000	47.666908
1205.000000	47.570970
1204.000000	47.561436
1203.000000	47.634009
1202.000000	47.896518
1201.000000	48.482772
1200.000000	49.442291
1199.000000	50.704498
1198.000000	52.127208
1197.000000	53.574965
1196.000000	54.981275
1195.000000	56.344575
1194.000000	57.689255
1193.000000	59.032959
1192.000000	60.373416
1191.000000	61.690859
1190.000000	62.957101
1189.000000	64.144328
1188.000000	65.229502
1187.000000	66.202053
1186.000000	67.062381
1185.000000	67.815956
1184.000000	68.465621
1183.000000	69.006303
1182.000000	69.432628
1181.000000	69.739225
1180.000000	69.926518
1179.000000	70.012011
1178.000000	70.027438
1177.000000	70.006841
1176.000000	69.976139
1175.000000	69.958885
1174.000000	69.981126
1173.000000	70.060513
1172.000000	70.196982
1171.000000	70.378487
1170.000000	70.590538
1169.000000	70.815164
1168.000000	71.028832
1167.000000	71.210294
1166.000000	71.348636
1165.000000	71.439826
1164.000000	71.483044
1163.000000	71.489274
1162.000000	71.488345
1161.000000	71.516450
1160.000000	71.596240
1159.000000	71.730740
1158.000000	71.909395
1157.000000	72.113413
1156.000000	72.323170
1155.000000	72.531126
1154.000000	72.745943
1153.000000	72.979660
1152.000000	73.232555
1151.000000	73.494486
1150.000000	73.753372
1149.000000	73.994452
1148.000000	74.195563
1147.000000	74.335540
1146.000000	74.405888
1145.000000	74.405832
1144.000000	74.334895
1143.000000	74.193806
1142.000000	73.990637
1141.000000	73.736714
1140.000000	73.433677
1139.000000	73.075971
1138.000000	72.648732
1137.000000	72.120312
1136.000000	71.444616
1135.000000	70.570574
1134.000000	69.460557
1133.000000	68.089653
1132.000000	66.449892
1131.000000	64.573754
1130.000000	62.542085
1129.000000	60.474265
1128.000000	58.507349
1127.000000	56.766081
1126.000000	55.323488
1125.000000	54.166647
1124.000000	53.199356
1123.000000	52.248074
1122.000000	51.054966
1121.000000	49.283542
1120.000000	46.561655
1119.000000	42.610962
1118.000000	37.456580
1117.000000	31.643597
1116.000000	26.268026
1115.000000	22.675190
1114.000000	21.846423
1113.000000	23.905627
1112.000000	28.111213
1111.000000	33.220734
1110.000000	38.026064
1109.000000	41.752662
1108.000000	44.121249
1107.000000	45.096972
1106.000000	44.608210
1105.000000	42.586117
1104.000000	39.366226
1103.000000	35.998821
1102.000000	33.935323
1101.000000	34.208238
1100.000000	36.827999
1099.000000	40.889918
1098.000000	45.233572
1097.000000	49.075354
1096.000000	52.159217
1095.000000	54.560386
1094.000000	56.457107
1093.000000	58.014968
1092.000000	59.351926
1091.000000	60.540706
1090.000000	61.622524
1089.000000	62.618362
1088.000000	63.540671
1087.000000	64.389889
1086.000000	65.168576
1085.000000	65.886134
1084.000000	66.547535
1083.000000	67.155935
1082.000000	67.720705
1081.000000	68.259017
1080.000000	68.781013
1079.000000	69.281606
1078.000000	69.751685
1077.000000	70.178926
1076.000000	70.541889
1075.000000	70.816618
1074.000000	70.989056
1073.000000	71.058712
1072.000000	71.017355
1071.000000	70.842446
1070.000000	70.506104
1069.000000	69.963356
1068.000000	69.150559
1067.000000	67.989394
1066.000000	66.416168
1065.000000	64.415643
1064.000000	62.025047
1063.000000	59.347393
1062.000000	56.516138
1061.000000	53.627764
1060.000000	50.688606
1059.000000	47.600071
1058.000000	44.216997
1057.000000	40.457311
1056.000000	36.426391
1055.000000	32.461215
1054.000000	29.073090
1053.000000	26.785699
1052.000000	25.983266
1051.000000	26.788191
1050.000000	28.970919
1049.000000	32.053964
1048.000000	35.489792
1047.000000	38.834427
1046.000000	41.845828
1045.000000	44.460388
1044.000000	46.723537
1043.000000	48.700333
1042.000000	50.425364
1041.000000	51.901766
1040.000000	53.134256
1039.000000	54.144505
1038.000000	54.975161
1037.000000	55.683724
1036.000000	56.322324
1035.000000	56.934362
1034.000000	57.547686
1033.000000	58.173268
1032.000000	58.807883
1031.000000	59.438194
1030.000000	60.049517
1029.000000	60.628039
1028.000000	61.163743
1027.000000	61.659771
1026.000000	62.138281
1025.000000	62.630957
1024.000000	63.160567
1023.000000	63.732393
1022.000000	64.338956
1021.000000	64.960479
1020.000000	65.563607
1019.000000	66.105863
1018.000000	66.542315
1017.000000	66.829357
1016.000000	66.906854
1015.000000	66.706396
1014.000000	66.158271
1013.000000	65.184599
1012.000000	63.708441
1011.000000	61.639659
1010.000000	58.872040
1009.000000	55.284651
1008.000000	50.837897
1007.000000	45.815077
1006.000000	41.005184
1005.000000	37.541202
1004.000000	36.358995
1003.000000	37.626583
1002.000000	40.605279
1001.000000	44.098149
1000.000000	47.022370
999.000000	48.673086
998.000000	48.725705
997.000000	47.268540
996.000000	44.943971
995.000000	42.863546
994.000000	42.082961
993.000000	42.988314
992.000000	45.160306
991.000000	47.795674
990.000000	50.257301
989.000000	52.318396
988.000000	54.042389
987.000000	55.553412
986.000000	56.922976
985.000000	58.166278
984.000000	59.271414
983.000000	60.224008
982.000000	61.031311
981.000000	61.722015
980.000000	62.324270
979.000000	62.862327
978.000000	63.359871
977.000000	63.840969
976.000000	64.316835
975.000000	64.783084
974.000000	65.234545
973.000000	65.666223
972.000000	66.064894
971.000000	66.411749
970.000000	66.697656
969.000000	66.928867
968.000000	67.114537
967.000000	67.263960
966.000000	67.394706
965.000000	67.529042
964.000000	67.680653
963.000000	67.852172
962.000000	68.045501
961.000000	68.262680
960.000000	68.496222
959.000000	68.731399
958.000000	68.960155
957.000000	69.182985
956.000000	69.397091
955.000000	69.594426
954.000000	69.772721
953.000000	69.934816
952.000000	70.076394
951.000000	70.187016
950.000000	70.263049
949.000000	70.309571
948.000000	70.328624
947.000000	70.320089
946.000000	70.295536
945.000000	70.276585
944.000000	70.278746
943.000000	70.307824
942.000000	70.371470
941.000000	70.479560
940.000000	70.631393
939.000000	70.813344
938.000000	71.011186
937.000000	71.213121
936.000000	71.400270
935.000000	71.549535
934.000000	71.650180
933.000000	71.705958
932.000000	71.719805
931.000000	71.692084
930.000000	71.632784
929.000000	71.561241
928.000000	71.490630
927.000000	71.425703
926.000000	71.376923
925.000000	71.361160
924.000000	71.386208
923.000000	71.448086
922.000000	71.545763
921.000000	71.681880
920.000000	71.847741
919.000000	72.021961
918.000000	72.188068
917.000000	72.339276
916.000000	72.463731
915.000000	72.542858
914.000000	72.569800
913.000000	72.554207
912.000000	72.503813
911.000000	72.420492
910.000000	72.316024
909.000000	72.213421
908.000000	72.127682
907.000000	72.061629
906.000000	72.023225
905.000000	72.025942
904.000000	72.065423
903.000000	72.116054
902.000000	72.159800
901.000000	72.201057
900.000000	72.246525
899.000000	72.282990
898.000000	72.277743
897.000000	72.176668
896.000000	71.915911
895.000000	71.472272
894.000000	70.894899
893.000000	70.227989
892.000000	69.390331
891.000000	68.230933
890.000000	66.790046
889.000000	65.462322
888.000000	64.772990
887.000000	64.959428
886.000000	65.791050
885.000000	66.808895
884.000000	67.696376
883.000000	68.384254
882.000000	68.916764
881.000000	69.323291
880.000000	69.617898
879.000000	69.843417
878.000000	70.058795
877.000000	70.294714
876.000000	70.539259
875.000000	70.758469
874.000000	70.917610
873.000000	70.998001
872.000000	71.006212
871.000000	70.970376
870.000000	70.924283
869.000000	70.892910
868.000000	70.891624
867.000000	70.928298
866.000000	71.000610
865.000000	71.094822
864.000000	71.192562
863.000000	71.280139
862.000000	71.351471
861.000000	71.403973
860.000000	71.434210
859.000000	71.436819
858.000000	71.406403
857.000000	71.340120
856.000000	71.240959
855.000000	71.120712
854.000000	70.997081
853.000000	70.886372
852.000000	70.798173
851.000000	70.736527
850.000000	70.703274
849.000000	70.699777
848.000000	70.727244
847.000000	70.787837
846.000000	70.884922
845.000000	71.017997
844.000000	71.177636
843.000000	71.345714
842.000000	71.500621
841.000000	71.620038
840.000000	71.681458
839.000000	71.665762
838.000000	71.564419
837.000000	71.382626
836.000000	71.135777
835.000000	70.849871
834.000000	70.562915
833.000000	70.318416
832.000000	70.150455
831.000000	70.072936
830.000000	70.080085
829.000000	70.154353
828.000000	70.273512
827.000000	70.414106
826.000000	70.555615
825.000000	70.681228
824.000000	70.775403
823.000000	70.824318
822.000000	70.822347
821.000000	70.773332
820.000000	70.682319
819.000000	70.548670
818.000000	70.367812
817.000000	70.138028
816.000000	69.856312
815.000000	69.513336
814.000000	69.091628
813.000000	68.556734
812.000000	67.843488
811.000000	66.862026
810.000000	65.568679
809.000000	64.074320
808.000000	62.682565
807.000000	61.766413
806.000000	61.553776
805.000000	62.000494
804.000000	62.855197
803.000000	63.832402
802.000000	64.728305
801.000000	65.439114
800.000000	65.932273
799.000000	66.223614
798.000000	66.358649
797.000000	66.384866
796.000000	66.332034
795.000000	66.214423
794.000000	66.041347
793.000000	65.816578
792.000000	65.542222
791.000000	65.232011
790.000000	64.918807
789.000000	64.643020
788.000000	64.435189
787.000000	64.310930
786.000000	64.272438
785.000000	64.306122
784.000000	64.379981
783.000000	64.450796
782.000000	64.476259
781.000000	64.423648
780.000000	64.277519
779.000000	64.050126
778.000000	63.785392
777.000000	63.545861
776.000000	63.391474
775.000000	63.366041
774.000000	63.490851
773.000000	63.761347
772.000000	64.147410
771.000000	64.602414
770.000000	65.076176
769.000000	65.520969
768.000000	65.894355
767.000000	66.167060
766.000000	66.332352
765.000000	66.402095
764.000000	66.395047
763.000000	66.332241
762.000000	66.238469
761.000000	66.136602
760.000000	66.037212
759.000000	65.940304
758.000000	65.845938
757.000000	65.758870
756.000000	65.685056
755.000000	65.632688
754.000000	65.617034
753.000000	65.656216
752.000000	65.758904
751.000000	65.918967
750.000000	66.119903
749.000000	66.335705
748.000000	66.527493
747.000000	66.649550
746.000000	66.666156
745.000000	66.560926
744.000000	66.334720
743.000000	66.005485
742.000000	65.611231
741.000000	65.202846
740.000000	64.827681
739.000000	64.521581
738.000000	64.309975
737.000000	64.203078
736.000000	64.184101
735.000000	64.209751
734.000000	64.228466
733.000000	64.195756
732.000000	64.074979
731.000000	63.839521
730.000000	63.484384
729.000000	63.029707
728.000000	62.510121
727.000000	61.967804
726.000000	61.456433
725.000000	61.038667
724.000000	60.766249
723.000000	60.659880
722.000000	60.709425
721.000000	60.884430
720.000000	61.139869
719.000000	61.426840
718.000000	61.715062
717.000000	62.004931
716.000000	62.312604
715.000000	62.647619
714.000000	63.004387
713.000000	63.362469
712.000000	63.685251
711.000000	63.927799
710.000000	64.058834
709.000000	64.073217
708.000000	63.983320
707.000000	63.810686
706.000000	63.589523
705.000000	63.364897
704.000000	63.175330
703.000000	63.037382
702.000000	62.952029
701.000000	62.916511
700.000000	62.920467
699.000000	62.944929
698.000000	62.976436
697.000000	63.015785
696.000000	63.067241
695.000000	63.128192
694.000000	63.200607
693.000000	63.297238
692.000000	63.419373
691.000000	63.543389
690.000000	63.639209
689.000000	63.688018
688.000000	63.671132
687.000000	63.561226
686.000000	63.351412
685.000000	63.077515
684.000000	62.790745
683.000000	62.526681
682.000000	62.317111
681.000000	62.206014
680.000000	62.220724
679.000000	62.342854
678.000000	62.537146
677.000000	62.778829
676.000000	63.033017
675.000000	63.251414
674.000000	63.405367
673.000000	63.484986
672.000000	63.457996
671.000000	63.275594
670.000000	62.956078
669.000000	62.672652
668.000000	62.610768
667.000000	62.748391
666.000000	62.945750
665.000000	63.044109
664.000000	62.995111
663.000000	62.882250
662.000000	62.788042
661.000000	62.737437
660.000000	62.730780
659.000000	62.788146
658.000000	62.925808
657.000000	63.126304
656.000000	63.356324
655.000000	63.594838
654.000000	63.815608
653.000000	63.969714
652.000000	64.020037
651.000000	63.969207
650.000000	63.837861
649.000000	63.641481
648.000000	63.408082
647.000000	63.191359
646.000000	63.038144
645.000000	62.961502
644.000000	62.958027
643.000000	63.026260
642.000000	63.154855
641.000000	63.312074
640.000000	63.466527
639.000000	63.605889
638.000000	63.725560
637.000000	63.819008
636.000000	63.890855
635.000000	63.959235
634.000000	64.032657
633.000000	64.097947
632.000000	64.137211
631.000000	64.143009
630.000000	64.108305
629.000000	64.019778
628.000000	63.875722
627.000000	63.701615
626.000000	63.536988
625.000000	63.415587
624.000000	63.363364
623.000000	63.400345
622.000000	63.529922
621.000000	63.730237
620.000000	63.967291
619.000000	64.210629
618.000000	64.432911
617.000000	64.604832
616.000000	64.700610
615.000000	64.709061
614.000000	64.638560
613.000000	64.514953
612.000000	64.373846
611.000000	64.248952
610.000000	64.160366
609.000000	64.111396
608.000000	64.094955
607.000000	64.100268
606.000000	64.114934
605.000000	64.129371
604.000000	64.140487
603.000000	64.150016
602.000000	64.162466
601.000000	64.182854
600.000000	64.207858
599.000000	64.216580
598.000000	64.175236
597.000000	64.041659
596.000000	63.764179
595.000000	63.271911
594.000000	62.446321
593.000000	61.078285
592.000000	58.871284
591.000000	55.651476
590.000000	51.731012
589.000000	48.061090
588.000000	45.865208
587.000000	45.916456
586.000000	47.992148
585.000000	51.041698
584.000000	53.984497
583.000000	56.306916
582.000000	58.013315
581.000000	59.275561
580.000000	60.224987
579.000000	60.945160
578.000000	61.498584
577.000000	61.920613
576.000000	62.233616
575.000000	62.472776
574.000000	62.664660
573.000000	62.807095
572.000000	62.891522
571.000000	62.928714
570.000000	62.936843
569.000000	62.918583
568.000000	62.878088
567.000000	62.838330
566.000000	62.812024
565.000000	62.772144
564.000000	62.674300
563.000000	62.500596
562.000000	62.263603
561.000000	61.983020
560.000000	61.677166
559.000000	61.356933
558.000000	61.007794
557.000000	60.602296
556.000000	60.163195
555.000000	59.795577
554.000000	59.622844
553.000000	59.697741
552.000000	59.992589
551.000000	60.440202
550.000000	60.951087
549.000000	61.433550
548.000000	61.834785
547.000000	62.154054
546.000000	62.409222
545.000000	62.607723
544.000000	62.759703
543.000000	62.891947
542.000000	63.026661
541.000000	63.156612
540.000000	63.258681
539.000000	63.315656
538.000000	63.311645
537.000000	63.226457
536.000000	63.051886
535.000000	62.810735
534.000000	62.542958
533.000000	62.284878
532.000000	62.071233
531.000000	61.937950
530.000000	61.900941
529.000000	61.942010
528.000000	62.026937
527.000000	62.120342
526.000000	62.169657
525.000000	62.102960
524.000000	61.870243
523.000000	61.467092
522.000000	60.912768
521.000000	60.222439
520.000000	59.410146
519.000000	58.490953
518.000000	57.463570
517.000000	56.328041
516.000000	55.151222
515.000000	54.086747
514.000000	53.298916
513.000000	52.892538
512.000000	52.904379
511.000000	53.313631
510.000000	54.030227
509.000000	54.923921
508.000000	55.898389
507.000000	56.896688
506.000000	57.856411
505.000000	58.714382
504.000000	59.454646
503.000000	60.100339
502.000000	60.649679
501.000000	61.061159
500.000000	61.314741
499.000000	61.449961
498.000000	61.526691
497.000000	61.588747
496.000000	61.669101
495.000000	61.797311
494.000000	61.984965
493.000000	62.213953
492.000000	62.452510
491.000000	62.674762
490.000000	62.854149
489.000000	62.963652
488.000000	62.995912
487.000000	62.967007
486.000000	62.883644
485.000000	62.709377
484.000000	62.380584
483.000000	61.834447
482.000000	61.020285
481.000000	59.904208
480.000000	58.480786
479.000000	56.783853
478.000000	54.877164
477.000000	52.884143
476.000000	51.046697
475.000000	49.714816
474.000000	49.196559
473.000000	49.599377
472.000000	50.767438
471.000000	52.366972
470.000000	54.090306
469.000000	55.756639
468.000000	57.271932
467.000000	58.568119
466.000000	59.601483
465.000000	60.380841
464.000000	60.964114
463.000000	61.425315
462.000000	61.822712
461.000000	62.186742
460.000000	62.533785
459.000000	62.892456
458.000000	63.279239
457.000000	63.651122
456.000000	63.945216
455.000000	64.161184
454.000000	64.354937
453.000000	64.575223
452.000000	64.829719
451.000000	65.101995
450.000000	65.377778
449.000000	65.649556
448.000000	65.905154
447.000000	66.124209
446.000000	66.283362
445.000000	66.361890
444.000000	66.352849
443.000000	66.278235
442.000000	66.186627
441.000000	66.123790
440.000000	66.117579
439.000000	66.187060
438.000000	66.344846
437.000000	66.584479
436.000000	66.872129
435.000000	67.156695
434.000000	67.386016
433.000000	67.513669
432.000000	67.505754
431.000000	67.368639
430.000000	67.163287
429.000000	66.964959
428.000000	66.815653
427.000000	66.730102
426.000000	66.713665
425.000000	66.751741
424.000000	66.806607
423.000000	66.845962
422.000000	66.862628
421.000000	66.863521
420.000000	66.872995
419.000000	66.977620
418.000000	67.247498
417.000000	67.618775
416.000000	68.006353
415.000000	68.393700
414.000000	68.776361
413.000000	69.117908
412.000000	69.351375
411.000000	69.417330
410.000000	69.309633
409.000000	69.060939
408.000000	68.693356
407.000000	68.245573
406.000000	67.858034
405.000000	67.704918
404.000000	67.867276
403.000000	68.179013
402.000000	68.468733
401.000000	68.573739
400.000000	68.488095
