PE IR       SUBTECH     SPECTRUM    ASCII       PEDS        4.00        
   -1
23ms248_cis.asc
24/10/18
15:11:12.00
24/10/18
15:11:12.00
Administrator
Sample 1300 By Administrator Date Friday, October 18 2024
400.000000
#HDR
-1
-1
#GR
cm-1
%T
1.0
0.0
4000.000000
-1.000000
3601
8
84.870779
10.427993
#DATA
4000.000000	60.167358
3999.000000	60.158575
3998.000000	60.151620
3997.000000	60.145810
3996.000000	60.140794
3995.000000	60.136627
3994.000000	60.133712
3993.000000	60.132716
3992.000000	60.134106
3991.000000	60.137809
3990.000000	60.143445
3989.000000	60.150881
3988.000000	60.160772
3987.000000	60.174234
3986.000000	60.191862
3985.000000	60.213060
3984.000000	60.236414
3983.000000	60.260904
3982.000000	60.286552
3981.000000	60.314090
3980.000000	60.344223
3979.000000	60.376975
3978.000000	60.411696
3977.000000	60.447613
3976.000000	60.484229
3975.000000	60.521254
3974.000000	60.558213
3973.000000	60.594207
3972.000000	60.628125
3971.000000	60.659271
3970.000000	60.688013
3969.000000	60.715650
3968.000000	60.743691
3967.000000	60.773323
3966.000000	60.805261
3965.000000	60.840013
3964.000000	60.878094
3963.000000	60.919821
3962.000000	60.964865
3961.000000	61.012240
3960.000000	61.060868
3959.000000	61.109972
3958.000000	61.159203
3957.000000	61.208118
3956.000000	61.255779
3955.000000	61.301400
3954.000000	61.344856
3953.000000	61.386633
3952.000000	61.427175
3951.000000	61.466635
3950.000000	61.504884
3949.000000	61.540886
3948.000000	61.573572
3947.000000	61.603732
3946.000000	61.634279
3945.000000	61.667950
3944.000000	61.704404
3943.000000	61.740502
3942.000000	61.773258
3941.000000	61.803154
3940.000000	61.834271
3939.000000	61.869867
3938.000000	61.909123
3937.000000	61.948758
3936.000000	61.986061
3935.000000	62.020357
3934.000000	62.052058
3933.000000	62.081565
3932.000000	62.108810
3931.000000	62.133380
3930.000000	62.155284
3929.000000	62.175165
3928.000000	62.194194
3927.000000	62.213479
3926.000000	62.232650
3925.000000	62.250079
3924.000000	62.264068
3923.000000	62.274525
3922.000000	62.283772
3921.000000	62.293853
3920.000000	62.304700
3919.000000	62.315210
3918.000000	62.325452
3917.000000	62.337493
3916.000000	62.353021
3915.000000	62.372320
3914.000000	62.394750
3913.000000	62.418665
3912.000000	62.441978
3911.000000	62.462486
3910.000000	62.479912
3909.000000	62.496888
3908.000000	62.516289
3907.000000	62.538235
3906.000000	62.558217
3905.000000	62.570120
3904.000000	62.571785
3903.000000	62.567951
3902.000000	62.569483
3901.000000	62.585465
3900.000000	62.615480
3899.000000	62.653096
3898.000000	62.692639
3897.000000	62.734331
3896.000000	62.782028
3895.000000	62.836885
3894.000000	62.895839
3893.000000	62.953265
3892.000000	63.002549
3891.000000	63.039711
3890.000000	63.067736
3889.000000	63.096558
3888.000000	63.131493
3887.000000	63.166860
3886.000000	63.195962
3885.000000	63.218572
3884.000000	63.240548
3883.000000	63.270089
3882.000000	63.308624
3881.000000	63.347488
3880.000000	63.375045
3879.000000	63.387496
3878.000000	63.393271
3877.000000	63.402705
3876.000000	63.416458
3875.000000	63.429782
3874.000000	63.439951
3873.000000	63.447767
3872.000000	63.454135
3871.000000	63.459065
3870.000000	63.464391
3869.000000	63.473093
3868.000000	63.490221
3867.000000	63.520032
3866.000000	63.557972
3865.000000	63.596121
3864.000000	63.631735
3863.000000	63.664304
3862.000000	63.693914
3861.000000	63.720026
3860.000000	63.744921
3859.000000	63.778001
3858.000000	63.828110
3857.000000	63.890309
3856.000000	63.940854
3855.000000	63.954609
3854.000000	63.935896
3853.000000	63.909329
3852.000000	63.892655
3851.000000	63.900615
3850.000000	63.938207
3849.000000	63.990541
3848.000000	64.042824
3847.000000	64.090279
3846.000000	64.133417
3845.000000	64.171811
3844.000000	64.202344
3843.000000	64.224110
3842.000000	64.242122
3841.000000	64.260211
3840.000000	64.276705
3839.000000	64.289594
3838.000000	64.301830
3837.000000	64.321491
3836.000000	64.354108
3835.000000	64.396939
3834.000000	64.441324
3833.000000	64.479476
3832.000000	64.510612
3831.000000	64.538665
3830.000000	64.566847
3829.000000	64.597553
3828.000000	64.631877
3827.000000	64.667452
3826.000000	64.701241
3825.000000	64.732788
3824.000000	64.762436
3823.000000	64.789238
3822.000000	64.813797
3821.000000	64.837490
3820.000000	64.858354
3819.000000	64.879932
3818.000000	64.907460
3817.000000	64.935549
3816.000000	64.959491
3815.000000	64.983637
3814.000000	65.014605
3813.000000	65.053941
3812.000000	65.096234
3811.000000	65.134433
3810.000000	65.166642
3809.000000	65.194410
3808.000000	65.218094
3807.000000	65.236974
3806.000000	65.253339
3805.000000	65.273626
3804.000000	65.302270
3803.000000	65.331626
3802.000000	65.352544
3801.000000	65.366567
3800.000000	65.381567
3799.000000	65.408309
3798.000000	65.449376
3797.000000	65.494412
3796.000000	65.533650
3795.000000	65.567425
3794.000000	65.601107
3793.000000	65.637234
3792.000000	65.673421
3791.000000	65.706419
3790.000000	65.734871
3789.000000	65.759803
3788.000000	65.783688
3787.000000	65.809156
3786.000000	65.837107
3785.000000	65.865033
3784.000000	65.889247
3783.000000	65.908590
3782.000000	65.925786
3781.000000	65.944854
3780.000000	65.967626
3779.000000	65.991139
3778.000000	66.011833
3777.000000	66.031101
3776.000000	66.052879
3775.000000	66.077984
3774.000000	66.104725
3773.000000	66.132454
3772.000000	66.161447
3771.000000	66.191238
3770.000000	66.220219
3769.000000	66.247392
3768.000000	66.276122
3767.000000	66.312298
3766.000000	66.355054
3765.000000	66.397149
3764.000000	66.433919
3763.000000	66.466662
3762.000000	66.498904
3761.000000	66.532069
3760.000000	66.567403
3759.000000	66.604189
3758.000000	66.639682
3757.000000	66.674164
3756.000000	66.709147
3755.000000	66.742136
3754.000000	66.766772
3753.000000	66.780040
3752.000000	66.789464
3751.000000	66.804828
3750.000000	66.825149
3749.000000	66.848031
3748.000000	66.881334
3747.000000	66.929489
3746.000000	66.982258
3745.000000	67.031626
3744.000000	67.077599
3743.000000	67.118228
3742.000000	67.160935
3741.000000	67.210491
3740.000000	67.254127
3739.000000	67.279398
3738.000000	67.289362
3737.000000	67.302608
3736.000000	67.337192
3735.000000	67.394780
3734.000000	67.460384
3733.000000	67.516898
3732.000000	67.556978
3731.000000	67.583757
3730.000000	67.606713
3729.000000	67.632638
3728.000000	67.661016
3727.000000	67.691018
3726.000000	67.724380
3725.000000	67.761483
3724.000000	67.800677
3723.000000	67.840874
3722.000000	67.881757
3721.000000	67.921741
3720.000000	67.960882
3719.000000	68.000423
3718.000000	68.039831
3717.000000	68.078326
3716.000000	68.114636
3715.000000	68.145822
3714.000000	68.169886
3713.000000	68.191136
3712.000000	68.222295
3711.000000	68.271559
3710.000000	68.333511
3709.000000	68.396657
3708.000000	68.452213
3707.000000	68.500062
3706.000000	68.544534
3705.000000	68.589836
3704.000000	68.638858
3703.000000	68.693985
3702.000000	68.754146
3701.000000	68.810932
3700.000000	68.856761
3699.000000	68.893943
3698.000000	68.929337
3697.000000	68.964968
3696.000000	68.998380
3695.000000	69.026117
3694.000000	69.048631
3693.000000	69.070417
3692.000000	69.098253
3691.000000	69.137691
3690.000000	69.189038
3689.000000	69.243969
3688.000000	69.289277
3687.000000	69.323645
3686.000000	69.356712
3685.000000	69.392454
3684.000000	69.425573
3683.000000	69.452579
3682.000000	69.476524
3681.000000	69.501300
3680.000000	69.524824
3679.000000	69.541704
3678.000000	69.550884
3677.000000	69.562123
3676.000000	69.594289
3675.000000	69.642894
3674.000000	69.678305
3673.000000	69.691733
3672.000000	69.697365
3671.000000	69.713895
3670.000000	69.758291
3669.000000	69.823781
3668.000000	69.885644
3667.000000	69.932909
3666.000000	69.968472
3665.000000	69.997679
3664.000000	70.026335
3663.000000	70.058342
3662.000000	70.093037
3661.000000	70.125696
3660.000000	70.150062
3659.000000	70.164527
3658.000000	70.174487
3657.000000	70.187356
3656.000000	70.201721
3655.000000	70.207888
3654.000000	70.203221
3653.000000	70.193623
3652.000000	70.183887
3651.000000	70.180986
3650.000000	70.198776
3649.000000	70.244712
3648.000000	70.309962
3647.000000	70.376415
3646.000000	70.429934
3645.000000	70.467077
3644.000000	70.495520
3643.000000	70.525125
3642.000000	70.560315
3641.000000	70.599142
3640.000000	70.636331
3639.000000	70.668451
3638.000000	70.693486
3637.000000	70.710715
3636.000000	70.721487
3635.000000	70.727891
3634.000000	70.728757
3633.000000	70.718301
3632.000000	70.693501
3631.000000	70.662182
3630.000000	70.647523
3629.000000	70.668046
3628.000000	70.703205
3627.000000	70.719389
3626.000000	70.712204
3625.000000	70.689929
3624.000000	70.655677
3623.000000	70.613684
3622.000000	70.570425
3621.000000	70.531239
3620.000000	70.497971
3619.000000	70.464726
3618.000000	70.417750
3617.000000	70.350088
3616.000000	70.268029
3615.000000	70.183328
3614.000000	70.104682
3613.000000	70.030873
3612.000000	69.953238
3611.000000	69.867659
3610.000000	69.781417
3609.000000	69.707229
3608.000000	69.649972
3607.000000	69.600587
3606.000000	69.545136
3605.000000	69.476508
3604.000000	69.396129
3603.000000	69.312270
3602.000000	69.233777
3601.000000	69.163433
3600.000000	69.097839
3599.000000	69.031433
3598.000000	68.961864
3597.000000	68.892744
3596.000000	68.830668
3595.000000	68.779235
3594.000000	68.734792
3593.000000	68.686012
3592.000000	68.622681
3591.000000	68.543702
3590.000000	68.459444
3589.000000	68.389865
3588.000000	68.352118
3587.000000	68.341074
3586.000000	68.331079
3585.000000	68.302564
3584.000000	68.254944
3583.000000	68.198366
3582.000000	68.142096
3581.000000	68.089250
3580.000000	68.038220
3579.000000	67.985989
3578.000000	67.930653
3577.000000	67.870836
3576.000000	67.806566
3575.000000	67.738257
3574.000000	67.665598
3573.000000	67.585883
3572.000000	67.495217
3571.000000	67.391858
3570.000000	67.278553
3569.000000	67.165280
3568.000000	67.066899
3567.000000	66.989973
3566.000000	66.921799
3565.000000	66.843456
3564.000000	66.747002
3563.000000	66.636302
3562.000000	66.518411
3561.000000	66.397123
3560.000000	66.271940
3559.000000	66.140292
3558.000000	65.999687
3557.000000	65.848312
3556.000000	65.686642
3555.000000	65.518615
3554.000000	65.349819
3553.000000	65.182925
3552.000000	65.014135
3551.000000	64.835476
3550.000000	64.641239
3549.000000	64.432548
3548.000000	64.216737
3547.000000	64.002102
3546.000000	63.791095
3545.000000	63.578775
3544.000000	63.358267
3543.000000	63.125710
3542.000000	62.880156
3541.000000	62.621296
3540.000000	62.349540
3539.000000	62.066507
3538.000000	61.773467
3537.000000	61.469823
3536.000000	61.152820
3535.000000	60.819824
3534.000000	60.469994
3533.000000	60.104365
3532.000000	59.724567
3531.000000	59.330956
3530.000000	58.922059
3529.000000	58.496215
3528.000000	58.053300
3527.000000	57.594071
3526.000000	57.118276
3525.000000	56.624836
3524.000000	56.113681
3523.000000	55.585270
3522.000000	55.039198
3521.000000	54.474407
3520.000000	53.890540
3519.000000	53.287973
3518.000000	52.666866
3517.000000	52.028015
3516.000000	51.373485
3515.000000	50.705243
3514.000000	50.023531
3513.000000	49.326992
3512.000000	48.614185
3511.000000	47.884772
3510.000000	47.140467
3509.000000	46.386146
3508.000000	45.627240
3507.000000	44.864263
3506.000000	44.091729
3505.000000	43.304499
3504.000000	42.504206
3503.000000	41.697625
3502.000000	40.890778
3501.000000	40.086274
3500.000000	39.283886
3499.000000	38.480822
3498.000000	37.673655
3497.000000	36.862430
3496.000000	36.052073
3495.000000	35.248479
3494.000000	34.455054
3493.000000	33.673977
3492.000000	32.907371
3491.000000	32.155691
3490.000000	31.418079
3489.000000	30.696338
3488.000000	29.996668
3487.000000	29.325205
3486.000000	28.683495
3485.000000	28.069290
3484.000000	27.478368
3483.000000	26.906087
3482.000000	26.350762
3481.000000	25.816206
3480.000000	25.307766
3479.000000	24.824471
3478.000000	24.358952
3477.000000	23.904873
3476.000000	23.460234
3475.000000	23.024166
3474.000000	22.595227
3473.000000	22.174742
3472.000000	21.767987
3471.000000	21.380761
3470.000000	21.019178
3469.000000	20.692000
3468.000000	20.408697
3467.000000	20.173945
3466.000000	19.987021
3465.000000	19.847599
3464.000000	19.757561
3463.000000	19.718128
3462.000000	19.730343
3461.000000	19.796989
3460.000000	19.920002
3459.000000	20.094638
3458.000000	20.310125
3457.000000	20.556258
3456.000000	20.824144
3455.000000	21.102358
3454.000000	21.377464
3453.000000	21.637872
3452.000000	21.873604
3451.000000	22.072829
3450.000000	22.222319
3449.000000	22.312521
3448.000000	22.338886
3447.000000	22.298869
3446.000000	22.193275
3445.000000	22.027807
3444.000000	21.810389
3443.000000	21.548065
3442.000000	21.248293
3441.000000	20.923556
3440.000000	20.589550
3439.000000	20.259920
3438.000000	19.947025
3437.000000	19.665082
3436.000000	19.427134
3435.000000	19.239206
3434.000000	19.101088
3433.000000	19.012397
3432.000000	18.976044
3431.000000	18.995378
3430.000000	19.073552
3429.000000	19.215769
3428.000000	19.426248
3427.000000	19.706119
3426.000000	20.054560
3425.000000	20.472021
3424.000000	20.960578
3423.000000	21.519208
3422.000000	22.145016
3421.000000	22.834648
3420.000000	23.581857
3419.000000	24.376902
3418.000000	25.208777
3417.000000	26.069667
3416.000000	26.953505
3415.000000	27.852567
3414.000000	28.759339
3413.000000	29.668113
3412.000000	30.572796
3411.000000	31.465092
3410.000000	32.337539
3409.000000	33.186736
3408.000000	34.011214
3407.000000	34.807530
3406.000000	35.571952
3405.000000	36.304205
3404.000000	37.006438
3403.000000	37.680904
3402.000000	38.329893
3401.000000	38.956157
3400.000000	39.560934
3399.000000	40.141985
3398.000000	40.696904
3397.000000	41.227040
3396.000000	41.736055
3395.000000	42.227463
3394.000000	42.704572
3393.000000	43.171279
3392.000000	43.629740
3391.000000	44.077689
3390.000000	44.511748
3389.000000	44.931765
3388.000000	45.340692
3387.000000	45.741457
3386.000000	46.135781
3385.000000	46.525485
3384.000000	46.911951
3383.000000	47.295162
3382.000000	47.674720
3381.000000	48.051023
3380.000000	48.424444
3379.000000	48.794365
3378.000000	49.160586
3377.000000	49.524392
3376.000000	49.886539
3375.000000	50.245507
3374.000000	50.599482
3373.000000	50.949118
3372.000000	51.296654
3371.000000	51.642926
3370.000000	51.987079
3369.000000	52.328164
3368.000000	52.665440
3367.000000	52.997877
3366.000000	53.324865
3365.000000	53.647304
3364.000000	53.966696
3363.000000	54.283617
3362.000000	54.597812
3361.000000	54.908764
3360.000000	55.215427
3359.000000	55.516542
3358.000000	55.812327
3357.000000	56.105055
3356.000000	56.396564
3355.000000	56.686395
3354.000000	56.973393
3353.000000	57.257706
3352.000000	57.539587
3351.000000	57.816975
3350.000000	58.086437
3349.000000	58.346450
3348.000000	58.598492
3347.000000	58.845503
3346.000000	59.090022
3345.000000	59.333371
3344.000000	59.574871
3343.000000	59.811715
3342.000000	60.041187
3341.000000	60.262853
3340.000000	60.478025
3339.000000	60.687367
3338.000000	60.889828
3337.000000	61.084202
3336.000000	61.270188
3335.000000	61.447767
3334.000000	61.616467
3333.000000	61.775090
3332.000000	61.922100
3331.000000	62.055772
3330.000000	62.174745
3329.000000	62.278898
3328.000000	62.368298
3327.000000	62.441807
3326.000000	62.496233
3325.000000	62.527139
3324.000000	62.530801
3323.000000	62.504304
3322.000000	62.445532
3321.000000	62.352626
3320.000000	62.222715
3319.000000	62.052739
3318.000000	61.838710
3317.000000	61.576387
3316.000000	61.260545
3315.000000	60.883647
3314.000000	60.437846
3313.000000	59.915209
3312.000000	59.307795
3311.000000	58.607899
3310.000000	57.806623
3309.000000	56.897669
3308.000000	55.875158
3307.000000	54.731798
3306.000000	53.460265
3305.000000	52.051886
3304.000000	50.501636
3303.000000	48.806349
3302.000000	46.966525
3301.000000	44.989779
3300.000000	42.888963
3299.000000	40.685082
3298.000000	38.410673
3297.000000	36.111062
3296.000000	33.839383
3295.000000	31.647293
3294.000000	29.581412
3293.000000	27.683016
3292.000000	25.981763
3291.000000	24.484859
3290.000000	23.181384
3289.000000	22.047771
3288.000000	21.053224
3287.000000	20.164212
3286.000000	19.348358
3285.000000	18.585106
3284.000000	17.863423
3283.000000	17.179013
3282.000000	16.537463
3281.000000	15.953805
3280.000000	15.448642
3279.000000	15.040716
3278.000000	14.747370
3277.000000	14.587872
3276.000000	14.575519
3275.000000	14.711886
3274.000000	14.987305
3273.000000	15.382406
3272.000000	15.867213
3271.000000	16.397042
3270.000000	16.919343
3269.000000	17.383435
3268.000000	17.744257
3267.000000	17.964909
3266.000000	18.024331
3265.000000	17.921480
3264.000000	17.671793
3263.000000	17.303801
3262.000000	16.856326
3261.000000	16.378186
3260.000000	15.918597
3259.000000	15.517749
3258.000000	15.207201
3257.000000	15.012053
3256.000000	14.946346
3255.000000	15.009730
3254.000000	15.192433
3253.000000	15.478863
3252.000000	15.848873
3251.000000	16.274896
3250.000000	16.727408
3249.000000	17.181833
3248.000000	17.616071
3247.000000	18.009026
3246.000000	18.343779
3245.000000	18.611468
3244.000000	18.809047
3243.000000	18.937392
3242.000000	19.002417
3241.000000	19.016437
3240.000000	18.993376
3239.000000	18.942445
3238.000000	18.871260
3237.000000	18.788253
3236.000000	18.700891
3235.000000	18.613714
3234.000000	18.529408
3233.000000	18.449904
3232.000000	18.371993
3231.000000	18.286129
3230.000000	18.183080
3229.000000	18.058275
3228.000000	17.908678
3227.000000	17.729170
3226.000000	17.516007
3225.000000	17.270739
3224.000000	16.996356
3223.000000	16.694453
3222.000000	16.368632
3221.000000	16.027583
3220.000000	15.681424
3219.000000	15.336879
3218.000000	14.999305
3217.000000	14.674546
3216.000000	14.365090
3215.000000	14.067759
3214.000000	13.778574
3213.000000	13.496426
3212.000000	13.219378
3211.000000	12.942231
3210.000000	12.661736
3209.000000	12.381062
3208.000000	12.105327
3207.000000	11.836897
3206.000000	11.578678
3205.000000	11.336991
3204.000000	11.117787
3203.000000	10.923128
3202.000000	10.755029
3201.000000	10.619114
3200.000000	10.519578
3199.000000	10.456099
3198.000000	10.427993
3197.000000	10.437421
3196.000000	10.485656
3195.000000	10.568536
3194.000000	10.681808
3193.000000	10.825056
3192.000000	10.997241
3191.000000	11.194192
3190.000000	11.411764
3189.000000	11.649276
3188.000000	11.905567
3187.000000	12.175628
3186.000000	12.455616
3185.000000	12.745631
3184.000000	13.045399
3183.000000	13.351093
3182.000000	13.659599
3181.000000	13.972162
3180.000000	14.289716
3179.000000	14.609258
3178.000000	14.927722
3177.000000	15.245202
3176.000000	15.561204
3175.000000	15.871688
3174.000000	16.173249
3173.000000	16.466443
3172.000000	16.752269
3171.000000	17.028856
3170.000000	17.294843
3169.000000	17.552019
3168.000000	17.801486
3167.000000	18.041248
3166.000000	18.269592
3165.000000	18.487551
3164.000000	18.695202
3163.000000	18.889140
3162.000000	19.067023
3161.000000	19.230044
3160.000000	19.379047
3159.000000	19.511973
3158.000000	19.627566
3157.000000	19.728916
3156.000000	19.819978
3155.000000	19.902780
3154.000000	19.980401
3153.000000	20.058277
3152.000000	20.140152
3151.000000	20.225864
3150.000000	20.315858
3149.000000	20.413917
3148.000000	20.522858
3147.000000	20.641294
3146.000000	20.767396
3145.000000	20.901879
3144.000000	21.044641
3143.000000	21.192761
3142.000000	21.344025
3141.000000	21.498901
3140.000000	21.656287
3139.000000	21.811265
3138.000000	21.959776
3137.000000	22.101475
3136.000000	22.235365
3135.000000	22.356117
3134.000000	22.457824
3133.000000	22.536712
3132.000000	22.587875
3131.000000	22.602493
3130.000000	22.571077
3129.000000	22.488565
3128.000000	22.352618
3127.000000	22.162838
3126.000000	21.924062
3125.000000	21.646918
3124.000000	21.344247
3123.000000	21.027396
3122.000000	20.708339
3121.000000	20.399821
3120.000000	20.109801
3119.000000	19.839386
3118.000000	19.587858
3117.000000	19.356041
3116.000000	19.142518
3115.000000	18.941827
3114.000000	18.749168
3113.000000	18.563740
3112.000000	18.384966
3111.000000	18.209980
3110.000000	18.038154
3109.000000	17.873269
3108.000000	17.719122
3107.000000	17.577223
3106.000000	17.450924
3105.000000	17.347980
3104.000000	17.274950
3103.000000	17.234128
3102.000000	17.228607
3101.000000	17.264321
3100.000000	17.345926
3099.000000	17.473107
3098.000000	17.644895
3097.000000	17.863124
3096.000000	18.127228
3095.000000	18.432898
3094.000000	18.776416
3093.000000	19.156972
3092.000000	19.572377
3091.000000	20.015481
3090.000000	20.479418
3089.000000	20.960314
3088.000000	21.453524
3087.000000	21.952255
3086.000000	22.451560
3085.000000	22.950453
3084.000000	23.447193
3083.000000	23.937329
3082.000000	24.418475
3081.000000	24.892238
3080.000000	25.359151
3079.000000	25.815942
3078.000000	26.260145
3077.000000	26.692625
3076.000000	27.113810
3075.000000	27.521429
3074.000000	27.914497
3073.000000	28.295549
3072.000000	28.666096
3071.000000	29.024497
3070.000000	29.369984
3069.000000	29.704881
3068.000000	30.030735
3067.000000	30.345627
3066.000000	30.648441
3065.000000	30.941648
3064.000000	31.227634
3063.000000	31.506086
3062.000000	31.776659
3061.000000	32.041182
3060.000000	32.300678
3059.000000	32.553637
3058.000000	32.799489
3057.000000	33.040210
3056.000000	33.276977
3055.000000	33.508474
3054.000000	33.734469
3053.000000	33.957782
3052.000000	34.180331
3051.000000	34.400477
3050.000000	34.616205
3049.000000	34.827930
3048.000000	35.036589
3047.000000	35.241840
3046.000000	35.444119
3045.000000	35.645530
3044.000000	35.846866
3043.000000	36.046443
3042.000000	36.243044
3041.000000	36.437233
3040.000000	36.628662
3039.000000	36.815375
3038.000000	36.997436
3037.000000	37.178120
3036.000000	37.359982
3035.000000	37.542508
3034.000000	37.724753
3033.000000	37.907264
3032.000000	38.089995
3031.000000	38.271440
3030.000000	38.451270
3029.000000	38.630906
3028.000000	38.810369
3027.000000	38.987582
3026.000000	39.161765
3025.000000	39.334323
3024.000000	39.504974
3023.000000	39.670362
3022.000000	39.827733
3021.000000	39.976211
3020.000000	40.113190
3019.000000	40.232155
3018.000000	40.326490
3017.000000	40.392662
3016.000000	40.428971
3015.000000	40.435923
3014.000000	40.420226
3013.000000	40.396898
3012.000000	40.384841
3011.000000	40.401858
3010.000000	40.462699
3009.000000	40.576121
3008.000000	40.739788
3007.000000	40.939474
3006.000000	41.154989
3005.000000	41.365334
3004.000000	41.548318
3003.000000	41.679225
3002.000000	41.733241
3001.000000	41.688041
3000.000000	41.527953
2999.000000	41.253449
2998.000000	40.894815
2997.000000	40.516420
2996.000000	40.202528
2995.000000	40.032017
2994.000000	40.052606
2993.000000	40.266390
2992.000000	40.630282
2991.000000	41.077091
2990.000000	41.543365
2989.000000	41.985884
2988.000000	42.381772
2987.000000	42.721895
2986.000000	43.007474
2985.000000	43.245304
2984.000000	43.441783
2983.000000	43.599432
2982.000000	43.719600
2981.000000	43.803457
2980.000000	43.849538
2979.000000	43.853002
2978.000000	43.809258
2977.000000	43.718442
2976.000000	43.585755
2975.000000	43.423334
2974.000000	43.252647
2973.000000	43.101157
2972.000000	42.992273
2971.000000	42.935614
2970.000000	42.923776
2969.000000	42.931449
2968.000000	42.916512
2967.000000	42.830828
2966.000000	42.641001
2965.000000	42.344877
2964.000000	41.972034
2963.000000	41.571429
2962.000000	41.196891
2961.000000	40.893544
2960.000000	40.689404
2959.000000	40.595072
2958.000000	40.611601
2957.000000	40.734145
2956.000000	40.948958
2955.000000	41.232393
2954.000000	41.555029
2953.000000	41.885773
2952.000000	42.191247
2951.000000	42.440774
2950.000000	42.616367
2949.000000	42.719641
2948.000000	42.767167
2947.000000	42.777746
2946.000000	42.757168
2945.000000	42.681207
2944.000000	42.491937
2943.000000	42.123996
2942.000000	41.559732
2941.000000	40.873994
2940.000000	40.230104
2939.000000	39.820175
2938.000000	39.780905
2937.000000	40.136114
2936.000000	40.794620
2935.000000	41.604786
2934.000000	42.424869
2933.000000	43.166069
2932.000000	43.794030
2931.000000	44.310613
2930.000000	44.736425
2929.000000	45.096289
2928.000000	45.410335
2927.000000	45.690776
2926.000000	45.946214
2925.000000	46.183591
2924.000000	46.405834
2923.000000	46.611533
2922.000000	46.799542
2921.000000	46.971176
2920.000000	47.126952
2919.000000	47.265531
2918.000000	47.386803
2917.000000	47.493408
2916.000000	47.587807
2915.000000	47.670535
2914.000000	47.742464
2913.000000	47.805580
2912.000000	47.860449
2911.000000	47.905647
2910.000000	47.940049
2909.000000	47.962791
2908.000000	47.969936
2907.000000	47.953141
2906.000000	47.902372
2905.000000	47.806538
2904.000000	47.651323
2903.000000	47.421481
2902.000000	47.108479
2901.000000	46.717314
2900.000000	46.268196
2899.000000	45.797167
2898.000000	45.354834
2897.000000	44.997198
2896.000000	44.768237
2895.000000	44.687241
2894.000000	44.749217
2893.000000	44.930508
2892.000000	45.195553
2891.000000	45.505446
2890.000000	45.828846
2889.000000	46.146065
2888.000000	46.445497
2887.000000	46.719781
2886.000000	46.965656
2885.000000	47.183828
2884.000000	47.375169
2883.000000	47.539815
2882.000000	47.680010
2881.000000	47.800946
2880.000000	47.907672
2879.000000	48.003617
2878.000000	48.092787
2877.000000	48.179985
2876.000000	48.267242
2875.000000	48.352100
2874.000000	48.430971
2873.000000	48.502223
2872.000000	48.566382
2871.000000	48.626974
2870.000000	48.691948
2869.000000	48.770994
2868.000000	48.869237
2867.000000	48.984893
2866.000000	49.112900
2865.000000	49.247532
2864.000000	49.381528
2863.000000	49.507421
2862.000000	49.621814
2861.000000	49.725844
2860.000000	49.820869
2859.000000	49.906875
2858.000000	49.985927
2857.000000	50.063178
2856.000000	50.142544
2855.000000	50.224276
2854.000000	50.307769
2853.000000	50.393098
2852.000000	50.478224
2851.000000	50.558050
2850.000000	50.628322
2849.000000	50.688240
2848.000000	50.738669
2847.000000	50.781155
2846.000000	50.819985
2845.000000	50.861608
2844.000000	50.910019
2843.000000	50.964927
2842.000000	51.025443
2841.000000	51.092625
2840.000000	51.166887
2839.000000	51.245991
2838.000000	51.327587
2837.000000	51.411506
2836.000000	51.498121
2835.000000	51.586745
2834.000000	51.676906
2833.000000	51.769087
2832.000000	51.863007
2831.000000	51.957136
2830.000000	52.050942
2829.000000	52.145448
2828.000000	52.240666
2827.000000	52.334731
2826.000000	52.426365
2825.000000	52.515859
2824.000000	52.602841
2823.000000	52.685447
2822.000000	52.762857
2821.000000	52.836415
2820.000000	52.907304
2819.000000	52.975419
2818.000000	53.041312
2817.000000	53.106749
2816.000000	53.172110
2815.000000	53.235345
2814.000000	53.294673
2813.000000	53.350290
2812.000000	53.402605
2811.000000	53.451133
2810.000000	53.496174
2809.000000	53.539489
2808.000000	53.582313
2807.000000	53.624642
2806.000000	53.667182
2805.000000	53.711564
2804.000000	53.757646
2803.000000	53.802953
2802.000000	53.845873
2801.000000	53.887339
2800.000000	53.928498
2799.000000	53.969017
2798.000000	54.008729
2797.000000	54.048615
2796.000000	54.088857
2795.000000	54.127914
2794.000000	54.164722
2793.000000	54.199953
2792.000000	54.234212
2791.000000	54.266959
2790.000000	54.298104
2789.000000	54.328640
2788.000000	54.358791
2787.000000	54.387448
2786.000000	54.414248
2785.000000	54.440330
2784.000000	54.466451
2783.000000	54.492722
2782.000000	54.520973
2781.000000	54.554861
2780.000000	54.596530
2779.000000	54.645101
2778.000000	54.699144
2777.000000	54.758284
2776.000000	54.821246
2775.000000	54.884727
2774.000000	54.945713
2773.000000	55.003212
2772.000000	55.056927
2771.000000	55.106313
2770.000000	55.151914
2769.000000	55.195693
2768.000000	55.238922
2767.000000	55.281267
2766.000000	55.322584
2765.000000	55.363459
2764.000000	55.403170
2763.000000	55.439350
2762.000000	55.470707
2761.000000	55.498358
2760.000000	55.523731
2759.000000	55.547090
2758.000000	55.568894
2757.000000	55.590229
2756.000000	55.610806
2755.000000	55.628590
2754.000000	55.642590
2753.000000	55.654605
2752.000000	55.667535
2751.000000	55.683723
2750.000000	55.705430
2749.000000	55.734363
2748.000000	55.769285
2747.000000	55.805792
2746.000000	55.839597
2745.000000	55.868839
2744.000000	55.893191
2743.000000	55.913030
2742.000000	55.930033
2741.000000	55.946151
2740.000000	55.960772
2739.000000	55.970871
2738.000000	55.975277
2737.000000	55.977684
2736.000000	55.984976
2735.000000	56.004311
2734.000000	56.041546
2733.000000	56.098795
2732.000000	56.171855
2731.000000	56.251922
2730.000000	56.331174
2729.000000	56.405987
2728.000000	56.474944
2727.000000	56.536815
2726.000000	56.591776
2725.000000	56.642010
2724.000000	56.689156
2723.000000	56.732542
2722.000000	56.770629
2721.000000	56.802442
2720.000000	56.827194
2719.000000	56.844398
2718.000000	56.855644
2717.000000	56.864765
2716.000000	56.875159
2715.000000	56.888481
2714.000000	56.906116
2713.000000	56.929612
2712.000000	56.958785
2711.000000	56.991406
2710.000000	57.025733
2709.000000	57.061746
2708.000000	57.099225
2707.000000	57.136570
2706.000000	57.172366
2705.000000	57.206112
2704.000000	57.236441
2703.000000	57.260564
2702.000000	57.276433
2701.000000	57.283674
2700.000000	57.282133
2699.000000	57.271504
2698.000000	57.253362
2697.000000	57.231879
2696.000000	57.211238
2695.000000	57.193890
2694.000000	57.181461
2693.000000	57.174796
2692.000000	57.172219
2691.000000	57.169969
2690.000000	57.165737
2689.000000	57.160460
2688.000000	57.156171
2687.000000	57.154029
2686.000000	57.155207
2685.000000	57.161321
2684.000000	57.172774
2683.000000	57.188607
2682.000000	57.208632
2681.000000	57.233999
2680.000000	57.264763
2679.000000	57.298811
2678.000000	57.334183
2677.000000	57.370251
2676.000000	57.405845
2675.000000	57.438275
2674.000000	57.465176
2673.000000	57.485662
2672.000000	57.499200
2671.000000	57.505494
2670.000000	57.506597
2669.000000	57.507370
2668.000000	57.512747
2667.000000	57.525893
2666.000000	57.549123
2665.000000	57.583836
2664.000000	57.628135
2663.000000	57.676517
2662.000000	57.723002
2661.000000	57.763184
2660.000000	57.793330
2659.000000	57.810346
2658.000000	57.814224
2657.000000	57.808893
2656.000000	57.799420
2655.000000	57.789744
2654.000000	57.783753
2653.000000	57.785954
2652.000000	57.799453
2651.000000	57.824663
2650.000000	57.860736
2649.000000	57.906314
2648.000000	57.958277
2647.000000	58.011694
2646.000000	58.062424
2645.000000	58.108887
2644.000000	58.150772
2643.000000	58.188212
2642.000000	58.223021
2641.000000	58.258663
2640.000000	58.297683
2639.000000	58.340212
2638.000000	58.385391
2637.000000	58.432380
2636.000000	58.479249
2635.000000	58.522726
2634.000000	58.560316
2633.000000	58.591412
2632.000000	58.615966
2631.000000	58.633918
2630.000000	58.646386
2629.000000	58.655870
2628.000000	58.664240
2627.000000	58.671815
2626.000000	58.678936
2625.000000	58.686342
2624.000000	58.693650
2623.000000	58.699267
2622.000000	58.702521
2621.000000	58.704381
2620.000000	58.705330
2619.000000	58.704409
2618.000000	58.700757
2617.000000	58.694162
2616.000000	58.683618
2615.000000	58.667073
2614.000000	58.643625
2613.000000	58.614410
2612.000000	58.580857
2611.000000	58.544292
2610.000000	58.507779
2609.000000	58.476251
2608.000000	58.453754
2607.000000	58.442030
2606.000000	58.441848
2605.000000	58.453802
2604.000000	58.476953
2603.000000	58.508643
2602.000000	58.546911
2601.000000	58.590772
2600.000000	58.638092
2599.000000	58.685277
2598.000000	58.729649
2597.000000	58.770710
2596.000000	58.808412
2595.000000	58.842477
2594.000000	58.873964
2593.000000	58.905219
2592.000000	58.937268
2591.000000	58.969069
2590.000000	58.999708
2589.000000	59.029191
2588.000000	59.056606
2587.000000	59.079756
2586.000000	59.097807
2585.000000	59.112449
2584.000000	59.125827
2583.000000	59.139466
2582.000000	59.155984
2581.000000	59.179370
2580.000000	59.212289
2579.000000	59.254657
2578.000000	59.305344
2577.000000	59.363615
2576.000000	59.427863
2575.000000	59.495120
2574.000000	59.563093
2573.000000	59.630927
2572.000000	59.697658
2571.000000	59.761567
2570.000000	59.821650
2569.000000	59.878007
2568.000000	59.930257
2567.000000	59.977375
2566.000000	60.019740
2565.000000	60.059514
2564.000000	60.098127
2563.000000	60.135417
2562.000000	60.171543
2561.000000	60.207727
2560.000000	60.244399
2559.000000	60.280428
2558.000000	60.315166
2557.000000	60.349324
2556.000000	60.383200
2555.000000	60.416049
2554.000000	60.448016
2553.000000	60.480832
2552.000000	60.515696
2551.000000	60.552130
2550.000000	60.589616
2549.000000	60.628541
2548.000000	60.668712
2547.000000	60.708738
2546.000000	60.747625
2545.000000	60.785341
2544.000000	60.821147
2543.000000	60.853270
2542.000000	60.880825
2541.000000	60.904125
2540.000000	60.922695
2539.000000	60.934645
2538.000000	60.939079
2537.000000	60.937100
2536.000000	60.929320
2535.000000	60.914794
2534.000000	60.892922
2533.000000	60.864958
2532.000000	60.832700
2531.000000	60.797197
2530.000000	60.760083
2529.000000	60.724005
2528.000000	60.690726
2527.000000	60.660271
2526.000000	60.632604
2525.000000	60.608469
2524.000000	60.587650
2523.000000	60.568142
2522.000000	60.547905
2521.000000	60.525757
2520.000000	60.500024
2519.000000	60.468276
2518.000000	60.429510
2517.000000	60.384947
2516.000000	60.335724
2515.000000	60.281887
2514.000000	60.224378
2513.000000	60.166182
2512.000000	60.110650
2511.000000	60.060493
2510.000000	60.019031
2509.000000	59.990249
2508.000000	59.976384
2507.000000	59.976649
2506.000000	59.989716
2505.000000	60.014931
2504.000000	60.050600
2503.000000	60.093411
2502.000000	60.139966
2501.000000	60.187956
2500.000000	60.234842
2499.000000	60.277603
2498.000000	60.314777
2497.000000	60.346795
2496.000000	60.373725
2495.000000	60.394553
2494.000000	60.409428
2493.000000	60.420319
2492.000000	60.428903
2491.000000	60.435435
2490.000000	60.440597
2489.000000	60.446470
2488.000000	60.454594
2487.000000	60.465047
2486.000000	60.477998
2485.000000	60.494138
2484.000000	60.512722
2483.000000	60.531310
2482.000000	60.548389
2481.000000	60.564520
2480.000000	60.580421
2479.000000	60.596010
2478.000000	60.612374
2477.000000	60.632277
2476.000000	60.657733
2475.000000	60.688877
2474.000000	60.725734
2473.000000	60.769183
2472.000000	60.818909
2471.000000	60.872632
2470.000000	60.928480
2469.000000	60.986008
2468.000000	61.044306
2467.000000	61.100992
2466.000000	61.154287
2465.000000	61.204284
2464.000000	61.251202
2463.000000	61.294150
2462.000000	61.332622
2461.000000	61.367409
2460.000000	61.398879
2459.000000	61.426322
2458.000000	61.449527
2457.000000	61.469454
2456.000000	61.486453
2455.000000	61.499437
2454.000000	61.508148
2453.000000	61.514349
2452.000000	61.520080
2451.000000	61.526422
2450.000000	61.534740
2449.000000	61.547301
2448.000000	61.565643
2447.000000	61.589885
2446.000000	61.620300
2445.000000	61.657867
2444.000000	61.702064
2443.000000	61.749982
2442.000000	61.798440
2441.000000	61.845394
2440.000000	61.889037
2439.000000	61.927563
2438.000000	61.961048
2437.000000	61.991745
2436.000000	62.021558
2435.000000	62.050388
2434.000000	62.077485
2433.000000	62.102311
2432.000000	62.123090
2431.000000	62.136804
2430.000000	62.141431
2429.000000	62.137211
2428.000000	62.124951
2427.000000	62.104668
2426.000000	62.077084
2425.000000	62.044079
2424.000000	62.007163
2423.000000	61.967223
2422.000000	61.926626
2421.000000	61.889844
2420.000000	61.860723
2419.000000	61.840766
2418.000000	61.830548
2417.000000	61.830588
2416.000000	61.839345
2415.000000	61.852482
2414.000000	61.865308
2413.000000	61.874370
2412.000000	61.875993
2411.000000	61.865775
2410.000000	61.841187
2409.000000	61.803368
2408.000000	61.755528
2407.000000	61.700899
2406.000000	61.643429
2405.000000	61.587905
2404.000000	61.537645
2403.000000	61.493403
2402.000000	61.455468
2401.000000	61.425163
2400.000000	61.403242
2399.000000	61.388647
2398.000000	61.379856
2397.000000	61.375820
2396.000000	61.374259
2395.000000	61.370964
2394.000000	61.361939
2393.000000	61.345095
2392.000000	61.318984
2391.000000	61.282392
2390.000000	61.236682
2389.000000	61.186230
2388.000000	61.136259
2387.000000	61.090461
2386.000000	61.052370
2385.000000	61.026699
2384.000000	61.016464
2383.000000	61.021798
2382.000000	61.041026
2381.000000	61.072407
2380.000000	61.113087
2379.000000	61.157629
2378.000000	61.200007
2377.000000	61.235954
2376.000000	61.262336
2375.000000	61.275183
2374.000000	61.272484
2373.000000	61.254517
2372.000000	61.222065
2371.000000	61.176782
2370.000000	61.122038
2369.000000	61.065053
2368.000000	61.014204
2367.000000	60.976616
2366.000000	60.957069
2365.000000	60.958888
2364.000000	60.991647
2363.000000	61.054901
2362.000000	61.137369
2361.000000	61.238492
2360.000000	61.346652
2359.000000	61.448204
2358.000000	61.532659
2357.000000	61.587925
2356.000000	61.617530
2355.000000	61.614513
2354.000000	61.582094
2353.000000	61.541504
2352.000000	61.531561
2351.000000	61.586133
2350.000000	61.669105
2349.000000	61.729026
2348.000000	61.738193
2347.000000	61.725914
2346.000000	61.757244
2345.000000	61.846317
2344.000000	61.965242
2343.000000	62.053048
2342.000000	62.098604
2341.000000	62.127441
2340.000000	62.146187
2339.000000	62.155052
2338.000000	62.148641
2337.000000	62.134816
2336.000000	62.119137
2335.000000	62.104393
2334.000000	62.092254
2333.000000	62.082604
2332.000000	62.064210
2331.000000	62.034362
2330.000000	61.977120
2329.000000	61.904008
2328.000000	61.825441
2327.000000	61.751682
2326.000000	61.701376
2325.000000	61.670927
2324.000000	61.668401
2323.000000	61.674366
2322.000000	61.681551
2321.000000	61.681656
2320.000000	61.670233
2319.000000	61.649905
2318.000000	61.620228
2317.000000	61.591994
2316.000000	61.565652
2315.000000	61.544147
2314.000000	61.521552
2313.000000	61.493288
2312.000000	61.449683
2311.000000	61.384437
2310.000000	61.299237
2309.000000	61.199520
2308.000000	61.092156
2307.000000	60.977966
2306.000000	60.862437
2305.000000	60.748938
2304.000000	60.641794
2303.000000	60.539550
2302.000000	60.441188
2301.000000	60.345484
2300.000000	60.249367
2299.000000	60.149990
2298.000000	60.048918
2297.000000	59.952896
2296.000000	59.868983
2295.000000	59.800938
2294.000000	59.753543
2293.000000	59.729501
2292.000000	59.729883
2291.000000	59.749770
2290.000000	59.786321
2289.000000	59.836418
2288.000000	59.898016
2287.000000	59.967506
2286.000000	60.044518
2285.000000	60.129804
2284.000000	60.221967
2283.000000	60.316254
2282.000000	60.408787
2281.000000	60.497773
2280.000000	60.580282
2279.000000	60.652464
2278.000000	60.713213
2277.000000	60.766644
2276.000000	60.817211
2275.000000	60.868370
2274.000000	60.923251
2273.000000	60.985567
2272.000000	61.056733
2271.000000	61.135353
2270.000000	61.221102
2269.000000	61.315357
2268.000000	61.418648
2267.000000	61.529695
2266.000000	61.647970
2265.000000	61.774956
2264.000000	61.910430
2263.000000	62.050747
2262.000000	62.191596
2261.000000	62.328835
2260.000000	62.458335
2259.000000	62.575384
2258.000000	62.678264
2257.000000	62.769008
2256.000000	62.850704
2255.000000	62.926501
2254.000000	63.000188
2253.000000	63.076381
2252.000000	63.156595
2251.000000	63.239118
2250.000000	63.321593
2249.000000	63.402883
2248.000000	63.481056
2247.000000	63.552941
2246.000000	63.617411
2245.000000	63.675963
2244.000000	63.730540
2243.000000	63.781671
2242.000000	63.829978
2241.000000	63.876265
2240.000000	63.919178
2239.000000	63.954892
2238.000000	63.980655
2237.000000	63.996717
2236.000000	64.004673
2235.000000	64.006241
2234.000000	64.004921
2233.000000	64.006012
2232.000000	64.013177
2231.000000	64.026616
2230.000000	64.045002
2229.000000	64.067021
2228.000000	64.090119
2227.000000	64.110781
2226.000000	64.127615
2225.000000	64.142408
2224.000000	64.157048
2223.000000	64.171562
2222.000000	64.185882
2221.000000	64.200899
2220.000000	64.216396
2219.000000	64.230270
2218.000000	64.241346
2217.000000	64.251187
2216.000000	64.262260
2215.000000	64.276405
2214.000000	64.296118
2213.000000	64.324590
2212.000000	64.362866
2211.000000	64.408527
2210.000000	64.458053
2209.000000	64.508357
2208.000000	64.555431
2207.000000	64.594400
2206.000000	64.622648
2205.000000	64.641331
2204.000000	64.652699
2203.000000	64.658010
2202.000000	64.658781
2201.000000	64.657532
2200.000000	64.655620
2199.000000	64.652230
2198.000000	64.646814
2197.000000	64.640691
2196.000000	64.635525
2195.000000	64.632461
2194.000000	64.634014
2193.000000	64.644305
2192.000000	64.665741
2191.000000	64.697162
2190.000000	64.736008
2189.000000	64.780240
2188.000000	64.827216
2187.000000	64.873463
2186.000000	64.917240
2185.000000	64.959622
2184.000000	65.002000
2183.000000	65.044300
2182.000000	65.086518
2181.000000	65.129478
2180.000000	65.172759
2179.000000	65.213756
2178.000000	65.249947
2177.000000	65.280304
2176.000000	65.303717
2175.000000	65.318608
2174.000000	65.325434
2173.000000	65.327549
2172.000000	65.328221
2171.000000	65.328568
2170.000000	65.329235
2169.000000	65.331453
2168.000000	65.334982
2167.000000	65.337192
2166.000000	65.335953
2165.000000	65.331732
2164.000000	65.325817
2163.000000	65.318777
2162.000000	65.311993
2161.000000	65.308527
2160.000000	65.310792
2159.000000	65.318983
2158.000000	65.332780
2157.000000	65.352297
2156.000000	65.376157
2155.000000	65.400977
2154.000000	65.424400
2153.000000	65.446848
2152.000000	65.469299
2151.000000	65.491412
2150.000000	65.512920
2149.000000	65.534501
2148.000000	65.555712
2147.000000	65.574167
2146.000000	65.588241
2145.000000	65.598805
2144.000000	65.607252
2143.000000	65.614019
2142.000000	65.620266
2141.000000	65.628625
2140.000000	65.640596
2139.000000	65.654833
2138.000000	65.669015
2137.000000	65.681393
2136.000000	65.689575
2135.000000	65.690283
2134.000000	65.682135
2133.000000	65.666931
2132.000000	65.647240
2131.000000	65.624705
2130.000000	65.601683
2129.000000	65.581775
2128.000000	65.566880
2127.000000	65.555520
2126.000000	65.545439
2125.000000	65.536072
2124.000000	65.527450
2123.000000	65.519534
2122.000000	65.514354
2121.000000	65.516594
2120.000000	65.530302
2119.000000	65.556250
2118.000000	65.592979
2117.000000	65.637859
2116.000000	65.686020
2115.000000	65.730891
2114.000000	65.767822
2113.000000	65.795947
2112.000000	65.816100
2111.000000	65.829340
2110.000000	65.838137
2109.000000	65.846142
2108.000000	65.855124
2107.000000	65.864018
2106.000000	65.872081
2105.000000	65.880521
2104.000000	65.889911
2103.000000	65.898657
2102.000000	65.905322
2101.000000	65.909902
2100.000000	65.911281
2099.000000	65.906013
2098.000000	65.891427
2097.000000	65.867904
2096.000000	65.836927
2095.000000	65.799767
2094.000000	65.759880
2093.000000	65.724097
2092.000000	65.699334
2091.000000	65.689716
2090.000000	65.697826
2089.000000	65.725547
2088.000000	65.771285
2087.000000	65.828653
2086.000000	65.889632
2085.000000	65.947344
2084.000000	65.995675
2083.000000	66.029645
2082.000000	66.048104
2081.000000	66.054310
2080.000000	66.052357
2079.000000	66.044613
2078.000000	66.033291
2077.000000	66.020852
2076.000000	66.006863
2075.000000	65.987236
2074.000000	65.958263
2073.000000	65.919443
2072.000000	65.871365
2071.000000	65.813934
2070.000000	65.748683
2069.000000	65.679750
2068.000000	65.610272
2067.000000	65.539851
2066.000000	65.467085
2065.000000	65.392239
2064.000000	65.315465
2063.000000	65.235442
2062.000000	65.151884
2061.000000	65.066748
2060.000000	64.981518
2059.000000	64.895865
2058.000000	64.810508
2057.000000	64.728318
2056.000000	64.650734
2055.000000	64.576112
2054.000000	64.503402
2053.000000	64.434350
2052.000000	64.370719
2051.000000	64.312839
2050.000000	64.262302
2049.000000	64.222894
2048.000000	64.196547
2047.000000	64.180885
2046.000000	64.172719
2045.000000	64.170622
2044.000000	64.172494
2043.000000	64.174293
2042.000000	64.173803
2041.000000	64.173509
2040.000000	64.177501
2039.000000	64.188629
2038.000000	64.210266
2037.000000	64.246685
2036.000000	64.299289
2035.000000	64.364642
2034.000000	64.438114
2033.000000	64.516746
2032.000000	64.597092
2031.000000	64.674509
2030.000000	64.746812
2029.000000	64.815742
2028.000000	64.883230
2027.000000	64.948984
2026.000000	65.013102
2025.000000	65.077647
2024.000000	65.143425
2023.000000	65.208089
2022.000000	65.269675
2021.000000	65.329558
2020.000000	65.389981
2019.000000	65.451202
2018.000000	65.513181
2017.000000	65.577347
2016.000000	65.644409
2015.000000	65.712938
2014.000000	65.781861
2013.000000	65.851772
2012.000000	65.922232
2011.000000	65.990771
2010.000000	66.056821
2009.000000	66.123979
2008.000000	66.196008
2007.000000	66.273128
2006.000000	66.353981
2005.000000	66.437856
2004.000000	66.522358
2003.000000	66.601865
2002.000000	66.671599
2001.000000	66.731149
2000.000000	66.782167
1999.000000	66.825775
1998.000000	66.864402
1997.000000	66.903488
1996.000000	66.948756
1995.000000	67.002397
1994.000000	67.062863
1993.000000	67.127028
1992.000000	67.191338
1991.000000	67.253260
1990.000000	67.313476
1989.000000	67.374755
1988.000000	67.438323
1987.000000	67.502859
1986.000000	67.567209
1985.000000	67.632154
1984.000000	67.698242
1983.000000	67.764162
1982.000000	67.828740
1981.000000	67.892642
1980.000000	67.957023
1979.000000	68.022354
1978.000000	68.089224
1977.000000	68.158408
1976.000000	68.229641
1975.000000	68.301247
1974.000000	68.371164
1973.000000	68.437345
1972.000000	68.497557
1971.000000	68.550502
1970.000000	68.597037
1969.000000	68.639501
1968.000000	68.679508
1967.000000	68.717138
1966.000000	68.752447
1965.000000	68.785862
1964.000000	68.816332
1963.000000	68.840041
1962.000000	68.851848
1961.000000	68.848073
1960.000000	68.828290
1959.000000	68.796500
1958.000000	68.760786
1957.000000	68.730168
1956.000000	68.710881
1955.000000	68.705245
1954.000000	68.712985
1953.000000	68.732379
1952.000000	68.760205
1951.000000	68.792119
1950.000000	68.824623
1949.000000	68.855884
1948.000000	68.883995
1947.000000	68.906967
1946.000000	68.925130
1945.000000	68.940533
1944.000000	68.953120
1943.000000	68.960253
1942.000000	68.961243
1941.000000	68.960087
1940.000000	68.961978
1939.000000	68.968903
1938.000000	68.979971
1937.000000	68.993180
1936.000000	69.005463
1935.000000	69.013406
1934.000000	69.015180
1933.000000	69.010860
1932.000000	69.000261
1931.000000	68.982972
1930.000000	68.961806
1929.000000	68.942875
1928.000000	68.930626
1927.000000	68.926516
1926.000000	68.932847
1925.000000	68.952236
1924.000000	68.981779
1923.000000	69.012198
1922.000000	69.037212
1921.000000	69.058512
1920.000000	69.077209
1919.000000	69.088440
1918.000000	69.088762
1917.000000	69.082412
1916.000000	69.075572
1915.000000	69.069421
1914.000000	69.063056
1913.000000	69.058024
1912.000000	69.055061
1911.000000	69.051080
1910.000000	69.044559
1909.000000	69.039006
1908.000000	69.037069
1907.000000	69.037249
1906.000000	69.039244
1905.000000	69.046788
1904.000000	69.061844
1903.000000	69.081517
1902.000000	69.105616
1901.000000	69.139527
1900.000000	69.185564
1899.000000	69.239474
1898.000000	69.297563
1897.000000	69.360471
1896.000000	69.426198
1895.000000	69.486116
1894.000000	69.534676
1893.000000	69.576545
1892.000000	69.617712
1891.000000	69.656623
1890.000000	69.689258
1889.000000	69.716734
1888.000000	69.743279
1887.000000	69.771250
1886.000000	69.802173
1885.000000	69.838169
1884.000000	69.878056
1883.000000	69.916753
1882.000000	69.952977
1881.000000	69.991388
1880.000000	70.033903
1879.000000	70.075837
1878.000000	70.113439
1877.000000	70.149130
1876.000000	70.185567
1875.000000	70.220218
1874.000000	70.251080
1873.000000	70.283193
1872.000000	70.322399
1871.000000	70.367099
1870.000000	70.412982
1869.000000	70.460124
1868.000000	70.507237
1867.000000	70.548395
1866.000000	70.582482
1865.000000	70.614791
1864.000000	70.648795
1863.000000	70.682092
1862.000000	70.712222
1861.000000	70.743535
1860.000000	70.781908
1859.000000	70.826698
1858.000000	70.874380
1857.000000	70.925094
1856.000000	70.978431
1855.000000	71.028552
1854.000000	71.069564
1853.000000	71.101920
1852.000000	71.129450
1851.000000	71.153998
1850.000000	71.177870
1849.000000	71.206881
1848.000000	71.245981
1847.000000	71.293198
1846.000000	71.341041
1845.000000	71.383182
1844.000000	71.417101
1843.000000	71.444339
1842.000000	71.472790
1841.000000	71.510042
1840.000000	71.554690
1839.000000	71.600321
1838.000000	71.641539
1837.000000	71.675889
1836.000000	71.702716
1835.000000	71.722877
1834.000000	71.741459
1833.000000	71.765799
1832.000000	71.800456
1831.000000	71.844761
1830.000000	71.892950
1829.000000	71.938127
1828.000000	71.981904
1827.000000	72.030060
1826.000000	72.080534
1825.000000	72.126819
1824.000000	72.164082
1823.000000	72.192053
1822.000000	72.214497
1821.000000	72.237549
1820.000000	72.267923
1819.000000	72.306892
1818.000000	72.349891
1817.000000	72.394723
1816.000000	72.441530
1815.000000	72.484534
1814.000000	72.514910
1813.000000	72.531192
1812.000000	72.539364
1811.000000	72.540549
1810.000000	72.530611
1809.000000	72.515413
1808.000000	72.506966
1807.000000	72.506188
1806.000000	72.505796
1805.000000	72.504937
1804.000000	72.508786
1803.000000	72.517548
1802.000000	72.527513
1801.000000	72.541051
1800.000000	72.562708
1799.000000	72.588120
1798.000000	72.610561
1797.000000	72.633279
1796.000000	72.661657
1795.000000	72.689414
1794.000000	72.703396
1793.000000	72.702448
1792.000000	72.700559
1791.000000	72.705875
1790.000000	72.718798
1789.000000	72.743276
1788.000000	72.779687
1787.000000	72.818438
1786.000000	72.847514
1785.000000	72.864267
1784.000000	72.873921
1783.000000	72.878463
1782.000000	72.875942
1781.000000	72.868613
1780.000000	72.863752
1779.000000	72.867965
1778.000000	72.885233
1777.000000	72.919697
1776.000000	72.973226
1775.000000	73.040286
1774.000000	73.108661
1773.000000	73.167623
1772.000000	73.214298
1771.000000	73.249263
1770.000000	73.276626
1769.000000	73.303580
1768.000000	73.338379
1767.000000	73.384521
1766.000000	73.435178
1765.000000	73.482944
1764.000000	73.526569
1763.000000	73.567496
1762.000000	73.601302
1761.000000	73.621486
1760.000000	73.635835
1759.000000	73.658045
1758.000000	73.689144
1757.000000	73.719663
1756.000000	73.743316
1755.000000	73.763458
1754.000000	73.780666
1753.000000	73.787946
1752.000000	73.789606
1751.000000	73.808646
1750.000000	73.858673
1749.000000	73.926794
1748.000000	73.996173
1747.000000	74.062232
1746.000000	74.124609
1745.000000	74.179649
1744.000000	74.226538
1743.000000	74.268685
1742.000000	74.303958
1741.000000	74.325759
1740.000000	74.336307
1739.000000	74.347959
1738.000000	74.369521
1737.000000	74.399982
1736.000000	74.427860
1735.000000	74.443938
1734.000000	74.452712
1733.000000	74.454692
1732.000000	74.456105
1731.000000	74.466499
1730.000000	74.479559
1729.000000	74.484745
1728.000000	74.479864
1727.000000	74.471558
1726.000000	74.465468
1725.000000	74.463360
1724.000000	74.467527
1723.000000	74.480074
1722.000000	74.500853
1721.000000	74.530022
1720.000000	74.566453
1719.000000	74.602482
1718.000000	74.625194
1717.000000	74.632613
1716.000000	74.637704
1715.000000	74.645514
1714.000000	74.652815
1713.000000	74.663716
1712.000000	74.686018
1711.000000	74.719829
1710.000000	74.759495
1709.000000	74.804638
1708.000000	74.860673
1707.000000	74.926523
1706.000000	74.992386
1705.000000	75.052120
1704.000000	75.107467
1703.000000	75.160877
1702.000000	75.204382
1701.000000	75.244318
1700.000000	75.297162
1699.000000	75.343977
1698.000000	75.376301
1697.000000	75.417617
1696.000000	75.482054
1695.000000	75.553214
1694.000000	75.610564
1693.000000	75.660669
1692.000000	75.712815
1691.000000	75.767105
1690.000000	75.819937
1689.000000	75.864182
1688.000000	75.895764
1687.000000	75.918037
1686.000000	75.935346
1685.000000	75.961235
1684.000000	76.002885
1683.000000	76.034768
1682.000000	76.053977
1681.000000	76.075277
1680.000000	76.096071
1679.000000	76.116188
1678.000000	76.134931
1677.000000	76.140422
1676.000000	76.122575
1675.000000	76.092701
1674.000000	76.064302
1673.000000	76.034576
1672.000000	76.001453
1671.000000	75.975681
1670.000000	75.968089
1669.000000	75.960576
1668.000000	75.928579
1667.000000	75.886036
1666.000000	75.854767
1665.000000	75.829192
1664.000000	75.794254
1663.000000	75.749386
1662.000000	75.696148
1661.000000	75.618961
1660.000000	75.504496
1659.000000	75.368057
1658.000000	75.237404
1657.000000	75.119219
1656.000000	74.992790
1655.000000	74.828800
1654.000000	74.597444
1653.000000	74.253825
1652.000000	73.803536
1651.000000	73.346205
1650.000000	72.894492
1649.000000	72.317027
1648.000000	71.424058
1647.000000	70.080538
1646.000000	68.334659
1645.000000	66.338679
1644.000000	64.143532
1643.000000	61.663582
1642.000000	58.815092
1641.000000	55.650633
1640.000000	52.420988
1639.000000	49.423733
1638.000000	46.803305
1637.000000	44.584691
1636.000000	42.923567
1635.000000	42.118636
1634.000000	42.210628
1633.000000	42.947045
1632.000000	44.084785
1631.000000	45.482630
1630.000000	47.073484
1629.000000	48.825895
1628.000000	50.685513
1627.000000	52.531045
1626.000000	54.277458
1625.000000	55.982066
1624.000000	57.744743
1623.000000	59.511844
1622.000000	61.088734
1621.000000	62.385136
1620.000000	63.479519
1619.000000	64.479299
1618.000000	65.450854
1617.000000	66.419281
1616.000000	67.324802
1615.000000	68.061555
1614.000000	68.620237
1613.000000	69.083907
1612.000000	69.517983
1611.000000	69.910365
1610.000000	70.205562
1609.000000	70.384434
1608.000000	70.454694
1607.000000	70.392660
1606.000000	70.154365
1605.000000	69.717977
1604.000000	69.079042
1603.000000	68.216324
1602.000000	67.119021
1601.000000	65.847487
1600.000000	64.524506
1599.000000	63.273878
1598.000000	62.178440
1597.000000	61.282999
1596.000000	60.597082
1595.000000	60.076948
1594.000000	59.632523
1593.000000	59.184089
1592.000000	58.700875
1591.000000	58.175111
1590.000000	57.595442
1589.000000	56.960292
1588.000000	56.284052
1587.000000	55.563832
1586.000000	54.767757
1585.000000	53.876080
1584.000000	52.908731
1583.000000	51.890954
1582.000000	50.822853
1581.000000	49.712872
1580.000000	48.597742
1579.000000	47.461342
1578.000000	46.143185
1577.000000	44.404125
1576.000000	42.264781
1575.000000	40.162193
1574.000000	38.445495
1573.000000	37.046992
1572.000000	35.764291
1571.000000	34.497154
1570.000000	33.285305
1569.000000	32.259127
1568.000000	31.537023
1567.000000	31.154759
1566.000000	31.050482
1565.000000	31.120891
1564.000000	31.322121
1563.000000	31.676347
1562.000000	32.205894
1561.000000	32.916050
1560.000000	33.913270
1559.000000	35.317325
1558.000000	36.805277
1557.000000	37.982450
1556.000000	38.910025
1555.000000	39.774921
1554.000000	40.617247
1553.000000	41.362412
1552.000000	41.978526
1551.000000	42.547693
1550.000000	43.159599
1549.000000	43.829367
1548.000000	44.542726
1547.000000	45.333176
1546.000000	46.247793
1545.000000	47.266692
1544.000000	48.310174
1543.000000	49.332600
1542.000000	50.355427
1541.000000	51.404970
1540.000000	52.444728
1539.000000	53.376277
1538.000000	54.150407
1537.000000	54.809047
1536.000000	55.429714
1535.000000	56.094410
1534.000000	56.844242
1533.000000	57.617737
1532.000000	58.324795
1531.000000	58.967627
1530.000000	59.590383
1529.000000	60.200243
1528.000000	60.784589
1527.000000	61.341615
1526.000000	61.862967
1525.000000	62.324384
1524.000000	62.727876
1523.000000	63.114343
1522.000000	63.510750
1521.000000	63.885874
1520.000000	64.210872
1519.000000	64.520865
1518.000000	64.848586
1517.000000	65.175010
1516.000000	65.471111
1515.000000	65.741115
1514.000000	65.999039
1513.000000	66.239251
1512.000000	66.465240
1511.000000	66.698414
1510.000000	66.943775
1509.000000	67.186553
1508.000000	67.436998
1507.000000	67.728892
1506.000000	68.020452
1505.000000	68.250201
1504.000000	68.447685
1503.000000	68.663400
1502.000000	68.900145
1501.000000	69.129798
1500.000000	69.340206
1499.000000	69.546690
1498.000000	69.746110
1497.000000	69.909844
1496.000000	70.040510
1495.000000	70.172818
1494.000000	70.312493
1493.000000	70.440367
1492.000000	70.564951
1491.000000	70.723483
1490.000000	70.916565
1489.000000	71.095751
1488.000000	71.241612
1487.000000	71.366809
1486.000000	71.453555
1485.000000	71.464619
1484.000000	71.393647
1483.000000	71.254036
1482.000000	71.027672
1481.000000	70.679981
1480.000000	70.209371
1479.000000	69.600291
1478.000000	68.748172
1477.000000	67.534524
1476.000000	65.965484
1475.000000	64.120630
1474.000000	61.995271
1473.000000	59.613949
1472.000000	57.298597
1471.000000	55.464920
1470.000000	54.210582
1469.000000	53.406926
1468.000000	52.978093
1467.000000	52.955320
1466.000000	53.409920
1465.000000	54.336626
1464.000000	55.544774
1463.000000	56.732277
1462.000000	57.681757
1461.000000	58.313015
1460.000000	58.595655
1459.000000	58.473653
1458.000000	57.851325
1457.000000	56.793634
1456.000000	55.709196
1455.000000	54.964587
1454.000000	54.551152
1453.000000	54.316353
1452.000000	54.173777
1451.000000	54.104581
1450.000000	54.117718
1449.000000	54.233739
1448.000000	54.469109
1447.000000	54.796313
1446.000000	55.162521
1445.000000	55.550835
1444.000000	55.989688
1443.000000	56.519387
1442.000000	57.170524
1441.000000	57.959624
1440.000000	58.892429
1439.000000	59.983424
1438.000000	61.266630
1437.000000	62.715468
1436.000000	64.122559
1435.000000	65.253681
1434.000000	66.096267
1433.000000	66.769137
1432.000000	67.344755
1431.000000	67.837637
1430.000000	68.256198
1429.000000	68.617962
1428.000000	68.931224
1427.000000	69.204372
1426.000000	69.461821
1425.000000	69.720992
1424.000000	69.970380
1423.000000	70.192460
1422.000000	70.392667
1421.000000	70.584859
1420.000000	70.770736
1419.000000	70.949688
1418.000000	71.122373
1417.000000	71.291806
1416.000000	71.459510
1415.000000	71.622311
1414.000000	71.783555
1413.000000	71.946082
1412.000000	72.103839
1411.000000	72.256006
1410.000000	72.414049
1409.000000	72.585578
1408.000000	72.763261
1407.000000	72.937927
1406.000000	73.111839
1405.000000	73.279459
1404.000000	73.410119
1403.000000	73.474848
1402.000000	73.461631
1401.000000	73.344702
1400.000000	73.079083
1399.000000	72.674603
1398.000000	72.251070
1397.000000	71.969537
1396.000000	71.929221
1395.000000	72.122868
1394.000000	72.436002
1393.000000	72.727181
1392.000000	72.944882
1391.000000	73.139671
1390.000000	73.392786
1389.000000	73.756251
1388.000000	74.227820
1387.000000	74.750152
1386.000000	75.241033
1385.000000	75.639286
1384.000000	75.922152
1383.000000	76.100436
1382.000000	76.210796
1381.000000	76.291515
1380.000000	76.355995
1379.000000	76.393366
1378.000000	76.382578
1377.000000	76.279231
1376.000000	75.968261
1375.000000	75.229864
1374.000000	73.765098
1373.000000	71.321961
1372.000000	67.872355
1371.000000	63.739424
1370.000000	59.641297
1369.000000	56.548249
1368.000000	55.223534
1367.000000	55.712553
1366.000000	57.348246
1365.000000	59.224398
1364.000000	60.572858
1363.000000	60.925484
1362.000000	60.266200
1361.000000	59.104628
1360.000000	58.240275
1359.000000	58.346474
1358.000000	59.656822
1357.000000	61.883789
1356.000000	64.439255
1355.000000	66.795656
1354.000000	68.703333
1353.000000	70.160860
1352.000000	71.262395
1351.000000	72.099639
1350.000000	72.748678
1349.000000	73.266732
1348.000000	73.688321
1347.000000	74.044132
1346.000000	74.370399
1345.000000	74.688477
1344.000000	74.993229
1343.000000	75.272463
1342.000000	75.529306
1341.000000	75.772763
1340.000000	75.999021
1339.000000	76.200731
1338.000000	76.383153
1337.000000	76.555839
1336.000000	76.715495
1335.000000	76.847270
1334.000000	76.930543
1333.000000	76.921249
1332.000000	76.738829
1331.000000	76.287577
1330.000000	75.497799
1329.000000	74.350923
1328.000000	72.853631
1327.000000	70.997558
1326.000000	68.770416
1325.000000	66.257850
1324.000000	63.776997
1323.000000	61.836084
1322.000000	60.836969
1321.000000	60.788947
1320.000000	61.343198
1319.000000	62.093850
1318.000000	62.834018
1317.000000	63.550395
1316.000000	64.272378
1315.000000	65.001109
1314.000000	65.739665
1313.000000	66.527073
1312.000000	67.415979
1311.000000	68.422876
1310.000000	69.498205
1309.000000	70.534690
1308.000000	71.409905
1307.000000	72.040655
1306.000000	72.407851
1305.000000	72.520136
1304.000000	72.372454
1303.000000	71.941560
1302.000000	71.204937
1301.000000	70.174288
1300.000000	68.939928
1299.000000	67.701643
1298.000000	66.712663
1297.000000	66.143429
1296.000000	65.982589
1295.000000	66.053766
1294.000000	66.110933
1293.000000	65.926963
1292.000000	65.345637
1291.000000	64.301920
1290.000000	62.798684
1289.000000	60.880644
1288.000000	58.675583
1287.000000	56.472542
1286.000000	54.689374
1285.000000	53.685315
1284.000000	53.578848
1283.000000	54.237536
1282.000000	55.435568
1281.000000	56.996163
1280.000000	58.789304
1279.000000	60.630521
1278.000000	62.245426
1277.000000	63.374850
1276.000000	63.906322
1275.000000	63.909353
1274.000000	63.579113
1273.000000	63.167337
1272.000000	62.937037
1271.000000	63.112985
1270.000000	63.803415
1269.000000	64.946874
1268.000000	66.349557
1267.000000	67.793762
1266.000000	69.128891
1265.000000	70.292131
1264.000000	71.279304
1263.000000	72.112073
1262.000000	72.818952
1261.000000	73.422252
1260.000000	73.931681
1259.000000	74.354001
1258.000000	74.708911
1257.000000	75.020362
1256.000000	75.302731
1255.000000	75.564071
1254.000000	75.812474
1253.000000	76.051862
1252.000000	76.274835
1251.000000	76.472958
1250.000000	76.649966
1249.000000	76.815809
1248.000000	76.975698
1247.000000	77.134019
1246.000000	77.301173
1245.000000	77.484136
1244.000000	77.674036
1243.000000	77.853265
1242.000000	78.009232
1241.000000	78.133113
1240.000000	78.214457
1239.000000	78.249524
1238.000000	78.251661
1237.000000	78.241304
1236.000000	78.230175
1235.000000	78.223332
1234.000000	78.225527
1233.000000	78.234366
1232.000000	78.232393
1231.000000	78.197318
1230.000000	78.117547
1229.000000	77.987501
1228.000000	77.798312
1227.000000	77.542144
1226.000000	77.216028
1225.000000	76.812193
1224.000000	76.300306
1223.000000	75.634383
1222.000000	74.767664
1221.000000	73.652153
1220.000000	72.250647
1219.000000	70.556778
1218.000000	68.611048
1217.000000	66.492680
1216.000000	64.304966
1215.000000	62.176143
1214.000000	60.256095
1213.000000	58.694524
1212.000000	57.612301
1211.000000	57.075849
1210.000000	57.056439
1209.000000	57.427038
1208.000000	58.003315
1207.000000	58.594903
1206.000000	59.047629
1205.000000	59.254074
1204.000000	59.152473
1203.000000	58.727757
1202.000000	58.017437
1201.000000	57.119480
1200.000000	56.196949
1199.000000	55.457116
1198.000000	55.089764
1197.000000	55.195765
1196.000000	55.769091
1195.000000	56.724358
1194.000000	57.945272
1193.000000	59.325895
1192.000000	60.781930
1191.000000	62.255806
1190.000000	63.707884
1189.000000	65.106813
1188.000000	66.425048
1187.000000	67.639983
1186.000000	68.738136
1185.000000	69.716680
1184.000000	70.580597
1183.000000	71.338277
1182.000000	72.004007
1181.000000	72.589472
1180.000000	73.098832
1179.000000	73.536046
1178.000000	73.907616
1177.000000	74.218934
1176.000000	74.463873
1175.000000	74.630081
1174.000000	74.710178
1173.000000	74.691264
1172.000000	74.546728
1171.000000	74.234803
1170.000000	73.705927
1169.000000	72.910159
1168.000000	71.803727
1167.000000	70.387592
1166.000000	68.744255
1165.000000	67.042625
1164.000000	65.508150
1163.000000	64.370800
1162.000000	63.791780
1161.000000	63.811380
1160.000000	64.351052
1159.000000	65.250540
1158.000000	66.332506
1157.000000	67.442713
1156.000000	68.469555
1155.000000	69.351292
1154.000000	70.067315
1153.000000	70.619822
1152.000000	71.014104
1151.000000	71.251808
1150.000000	71.327662
1149.000000	71.231691
1148.000000	70.937459
1147.000000	70.407633
1146.000000	69.603148
1145.000000	68.468591
1144.000000	66.938566
1143.000000	64.948465
1142.000000	62.470668
1141.000000	59.558203
1140.000000	56.366273
1139.000000	53.141898
1138.000000	50.135526
1137.000000	47.487060
1136.000000	45.175469
1135.000000	43.079362
1134.000000	41.098437
1133.000000	39.296147
1132.000000	37.963105
1131.000000	37.511311
1130.000000	38.280765
1129.000000	40.331450
1128.000000	43.391837
1127.000000	46.952136
1126.000000	50.419350
1125.000000	53.270169
1124.000000	55.130735
1123.000000	55.794446
1122.000000	55.216764
1121.000000	53.507341
1120.000000	50.859683
1119.000000	47.524399
1118.000000	43.848378
1117.000000	40.342950
1116.000000	37.669763
1115.000000	36.451461
1114.000000	36.982518
1113.000000	39.069116
1112.000000	42.110720
1111.000000	45.299535
1110.000000	47.904398
1109.000000	49.544631
1108.000000	50.329540
1107.000000	50.747822
1106.000000	51.333976
1105.000000	52.349291
1104.000000	53.687615
1103.000000	54.992350
1102.000000	55.812126
1101.000000	55.759239
1100.000000	54.670294
1099.000000	52.766155
1098.000000	50.679989
1097.000000	49.240990
1096.000000	49.091682
1095.000000	50.386484
1094.000000	52.763281
1093.000000	55.595406
1092.000000	58.336277
1091.000000	60.695091
1090.000000	62.618635
1089.000000	64.173059
1088.000000	65.441565
1087.000000	66.490385
1086.000000	67.374946
1085.000000	68.140329
1084.000000	68.814196
1083.000000	69.419776
1082.000000	69.977577
1081.000000	70.498916
1080.000000	70.977587
1079.000000	71.394074
1078.000000	71.732811
1077.000000	71.974265
1076.000000	72.085484
1075.000000	72.026541
1074.000000	71.750617
1073.000000	71.203633
1072.000000	70.290911
1071.000000	68.869331
1070.000000	66.756241
1069.000000	63.714458
1068.000000	59.525885
1067.000000	54.135141
1066.000000	47.845092
1065.000000	41.403085
1064.000000	35.827649
1063.000000	31.968945
1062.000000	30.023725
1061.000000	29.374602
1060.000000	28.946292
1059.000000	27.901000
1058.000000	26.144201
1057.000000	24.365758
1056.000000	23.581254
1055.000000	24.467221
1054.000000	27.019708
1053.000000	30.665715
1052.000000	34.673942
1051.000000	38.502110
1050.000000	41.883751
1049.000000	44.775533
1048.000000	47.252520
1047.000000	49.420256
1046.000000	51.351114
1045.000000	53.075544
1044.000000	54.598266
1043.000000	55.928816
1042.000000	57.089768
1041.000000	58.101465
1040.000000	58.984641
1039.000000	59.758039
1038.000000	60.437472
1037.000000	61.031406
1036.000000	61.538693
1035.000000	61.961933
1034.000000	62.308664
1033.000000	62.587081
1032.000000	62.806805
1031.000000	62.982853
1030.000000	63.137299
1029.000000	63.287243
1028.000000	63.436905
1027.000000	63.582280
1026.000000	63.713515
1025.000000	63.813466
1024.000000	63.856761
1023.000000	63.818363
1022.000000	63.684103
1021.000000	63.443725
1020.000000	63.086550
1019.000000	62.598226
1018.000000	61.955168
1017.000000	61.122134
1016.000000	60.049180
1015.000000	58.700740
1014.000000	57.094136
1013.000000	55.330535
1012.000000	53.599091
1011.000000	52.122601
1010.000000	51.045667
1009.000000	50.330993
1008.000000	49.772658
1007.000000	49.150884
1006.000000	48.447013
1005.000000	47.925665
1004.000000	47.993666
1003.000000	48.923113
1002.000000	50.641250
1001.000000	52.777415
1000.000000	54.875262
999.000000	56.587937
998.000000	57.745797
997.000000	58.322051
996.000000	58.388459
995.000000	58.100291
994.000000	57.690050
993.000000	57.426485
992.000000	57.540714
991.000000	58.139929
990.000000	59.162886
989.000000	60.423317
988.000000	61.720267
987.000000	62.921067
986.000000	63.977438
985.000000	64.891053
984.000000	65.677125
983.000000	66.350976
982.000000	66.927109
981.000000	67.415298
980.000000	67.821240
979.000000	68.159280
978.000000	68.453003
977.000000	68.726749
976.000000	68.996628
975.000000	69.271226
974.000000	69.555282
973.000000	69.844082
972.000000	70.122952
971.000000	70.377289
970.000000	70.601537
969.000000	70.797635
968.000000	70.970574
967.000000	71.131174
966.000000	71.295704
965.000000	71.474256
964.000000	71.662987
963.000000	71.850470
962.000000	72.027717
961.000000	72.188460
960.000000	72.327149
959.000000	72.445927
958.000000	72.559410
957.000000	72.685516
956.000000	72.833072
955.000000	73.001300
954.000000	73.184627
953.000000	73.370321
952.000000	73.537542
951.000000	73.669152
950.000000	73.764268
949.000000	73.835873
948.000000	73.901489
947.000000	73.980980
946.000000	74.094736
945.000000	74.252021
944.000000	74.441998
943.000000	74.641161
942.000000	74.827033
941.000000	74.981509
940.000000	75.090242
939.000000	75.151905
938.000000	75.185913
937.000000	75.221717
936.000000	75.281365
935.000000	75.375727
934.000000	75.508001
933.000000	75.669183
932.000000	75.834685
931.000000	75.977919
930.000000	76.087624
929.000000	76.167703
928.000000	76.226899
927.000000	76.278114
926.000000	76.341129
925.000000	76.431370
924.000000	76.545712
923.000000	76.666875
922.000000	76.779115
921.000000	76.872733
920.000000	76.940669
919.000000	76.984953
918.000000	77.024676
917.000000	77.085276
916.000000	77.179477
915.000000	77.304636
914.000000	77.451403
913.000000	77.603565
912.000000	77.732473
911.000000	77.808255
910.000000	77.815934
909.000000	77.750564
908.000000	77.600866
907.000000	77.343252
906.000000	76.952128
905.000000	76.396308
904.000000	75.639090
903.000000	74.682337
902.000000	73.633002
901.000000	72.715003
900.000000	72.183853
899.000000	72.190631
898.000000	72.695309
897.000000	73.507891
896.000000	74.404810
895.000000	75.233924
894.000000	75.944780
893.000000	76.541676
892.000000	77.035815
891.000000	77.431873
890.000000	77.738616
889.000000	77.967633
888.000000	78.128604
887.000000	78.225827
886.000000	78.252421
885.000000	78.175529
884.000000	77.941290
883.000000	77.531605
882.000000	77.008813
881.000000	76.481449
880.000000	76.008723
879.000000	75.553308
878.000000	75.049125
877.000000	74.515240
876.000000	74.100246
875.000000	73.998007
874.000000	74.310001
873.000000	74.965544
872.000000	75.768046
871.000000	76.517741
870.000000	77.105360
869.000000	77.519818
868.000000	77.799659
867.000000	77.997915
866.000000	78.167718
865.000000	78.348643
864.000000	78.551814
863.000000	78.766227
862.000000	78.974819
861.000000	79.158439
860.000000	79.294943
859.000000	79.370297
858.000000	79.394026
857.000000	79.393301
856.000000	79.393321
855.000000	79.412127
854.000000	79.465278
853.000000	79.559495
852.000000	79.681330
851.000000	79.804400
850.000000	79.908804
849.000000	79.986234
848.000000	80.033043
847.000000	80.052924
846.000000	80.064441
845.000000	80.091589
844.000000	80.145185
843.000000	80.220611
842.000000	80.309280
841.000000	80.400794
840.000000	80.478696
839.000000	80.529429
838.000000	80.557069
837.000000	80.579025
836.000000	80.609293
835.000000	80.655542
834.000000	80.726595
833.000000	80.826954
832.000000	80.944128
831.000000	81.054047
830.000000	81.139988
829.000000	81.197660
828.000000	81.227411
827.000000	81.237032
826.000000	81.250696
825.000000	81.297924
824.000000	81.390604
823.000000	81.519937
822.000000	81.671213
821.000000	81.826403
820.000000	81.957570
819.000000	82.037719
818.000000	82.061274
817.000000	82.043321
816.000000	82.002134
815.000000	81.955431
814.000000	81.926459
813.000000	81.932455
812.000000	81.964709
811.000000	81.990063
810.000000	81.971681
809.000000	81.878287
808.000000	81.677429
807.000000	81.343486
806.000000	80.871223
805.000000	80.267933
804.000000	79.531424
803.000000	78.638969
802.000000	77.559547
801.000000	76.253356
800.000000	74.669600
799.000000	72.770105
798.000000	70.556049
797.000000	68.079064
796.000000	65.426541
795.000000	62.713299
794.000000	60.074872
793.000000	57.650396
792.000000	55.562463
791.000000	53.908086
790.000000	52.759377
789.000000	52.149384
788.000000	52.064461
787.000000	52.439214
786.000000	53.174203
785.000000	54.160348
784.000000	55.285674
783.000000	56.444428
782.000000	57.540782
781.000000	58.491547
780.000000	59.222912
779.000000	59.682924
778.000000	59.863469
777.000000	59.801584
776.000000	59.551241
775.000000	59.157715
774.000000	58.666923
773.000000	58.148304
772.000000	57.708617
771.000000	57.479142
770.000000	57.582930
769.000000	58.086176
768.000000	58.966013
767.000000	60.122933
766.000000	61.433520
765.000000	62.801452
764.000000	64.167866
763.000000	65.503992
762.000000	66.801346
761.000000	68.057159
760.000000	69.254828
759.000000	70.363796
758.000000	71.361166
757.000000	72.242804
756.000000	73.014704
755.000000	73.687331
754.000000	74.283865
753.000000	74.835103
752.000000	75.358554
751.000000	75.852142
750.000000	76.307459
749.000000	76.718126
748.000000	77.074179
747.000000	77.367650
746.000000	77.610054
745.000000	77.830592
744.000000	78.053208
743.000000	78.285892
742.000000	78.529938
741.000000	78.780641
740.000000	79.014404
739.000000	79.194316
738.000000	79.296945
737.000000	79.323014
736.000000	79.283176
735.000000	79.191247
734.000000	79.074456
733.000000	78.969170
732.000000	78.897131
731.000000	78.856561
730.000000	78.836565
729.000000	78.821724
728.000000	78.781790
727.000000	78.677569
726.000000	78.484701
725.000000	78.202407
724.000000	77.835720
723.000000	77.378268
722.000000	76.804872
721.000000	76.064323
720.000000	75.083904
719.000000	73.813601
718.000000	72.284679
717.000000	70.625027
716.000000	69.021235
715.000000	67.667045
714.000000	66.727286
713.000000	66.301254
712.000000	66.388137
711.000000	66.892936
710.000000	67.684855
709.000000	68.650145
708.000000	69.698024
707.000000	70.755530
706.000000	71.780547
705.000000	72.765449
704.000000	73.709921
703.000000	74.603007
702.000000	75.437509
701.000000	76.217300
700.000000	76.935798
699.000000	77.570077
698.000000	78.107064
697.000000	78.558467
696.000000	78.942075
695.000000	79.268977
694.000000	79.561672
693.000000	79.857486
692.000000	80.175893
691.000000	80.503256
690.000000	80.818179
689.000000	81.109733
688.000000	81.359362
687.000000	81.534940
686.000000	81.626481
685.000000	81.663143
684.000000	81.679831
683.000000	81.693098
682.000000	81.723283
681.000000	81.804618
680.000000	81.948280
679.000000	82.124692
678.000000	82.302811
677.000000	82.465129
676.000000	82.587449
675.000000	82.646494
674.000000	82.648485
673.000000	82.653060
672.000000	82.779029
671.000000	83.157811
670.000000	83.816426
669.000000	84.539998
668.000000	84.870779
667.000000	84.542427
666.000000	83.875749
665.000000	83.325116
664.000000	83.056487
663.000000	82.996141
662.000000	83.011540
661.000000	83.029113
660.000000	83.031981
659.000000	83.019479
658.000000	82.997623
657.000000	82.970458
656.000000	82.934450
655.000000	82.899252
654.000000	82.884470
653.000000	82.897254
652.000000	82.935402
651.000000	82.999511
650.000000	83.082935
649.000000	83.156149
648.000000	83.180563
647.000000	83.136117
646.000000	83.025073
645.000000	82.859106
644.000000	82.656590
643.000000	82.449552
642.000000	82.279116
641.000000	82.174255
640.000000	82.142052
639.000000	82.174494
638.000000	82.247544
637.000000	82.316523
636.000000	82.330317
635.000000	82.255724
634.000000	82.088122
633.000000	81.843324
632.000000	81.549255
631.000000	81.247497
630.000000	80.985004
629.000000	80.791223
628.000000	80.668174
627.000000	80.599937
626.000000	80.556554
625.000000	80.495337
624.000000	80.373166
623.000000	80.166843
622.000000	79.882304
621.000000	79.543951
620.000000	79.177928
619.000000	78.800522
618.000000	78.410796
617.000000	77.992622
616.000000	77.535639
615.000000	77.049908
614.000000	76.547811
613.000000	76.019961
612.000000	75.442695
611.000000	74.803127
610.000000	74.096398
609.000000	73.303116
608.000000	72.393899
607.000000	71.353179
606.000000	70.180356
605.000000	68.875452
604.000000	67.446576
603.000000	65.926933
602.000000	64.352693
601.000000	62.734812
600.000000	61.076281
599.000000	59.399038
598.000000	57.718859
597.000000	56.015729
596.000000	54.274487
595.000000	52.530097
594.000000	50.833729
593.000000	49.201301
592.000000	47.649737
591.000000	46.240185
590.000000	45.023016
589.000000	43.975266
588.000000	43.039012
587.000000	42.178861
586.000000	41.346081
585.000000	40.443996
584.000000	39.400439
583.000000	38.242114
582.000000	37.054147
581.000000	35.918767
580.000000	34.940022
579.000000	34.270919
578.000000	34.024563
577.000000	34.202283
576.000000	34.739164
575.000000	35.544329
574.000000	36.474816
573.000000	37.349149
572.000000	38.066606
571.000000	38.686535
570.000000	39.362406
569.000000	40.221358
568.000000	41.308818
567.000000	42.583254
566.000000	43.915376
565.000000	45.145664
564.000000	46.186184
563.000000	47.051663
562.000000	47.794671
561.000000	48.449577
560.000000	49.049503
559.000000	49.643088
558.000000	50.259205
557.000000	50.883014
556.000000	51.490328
555.000000	52.083323
554.000000	52.669620
553.000000	53.239468
552.000000	53.788158
551.000000	54.336124
550.000000	54.904117
549.000000	55.487811
548.000000	56.077703
547.000000	56.681254
546.000000	57.304231
545.000000	57.928221
544.000000	58.527786
543.000000	59.094257
542.000000	59.627668
541.000000	60.118782
540.000000	60.557999
539.000000	60.952865
538.000000	61.322397
537.000000	61.681574
536.000000	62.040074
535.000000	62.412222
534.000000	62.809508
533.000000	63.227995
532.000000	63.646219
531.000000	64.031424
530.000000	64.348178
529.000000	64.564541
528.000000	64.653699
527.000000	64.600741
526.000000	64.400635
525.000000	64.054056
524.000000	63.574723
523.000000	63.002886
522.000000	62.411108
521.000000	61.875880
520.000000	61.432700
519.000000	61.034435
518.000000	60.518779
517.000000	59.645103
516.000000	58.214431
515.000000	56.211171
514.000000	53.840557
513.000000	51.448050
512.000000	49.405132
511.000000	48.021152
510.000000	47.459625
509.000000	47.712100
508.000000	48.678597
507.000000	50.206316
506.000000	52.080851
505.000000	54.078031
504.000000	56.048893
503.000000	57.923438
502.000000	59.630223
501.000000	61.090252
500.000000	62.280963
499.000000	63.256922
498.000000	64.097610
497.000000	64.869771
496.000000	65.619381
495.000000	66.370628
494.000000	67.132988
493.000000	67.899115
492.000000	68.640051
491.000000	69.313423
490.000000	69.884869
489.000000	70.352568
488.000000	70.738234
487.000000	71.069382
486.000000	71.376306
485.000000	71.687241
484.000000	72.014118
483.000000	72.348549
482.000000	72.684013
481.000000	73.026688
480.000000	73.378166
479.000000	73.723953
478.000000	74.038601
477.000000	74.295515
476.000000	74.461239
475.000000	74.476148
474.000000	74.254982
473.000000	73.706344
472.000000	72.789874
471.000000	71.595524
470.000000	70.334077
469.000000	69.251403
468.000000	68.551976
467.000000	68.307791
466.000000	68.355054
465.000000	68.333403
464.000000	67.883435
463.000000	66.863071
462.000000	65.493206
461.000000	64.267962
460.000000	63.691371
459.000000	64.071352
458.000000	65.385673
457.000000	67.229916
456.000000	69.084447
455.000000	70.692672
454.000000	72.048673
453.000000	73.179943
452.000000	74.048903
451.000000	74.614658
450.000000	74.877662
449.000000	74.840607
448.000000	74.468542
447.000000	73.729339
446.000000	72.681828
445.000000	71.492238
444.000000	70.396804
443.000000	69.654412
442.000000	69.453156
441.000000	69.795302
440.000000	70.518156
439.000000	71.413236
438.000000	72.315612
437.000000	73.126229
436.000000	73.773280
435.000000	74.199044
434.000000	74.398688
433.000000	74.430667
432.000000	74.361494
431.000000	74.241542
430.000000	74.130358
429.000000	74.088856
428.000000	74.126811
427.000000	74.190013
426.000000	74.216901
425.000000	74.175798
424.000000	74.041218
423.000000	73.796325
422.000000	73.469221
421.000000	73.116172
420.000000	72.777985
419.000000	72.512838
418.000000	72.411701
417.000000	72.484605
416.000000	72.644434
415.000000	72.809549
414.000000	72.954406
413.000000	73.090983
412.000000	73.210361
411.000000	73.267649
410.000000	73.251639
409.000000	73.205762
408.000000	73.159340
407.000000	73.115549
406.000000	73.119322
405.000000	73.256650
404.000000	73.507336
403.000000	73.789701
402.000000	73.994478
401.000000	74.125536
400.000000	74.213091
