PE IR       SUBTECH     SPECTRUM    ASCII       PEDS        4.00        
   -1
23MS260,273,274 trans.asc
24/09/24
15:44:46.00
24/09/24
15:44:46.00
Administrator
Sample 1194 By Administrator Date Tuesday, September 24 2024
400.000000
#HDR
-1
-1
#GR
cm-1
%T
1.0
0.0
4000.000000
-1.000000
3601
8
75.478920
3.674140
#DATA
4000.000000	37.764059
3999.000000	37.729774
3998.000000	37.694212
3997.000000	37.657371
3996.000000	37.619547
3995.000000	37.581104
3994.000000	37.541994
3993.000000	37.501326
3992.000000	37.457704
3991.000000	37.410205
3990.000000	37.359348
3989.000000	37.307097
3988.000000	37.255785
3987.000000	37.207159
3986.000000	37.162268
3985.000000	37.121758
3984.000000	37.085974
3983.000000	37.054956
3982.000000	37.028532
3981.000000	37.006506
3980.000000	36.988843
3979.000000	36.975710
3978.000000	36.967659
3977.000000	36.965424
3976.000000	36.969622
3975.000000	36.980667
3974.000000	36.998919
3973.000000	37.025366
3972.000000	37.061427
3971.000000	37.107982
3970.000000	37.164663
3969.000000	37.229815
3968.000000	37.301249
3967.000000	37.376675
3966.000000	37.453869
3965.000000	37.530854
3964.000000	37.605737
3963.000000	37.676596
3962.000000	37.741779
3961.000000	37.800593
3960.000000	37.853459
3959.000000	37.901273
3958.000000	37.944712
3957.000000	37.984469
3956.000000	38.021897
3955.000000	38.058532
3954.000000	38.095784
3953.000000	38.134619
3952.000000	38.175540
3951.000000	38.218708
3950.000000	38.263816
3949.000000	38.310047
3948.000000	38.356333
3947.000000	38.402546
3946.000000	38.449837
3945.000000	38.498883
3944.000000	38.547981
3943.000000	38.594138
3942.000000	38.636660
3941.000000	38.677923
3940.000000	38.719454
3939.000000	38.759585
3938.000000	38.795398
3937.000000	38.826226
3936.000000	38.854565
3935.000000	38.882763
3934.000000	38.911109
3933.000000	38.938746
3932.000000	38.965752
3931.000000	38.993168
3930.000000	39.020698
3929.000000	39.047218
3928.000000	39.072342
3927.000000	39.096546
3926.000000	39.118948
3925.000000	39.136996
3924.000000	39.151002
3923.000000	39.165140
3922.000000	39.182050
3921.000000	39.200314
3920.000000	39.218158
3919.000000	39.236742
3918.000000	39.257721
3917.000000	39.280245
3916.000000	39.303128
3915.000000	39.327549
3914.000000	39.355018
3913.000000	39.384660
3912.000000	39.414248
3911.000000	39.443142
3910.000000	39.472227
3909.000000	39.501997
3908.000000	39.532954
3907.000000	39.564705
3906.000000	39.595460
3905.000000	39.621329
3904.000000	39.640681
3903.000000	39.658996
3902.000000	39.683682
3901.000000	39.715065
3900.000000	39.745652
3899.000000	39.769568
3898.000000	39.789168
3897.000000	39.810158
3896.000000	39.834019
3895.000000	39.860078
3894.000000	39.888872
3893.000000	39.920614
3892.000000	39.950296
3891.000000	39.971297
3890.000000	39.986200
3889.000000	40.003553
3888.000000	40.026665
3887.000000	40.048868
3886.000000	40.060782
3885.000000	40.064914
3884.000000	40.075299
3883.000000	40.099019
3882.000000	40.127242
3881.000000	40.146453
3880.000000	40.153268
3879.000000	40.157490
3878.000000	40.169844
3877.000000	40.190628
3876.000000	40.211978
3875.000000	40.225810
3874.000000	40.232352
3873.000000	40.242443
3872.000000	40.264659
3871.000000	40.290605
3870.000000	40.303524
3869.000000	40.304837
3868.000000	40.313795
3867.000000	40.338435
3866.000000	40.366167
3865.000000	40.383400
3864.000000	40.393173
3863.000000	40.407476
3862.000000	40.428073
3861.000000	40.448087
3860.000000	40.465034
3859.000000	40.482459
3858.000000	40.505843
3857.000000	40.538046
3856.000000	40.578373
3855.000000	40.616533
3854.000000	40.633064
3853.000000	40.627179
3852.000000	40.624624
3851.000000	40.636984
3850.000000	40.651339
3849.000000	40.657576
3848.000000	40.658982
3847.000000	40.665013
3846.000000	40.679363
3845.000000	40.698362
3844.000000	40.716218
3843.000000	40.729911
3842.000000	40.741883
3841.000000	40.757242
3840.000000	40.775329
3839.000000	40.789535
3838.000000	40.798324
3837.000000	40.807359
3836.000000	40.822490
3835.000000	40.843583
3834.000000	40.867404
3833.000000	40.891187
3832.000000	40.912657
3831.000000	40.932225
3830.000000	40.953823
3829.000000	40.980445
3828.000000	41.009592
3827.000000	41.034615
3826.000000	41.052246
3825.000000	41.069221
3824.000000	41.094873
3823.000000	41.128355
3822.000000	41.156085
3821.000000	41.166427
3820.000000	41.170648
3819.000000	41.188474
3818.000000	41.220737
3817.000000	41.250350
3816.000000	41.263730
3815.000000	41.270059
3814.000000	41.288616
3813.000000	41.319651
3812.000000	41.347178
3811.000000	41.364315
3810.000000	41.380750
3809.000000	41.407713
3808.000000	41.440957
3807.000000	41.465958
3806.000000	41.481176
3805.000000	41.501175
3804.000000	41.532950
3803.000000	41.566772
3802.000000	41.584686
3801.000000	41.583489
3800.000000	41.583908
3799.000000	41.599992
3798.000000	41.622812
3797.000000	41.638865
3796.000000	41.647482
3795.000000	41.659512
3794.000000	41.682086
3793.000000	41.710287
3792.000000	41.735053
3791.000000	41.754485
3790.000000	41.772986
3789.000000	41.794238
3788.000000	41.818800
3787.000000	41.845845
3786.000000	41.873399
3785.000000	41.897981
3784.000000	41.917384
3783.000000	41.934301
3782.000000	41.953046
3781.000000	41.973559
3780.000000	41.991148
3779.000000	42.003580
3778.000000	42.015766
3777.000000	42.033036
3776.000000	42.052997
3775.000000	42.068602
3774.000000	42.078139
3773.000000	42.087043
3772.000000	42.098990
3771.000000	42.109368
3770.000000	42.112347
3769.000000	42.111565
3768.000000	42.115248
3767.000000	42.123640
3766.000000	42.129617
3765.000000	42.128585
3764.000000	42.125160
3763.000000	42.127587
3762.000000	42.136893
3761.000000	42.147366
3760.000000	42.155926
3759.000000	42.166619
3758.000000	42.183109
3757.000000	42.202354
3756.000000	42.221450
3755.000000	42.241090
3754.000000	42.262309
3753.000000	42.284222
3752.000000	42.306571
3751.000000	42.330961
3750.000000	42.355109
3749.000000	42.374003
3748.000000	42.389956
3747.000000	42.411162
3746.000000	42.439347
3745.000000	42.460336
3744.000000	42.465016
3743.000000	42.472799
3742.000000	42.496097
3741.000000	42.518866
3740.000000	42.526225
3739.000000	42.524389
3738.000000	42.530717
3737.000000	42.550221
3736.000000	42.574188
3735.000000	42.596232
3734.000000	42.618240
3733.000000	42.639735
3732.000000	42.654864
3731.000000	42.664008
3730.000000	42.674512
3729.000000	42.690596
3728.000000	42.709053
3727.000000	42.723653
3726.000000	42.734320
3725.000000	42.747268
3724.000000	42.764140
3723.000000	42.779481
3722.000000	42.789484
3721.000000	42.797892
3720.000000	42.809454
3719.000000	42.823768
3718.000000	42.836347
3717.000000	42.844118
3716.000000	42.850182
3715.000000	42.858594
3714.000000	42.868943
3713.000000	42.877965
3712.000000	42.884180
3711.000000	42.889500
3710.000000	42.895892
3709.000000	42.902553
3708.000000	42.906969
3707.000000	42.907577
3706.000000	42.905941
3705.000000	42.905276
3704.000000	42.907058
3703.000000	42.909407
3702.000000	42.909474
3701.000000	42.907298
3700.000000	42.905612
3699.000000	42.905596
3698.000000	42.904649
3697.000000	42.899163
3696.000000	42.889901
3695.000000	42.881610
3694.000000	42.875936
3693.000000	42.870610
3692.000000	42.864314
3691.000000	42.857670
3690.000000	42.848595
3689.000000	42.833158
3688.000000	42.813215
3687.000000	42.795195
3686.000000	42.781206
3685.000000	42.766169
3684.000000	42.744643
3683.000000	42.717777
3682.000000	42.692167
3681.000000	42.669690
3680.000000	42.645352
3679.000000	42.616252
3678.000000	42.585688
3677.000000	42.553424
3676.000000	42.507764
3675.000000	42.447568
3674.000000	42.391431
3673.000000	42.347946
3672.000000	42.303192
3671.000000	42.241566
3670.000000	42.164450
3669.000000	42.090681
3668.000000	42.033169
3667.000000	41.983213
3666.000000	41.925926
3665.000000	41.857569
3664.000000	41.783235
3663.000000	41.707687
3662.000000	41.631104
3661.000000	41.550748
3660.000000	41.466061
3659.000000	41.377318
3658.000000	41.282372
3657.000000	41.177427
3656.000000	41.063811
3655.000000	40.951598
3654.000000	40.846477
3653.000000	40.740720
3652.000000	40.620349
3651.000000	40.477617
3650.000000	40.318311
3649.000000	40.158007
3648.000000	40.007728
3647.000000	39.866628
3646.000000	39.728682
3645.000000	39.589304
3644.000000	39.445561
3643.000000	39.295872
3642.000000	39.140745
3641.000000	38.982442
3640.000000	38.822658
3639.000000	38.660045
3638.000000	38.492737
3637.000000	38.321291
3636.000000	38.147110
3635.000000	37.970529
3634.000000	37.793026
3633.000000	37.619394
3632.000000	37.449781
3631.000000	37.271635
3630.000000	37.067083
3629.000000	36.837237
3628.000000	36.612452
3627.000000	36.417270
3626.000000	36.241637
3625.000000	36.064086
3624.000000	35.878183
3623.000000	35.689379
3622.000000	35.500150
3621.000000	35.304195
3620.000000	35.095407
3619.000000	34.879046
3618.000000	34.668241
3617.000000	34.469500
3616.000000	34.276963
3615.000000	34.079875
3614.000000	33.873061
3613.000000	33.661957
3612.000000	33.455977
3611.000000	33.256505
3610.000000	33.055701
3609.000000	32.848284
3608.000000	32.638642
3607.000000	32.434490
3606.000000	32.237603
3605.000000	32.044005
3604.000000	31.850232
3603.000000	31.654859
3602.000000	31.457286
3601.000000	31.258108
3600.000000	31.060124
3599.000000	30.865517
3598.000000	30.672481
3597.000000	30.477184
3596.000000	30.278259
3595.000000	30.077487
3594.000000	29.878484
3593.000000	29.686021
3592.000000	29.501750
3591.000000	29.320678
3590.000000	29.133387
3589.000000	28.933535
3588.000000	28.723987
3587.000000	28.515419
3586.000000	28.317742
3585.000000	28.133020
3584.000000	27.956370
3583.000000	27.781497
3582.000000	27.605450
3581.000000	27.429554
3580.000000	27.256303
3579.000000	27.085649
3578.000000	26.915385
3577.000000	26.744868
3576.000000	26.575775
3575.000000	26.409701
3574.000000	26.247267
3573.000000	26.089894
3572.000000	25.939140
3571.000000	25.793517
3570.000000	25.648683
3569.000000	25.501497
3568.000000	25.353094
3567.000000	25.207942
3566.000000	25.070571
3565.000000	24.942374
3564.000000	24.820305
3563.000000	24.699331
3562.000000	24.576812
3561.000000	24.454863
3560.000000	24.337245
3559.000000	24.224714
3558.000000	24.115106
3557.000000	24.006830
3556.000000	23.899764
3555.000000	23.793068
3554.000000	23.685104
3553.000000	23.576149
3552.000000	23.469049
3551.000000	23.365687
3550.000000	23.264352
3549.000000	23.161311
3548.000000	23.053734
3547.000000	22.941690
3546.000000	22.828924
3545.000000	22.721433
3544.000000	22.623110
3543.000000	22.532550
3542.000000	22.445273
3541.000000	22.358073
3540.000000	22.269677
3539.000000	22.178735
3538.000000	22.084496
3537.000000	21.989234
3536.000000	21.897222
3535.000000	21.810369
3534.000000	21.726807
3533.000000	21.643730
3532.000000	21.559254
3531.000000	21.472072
3530.000000	21.381524
3529.000000	21.288584
3528.000000	21.194739
3527.000000	21.099890
3526.000000	21.003156
3525.000000	20.905595
3524.000000	20.810096
3523.000000	20.718500
3522.000000	20.630343
3521.000000	20.543938
3520.000000	20.457031
3519.000000	20.366872
3518.000000	20.271959
3517.000000	20.173504
3516.000000	20.073692
3515.000000	19.973277
3514.000000	19.872545
3513.000000	19.773076
3512.000000	19.675910
3511.000000	19.579143
3510.000000	19.480003
3509.000000	19.378489
3508.000000	19.276230
3507.000000	19.172676
3506.000000	19.065356
3505.000000	18.953751
3504.000000	18.840688
3503.000000	18.730117
3502.000000	18.624925
3501.000000	18.525845
3500.000000	18.430554
3499.000000	18.334822
3498.000000	18.236833
3497.000000	18.139497
3496.000000	18.046811
3495.000000	17.959229
3494.000000	17.874722
3493.000000	17.792646
3492.000000	17.713388
3491.000000	17.635670
3490.000000	17.557704
3489.000000	17.480337
3488.000000	17.406362
3487.000000	17.337329
3486.000000	17.273163
3485.000000	17.213550
3484.000000	17.156939
3483.000000	17.099675
3482.000000	17.039408
3481.000000	16.978832
3480.000000	16.923343
3479.000000	16.875552
3478.000000	16.834287
3477.000000	16.797385
3476.000000	16.762530
3475.000000	16.726638
3474.000000	16.687301
3473.000000	16.644357
3472.000000	16.598389
3471.000000	16.549372
3470.000000	16.499143
3469.000000	16.453181
3468.000000	16.416753
3467.000000	16.390121
3466.000000	16.369661
3465.000000	16.351733
3464.000000	16.333062
3463.000000	16.309917
3462.000000	16.280804
3461.000000	16.249002
3460.000000	16.219437
3459.000000	16.193864
3458.000000	16.171160
3457.000000	16.150398
3456.000000	16.130782
3455.000000	16.110278
3454.000000	16.087451
3453.000000	16.063605
3452.000000	16.040737
3451.000000	16.018719
3450.000000	15.996582
3449.000000	15.974942
3448.000000	15.954812
3447.000000	15.935604
3446.000000	15.916568
3445.000000	15.898457
3444.000000	15.881585
3443.000000	15.864207
3442.000000	15.844936
3441.000000	15.824595
3440.000000	15.803614
3439.000000	15.780105
3438.000000	15.753372
3437.000000	15.727167
3436.000000	15.706514
3435.000000	15.692783
3434.000000	15.683931
3433.000000	15.677483
3432.000000	15.671084
3431.000000	15.662576
3430.000000	15.652319
3429.000000	15.643796
3428.000000	15.639403
3427.000000	15.637410
3426.000000	15.634877
3425.000000	15.631230
3424.000000	15.626903
3423.000000	15.620986
3422.000000	15.613155
3421.000000	15.605799
3420.000000	15.601364
3419.000000	15.599084
3418.000000	15.596639
3417.000000	15.593114
3416.000000	15.588304
3415.000000	15.581611
3414.000000	15.574100
3413.000000	15.569399
3412.000000	15.569953
3411.000000	15.574249
3410.000000	15.579895
3409.000000	15.587235
3408.000000	15.597347
3407.000000	15.608614
3406.000000	15.617807
3405.000000	15.622818
3404.000000	15.622598
3403.000000	15.617142
3402.000000	15.610333
3401.000000	15.610273
3400.000000	15.623202
3399.000000	15.647888
3398.000000	15.677709
3397.000000	15.706344
3396.000000	15.729631
3395.000000	15.745040
3394.000000	15.753511
3393.000000	15.760826
3392.000000	15.774096
3391.000000	15.796781
3390.000000	15.827852
3389.000000	15.863781
3388.000000	15.899790
3387.000000	15.931760
3386.000000	15.959462
3385.000000	15.986352
3384.000000	16.014793
3383.000000	16.043577
3382.000000	16.071357
3381.000000	16.099596
3380.000000	16.130055
3379.000000	16.162173
3378.000000	16.195214
3377.000000	16.230516
3376.000000	16.269065
3375.000000	16.308821
3374.000000	16.346661
3373.000000	16.381246
3372.000000	16.412528
3371.000000	16.441230
3370.000000	16.470805
3369.000000	16.507215
3368.000000	16.554107
3367.000000	16.609801
3366.000000	16.670492
3365.000000	16.733579
3364.000000	16.796550
3363.000000	16.856255
3362.000000	16.912151
3361.000000	16.967913
3360.000000	17.027123
3359.000000	17.089303
3358.000000	17.152214
3357.000000	17.215361
3356.000000	17.278843
3355.000000	17.341202
3354.000000	17.401127
3353.000000	17.459753
3352.000000	17.519546
3351.000000	17.582709
3350.000000	17.651632
3349.000000	17.728013
3348.000000	17.809642
3347.000000	17.890611
3346.000000	17.967046
3345.000000	18.040510
3344.000000	18.114369
3343.000000	18.189468
3342.000000	18.265028
3341.000000	18.341074
3340.000000	18.417833
3339.000000	18.495037
3338.000000	18.573707
3337.000000	18.656198
3336.000000	18.742537
3335.000000	18.829009
3334.000000	18.912072
3333.000000	18.991340
3332.000000	19.067399
3331.000000	19.139328
3330.000000	19.206072
3329.000000	19.267843
3328.000000	19.324393
3327.000000	19.374613
3326.000000	19.419102
3325.000000	19.460306
3324.000000	19.498511
3323.000000	19.529960
3322.000000	19.550813
3321.000000	19.560098
3320.000000	19.556949
3319.000000	19.538403
3318.000000	19.501089
3317.000000	19.443260
3316.000000	19.362574
3315.000000	19.254356
3314.000000	19.114797
3313.000000	18.942668
3312.000000	18.737365
3311.000000	18.498140
3310.000000	18.226629
3309.000000	17.929213
3308.000000	17.613346
3307.000000	17.284789
3306.000000	16.949984
3305.000000	16.616907
3304.000000	16.291799
3303.000000	15.976836
3302.000000	15.673736
3301.000000	15.387107
3300.000000	15.122431
3299.000000	14.883433
3298.000000	14.674266
3297.000000	14.500615
3296.000000	14.364378
3295.000000	14.260021
3294.000000	14.177064
3293.000000	14.104679
3292.000000	14.032433
3291.000000	13.949690
3290.000000	13.849111
3289.000000	13.728723
3288.000000	13.589174
3287.000000	13.431179
3286.000000	13.256795
3285.000000	13.068925
3284.000000	12.867425
3283.000000	12.647417
3282.000000	12.403610
3281.000000	12.134571
3280.000000	11.840464
3279.000000	11.521393
3278.000000	11.180606
3277.000000	10.826320
3276.000000	10.468189
3275.000000	10.113286
3274.000000	9.767738
3273.000000	9.439420
3272.000000	9.136950
3271.000000	8.868307
3270.000000	8.643221
3269.000000	8.473143
3268.000000	8.365851
3267.000000	8.324475
3266.000000	8.349805
3265.000000	8.441740
3264.000000	8.594411
3263.000000	8.792011
3262.000000	9.014353
3261.000000	9.240429
3260.000000	9.447201
3259.000000	9.609404
3258.000000	9.704927
3257.000000	9.717854
3256.000000	9.636943
3255.000000	9.453254
3254.000000	9.162462
3253.000000	8.769264
3252.000000	8.282698
3251.000000	7.716503
3250.000000	7.093041
3249.000000	6.443763
3248.000000	5.803978
3247.000000	5.205333
3246.000000	4.675737
3245.000000	4.240371
3244.000000	3.919928
3243.000000	3.727807
3242.000000	3.674140
3241.000000	3.762732
3240.000000	3.981789
3239.000000	4.303775
3238.000000	4.691687
3237.000000	5.110519
3236.000000	5.530575
3235.000000	5.929245
3234.000000	6.296492
3233.000000	6.631989
3232.000000	6.936529
3231.000000	7.207526
3230.000000	7.444102
3229.000000	7.651025
3228.000000	7.835671
3227.000000	8.004078
3226.000000	8.162101
3225.000000	8.316558
3224.000000	8.471116
3223.000000	8.624851
3222.000000	8.775820
3221.000000	8.922863
3220.000000	9.062585
3219.000000	9.187927
3218.000000	9.292802
3217.000000	9.374363
3216.000000	9.429971
3215.000000	9.456757
3214.000000	9.455561
3213.000000	9.432795
3212.000000	9.395592
3211.000000	9.348659
3210.000000	9.297565
3209.000000	9.249661
3208.000000	9.210115
3207.000000	9.180011
3206.000000	9.160187
3205.000000	9.153129
3204.000000	9.159374
3203.000000	9.176085
3202.000000	9.201190
3201.000000	9.235316
3200.000000	9.277523
3199.000000	9.323697
3198.000000	9.370950
3197.000000	9.419932
3196.000000	9.471049
3195.000000	9.521963
3194.000000	9.570970
3193.000000	9.618690
3192.000000	9.664639
3191.000000	9.706054
3190.000000	9.742148
3189.000000	9.775999
3188.000000	9.810569
3187.000000	9.846655
3186.000000	9.886182
3185.000000	9.932946
3184.000000	9.987809
3183.000000	10.046877
3182.000000	10.106204
3181.000000	10.164429
3180.000000	10.219098
3179.000000	10.264946
3178.000000	10.298530
3177.000000	10.321348
3176.000000	10.336694
3175.000000	10.347417
3174.000000	10.358483
3173.000000	10.377699
3172.000000	10.411300
3171.000000	10.462582
3170.000000	10.535988
3169.000000	10.638500
3168.000000	10.775159
3167.000000	10.945658
3166.000000	11.148506
3165.000000	11.383818
3164.000000	11.651062
3163.000000	11.948966
3162.000000	12.277911
3161.000000	12.640265
3160.000000	13.034268
3159.000000	13.450972
3158.000000	13.878691
3157.000000	14.305397
3156.000000	14.716988
3155.000000	15.097452
3154.000000	15.434065
3153.000000	15.719979
3152.000000	15.952423
3151.000000	16.131373
3150.000000	16.261708
3149.000000	16.353240
3148.000000	16.414070
3147.000000	16.447573
3146.000000	16.453258
3145.000000	16.426914
3144.000000	16.359626
3143.000000	16.238179
3142.000000	16.052497
3141.000000	15.799355
3140.000000	15.479769
3139.000000	15.098888
3138.000000	14.667200
3137.000000	14.200928
3136.000000	13.716797
3135.000000	13.229228
3134.000000	12.754345
3133.000000	12.310751
3132.000000	11.914625
3131.000000	11.576210
3130.000000	11.302697
3129.000000	11.098626
3128.000000	10.962961
3127.000000	10.888143
3126.000000	10.864938
3125.000000	10.886254
3124.000000	10.943274
3123.000000	11.025967
3122.000000	11.127929
3121.000000	11.247680
3120.000000	11.384358
3119.000000	11.534071
3118.000000	11.693281
3117.000000	11.859985
3116.000000	12.029854
3115.000000	12.194751
3114.000000	12.346384
3113.000000	12.477796
3112.000000	12.580078
3111.000000	12.643032
3110.000000	12.659737
3109.000000	12.628710
3108.000000	12.549045
3107.000000	12.418145
3106.000000	12.236885
3105.000000	12.011362
3104.000000	11.750527
3103.000000	11.464631
3102.000000	11.168745
3101.000000	10.883321
3100.000000	10.627912
3099.000000	10.416747
3098.000000	10.260393
3097.000000	10.167621
3096.000000	10.141408
3095.000000	10.178880
3094.000000	10.275248
3093.000000	10.425644
3092.000000	10.623040
3091.000000	10.856987
3090.000000	11.118774
3089.000000	11.402002
3088.000000	11.698228
3087.000000	11.997244
3086.000000	12.292371
3085.000000	12.582891
3084.000000	12.868735
3083.000000	13.147066
3082.000000	13.415466
3081.000000	13.674378
3080.000000	13.924935
3079.000000	14.167831
3078.000000	14.405669
3077.000000	14.642414
3076.000000	14.879390
3075.000000	15.114741
3074.000000	15.347805
3073.000000	15.580346
3072.000000	15.812535
3071.000000	16.041810
3070.000000	16.266854
3069.000000	16.489395
3068.000000	16.711031
3067.000000	16.931461
3066.000000	17.150700
3065.000000	17.369525
3064.000000	17.586861
3063.000000	17.800119
3062.000000	18.008568
3061.000000	18.213312
3060.000000	18.413604
3059.000000	18.606850
3058.000000	18.792931
3057.000000	18.974741
3056.000000	19.153948
3055.000000	19.329511
3054.000000	19.500845
3053.000000	19.669113
3052.000000	19.834531
3051.000000	19.995901
3050.000000	20.153196
3049.000000	20.307217
3048.000000	20.456610
3047.000000	20.598481
3046.000000	20.732674
3045.000000	20.862055
3044.000000	20.988256
3043.000000	21.110868
3042.000000	21.230909
3041.000000	21.351312
3040.000000	21.472951
3039.000000	21.593672
3038.000000	21.712315
3037.000000	21.830594
3036.000000	21.950571
3035.000000	22.073340
3034.000000	22.200595
3033.000000	22.333990
3032.000000	22.472099
3031.000000	22.611132
3030.000000	22.749242
3029.000000	22.887306
3028.000000	23.025446
3027.000000	23.162532
3026.000000	23.299706
3025.000000	23.440674
3024.000000	23.587426
3023.000000	23.738483
3022.000000	23.892030
3021.000000	24.047823
3020.000000	24.205294
3019.000000	24.362786
3018.000000	24.519528
3017.000000	24.675999
3016.000000	24.832028
3015.000000	24.986921
3014.000000	25.141685
3013.000000	25.298471
3012.000000	25.457474
3011.000000	25.616529
3010.000000	25.773704
3009.000000	25.927734
3008.000000	26.075919
3007.000000	26.214358
3006.000000	26.339594
3005.000000	26.447595
3004.000000	26.529422
3003.000000	26.570057
3002.000000	26.553578
3001.000000	26.468006
3000.000000	26.306209
2999.000000	26.061105
2998.000000	25.724327
2997.000000	25.299283
2996.000000	24.827459
2995.000000	24.403424
2994.000000	24.145760
2993.000000	24.133777
2992.000000	24.358523
2991.000000	24.735517
2990.000000	25.160779
2989.000000	25.558676
2988.000000	25.894273
2987.000000	26.162028
2986.000000	26.372415
2985.000000	26.538268
2984.000000	26.665736
2983.000000	26.754518
2982.000000	26.806876
2981.000000	26.830918
2980.000000	26.833320
2979.000000	26.810813
2978.000000	26.752242
2977.000000	26.652714
2976.000000	26.530363
2975.000000	26.433674
2974.000000	26.425268
2973.000000	26.548021
2972.000000	26.799039
2971.000000	27.134894
2970.000000	27.499496
2969.000000	27.847468
2968.000000	28.150700
2967.000000	28.395774
2966.000000	28.580117
2965.000000	28.703198
2964.000000	28.757468
2963.000000	28.723612
2962.000000	28.576242
2961.000000	28.292849
2960.000000	27.859261
2959.000000	27.269712
2958.000000	26.522408
2957.000000	25.629684
2956.000000	24.648593
2955.000000	23.711962
2954.000000	23.004051
2953.000000	22.670062
2952.000000	22.724982
2951.000000	23.046126
2950.000000	23.456907
2949.000000	23.820953
2948.000000	24.087783
2947.000000	24.282185
2946.000000	24.467630
2945.000000	24.702383
2944.000000	25.007822
2943.000000	25.367215
2942.000000	25.748353
2941.000000	26.126143
2940.000000	26.488930
2939.000000	26.836543
2938.000000	27.178373
2937.000000	27.527070
2936.000000	27.888783
2935.000000	28.259947
2934.000000	28.633153
2933.000000	29.001306
2932.000000	29.356216
2931.000000	29.690083
2930.000000	30.000576
2929.000000	30.290504
2928.000000	30.561147
2927.000000	30.810484
2926.000000	31.038642
2925.000000	31.249271
2924.000000	31.444540
2923.000000	31.623242
2922.000000	31.785162
2921.000000	31.932528
2920.000000	32.065941
2919.000000	32.183862
2918.000000	32.286759
2917.000000	32.377713
2916.000000	32.458266
2915.000000	32.527850
2914.000000	32.588055
2913.000000	32.642916
2912.000000	32.694406
2911.000000	32.741535
2910.000000	32.784247
2909.000000	32.824358
2908.000000	32.862112
2907.000000	32.895983
2906.000000	32.926495
2905.000000	32.956425
2904.000000	32.986821
2903.000000	33.016504
2902.000000	33.046113
2901.000000	33.078217
2900.000000	33.112949
2899.000000	33.146931
2898.000000	33.176768
2897.000000	33.199973
2896.000000	33.212621
2895.000000	33.210673
2894.000000	33.194883
2893.000000	33.171034
2892.000000	33.144661
2891.000000	33.118765
2890.000000	33.096248
2889.000000	33.080282
2888.000000	33.071254
2887.000000	33.067177
2886.000000	33.067874
2885.000000	33.075315
2884.000000	33.089589
2883.000000	33.108232
2882.000000	33.129904
2881.000000	33.154819
2880.000000	33.180896
2879.000000	33.202879
2878.000000	33.215873
2877.000000	33.216346
2876.000000	33.200116
2875.000000	33.164540
2874.000000	33.114208
2873.000000	33.060338
2872.000000	33.012519
2871.000000	32.973853
2870.000000	32.945408
2869.000000	32.933002
2868.000000	32.948424
2867.000000	33.006201
2866.000000	33.118530
2865.000000	33.288071
2864.000000	33.503651
2863.000000	33.745321
2862.000000	33.994327
2861.000000	34.237195
2860.000000	34.463948
2859.000000	34.668116
2858.000000	34.849458
2857.000000	35.012386
2856.000000	35.160154
2855.000000	35.293786
2854.000000	35.415751
2853.000000	35.530453
2852.000000	35.640765
2851.000000	35.747693
2850.000000	35.853377
2849.000000	35.960723
2848.000000	36.069805
2847.000000	36.178065
2846.000000	36.284401
2845.000000	36.389600
2844.000000	36.492952
2843.000000	36.592009
2842.000000	36.686073
2841.000000	36.776843
2840.000000	36.865586
2839.000000	36.952703
2838.000000	37.039842
2837.000000	37.129067
2836.000000	37.219759
2835.000000	37.309362
2834.000000	37.397165
2833.000000	37.484462
2832.000000	37.571224
2831.000000	37.655990
2830.000000	37.739018
2829.000000	37.822339
2828.000000	37.906489
2827.000000	37.990167
2826.000000	38.073075
2825.000000	38.155948
2824.000000	38.237822
2823.000000	38.316290
2822.000000	38.390633
2821.000000	38.461838
2820.000000	38.529666
2819.000000	38.592829
2818.000000	38.651979
2817.000000	38.709433
2816.000000	38.765867
2815.000000	38.820223
2814.000000	38.872882
2813.000000	38.925818
2812.000000	38.979402
2811.000000	39.032005
2810.000000	39.082926
2809.000000	39.132898
2808.000000	39.181740
2807.000000	39.228429
2806.000000	39.273683
2805.000000	39.319728
2804.000000	39.367371
2803.000000	39.415923
2802.000000	39.465749
2801.000000	39.518036
2800.000000	39.572245
2799.000000	39.626654
2798.000000	39.681305
2797.000000	39.737550
2796.000000	39.794900
2795.000000	39.851441
2794.000000	39.907292
2793.000000	39.964590
2792.000000	40.023999
2791.000000	40.084077
2790.000000	40.144099
2789.000000	40.204529
2788.000000	40.264615
2787.000000	40.322470
2786.000000	40.377749
2785.000000	40.431695
2784.000000	40.484686
2783.000000	40.536381
2782.000000	40.588003
2781.000000	40.641474
2780.000000	40.696237
2779.000000	40.749701
2778.000000	40.800667
2777.000000	40.849547
2776.000000	40.895581
2775.000000	40.936988
2774.000000	40.974041
2773.000000	41.009148
2772.000000	41.043676
2771.000000	41.077407
2770.000000	41.110992
2769.000000	41.145861
2768.000000	41.181519
2767.000000	41.215540
2766.000000	41.246551
2765.000000	41.274729
2764.000000	41.299482
2763.000000	41.319485
2762.000000	41.335100
2761.000000	41.348295
2760.000000	41.360132
2759.000000	41.370666
2758.000000	41.381172
2757.000000	41.393814
2756.000000	41.409253
2755.000000	41.427129
2754.000000	41.448513
2753.000000	41.474981
2752.000000	41.505492
2751.000000	41.536938
2750.000000	41.567735
2749.000000	41.598411
2748.000000	41.629077
2747.000000	41.659395
2746.000000	41.690793
2745.000000	41.725420
2744.000000	41.762635
2743.000000	41.799089
2742.000000	41.832174
2741.000000	41.860905
2740.000000	41.883878
2739.000000	41.899610
2738.000000	41.909319
2737.000000	41.916987
2736.000000	41.926764
2735.000000	41.942798
2734.000000	41.970819
2733.000000	42.015848
2732.000000	42.077697
2731.000000	42.151078
2730.000000	42.230047
2729.000000	42.310168
2728.000000	42.386971
2727.000000	42.456123
2726.000000	42.516198
2725.000000	42.568736
2724.000000	42.615207
2723.000000	42.656167
2722.000000	42.693003
2721.000000	42.727543
2720.000000	42.759894
2719.000000	42.789114
2718.000000	42.816335
2717.000000	42.844977
2716.000000	42.877674
2715.000000	42.915189
2714.000000	42.957850
2713.000000	43.005169
2712.000000	43.053997
2711.000000	43.099705
2710.000000	43.139651
2709.000000	43.173603
2708.000000	43.201420
2707.000000	43.222872
2706.000000	43.239312
2705.000000	43.252970
2704.000000	43.264580
2703.000000	43.274026
2702.000000	43.282955
2701.000000	43.293894
2700.000000	43.307179
2699.000000	43.321494
2698.000000	43.337148
2697.000000	43.356064
2696.000000	43.378835
2695.000000	43.404631
2694.000000	43.434055
2693.000000	43.469193
2692.000000	43.510486
2691.000000	43.556195
2690.000000	43.604685
2689.000000	43.654574
2688.000000	43.702950
2687.000000	43.746419
2686.000000	43.784429
2685.000000	43.819202
2684.000000	43.852218
2683.000000	43.883010
2682.000000	43.911184
2681.000000	43.936697
2680.000000	43.958188
2679.000000	43.973804
2678.000000	43.984084
2677.000000	43.992183
2676.000000	44.001319
2675.000000	44.014098
2674.000000	44.033868
2673.000000	44.063822
2672.000000	44.104294
2671.000000	44.153172
2670.000000	44.208667
2669.000000	44.269314
2668.000000	44.331955
2667.000000	44.392453
2666.000000	44.448660
2665.000000	44.500585
2664.000000	44.547926
2663.000000	44.590111
2662.000000	44.628549
2661.000000	44.666151
2660.000000	44.704440
2659.000000	44.743315
2658.000000	44.783242
2657.000000	44.825237
2656.000000	44.868742
2655.000000	44.911876
2654.000000	44.953724
2653.000000	44.993920
2652.000000	45.030366
2651.000000	45.059913
2650.000000	45.081414
2649.000000	45.096260
2648.000000	45.106153
2647.000000	45.112821
2646.000000	45.119607
2645.000000	45.130516
2644.000000	45.147428
2643.000000	45.170179
2642.000000	45.198925
2641.000000	45.234077
2640.000000	45.274236
2639.000000	45.316575
2638.000000	45.359473
2637.000000	45.402582
2636.000000	45.444543
2635.000000	45.482975
2634.000000	45.516525
2633.000000	45.544775
2632.000000	45.566532
2631.000000	45.580758
2630.000000	45.589249
2629.000000	45.596621
2628.000000	45.607823
2627.000000	45.626944
2626.000000	45.657149
2625.000000	45.698888
2624.000000	45.748288
2623.000000	45.799777
2622.000000	45.850187
2621.000000	45.898605
2620.000000	45.943611
2619.000000	45.983435
2618.000000	46.018146
2617.000000	46.048886
2616.000000	46.075215
2615.000000	46.095475
2614.000000	46.109576
2613.000000	46.119064
2612.000000	46.124834
2611.000000	46.127549
2610.000000	46.129476
2609.000000	46.133245
2608.000000	46.138952
2607.000000	46.144691
2606.000000	46.149605
2605.000000	46.153743
2604.000000	46.155655
2603.000000	46.153397
2602.000000	46.148126
2601.000000	46.144099
2600.000000	46.145045
2599.000000	46.152636
2598.000000	46.167896
2597.000000	46.191106
2596.000000	46.219889
2595.000000	46.250175
2594.000000	46.279582
2593.000000	46.307936
2592.000000	46.335044
2591.000000	46.360252
2590.000000	46.384136
2589.000000	46.408262
2588.000000	46.433039
2587.000000	46.457751
2586.000000	46.482339
2585.000000	46.507007
2584.000000	46.530544
2583.000000	46.551457
2582.000000	46.570565
2581.000000	46.590381
2580.000000	46.612356
2579.000000	46.636806
2578.000000	46.664716
2577.000000	46.696952
2576.000000	46.731926
2575.000000	46.766647
2574.000000	46.800137
2573.000000	46.833662
2572.000000	46.868103
2571.000000	46.903290
2570.000000	46.939341
2569.000000	46.976210
2568.000000	47.012119
2567.000000	47.044810
2566.000000	47.074221
2565.000000	47.101977
2564.000000	47.128905
2563.000000	47.155373
2562.000000	47.183325
2561.000000	47.215200
2560.000000	47.250927
2559.000000	47.288273
2558.000000	47.325776
2557.000000	47.363193
2556.000000	47.399797
2555.000000	47.434890
2554.000000	47.469786
2553.000000	47.506684
2552.000000	47.545741
2551.000000	47.585450
2550.000000	47.625387
2549.000000	47.666162
2548.000000	47.706953
2547.000000	47.745560
2546.000000	47.780692
2545.000000	47.812235
2544.000000	47.839684
2543.000000	47.862840
2542.000000	47.883633
2541.000000	47.904719
2540.000000	47.926524
2539.000000	47.947501
2538.000000	47.966844
2537.000000	47.984633
2536.000000	47.999878
2535.000000	48.011405
2534.000000	48.020569
2533.000000	48.030820
2532.000000	48.044663
2531.000000	48.063117
2530.000000	48.087514
2529.000000	48.119230
2528.000000	48.157443
2527.000000	48.199272
2526.000000	48.242183
2525.000000	48.284329
2524.000000	48.323269
2523.000000	48.356744
2522.000000	48.384512
2521.000000	48.407271
2520.000000	48.424378
2519.000000	48.434449
2518.000000	48.437658
2517.000000	48.435361
2516.000000	48.427484
2515.000000	48.413117
2514.000000	48.393075
2513.000000	48.369704
2512.000000	48.344767
2511.000000	48.319321
2510.000000	48.295373
2509.000000	48.275114
2508.000000	48.258752
2507.000000	48.245343
2506.000000	48.235381
2505.000000	48.230264
2504.000000	48.229828
2503.000000	48.232978
2502.000000	48.239999
2501.000000	48.252018
2500.000000	48.268261
2499.000000	48.286376
2498.000000	48.305429
2497.000000	48.325973
2496.000000	48.347873
2495.000000	48.370405
2494.000000	48.394282
2493.000000	48.421296
2492.000000	48.451788
2491.000000	48.484622
2490.000000	48.519050
2489.000000	48.554429
2488.000000	48.588782
2487.000000	48.620071
2486.000000	48.648767
2485.000000	48.677145
2484.000000	48.706558
2483.000000	48.737618
2482.000000	48.772036
2481.000000	48.811543
2480.000000	48.855215
2479.000000	48.900175
2478.000000	48.944609
2477.000000	48.987787
2476.000000	49.027900
2475.000000	49.062727
2474.000000	49.092465
2473.000000	49.119631
2472.000000	49.146421
2471.000000	49.173988
2470.000000	49.203509
2469.000000	49.235414
2468.000000	49.267718
2467.000000	49.297585
2466.000000	49.324326
2465.000000	49.348728
2464.000000	49.370142
2463.000000	49.386375
2462.000000	49.396224
2461.000000	49.399862
2460.000000	49.397170
2459.000000	49.388541
2458.000000	49.376960
2457.000000	49.367150
2456.000000	49.362495
2455.000000	49.364390
2454.000000	49.373728
2453.000000	49.390522
2452.000000	49.412556
2451.000000	49.436940
2450.000000	49.463274
2449.000000	49.493039
2448.000000	49.526644
2447.000000	49.563132
2446.000000	49.602051
2445.000000	49.643346
2444.000000	49.685373
2443.000000	49.725414
2442.000000	49.761938
2441.000000	49.794635
2440.000000	49.822988
2439.000000	49.847021
2438.000000	49.868861
2437.000000	49.891224
2436.000000	49.914821
2435.000000	49.938926
2434.000000	49.963648
2433.000000	49.989182
2432.000000	50.013522
2431.000000	50.033627
2430.000000	50.048274
2429.000000	50.057789
2428.000000	50.061629
2427.000000	50.058699
2426.000000	50.049904
2425.000000	50.037750
2424.000000	50.023979
2423.000000	50.009697
2422.000000	49.997262
2421.000000	49.989626
2420.000000	49.987849
2419.000000	49.991368
2418.000000	50.000122
2417.000000	50.014321
2416.000000	50.032460
2415.000000	50.052132
2414.000000	50.072409
2413.000000	50.093314
2412.000000	50.113808
2411.000000	50.132470
2410.000000	50.149692
2409.000000	50.166751
2408.000000	50.183251
2407.000000	50.197615
2406.000000	50.209447
2405.000000	50.218961
2404.000000	50.224799
2403.000000	50.225217
2402.000000	50.220731
2401.000000	50.213332
2400.000000	50.203230
2399.000000	50.188377
2398.000000	50.166883
2397.000000	50.136699
2396.000000	50.094023
2395.000000	50.034626
2394.000000	49.956626
2393.000000	49.860787
2392.000000	49.747868
2391.000000	49.618964
2390.000000	49.477436
2389.000000	49.327345
2388.000000	49.170387
2387.000000	49.006204
2386.000000	48.835860
2385.000000	48.662252
2384.000000	48.487726
2383.000000	48.313729
2382.000000	48.143392
2381.000000	47.981190
2380.000000	47.829573
2379.000000	47.689393
2378.000000	47.562650
2377.000000	47.453270
2376.000000	47.364745
2375.000000	47.299779
2374.000000	47.262387
2373.000000	47.255738
2372.000000	47.277395
2371.000000	47.319293
2370.000000	47.372643
2369.000000	47.429425
2368.000000	47.480783
2367.000000	47.519195
2366.000000	47.542858
2365.000000	47.554153
2364.000000	47.553540
2363.000000	47.539958
2362.000000	47.516793
2361.000000	47.493211
2360.000000	47.478154
2359.000000	47.474279
2358.000000	47.478663
2357.000000	47.485882
2356.000000	47.491798
2355.000000	47.498996
2354.000000	47.516556
2353.000000	47.551646
2352.000000	47.598843
2351.000000	47.639199
2350.000000	47.649365
2349.000000	47.613763
2348.000000	47.539742
2347.000000	47.463826
2346.000000	47.436178
2345.000000	47.483991
2344.000000	47.589834
2343.000000	47.710395
2342.000000	47.807625
2341.000000	47.866146
2340.000000	47.889288
2339.000000	47.890081
2338.000000	47.885572
2337.000000	47.890766
2336.000000	47.912301
2335.000000	47.948467
2334.000000	47.995302
2333.000000	48.051213
2332.000000	48.115785
2331.000000	48.189515
2330.000000	48.273554
2329.000000	48.364090
2328.000000	48.449608
2327.000000	48.515507
2326.000000	48.556965
2325.000000	48.582874
2324.000000	48.606601
2323.000000	48.635943
2322.000000	48.670237
2321.000000	48.705415
2320.000000	48.736782
2319.000000	48.760209
2318.000000	48.770444
2317.000000	48.760835
2316.000000	48.725551
2315.000000	48.664534
2314.000000	48.585532
2313.000000	48.497662
2312.000000	48.405662
2311.000000	48.309633
2310.000000	48.210012
2309.000000	48.108661
2308.000000	48.006791
2307.000000	47.905520
2306.000000	47.807931
2305.000000	47.718887
2304.000000	47.642836
2303.000000	47.585371
2302.000000	47.554671
2301.000000	47.558136
2300.000000	47.596668
2299.000000	47.663670
2298.000000	47.749396
2297.000000	47.842034
2296.000000	47.928265
2295.000000	47.997050
2294.000000	48.044865
2293.000000	48.075217
2292.000000	48.093660
2291.000000	48.105165
2290.000000	48.113707
2289.000000	48.120265
2288.000000	48.119862
2287.000000	48.103829
2286.000000	48.064671
2285.000000	47.997910
2284.000000	47.902071
2283.000000	47.781311
2282.000000	47.648798
2281.000000	47.523896
2280.000000	47.424775
2279.000000	47.363488
2278.000000	47.345214
2277.000000	47.367686
2276.000000	47.422463
2275.000000	47.502120
2274.000000	47.605847
2273.000000	47.736617
2272.000000	47.893117
2271.000000	48.067616
2270.000000	48.250637
2269.000000	48.433516
2268.000000	48.608795
2267.000000	48.771903
2266.000000	48.923092
2265.000000	49.064838
2264.000000	49.197731
2263.000000	49.321036
2262.000000	49.435653
2261.000000	49.543530
2260.000000	49.644741
2259.000000	49.738617
2258.000000	49.826953
2257.000000	49.913779
2256.000000	50.002665
2255.000000	50.096778
2254.000000	50.200349
2253.000000	50.316505
2252.000000	50.444029
2251.000000	50.578500
2250.000000	50.715993
2249.000000	50.853307
2248.000000	50.986381
2247.000000	51.111946
2246.000000	51.230408
2245.000000	51.344445
2244.000000	51.455209
2243.000000	51.562164
2242.000000	51.665356
2241.000000	51.765190
2240.000000	51.860444
2239.000000	51.949225
2238.000000	52.031339
2237.000000	52.107352
2236.000000	52.176303
2235.000000	52.236481
2234.000000	52.287973
2233.000000	52.332183
2232.000000	52.369527
2231.000000	52.400065
2230.000000	52.425315
2229.000000	52.447092
2228.000000	52.465192
2227.000000	52.478343
2226.000000	52.486900
2225.000000	52.492160
2224.000000	52.494048
2223.000000	52.492020
2222.000000	52.487558
2221.000000	52.483415
2220.000000	52.480813
2219.000000	52.479699
2218.000000	52.480877
2217.000000	52.485248
2216.000000	52.491491
2215.000000	52.496964
2214.000000	52.500412
2213.000000	52.501476
2212.000000	52.498272
2211.000000	52.488208
2210.000000	52.471245
2209.000000	52.450454
2208.000000	52.429979
2207.000000	52.414030
2206.000000	52.406288
2205.000000	52.406915
2204.000000	52.410303
2203.000000	52.408239
2202.000000	52.395835
2201.000000	52.374078
2200.000000	52.349086
2199.000000	52.332095
2198.000000	52.337866
2197.000000	52.378063
2196.000000	52.454141
2195.000000	52.557593
2194.000000	52.676168
2193.000000	52.798118
2192.000000	52.913349
2191.000000	53.014885
2190.000000	53.100330
2189.000000	53.169993
2188.000000	53.224017
2187.000000	53.263095
2186.000000	53.290442
2185.000000	53.310579
2184.000000	53.326425
2183.000000	53.339484
2182.000000	53.351647
2181.000000	53.364326
2180.000000	53.376523
2179.000000	53.386209
2178.000000	53.393316
2177.000000	53.399235
2176.000000	53.404393
2175.000000	53.408594
2174.000000	53.412991
2173.000000	53.419353
2172.000000	53.427953
2171.000000	53.438513
2170.000000	53.452502
2169.000000	53.472270
2168.000000	53.498511
2167.000000	53.530583
2166.000000	53.568426
2165.000000	53.611901
2164.000000	53.659165
2163.000000	53.707944
2162.000000	53.757662
2161.000000	53.808315
2160.000000	53.858406
2159.000000	53.906341
2158.000000	53.952841
2157.000000	53.999769
2156.000000	54.047439
2155.000000	54.095074
2154.000000	54.142643
2153.000000	54.189625
2152.000000	54.233050
2151.000000	54.269248
2150.000000	54.297006
2149.000000	54.317116
2148.000000	54.329801
2147.000000	54.334917
2146.000000	54.333652
2145.000000	54.327603
2144.000000	54.316687
2143.000000	54.300075
2142.000000	54.278415
2141.000000	54.253107
2140.000000	54.224293
2139.000000	54.191644
2138.000000	54.156497
2137.000000	54.121296
2136.000000	54.088352
2135.000000	54.061689
2134.000000	54.048550
2133.000000	54.056110
2132.000000	54.086672
2131.000000	54.137635
2130.000000	54.204732
2129.000000	54.282622
2128.000000	54.363860
2127.000000	54.440955
2126.000000	54.509413
2125.000000	54.566806
2124.000000	54.610233
2123.000000	54.636994
2122.000000	54.647018
2121.000000	54.642369
2120.000000	54.624960
2119.000000	54.597071
2118.000000	54.563346
2117.000000	54.529483
2116.000000	54.498891
2115.000000	54.472142
2114.000000	54.448570
2113.000000	54.426671
2112.000000	54.404199
2111.000000	54.380305
2110.000000	54.356994
2109.000000	54.336483
2108.000000	54.318301
2107.000000	54.301209
2106.000000	54.286719
2105.000000	54.278502
2104.000000	54.279554
2103.000000	54.291998
2102.000000	54.318184
2101.000000	54.358788
2100.000000	54.410608
2099.000000	54.468879
2098.000000	54.530566
2097.000000	54.593501
2096.000000	54.653825
2095.000000	54.706529
2094.000000	54.747594
2093.000000	54.773673
2092.000000	54.781373
2091.000000	54.769873
2090.000000	54.743714
2089.000000	54.711166
2088.000000	54.681243
2087.000000	54.663922
2086.000000	54.670175
2085.000000	54.707617
2084.000000	54.776143
2083.000000	54.869417
2082.000000	54.979396
2081.000000	55.097528
2080.000000	55.214494
2079.000000	55.323377
2078.000000	55.422283
2077.000000	55.512006
2076.000000	55.592930
2075.000000	55.665844
2074.000000	55.733529
2073.000000	55.798316
2072.000000	55.859498
2071.000000	55.915338
2070.000000	55.965703
2069.000000	56.010370
2068.000000	56.047415
2067.000000	56.076647
2066.000000	56.102559
2065.000000	56.130597
2064.000000	56.161619
2063.000000	56.193289
2062.000000	56.225299
2061.000000	56.259429
2060.000000	56.295604
2059.000000	56.331653
2058.000000	56.366594
2057.000000	56.401157
2056.000000	56.435579
2055.000000	56.469673
2054.000000	56.504715
2053.000000	56.542494
2052.000000	56.582991
2051.000000	56.625215
2050.000000	56.669297
2049.000000	56.715595
2048.000000	56.762965
2047.000000	56.809833
2046.000000	56.855569
2045.000000	56.898970
2044.000000	56.937343
2043.000000	56.969679
2042.000000	56.999045
2041.000000	57.029048
2040.000000	57.059441
2039.000000	57.088006
2038.000000	57.115094
2037.000000	57.143121
2036.000000	57.172808
2035.000000	57.203137
2034.000000	57.234195
2033.000000	57.267171
2032.000000	57.302157
2031.000000	57.338771
2030.000000	57.378052
2029.000000	57.420796
2028.000000	57.464888
2027.000000	57.506548
2026.000000	57.543944
2025.000000	57.577149
2024.000000	57.605616
2023.000000	57.628092
2022.000000	57.643729
2021.000000	57.651390
2020.000000	57.649641
2019.000000	57.640538
2018.000000	57.631888
2017.000000	57.632312
2016.000000	57.644213
2015.000000	57.664456
2014.000000	57.690640
2013.000000	57.722706
2012.000000	57.758943
2011.000000	57.795133
2010.000000	57.828420
2009.000000	57.858881
2008.000000	57.887391
2007.000000	57.914579
2006.000000	57.942530
2005.000000	57.974029
2004.000000	58.009747
2003.000000	58.048386
2002.000000	58.088834
2001.000000	58.130673
2000.000000	58.172019
1999.000000	58.210866
1998.000000	58.248226
1997.000000	58.285568
1996.000000	58.319346
1995.000000	58.342454
1994.000000	58.352635
1993.000000	58.355066
1992.000000	58.355020
1991.000000	58.350914
1990.000000	58.337822
1989.000000	58.315904
1988.000000	58.290785
1987.000000	58.266590
1986.000000	58.243096
1985.000000	58.219970
1984.000000	58.200878
1983.000000	58.191935
1982.000000	58.197241
1981.000000	58.217224
1980.000000	58.248728
1979.000000	58.285875
1978.000000	58.322347
1977.000000	58.354254
1976.000000	58.381783
1975.000000	58.408602
1974.000000	58.440113
1973.000000	58.481216
1972.000000	58.533538
1971.000000	58.593474
1970.000000	58.654556
1969.000000	58.712699
1968.000000	58.768138
1967.000000	58.821252
1966.000000	58.867574
1965.000000	58.899217
1964.000000	58.912043
1963.000000	58.908749
1962.000000	58.895049
1961.000000	58.875969
1960.000000	58.855105
1959.000000	58.834700
1958.000000	58.813911
1957.000000	58.788707
1956.000000	58.755598
1955.000000	58.714286
1954.000000	58.666969
1953.000000	58.616841
1952.000000	58.569668
1951.000000	58.533649
1950.000000	58.515236
1949.000000	58.516806
1948.000000	58.538100
1947.000000	58.576988
1946.000000	58.626998
1945.000000	58.680844
1944.000000	58.739868
1943.000000	58.815477
1942.000000	58.916035
1941.000000	59.033469
1940.000000	59.151517
1939.000000	59.263241
1938.000000	59.370780
1937.000000	59.473651
1936.000000	59.566145
1935.000000	59.645078
1934.000000	59.713202
1933.000000	59.773319
1932.000000	59.825112
1931.000000	59.867068
1930.000000	59.897554
1929.000000	59.914826
1928.000000	59.917401
1927.000000	59.905290
1926.000000	59.878025
1925.000000	59.836979
1924.000000	59.792803
1923.000000	59.763723
1922.000000	59.758204
1921.000000	59.762758
1920.000000	59.758797
1919.000000	59.745736
1918.000000	59.736310
1917.000000	59.732219
1916.000000	59.719789
1915.000000	59.693902
1914.000000	59.667131
1913.000000	59.650156
1912.000000	59.640184
1911.000000	59.631278
1910.000000	59.626216
1909.000000	59.630851
1908.000000	59.643720
1907.000000	59.662213
1906.000000	59.688473
1905.000000	59.722938
1904.000000	59.759678
1903.000000	59.791637
1902.000000	59.817078
1901.000000	59.835854
1900.000000	59.845929
1899.000000	59.849613
1898.000000	59.855542
1897.000000	59.871338
1896.000000	59.900813
1895.000000	59.948371
1894.000000	60.016538
1893.000000	60.095674
1892.000000	60.169553
1891.000000	60.233905
1890.000000	60.299375
1889.000000	60.372896
1888.000000	60.444625
1887.000000	60.503824
1886.000000	60.556478
1885.000000	60.614545
1884.000000	60.679594
1883.000000	60.745473
1882.000000	60.809325
1881.000000	60.871136
1880.000000	60.927328
1879.000000	60.974182
1878.000000	61.012906
1877.000000	61.044575
1876.000000	61.067023
1875.000000	61.081972
1874.000000	61.096886
1873.000000	61.114931
1872.000000	61.130175
1871.000000	61.138184
1870.000000	61.143943
1869.000000	61.153272
1868.000000	61.161809
1867.000000	61.160289
1866.000000	61.148752
1865.000000	61.134271
1864.000000	61.118291
1863.000000	61.097814
1862.000000	61.075722
1861.000000	61.061201
1860.000000	61.061573
1859.000000	61.081853
1858.000000	61.128551
1857.000000	61.202247
1856.000000	61.291146
1855.000000	61.381172
1854.000000	61.468256
1853.000000	61.554562
1852.000000	61.635827
1851.000000	61.707990
1850.000000	61.780922
1849.000000	61.870566
1848.000000	61.978201
1847.000000	62.085823
1846.000000	62.173145
1845.000000	62.234883
1844.000000	62.281263
1843.000000	62.314369
1842.000000	62.324406
1841.000000	62.313660
1840.000000	62.298004
1839.000000	62.291851
1838.000000	62.298932
1837.000000	62.315525
1836.000000	62.342365
1835.000000	62.387838
1834.000000	62.457592
1833.000000	62.544616
1832.000000	62.634288
1831.000000	62.716568
1830.000000	62.789872
1829.000000	62.849148
1828.000000	62.879696
1827.000000	62.881135
1826.000000	62.882770
1825.000000	62.915508
1824.000000	62.978344
1823.000000	63.046735
1822.000000	63.109582
1821.000000	63.175287
1820.000000	63.248653
1819.000000	63.326289
1818.000000	63.408780
1817.000000	63.500841
1816.000000	63.597745
1815.000000	63.685888
1814.000000	63.761887
1813.000000	63.832931
1812.000000	63.900890
1811.000000	63.959141
1810.000000	64.004160
1809.000000	64.041372
1808.000000	64.076422
1807.000000	64.110396
1806.000000	64.140593
1805.000000	64.162636
1804.000000	64.178076
1803.000000	64.200313
1802.000000	64.247505
1801.000000	64.318035
1800.000000	64.383409
1799.000000	64.419138
1798.000000	64.432654
1797.000000	64.451431
1796.000000	64.487263
1795.000000	64.523997
1794.000000	64.537410
1793.000000	64.520626
1792.000000	64.491701
1791.000000	64.472507
1790.000000	64.467904
1789.000000	64.471722
1788.000000	64.477827
1787.000000	64.490648
1786.000000	64.528563
1785.000000	64.604935
1784.000000	64.702628
1783.000000	64.783429
1782.000000	64.829999
1781.000000	64.856006
1780.000000	64.881642
1779.000000	64.913374
1778.000000	64.953558
1777.000000	65.022718
1776.000000	65.141770
1775.000000	65.303296
1774.000000	65.470820
1773.000000	65.602449
1772.000000	65.673380
1771.000000	65.676780
1770.000000	65.628473
1769.000000	65.579868
1768.000000	65.588037
1767.000000	65.657751
1766.000000	65.742498
1765.000000	65.803577
1764.000000	65.842067
1763.000000	65.878312
1762.000000	65.923887
1761.000000	65.965800
1760.000000	65.977198
1759.000000	65.947305
1758.000000	65.895042
1757.000000	65.858335
1756.000000	65.857842
1755.000000	65.871345
1754.000000	65.866997
1753.000000	65.848838
1752.000000	65.852328
1751.000000	65.896133
1750.000000	65.941532
1749.000000	65.940436
1748.000000	65.895336
1747.000000	65.830741
1746.000000	65.755537
1745.000000	65.675621
1744.000000	65.614517
1743.000000	65.587875
1742.000000	65.571676
1741.000000	65.530113
1740.000000	65.476338
1739.000000	65.460706
1738.000000	65.494929
1737.000000	65.550897
1736.000000	65.602907
1735.000000	65.649978
1734.000000	65.705184
1733.000000	65.724166
1732.000000	65.647466
1731.000000	65.517101
1730.000000	65.416397
1729.000000	65.374259
1728.000000	65.368486
1727.000000	65.365949
1726.000000	65.354508
1725.000000	65.335932
1724.000000	65.321256
1723.000000	65.326894
1722.000000	65.362144
1721.000000	65.424189
1720.000000	65.503363
1719.000000	65.580999
1718.000000	65.629844
1717.000000	65.625203
1716.000000	65.549089
1715.000000	65.426306
1714.000000	65.317608
1713.000000	65.246133
1712.000000	65.192867
1711.000000	65.148855
1710.000000	65.131246
1709.000000	65.145538
1708.000000	65.163390
1707.000000	65.155790
1706.000000	65.133899
1705.000000	65.136773
1704.000000	65.170414
1703.000000	65.208324
1702.000000	65.229346
1701.000000	65.255426
1700.000000	65.316187
1699.000000	65.343650
1698.000000	65.255725
1697.000000	65.057399
1696.000000	64.815856
1695.000000	64.597740
1694.000000	64.391259
1693.000000	64.171521
1692.000000	63.961254
1691.000000	63.780928
1690.000000	63.642432
1689.000000	63.564268
1688.000000	63.556672
1687.000000	63.590023
1686.000000	63.575453
1685.000000	63.405715
1684.000000	63.104077
1683.000000	62.786728
1682.000000	62.475892
1681.000000	62.172954
1680.000000	61.926395
1679.000000	61.755414
1678.000000	61.620602
1677.000000	61.453332
1676.000000	61.237023
1675.000000	61.017430
1674.000000	60.816228
1673.000000	60.600536
1672.000000	60.356047
1671.000000	60.088580
1670.000000	59.791924
1669.000000	59.470677
1668.000000	59.153571
1667.000000	58.871271
1666.000000	58.623761
1665.000000	58.376410
1664.000000	58.095386
1663.000000	57.782903
1662.000000	57.462215
1661.000000	57.136229
1660.000000	56.808779
1659.000000	56.512560
1658.000000	56.284409
1657.000000	56.140453
1656.000000	56.067334
1655.000000	55.998644
1654.000000	55.760111
1653.000000	55.292033
1652.000000	54.753585
1651.000000	54.220146
1650.000000	53.705273
1649.000000	53.200892
1648.000000	52.600498
1647.000000	51.838431
1646.000000	50.978201
1645.000000	50.110475
1644.000000	49.257378
1643.000000	48.430759
1642.000000	47.646209
1641.000000	46.931829
1640.000000	46.339710
1639.000000	45.911880
1638.000000	45.638465
1637.000000	45.463323
1636.000000	45.365168
1635.000000	45.384254
1634.000000	45.499442
1633.000000	45.653998
1632.000000	45.857172
1631.000000	46.139559
1630.000000	46.503890
1629.000000	46.922702
1628.000000	47.366503
1627.000000	47.814122
1626.000000	48.250065
1625.000000	48.676151
1624.000000	49.115358
1623.000000	49.587662
1622.000000	50.074790
1621.000000	50.547373
1620.000000	51.024246
1619.000000	51.553756
1618.000000	52.149656
1617.000000	52.767705
1616.000000	53.321386
1615.000000	53.735665
1614.000000	54.015340
1613.000000	54.222636
1612.000000	54.398573
1611.000000	54.530223
1610.000000	54.558892
1609.000000	54.426093
1608.000000	54.101057
1607.000000	53.558300
1606.000000	52.748104
1605.000000	51.589504
1604.000000	50.010017
1603.000000	47.973096
1602.000000	45.488434
1601.000000	42.612224
1600.000000	39.411568
1599.000000	35.923918
1598.000000	32.119445
1597.000000	27.986391
1596.000000	23.748616
1595.000000	19.968057
1594.000000	17.262409
1593.000000	15.864698
1592.000000	15.559612
1591.000000	15.977691
1590.000000	16.836450
1589.000000	17.934842
1588.000000	19.096234
1587.000000	20.173067
1586.000000	21.074626
1585.000000	21.818350
1584.000000	22.522939
1583.000000	23.310505
1582.000000	24.193887
1581.000000	25.096828
1580.000000	25.990555
1579.000000	26.946137
1578.000000	28.034050
1577.000000	29.197798
1576.000000	30.248887
1575.000000	31.025710
1574.000000	31.531291
1573.000000	31.876221
1572.000000	32.182065
1571.000000	32.567182
1570.000000	33.117348
1569.000000	33.817825
1568.000000	34.600751
1567.000000	35.459607
1566.000000	36.420608
1565.000000	37.439860
1564.000000	38.419790
1563.000000	39.311938
1562.000000	40.153823
1561.000000	41.029637
1560.000000	42.039125
1559.000000	43.188544
1558.000000	44.259918
1557.000000	45.027556
1556.000000	45.580802
1555.000000	46.138899
1554.000000	46.760907
1553.000000	47.367747
1552.000000	47.880486
1551.000000	48.337654
1550.000000	48.804255
1549.000000	49.271392
1548.000000	49.683227
1547.000000	50.038048
1546.000000	50.400479
1545.000000	50.821425
1544.000000	51.292682
1543.000000	51.785517
1542.000000	52.281975
1541.000000	52.722579
1540.000000	53.038317
1539.000000	53.249818
1538.000000	53.398027
1537.000000	53.519174
1536.000000	53.678200
1535.000000	53.912440
1534.000000	54.221399
1533.000000	54.561176
1532.000000	54.870546
1531.000000	55.132732
1530.000000	55.379530
1529.000000	55.634691
1528.000000	55.895922
1527.000000	56.166186
1526.000000	56.461092
1525.000000	56.771471
1524.000000	57.061822
1523.000000	57.307284
1522.000000	57.513963
1521.000000	57.704175
1520.000000	57.857934
1519.000000	57.947649
1518.000000	58.001979
1517.000000	58.063385
1516.000000	58.148019
1515.000000	58.240706
1514.000000	58.327326
1513.000000	58.421691
1512.000000	58.541868
1511.000000	58.701468
1510.000000	58.914110
1509.000000	59.196480
1508.000000	59.512698
1507.000000	59.773660
1506.000000	59.956385
1505.000000	60.038742
1504.000000	60.013945
1503.000000	59.982071
1502.000000	60.025302
1501.000000	60.157589
1500.000000	60.343865
1499.000000	60.541140
1498.000000	60.726645
1497.000000	60.899761
1496.000000	61.067792
1495.000000	61.227143
1494.000000	61.377758
1493.000000	61.533436
1492.000000	61.709019
1491.000000	61.918337
1490.000000	62.163175
1489.000000	62.415721
1488.000000	62.640755
1487.000000	62.841172
1486.000000	63.047133
1485.000000	63.267478
1484.000000	63.487739
1483.000000	63.706047
1482.000000	63.935836
1481.000000	64.171125
1480.000000	64.383745
1479.000000	64.565078
1478.000000	64.745451
1477.000000	64.958663
1476.000000	65.208653
1475.000000	65.478871
1474.000000	65.753492
1473.000000	66.018779
1472.000000	66.260493
1471.000000	66.460188
1470.000000	66.609933
1469.000000	66.728978
1468.000000	66.841661
1467.000000	66.944281
1466.000000	66.973664
1465.000000	66.813483
1464.000000	66.370803
1463.000000	65.632411
1462.000000	64.639685
1461.000000	63.461691
1460.000000	62.176268
1459.000000	60.814437
1458.000000	59.329144
1457.000000	57.784269
1456.000000	56.411344
1455.000000	55.241836
1454.000000	54.055120
1453.000000	52.659599
1452.000000	51.025171
1451.000000	49.238297
1450.000000	47.314829
1449.000000	45.139656
1448.000000	42.673899
1447.000000	40.175643
1446.000000	38.126770
1445.000000	37.010280
1444.000000	37.154924
1443.000000	38.581796
1442.000000	40.908689
1441.000000	43.528911
1440.000000	45.935931
1439.000000	47.892523
1438.000000	49.387616
1437.000000	50.532496
1436.000000	51.473214
1435.000000	52.318552
1434.000000	53.155989
1433.000000	54.072105
1432.000000	55.091375
1431.000000	56.135186
1430.000000	57.090567
1429.000000	57.906598
1428.000000	58.587758
1427.000000	59.146268
1426.000000	59.613836
1425.000000	60.046845
1424.000000	60.476308
1423.000000	60.879158
1422.000000	61.227852
1421.000000	61.537099
1420.000000	61.844063
1419.000000	62.159216
1418.000000	62.455783
1417.000000	62.719737
1416.000000	62.966422
1415.000000	63.206961
1414.000000	63.439456
1413.000000	63.663537
1412.000000	63.878020
1411.000000	64.077015
1410.000000	64.259208
1409.000000	64.426698
1408.000000	64.571158
1407.000000	64.674827
1406.000000	64.725228
1405.000000	64.713275
1404.000000	64.619091
1403.000000	64.428095
1402.000000	64.162809
1401.000000	63.881467
1400.000000	63.645937
1399.000000	63.485834
1398.000000	63.384754
1397.000000	63.316595
1396.000000	63.292036
1395.000000	63.342303
1394.000000	63.446319
1393.000000	63.505241
1392.000000	63.423826
1391.000000	63.192410
1390.000000	62.880073
1389.000000	62.589219
1388.000000	62.425219
1387.000000	62.466285
1386.000000	62.718409
1385.000000	63.118951
1384.000000	63.602349
1383.000000	64.139088
1382.000000	64.719491
1381.000000	65.328558
1380.000000	65.941661
1379.000000	66.529548
1378.000000	67.058189
1377.000000	67.484790
1376.000000	67.757030
1375.000000	67.819609
1374.000000	67.610083
1373.000000	67.029265
1372.000000	65.911019
1371.000000	64.032313
1370.000000	61.197105
1369.000000	57.403124
1368.000000	53.025633
1367.000000	48.809723
1366.000000	45.568446
1365.000000	43.853808
1364.000000	43.833913
1363.000000	45.275294
1362.000000	47.606055
1361.000000	50.199198
1360.000000	52.661617
1359.000000	54.850793
1358.000000	56.744950
1357.000000	58.358493
1356.000000	59.720411
1355.000000	60.866222
1354.000000	61.833822
1353.000000	62.663783
1352.000000	63.391278
1351.000000	64.032506
1350.000000	64.592274
1349.000000	65.083141
1348.000000	65.521066
1347.000000	65.915651
1346.000000	66.274360
1345.000000	66.607956
1344.000000	66.919353
1343.000000	67.196049
1342.000000	67.430804
1341.000000	67.641294
1340.000000	67.854506
1339.000000	68.078203
1338.000000	68.300444
1337.000000	68.513119
1336.000000	68.720328
1335.000000	68.929747
1334.000000	69.150502
1333.000000	69.393188
1332.000000	69.658227
1331.000000	69.926788
1330.000000	70.173776
1329.000000	70.386660
1328.000000	70.560114
1327.000000	70.679848
1326.000000	70.720219
1325.000000	70.644814
1324.000000	70.398481
1323.000000	69.897940
1322.000000	69.048075
1321.000000	67.764619
1320.000000	65.975724
1319.000000	63.648630
1318.000000	60.864685
1317.000000	57.896871
1316.000000	55.202898
1315.000000	53.280935
1314.000000	52.428554
1313.000000	52.598582
1312.000000	53.488585
1311.000000	54.766998
1310.000000	56.234664
1309.000000	57.795855
1308.000000	59.370844
1307.000000	60.884472
1306.000000	62.296042
1305.000000	63.596092
1304.000000	64.764368
1303.000000	65.766038
1302.000000	66.590353
1301.000000	67.261636
1300.000000	67.800762
1299.000000	68.210858
1298.000000	68.487822
1297.000000	68.593049
1296.000000	68.422784
1295.000000	67.852232
1294.000000	66.843774
1293.000000	65.473279
1292.000000	63.855286
1291.000000	62.133533
1290.000000	60.573241
1289.000000	59.549394
1288.000000	59.298477
1287.000000	59.652366
1286.000000	60.104998
1285.000000	60.217420
1284.000000	59.923821
1283.000000	59.471059
1282.000000	59.162104
1281.000000	59.167982
1280.000000	59.485011
1279.000000	59.946825
1278.000000	60.252114
1277.000000	60.026494
1276.000000	58.913344
1275.000000	56.685148
1274.000000	53.437213
1273.000000	49.808967
1272.000000	46.952471
1271.000000	45.999424
1270.000000	47.345815
1269.000000	50.414091
1268.000000	54.104250
1267.000000	57.495242
1266.000000	60.189810
1265.000000	62.206620
1264.000000	63.720226
1263.000000	64.893015
1262.000000	65.837636
1261.000000	66.628025
1260.000000	67.308679
1259.000000	67.904222
1258.000000	68.437454
1257.000000	68.923700
1256.000000	69.365897
1255.000000	69.765506
1254.000000	70.129911
1253.000000	70.469511
1252.000000	70.789602
1251.000000	71.094642
1250.000000	71.394220
1249.000000	71.696266
1248.000000	71.999762
1247.000000	72.300104
1246.000000	72.597948
1245.000000	72.895869
1244.000000	73.190155
1243.000000	73.474541
1242.000000	73.748846
1241.000000	74.016193
1240.000000	74.274649
1239.000000	74.518462
1238.000000	74.745710
1237.000000	74.955393
1236.000000	75.139572
1235.000000	75.287948
1234.000000	75.395943
1233.000000	75.462222
1232.000000	75.478920
1231.000000	75.432791
1230.000000	75.316186
1229.000000	75.121185
1228.000000	74.829762
1227.000000	74.413028
1226.000000	73.833038
1225.000000	73.044042
1224.000000	71.984776
1223.000000	70.598562
1222.000000	68.865098
1221.000000	66.811092
1220.000000	64.513885
1219.000000	62.083134
1218.000000	59.629760
1217.000000	57.230562
1216.000000	54.910567
1215.000000	52.656052
1214.000000	50.434514
1213.000000	48.217801
1212.000000	46.010512
1211.000000	43.872464
1210.000000	41.905605
1209.000000	40.236302
1208.000000	38.991966
1207.000000	38.244591
1206.000000	37.958642
1205.000000	37.990356
1204.000000	38.189396
1203.000000	38.506730
1202.000000	39.004452
1201.000000	39.795560
1200.000000	40.943490
1199.000000	42.409013
1198.000000	44.071548
1197.000000	45.795483
1196.000000	47.498951
1195.000000	49.160664
1194.000000	50.789355
1193.000000	52.398243
1192.000000	53.993121
1191.000000	55.566242
1190.000000	57.096169
1189.000000	58.555852
1188.000000	59.919168
1187.000000	61.166385
1186.000000	62.282667
1185.000000	63.261660
1184.000000	64.108301
1183.000000	64.834577
1182.000000	65.460215
1181.000000	66.003544
1180.000000	66.475043
1179.000000	66.879889
1178.000000	67.222198
1177.000000	67.510879
1176.000000	67.756107
1175.000000	67.968906
1174.000000	68.164659
1173.000000	68.360282
1172.000000	68.569468
1171.000000	68.801202
1170.000000	69.062044
1169.000000	69.354539
1168.000000	69.672029
1167.000000	69.998315
1166.000000	70.312595
1165.000000	70.593466
1164.000000	70.823634
1163.000000	71.001524
1162.000000	71.151328
1161.000000	71.314532
1160.000000	71.526408
1159.000000	71.799533
1158.000000	72.124792
1157.000000	72.480823
1156.000000	72.843203
1155.000000	73.193701
1154.000000	73.526038
1153.000000	73.840337
1152.000000	74.132019
1151.000000	74.390644
1150.000000	74.607896
1149.000000	74.781823
1148.000000	74.911479
1147.000000	74.997324
1146.000000	75.046464
1145.000000	75.067110
1144.000000	75.059724
1143.000000	75.013815
1142.000000	74.914853
1141.000000	74.747483
1140.000000	74.487284
1139.000000	74.104622
1138.000000	73.566035
1137.000000	72.832472
1136.000000	71.862013
1135.000000	70.608992
1134.000000	69.037647
1133.000000	67.118161
1132.000000	64.830801
1131.000000	62.197402
1130.000000	59.298909
1129.000000	56.277192
1128.000000	53.307006
1127.000000	50.544388
1126.000000	48.064566
1125.000000	45.829415
1124.000000	43.726941
1123.000000	41.647849
1122.000000	39.525955
1121.000000	37.297616
1120.000000	34.817744
1119.000000	31.839787
1118.000000	28.171325
1117.000000	23.979159
1116.000000	19.963753
1115.000000	17.180207
1114.000000	16.501942
1113.000000	18.148184
1112.000000	21.628144
1111.000000	26.003727
1110.000000	30.296068
1109.000000	33.798327
1108.000000	36.150108
1107.000000	37.171411
1106.000000	36.690549
1105.000000	34.630316
1104.000000	31.358862
1103.000000	27.904039
1102.000000	25.621066
1101.000000	25.470378
1100.000000	27.518998
1099.000000	31.044662
1098.000000	35.074814
1097.000000	38.907195
1096.000000	42.244632
1095.000000	45.061773
1094.000000	47.439207
1093.000000	49.478508
1092.000000	51.272010
1091.000000	52.889442
1090.000000	54.377134
1089.000000	55.766722
1088.000000	57.085450
1087.000000	58.346376
1086.000000	59.554140
1085.000000	60.711168
1084.000000	61.813658
1083.000000	62.854648
1082.000000	63.830182
1081.000000	64.744473
1080.000000	65.600702
1079.000000	66.393230
1078.000000	67.119290
1077.000000	67.782246
1076.000000	68.383510
1075.000000	68.917587
1074.000000	69.373397
1073.000000	69.737858
1072.000000	69.977263
1071.000000	70.031421
1070.000000	69.828935
1069.000000	69.286059
1068.000000	68.316848
1067.000000	66.833484
1066.000000	64.770420
1065.000000	62.120812
1064.000000	58.941481
1063.000000	55.369235
1062.000000	51.580994
1061.000000	47.718706
1060.000000	43.831491
1059.000000	39.861868
1058.000000	35.715726
1057.000000	31.382248
1056.000000	27.045147
1055.000000	23.075053
1054.000000	19.927310
1053.000000	17.979844
1052.000000	17.438397
1051.000000	18.300089
1050.000000	20.320273
1049.000000	23.107602
1048.000000	26.237963
1047.000000	29.362789
1046.000000	32.277119
1045.000000	34.911122
1044.000000	37.292239
1043.000000	39.470764
1042.000000	41.469562
1041.000000	43.279769
1040.000000	44.890474
1039.000000	46.298842
1038.000000	47.512982
1037.000000	48.554510
1036.000000	49.451459
1035.000000	50.237809
1034.000000	50.944686
1033.000000	51.599685
1032.000000	52.228145
1031.000000	52.847051
1030.000000	53.464662
1029.000000	54.082788
1028.000000	54.703716
1027.000000	55.337025
1026.000000	56.003240
1025.000000	56.728581
1024.000000	57.532345
1023.000000	58.413925
1022.000000	59.350259
1021.000000	60.302225
1020.000000	61.222342
1019.000000	62.058581
1018.000000	62.752790
1017.000000	63.240539
1016.000000	63.429198
1015.000000	63.202845
1014.000000	62.434088
1013.000000	60.992622
1012.000000	58.782337
1011.000000	55.738532
1010.000000	51.843759
1009.000000	47.144878
1008.000000	41.825640
1007.000000	36.339621
1006.000000	31.459853
1005.000000	28.093326
1004.000000	26.887252
1003.000000	27.874393
1002.000000	30.408823
1001.000000	33.492883
1000.000000	36.170237
999.000000	37.725227
998.000000	37.750368
997.000000	36.255220
996.000000	33.812676
995.000000	31.456163
994.000000	30.199308
993.000000	30.491869
992.000000	32.079598
991.000000	34.326214
990.000000	36.666580
989.000000	38.834058
988.000000	40.809376
987.000000	42.644690
986.000000	44.367750
985.000000	45.970426
984.000000	47.430361
983.000000	48.726704
982.000000	49.856075
981.000000	50.833795
980.000000	51.680612
979.000000	52.419453
978.000000	53.074014
977.000000	53.671352
976.000000	54.232262
975.000000	54.763692
974.000000	55.267388
973.000000	55.743388
972.000000	56.188966
971.000000	56.599390
970.000000	56.975221
969.000000	57.326507
968.000000	57.663558
967.000000	57.990636
966.000000	58.308911
965.000000	58.618316
964.000000	58.915147
963.000000	59.192327
962.000000	59.447405
961.000000	59.685688
960.000000	59.913248
959.000000	60.134123
958.000000	60.353989
957.000000	60.578961
956.000000	60.807032
955.000000	61.026558
954.000000	61.227565
953.000000	61.408212
952.000000	61.570407
951.000000	61.717804
950.000000	61.860440
949.000000	62.012732
948.000000	62.180965
947.000000	62.357767
946.000000	62.531253
945.000000	62.691510
944.000000	62.827998
943.000000	62.931253
942.000000	63.004002
941.000000	63.064270
940.000000	63.132882
939.000000	63.223452
938.000000	63.343403
937.000000	63.493496
936.000000	63.661508
935.000000	63.824891
934.000000	63.965750
933.000000	64.078811
932.000000	64.164682
931.000000	64.226587
930.000000	64.276730
929.000000	64.334249
928.000000	64.409806
927.000000	64.498877
926.000000	64.593670
925.000000	64.691118
924.000000	64.786584
923.000000	64.871403
922.000000	64.943526
921.000000	65.011262
920.000000	65.081857
919.000000	65.155516
918.000000	65.234024
917.000000	65.323425
916.000000	65.422852
915.000000	65.522472
914.000000	65.618274
913.000000	65.717745
912.000000	65.825274
911.000000	65.934727
910.000000	66.041910
909.000000	66.150316
908.000000	66.256618
907.000000	66.341913
906.000000	66.386021
905.000000	66.379284
904.000000	66.319841
903.000000	66.218947
902.000000	66.111590
901.000000	66.039745
900.000000	66.010039
899.000000	65.977716
898.000000	65.879437
897.000000	65.658895
896.000000	65.278909
895.000000	64.750831
894.000000	64.140930
893.000000	63.472961
892.000000	62.586928
891.000000	61.212406
890.000000	59.314761
889.000000	57.363141
888.000000	56.099236
887.000000	55.973362
886.000000	56.809501
885.000000	58.032573
884.000000	59.165883
883.000000	60.048541
882.000000	60.717078
881.000000	61.233159
880.000000	61.645136
879.000000	62.016459
878.000000	62.406935
877.000000	62.834216
876.000000	63.274756
875.000000	63.692798
874.000000	64.056975
873.000000	64.351055
872.000000	64.581261
871.000000	64.768150
870.000000	64.926832
869.000000	65.058058
868.000000	65.159491
867.000000	65.231079
866.000000	65.268364
865.000000	65.263933
864.000000	65.219096
863.000000	65.149917
862.000000	65.078068
861.000000	65.021514
860.000000	64.993766
859.000000	65.001777
858.000000	65.040678
857.000000	65.097384
856.000000	65.164132
855.000000	65.243212
854.000000	65.338258
853.000000	65.445270
852.000000	65.553478
851.000000	65.649561
850.000000	65.720012
849.000000	65.755663
848.000000	65.758607
847.000000	65.742923
846.000000	65.726516
845.000000	65.723823
844.000000	65.744108
843.000000	65.790306
842.000000	65.856180
841.000000	65.927643
840.000000	65.989977
839.000000	66.034115
838.000000	66.057756
837.000000	66.063906
836.000000	66.059649
835.000000	66.054473
834.000000	66.057770
833.000000	66.076388
832.000000	66.111623
831.000000	66.155900
830.000000	66.194842
829.000000	66.216841
828.000000	66.221802
827.000000	66.218941
826.000000	66.217616
825.000000	66.222461
824.000000	66.235038
823.000000	66.255365
822.000000	66.281683
821.000000	66.310785
820.000000	66.337720
819.000000	66.353415
818.000000	66.342052
817.000000	66.283504
816.000000	66.148377
815.000000	65.886143
814.000000	65.414828
813.000000	64.615077
812.000000	63.352855
811.000000	61.532144
810.000000	59.198509
809.000000	56.630247
808.000000	54.311254
807.000000	52.731092
806.000000	52.137331
805.000000	52.438858
804.000000	53.325070
803.000000	54.472207
802.000000	55.651612
801.000000	56.736151
800.000000	57.666290
799.000000	58.424841
798.000000	59.018921
797.000000	59.459203
796.000000	59.751739
795.000000	59.900880
794.000000	59.914850
793.000000	59.803600
792.000000	59.586327
791.000000	59.299011
790.000000	58.990477
789.000000	58.708074
788.000000	58.486600
787.000000	58.347594
786.000000	58.299029
785.000000	58.334715
784.000000	58.436214
783.000000	58.577737
782.000000	58.728175
781.000000	58.854625
780.000000	58.932950
779.000000	58.959952
778.000000	58.956812
777.000000	58.959447
776.000000	59.003579
775.000000	59.111885
774.000000	59.286654
773.000000	59.511435
772.000000	59.760587
771.000000	60.009634
770.000000	60.240082
769.000000	60.440095
768.000000	60.606402
767.000000	60.745094
766.000000	60.866999
765.000000	60.979761
764.000000	61.085111
763.000000	61.181470
762.000000	61.265879
761.000000	61.333539
760.000000	61.379061
759.000000	61.401222
758.000000	61.405509
757.000000	61.401996
756.000000	61.401373
755.000000	61.411133
754.000000	61.432074
753.000000	61.456945
752.000000	61.473991
751.000000	61.473095
750.000000	61.449034
749.000000	61.401582
748.000000	61.335837
747.000000	61.262217
746.000000	61.192317
745.000000	61.132034
744.000000	61.078481
743.000000	61.022237
742.000000	60.951445
741.000000	60.856465
740.000000	60.735416
739.000000	60.597070
738.000000	60.455860
737.000000	60.320796
736.000000	60.186998
735.000000	60.033070
734.000000	59.822649
733.000000	59.510741
732.000000	59.056340
731.000000	58.440327
730.000000	57.679008
729.000000	56.827292
728.000000	55.966555
727.000000	55.183887
726.000000	54.555141
725.000000	54.136746
724.000000	53.961331
723.000000	54.032640
722.000000	54.326922
721.000000	54.797539
720.000000	55.378523
719.000000	55.992732
718.000000	56.571163
717.000000	57.069845
716.000000	57.471263
715.000000	57.775328
714.000000	57.989485
713.000000	58.125348
712.000000	58.199412
711.000000	58.233395
710.000000	58.250790
709.000000	58.271893
708.000000	58.309615
707.000000	58.367057
706.000000	58.438288
705.000000	58.510193
704.000000	58.566065
703.000000	58.593104
702.000000	58.589274
701.000000	58.564024
700.000000	58.533907
699.000000	58.515334
698.000000	58.518004
697.000000	58.540088
696.000000	58.567957
695.000000	58.583978
694.000000	58.575238
693.000000	58.537363
692.000000	58.475106
691.000000	58.401968
690.000000	58.338172
689.000000	58.303041
688.000000	58.300370
687.000000	58.323763
686.000000	58.346481
685.000000	58.367991
684.000000	58.352022
683.000000	58.361349
682.000000	58.492601
681.000000	58.439329
680.000000	58.424485
679.000000	58.413783
678.000000	58.427279
677.000000	58.451221
676.000000	58.483161
675.000000	58.511907
674.000000	58.534400
673.000000	58.550575
672.000000	58.562412
671.000000	58.579075
670.000000	58.623829
669.000000	58.723257
668.000000	58.857995
667.000000	58.945069
666.000000	58.941343
665.000000	58.885595
664.000000	58.828796
663.000000	58.794113
662.000000	58.793198
661.000000	58.818381
660.000000	58.884095
659.000000	58.944585
658.000000	58.918535
657.000000	58.964921
656.000000	58.956434
655.000000	58.920523
654.000000	58.863397
653.000000	58.814279
652.000000	58.791479
651.000000	58.807554
650.000000	58.861563
649.000000	58.945466
648.000000	59.043417
647.000000	59.130201
646.000000	59.180679
645.000000	59.185251
644.000000	59.153813
643.000000	59.107632
642.000000	59.070774
641.000000	59.064186
640.000000	59.097562
639.000000	59.162314
638.000000	59.236371
637.000000	59.298546
636.000000	59.337101
635.000000	59.349115
634.000000	59.339695
633.000000	59.322390
632.000000	59.314008
631.000000	59.325564
630.000000	59.358846
629.000000	59.409795
628.000000	59.470507
627.000000	59.529343
626.000000	59.576484
625.000000	59.609587
624.000000	59.632666
623.000000	59.651101
622.000000	59.668138
621.000000	59.683502
620.000000	59.693101
619.000000	59.694255
618.000000	59.693575
617.000000	59.704963
616.000000	59.736018
615.000000	59.782774
614.000000	59.841925
613.000000	59.918940
612.000000	60.016099
611.000000	60.119033
610.000000	60.205279
609.000000	60.261812
608.000000	60.287015
607.000000	60.284044
606.000000	60.265690
605.000000	60.255605
604.000000	60.270916
603.000000	60.306287
602.000000	60.339024
601.000000	60.342625
600.000000	60.284911
599.000000	60.122998
598.000000	59.819320
597.000000	59.348696
596.000000	58.681967
595.000000	57.756818
594.000000	56.433135
593.000000	54.461880
592.000000	51.529409
591.000000	47.512483
590.000000	42.824246
589.000000	38.491642
588.000000	35.739867
587.000000	35.312218
586.000000	37.002580
585.000000	39.835964
584.000000	42.799859
583.000000	45.362351
582.000000	47.438398
581.000000	49.112597
580.000000	50.470312
579.000000	51.575018
578.000000	52.475011
577.000000	53.203413
576.000000	53.789003
575.000000	54.267287
574.000000	54.661706
573.000000	54.982604
572.000000	55.246185
571.000000	55.477615
570.000000	55.690238
569.000000	55.872666
568.000000	56.012228
567.000000	56.109996
566.000000	56.160279
565.000000	56.133506
564.000000	55.991664
563.000000	55.721982
562.000000	55.351382
561.000000	54.936193
560.000000	54.542044
559.000000	54.214471
558.000000	53.954228
557.000000	53.736087
556.000000	53.570583
555.000000	53.525806
554.000000	53.670519
553.000000	54.006790
552.000000	54.469990
551.000000	54.972285
550.000000	55.435153
549.000000	55.814372
548.000000	56.112647
547.000000	56.362275
546.000000	56.590733
545.000000	56.806185
544.000000	57.008375
543.000000	57.193747
542.000000	57.347721
541.000000	57.446577
540.000000	57.479305
539.000000	57.459151
538.000000	57.412759
537.000000	57.366271
536.000000	57.340913
535.000000	57.348557
534.000000	57.382290
533.000000	57.420164
532.000000	57.442831
531.000000	57.441120
530.000000	57.408517
529.000000	57.338074
528.000000	57.228298
527.000000	57.083373
526.000000	56.897305
525.000000	56.646431
524.000000	56.299607
523.000000	55.825264
522.000000	55.193793
521.000000	54.373068
520.000000	53.333204
519.000000	52.053320
518.000000	50.532413
517.000000	48.831151
516.000000	47.112861
515.000000	45.614680
514.000000	44.544852
513.000000	44.018704
512.000000	44.063729
511.000000	44.637977
510.000000	45.619029
509.000000	46.833247
508.000000	48.138312
507.000000	49.433022
506.000000	50.626855
505.000000	51.657994
504.000000	52.534197
503.000000	53.311800
502.000000	54.028560
501.000000	54.681515
500.000000	55.266759
499.000000	55.805145
498.000000	56.313173
497.000000	56.784952
496.000000	57.204936
495.000000	57.557412
494.000000	57.827139
493.000000	58.007795
492.000000	58.123856
491.000000	58.222386
490.000000	58.331719
489.000000	58.448024
488.000000	58.556740
487.000000	58.641141
486.000000	58.656985
485.000000	58.516792
484.000000	58.126625
483.000000	57.418744
482.000000	56.355707
481.000000	54.924085
480.000000	53.128586
479.000000	50.992479
478.000000	48.555875
477.000000	45.933827
476.000000	43.388997
475.000000	41.310758
474.000000	40.051132
473.000000	39.778518
472.000000	40.441078
471.000000	41.806429
470.000000	43.582363
469.000000	45.516944
468.000000	47.437672
467.000000	49.223717
466.000000	50.785927
465.000000	52.092974
464.000000	53.179300
463.000000	54.112910
462.000000	54.946058
461.000000	55.695207
460.000000	56.349956
459.000000	56.904563
458.000000	57.362667
457.000000	57.722849
456.000000	57.987462
455.000000	58.181104
454.000000	58.357075
453.000000	58.573412
452.000000	58.852150
451.000000	59.161108
450.000000	59.443202
449.000000	59.662372
448.000000	59.815366
447.000000	59.920528
446.000000	60.001692
445.000000	60.074968
444.000000	60.148868
443.000000	60.238768
442.000000	60.370757
441.000000	60.556741
440.000000	60.770742
439.000000	60.965828
438.000000	61.112100
437.000000	61.207293
436.000000	61.257220
435.000000	61.263673
434.000000	61.233960
433.000000	61.184382
432.000000	61.127390
431.000000	61.069406
430.000000	61.016358
429.000000	60.974039
428.000000	60.939118
427.000000	60.910663
426.000000	60.904425
425.000000	60.944845
424.000000	61.040879
423.000000	61.173853
422.000000	61.309197
421.000000	61.415768
420.000000	61.485623
419.000000	61.568396
418.000000	61.742399
417.000000	62.010955
416.000000	62.311932
415.000000	62.599475
414.000000	62.855063
413.000000	63.069038
412.000000	63.219844
411.000000	63.280494
410.000000	63.242414
409.000000	63.099731
408.000000	62.819878
407.000000	62.413118
406.000000	62.043786
405.000000	61.957307
404.000000	62.255187
403.000000	62.787340
402.000000	63.283409
401.000000	63.565619
400.000000	63.632855
