PE IR       SUBTECH     SPECTRUM    ASCII       PEDS        4.00        
   -1
23ms182-trans.asc
24/09/23
16:24:37.00
24/09/23
16:24:37.00
Administrator
Sample 1188 By Administrator Date Monday, September 23 2024
400.000000
#HDR
-1
-1
#GR
cm-1
%T
1.0
0.0
4000.000000
-1.000000
3601
8
65.808523
2.406476
#DATA
4000.000000	28.498274
3999.000000	28.475812
3998.000000	28.451557
3997.000000	28.425581
3996.000000	28.398591
3995.000000	28.371134
3994.000000	28.342649
3993.000000	28.311562
3992.000000	28.276653
3991.000000	28.238224
3990.000000	28.198124
3989.000000	28.158984
3988.000000	28.123594
3987.000000	28.094517
3986.000000	28.073310
3985.000000	28.059719
3984.000000	28.051643
3983.000000	28.046044
3982.000000	28.039979
3981.000000	28.031282
3980.000000	28.018904
3979.000000	28.002946
3978.000000	27.984623
3977.000000	27.965915
3976.000000	27.949011
3975.000000	27.936001
3974.000000	27.928924
3973.000000	27.929722
3972.000000	27.939904
3971.000000	27.960300
3970.000000	27.991183
3969.000000	28.031905
3968.000000	28.080725
3967.000000	28.135297
3966.000000	28.193167
3965.000000	28.252172
3964.000000	28.310312
3963.000000	28.365942
3962.000000	28.418008
3961.000000	28.466106
3960.000000	28.510270
3959.000000	28.550916
3958.000000	28.589006
3957.000000	28.625395
3956.000000	28.660454
3955.000000	28.694710
3954.000000	28.728925
3953.000000	28.763411
3952.000000	28.797457
3951.000000	28.830217
3950.000000	28.861889
3949.000000	28.894018
3948.000000	28.928670
3947.000000	28.966521
3946.000000	29.006109
3945.000000	29.045618
3944.000000	29.084676
3943.000000	29.123669
3942.000000	29.161881
3941.000000	29.197411
3940.000000	29.229419
3939.000000	29.259488
3938.000000	29.289896
3937.000000	29.320491
3936.000000	29.348919
3935.000000	29.373892
3934.000000	29.395980
3933.000000	29.416020
3932.000000	29.433678
3931.000000	29.448962
3930.000000	29.463820
3929.000000	29.480464
3928.000000	29.498921
3927.000000	29.516735
3926.000000	29.532422
3925.000000	29.547884
3924.000000	29.564962
3923.000000	29.582462
3922.000000	29.599709
3921.000000	29.619148
3920.000000	29.641536
3919.000000	29.662517
3918.000000	29.678282
3917.000000	29.691228
3916.000000	29.705818
3915.000000	29.722532
3914.000000	29.739324
3913.000000	29.756672
3912.000000	29.776810
3911.000000	29.799896
3910.000000	29.826188
3909.000000	29.858380
3908.000000	29.898502
3907.000000	29.945281
3906.000000	29.993173
3905.000000	30.036458
3904.000000	30.072828
3903.000000	30.103096
3902.000000	30.127401
3901.000000	30.145630
3900.000000	30.160239
3899.000000	30.173853
3898.000000	30.184756
3897.000000	30.191485
3896.000000	30.199180
3895.000000	30.214331
3894.000000	30.235829
3893.000000	30.254920
3892.000000	30.267393
3891.000000	30.282284
3890.000000	30.309490
3889.000000	30.343983
3888.000000	30.373517
3887.000000	30.394009
3886.000000	30.407247
3885.000000	30.418266
3884.000000	30.430147
3883.000000	30.439189
3882.000000	30.444142
3881.000000	30.448682
3880.000000	30.453855
3879.000000	30.460283
3878.000000	30.467804
3877.000000	30.475725
3876.000000	30.486810
3875.000000	30.504472
3874.000000	30.530124
3873.000000	30.560767
3872.000000	30.586048
3871.000000	30.600465
3870.000000	30.613957
3869.000000	30.637082
3868.000000	30.662610
3867.000000	30.677539
3866.000000	30.685839
3865.000000	30.696168
3864.000000	30.702696
3863.000000	30.699786
3862.000000	30.694222
3861.000000	30.694517
3860.000000	30.704243
3859.000000	30.729492
3858.000000	30.783792
3857.000000	30.877437
3856.000000	30.995516
3855.000000	31.090797
3854.000000	31.120379
3853.000000	31.110623
3852.000000	31.117600
3851.000000	31.128588
3850.000000	31.101126
3849.000000	31.042747
3848.000000	30.980485
3847.000000	30.928815
3846.000000	30.898386
3845.000000	30.892292
3844.000000	30.904559
3843.000000	30.929647
3842.000000	30.965512
3841.000000	31.006956
3840.000000	31.046462
3839.000000	31.077663
3838.000000	31.097033
3837.000000	31.109837
3836.000000	31.123654
3835.000000	31.137295
3834.000000	31.143177
3833.000000	31.138559
3832.000000	31.128801
3831.000000	31.121989
3830.000000	31.121009
3829.000000	31.124305
3828.000000	31.131312
3827.000000	31.145478
3826.000000	31.173034
3825.000000	31.215177
3824.000000	31.264036
3823.000000	31.307556
3822.000000	31.336647
3821.000000	31.358616
3820.000000	31.390152
3819.000000	31.425805
3818.000000	31.446820
3817.000000	31.453690
3816.000000	31.454266
3815.000000	31.450891
3814.000000	31.443047
3813.000000	31.431261
3812.000000	31.427043
3811.000000	31.439778
3810.000000	31.464377
3809.000000	31.492184
3808.000000	31.518049
3807.000000	31.546005
3806.000000	31.586751
3805.000000	31.636765
3804.000000	31.680609
3803.000000	31.709146
3802.000000	31.720170
3801.000000	31.719958
3800.000000	31.719072
3799.000000	31.714500
3798.000000	31.702319
3797.000000	31.689014
3796.000000	31.674592
3795.000000	31.657346
3794.000000	31.642844
3793.000000	31.638525
3792.000000	31.646797
3791.000000	31.661723
3790.000000	31.677073
3789.000000	31.693298
3788.000000	31.712621
3787.000000	31.733056
3786.000000	31.751685
3785.000000	31.769472
3784.000000	31.789658
3783.000000	31.811427
3782.000000	31.830724
3781.000000	31.846186
3780.000000	31.859732
3779.000000	31.872941
3778.000000	31.885284
3777.000000	31.894315
3776.000000	31.900915
3775.000000	31.911264
3774.000000	31.928863
3773.000000	31.950585
3772.000000	31.971284
3771.000000	31.988836
3770.000000	32.004647
3769.000000	32.019426
3768.000000	32.028644
3767.000000	32.027784
3766.000000	32.019930
3765.000000	32.012622
3764.000000	32.008399
3763.000000	32.004648
3762.000000	32.001996
3761.000000	32.004957
3760.000000	32.013165
3759.000000	32.021455
3758.000000	32.031752
3757.000000	32.054286
3756.000000	32.095213
3755.000000	32.154098
3754.000000	32.228908
3753.000000	32.311660
3752.000000	32.382585
3751.000000	32.426930
3750.000000	32.457496
3749.000000	32.498133
3748.000000	32.546899
3747.000000	32.583725
3746.000000	32.597348
3745.000000	32.584870
3744.000000	32.560454
3743.000000	32.545557
3742.000000	32.528964
3741.000000	32.497053
3740.000000	32.468466
3739.000000	32.452878
3738.000000	32.444449
3737.000000	32.444933
3736.000000	32.459965
3735.000000	32.490731
3734.000000	32.525346
3733.000000	32.549289
3732.000000	32.562781
3731.000000	32.570164
3730.000000	32.566631
3729.000000	32.549420
3728.000000	32.526084
3727.000000	32.506213
3726.000000	32.492939
3725.000000	32.484207
3724.000000	32.478221
3723.000000	32.476399
3722.000000	32.479170
3721.000000	32.482162
3720.000000	32.482594
3719.000000	32.481711
3718.000000	32.483947
3717.000000	32.495048
3716.000000	32.517444
3715.000000	32.550234
3714.000000	32.589178
3713.000000	32.623804
3712.000000	32.644137
3711.000000	32.652749
3710.000000	32.657746
3709.000000	32.657504
3708.000000	32.645509
3707.000000	32.622646
3706.000000	32.595758
3705.000000	32.571695
3704.000000	32.553902
3703.000000	32.541507
3702.000000	32.532003
3701.000000	32.524999
3700.000000	32.519444
3699.000000	32.510154
3698.000000	32.494631
3697.000000	32.478045
3696.000000	32.465778
3695.000000	32.458821
3694.000000	32.459504
3693.000000	32.472640
3692.000000	32.497337
3691.000000	32.521413
3690.000000	32.529391
3689.000000	32.518386
3688.000000	32.500347
3687.000000	32.479869
3686.000000	32.444558
3685.000000	32.388486
3684.000000	32.322412
3683.000000	32.257849
3682.000000	32.201017
3681.000000	32.160773
3680.000000	32.148221
3679.000000	32.163963
3678.000000	32.187241
3677.000000	32.187941
3676.000000	32.158375
3675.000000	32.126438
3674.000000	32.110672
3673.000000	32.085362
3672.000000	32.029592
3671.000000	31.951802
3670.000000	31.860597
3669.000000	31.764726
3668.000000	31.670246
3667.000000	31.572965
3666.000000	31.471616
3665.000000	31.368087
3664.000000	31.263584
3663.000000	31.161365
3662.000000	31.066995
3661.000000	30.986035
3660.000000	30.917526
3659.000000	30.851952
3658.000000	30.776365
3657.000000	30.686004
3656.000000	30.591058
3655.000000	30.503527
3654.000000	30.421365
3653.000000	30.337414
3652.000000	30.248667
3651.000000	30.144371
3650.000000	30.010153
3649.000000	29.851749
3648.000000	29.692742
3647.000000	29.544735
3646.000000	29.396618
3645.000000	29.234336
3644.000000	29.059217
3643.000000	28.882446
3642.000000	28.712175
3641.000000	28.549008
3640.000000	28.389375
3639.000000	28.231844
3638.000000	28.076857
3637.000000	27.921554
3636.000000	27.760571
3635.000000	27.596385
3634.000000	27.441741
3633.000000	27.305626
3632.000000	27.179822
3631.000000	27.041372
3630.000000	26.868887
3629.000000	26.668931
3628.000000	26.474760
3627.000000	26.296121
3626.000000	26.111613
3625.000000	25.914902
3624.000000	25.717531
3623.000000	25.526233
3622.000000	25.340980
3621.000000	25.156825
3620.000000	24.968390
3619.000000	24.777362
3618.000000	24.590025
3617.000000	24.406698
3616.000000	24.221097
3615.000000	24.030226
3614.000000	23.837714
3613.000000	23.649736
3612.000000	23.469155
3611.000000	23.291403
3610.000000	23.108826
3609.000000	22.919517
3608.000000	22.728545
3607.000000	22.540256
3606.000000	22.354164
3605.000000	22.169237
3604.000000	21.986225
3603.000000	21.804560
3602.000000	21.622269
3601.000000	21.440473
3600.000000	21.263220
3599.000000	21.091660
3598.000000	20.922516
3597.000000	20.752202
3596.000000	20.578979
3595.000000	20.404084
3594.000000	20.232082
3593.000000	20.067735
3592.000000	19.912200
3591.000000	19.760840
3590.000000	19.604767
3589.000000	19.436874
3588.000000	19.259167
3587.000000	19.082174
3586.000000	18.914206
3585.000000	18.755059
3584.000000	18.601439
3583.000000	18.450840
3582.000000	18.300983
3581.000000	18.151700
3580.000000	18.004881
3579.000000	17.861103
3578.000000	17.719183
3577.000000	17.578774
3576.000000	17.440628
3575.000000	17.304352
3574.000000	17.169088
3573.000000	17.035978
3572.000000	16.907828
3571.000000	16.785560
3570.000000	16.666666
3569.000000	16.548060
3568.000000	16.429315
3567.000000	16.312399
3566.000000	16.198475
3565.000000	16.086208
3564.000000	15.974099
3563.000000	15.862684
3562.000000	15.753478
3561.000000	15.648270
3560.000000	15.548272
3559.000000	15.452354
3558.000000	15.358188
3557.000000	15.264893
3556.000000	15.172456
3555.000000	15.079474
3554.000000	14.984585
3553.000000	14.889699
3552.000000	14.798316
3551.000000	14.710467
3550.000000	14.622040
3549.000000	14.529301
3548.000000	14.431738
3547.000000	14.331441
3546.000000	14.232647
3545.000000	14.140670
3544.000000	14.058156
3543.000000	13.982870
3542.000000	13.910500
3541.000000	13.837899
3540.000000	13.762775
3539.000000	13.683044
3538.000000	13.599481
3537.000000	13.517517
3536.000000	13.442608
3535.000000	13.374444
3534.000000	13.308240
3533.000000	13.240726
3532.000000	13.171697
3531.000000	13.101107
3530.000000	13.028219
3529.000000	12.953146
3528.000000	12.876209
3527.000000	12.796199
3526.000000	12.712646
3525.000000	12.629443
3524.000000	12.552669
3523.000000	12.484358
3522.000000	12.421145
3521.000000	12.358690
3520.000000	12.294636
3519.000000	12.227629
3518.000000	12.156699
3517.000000	12.082347
3516.000000	12.006408
3515.000000	11.930838
3514.000000	11.857535
3513.000000	11.788188
3512.000000	11.722497
3511.000000	11.657402
3510.000000	11.589989
3509.000000	11.520390
3508.000000	11.449729
3507.000000	11.376566
3506.000000	11.298483
3505.000000	11.216601
3504.000000	11.136006
3503.000000	11.061680
3502.000000	10.995197
3501.000000	10.934583
3500.000000	10.875769
3499.000000	10.815037
3498.000000	10.752099
3497.000000	10.690211
3496.000000	10.631973
3495.000000	10.576381
3494.000000	10.521443
3493.000000	10.467434
3492.000000	10.415190
3491.000000	10.363329
3490.000000	10.310055
3489.000000	10.256426
3488.000000	10.205351
3487.000000	10.158303
3486.000000	10.114973
3485.000000	10.074451
3484.000000	10.034241
3483.000000	9.990365
3482.000000	9.941762
3481.000000	9.893403
3480.000000	9.851948
3479.000000	9.819052
3478.000000	9.791336
3477.000000	9.765094
3476.000000	9.738135
3475.000000	9.708423
3474.000000	9.673974
3473.000000	9.633945
3472.000000	9.588366
3471.000000	9.538302
3470.000000	9.487966
3469.000000	9.444664
3468.000000	9.413847
3467.000000	9.394732
3466.000000	9.382120
3465.000000	9.370669
3464.000000	9.355977
3463.000000	9.334759
3462.000000	9.307471
3461.000000	9.279280
3460.000000	9.255350
3459.000000	9.235956
3458.000000	9.218027
3457.000000	9.199526
3456.000000	9.179972
3455.000000	9.158766
3454.000000	9.135894
3453.000000	9.113083
3452.000000	9.091595
3451.000000	9.070039
3450.000000	9.046800
3449.000000	9.023214
3448.000000	9.001899
3447.000000	8.983152
3446.000000	8.965449
3445.000000	8.948253
3444.000000	8.931805
3443.000000	8.915149
3442.000000	8.896515
3441.000000	8.874758
3440.000000	8.848985
3439.000000	8.818671
3438.000000	8.786268
3437.000000	8.757862
3436.000000	8.738628
3435.000000	8.728329
3434.000000	8.722446
3433.000000	8.716297
3432.000000	8.707143
3431.000000	8.694844
3430.000000	8.682651
3429.000000	8.675205
3428.000000	8.673501
3427.000000	8.673511
3426.000000	8.670987
3425.000000	8.665287
3424.000000	8.657355
3423.000000	8.647201
3422.000000	8.635706
3421.000000	8.625948
3420.000000	8.619805
3419.000000	8.615167
3418.000000	8.608742
3417.000000	8.599494
3416.000000	8.587790
3415.000000	8.574067
3414.000000	8.560421
3413.000000	8.550590
3412.000000	8.545973
3411.000000	8.544128
3410.000000	8.543220
3409.000000	8.545027
3408.000000	8.550863
3407.000000	8.557269
3406.000000	8.558599
3405.000000	8.551914
3404.000000	8.537704
3403.000000	8.518999
3402.000000	8.502357
3401.000000	8.496376
3400.000000	8.505161
3399.000000	8.524259
3398.000000	8.545009
3397.000000	8.561062
3396.000000	8.569335
3395.000000	8.568699
3394.000000	8.561919
3393.000000	8.556807
3392.000000	8.561316
3391.000000	8.577448
3390.000000	8.601452
3389.000000	8.628170
3388.000000	8.653277
3387.000000	8.673875
3386.000000	8.689932
3385.000000	8.703954
3384.000000	8.717477
3383.000000	8.729515
3382.000000	8.739634
3381.000000	8.749995
3380.000000	8.762566
3379.000000	8.776773
3378.000000	8.791887
3377.000000	8.809119
3376.000000	8.828984
3375.000000	8.848673
3374.000000	8.864447
3373.000000	8.875250
3372.000000	8.882582
3371.000000	8.889195
3370.000000	8.899529
3369.000000	8.918817
3368.000000	8.949096
3367.000000	8.987396
3366.000000	9.029161
3365.000000	9.071198
3364.000000	9.110606
3363.000000	9.144457
3362.000000	9.173025
3361.000000	9.200805
3360.000000	9.231742
3359.000000	9.265363
3358.000000	9.299395
3357.000000	9.333393
3356.000000	9.367262
3355.000000	9.398912
3354.000000	9.426503
3353.000000	9.451804
3352.000000	9.479212
3351.000000	9.512519
3350.000000	9.553501
3349.000000	9.601372
3348.000000	9.651936
3347.000000	9.699332
3346.000000	9.740866
3345.000000	9.778893
3344.000000	9.816904
3343.000000	9.855686
3342.000000	9.894356
3341.000000	9.932927
3340.000000	9.972419
3339.000000	10.014273
3338.000000	10.060607
3337.000000	10.112770
3336.000000	10.168529
3335.000000	10.222995
3334.000000	10.273413
3333.000000	10.320900
3332.000000	10.366889
3331.000000	10.410574
3330.000000	10.450810
3329.000000	10.487879
3328.000000	10.522204
3327.000000	10.554054
3326.000000	10.585352
3325.000000	10.618742
3324.000000	10.653669
3323.000000	10.686025
3322.000000	10.712887
3321.000000	10.734688
3320.000000	10.751725
3319.000000	10.762040
3318.000000	10.763979
3317.000000	10.757942
3316.000000	10.743664
3315.000000	10.718439
3314.000000	10.679867
3313.000000	10.627325
3312.000000	10.559935
3311.000000	10.476211
3310.000000	10.377305
3309.000000	10.268501
3308.000000	10.155355
3307.000000	10.041156
3306.000000	9.929198
3305.000000	9.823585
3304.000000	9.725879
3303.000000	9.633811
3302.000000	9.545448
3301.000000	9.462131
3300.000000	9.386127
3299.000000	9.318369
3298.000000	9.260581
3297.000000	9.216143
3296.000000	9.186016
3295.000000	9.166770
3294.000000	9.154065
3293.000000	9.145611
3292.000000	9.138862
3291.000000	9.128557
3290.000000	9.109366
3289.000000	9.078781
3288.000000	9.035852
3287.000000	8.979796
3286.000000	8.911485
3285.000000	8.833031
3284.000000	8.744292
3283.000000	8.641514
3282.000000	8.520775
3281.000000	8.380639
3280.000000	8.219380
3279.000000	8.033775
3278.000000	7.822454
3277.000000	7.587680
3276.000000	7.332824
3275.000000	7.059952
3274.000000	6.772798
3273.000000	6.479897
3272.000000	6.192700
3271.000000	5.922958
3270.000000	5.683110
3269.000000	5.485735
3268.000000	5.339937
3267.000000	5.251191
3266.000000	5.223385
3265.000000	5.259493
3264.000000	5.357229
3263.000000	5.505809
3262.000000	5.690688
3261.000000	5.895607
3260.000000	6.101568
3259.000000	6.287953
3258.000000	6.437459
3257.000000	6.538269
3256.000000	6.580820
3255.000000	6.555022
3254.000000	6.452586
3253.000000	6.270643
3252.000000	6.008455
3251.000000	5.668430
3250.000000	5.260435
3249.000000	4.803260
3248.000000	4.322021
3247.000000	3.843122
3246.000000	3.394466
3245.000000	3.004716
3244.000000	2.698973
3243.000000	2.495199
3242.000000	2.406476
3241.000000	2.438606
3240.000000	2.583349
3239.000000	2.819253
3238.000000	3.117464
3237.000000	3.450851
3236.000000	3.796377
3235.000000	4.136243
3234.000000	4.461846
3233.000000	4.770280
3232.000000	5.057731
3231.000000	5.317998
3230.000000	5.548121
3229.000000	5.750877
3228.000000	5.930602
3227.000000	6.089900
3226.000000	6.231808
3225.000000	6.361416
3224.000000	6.482018
3223.000000	6.593736
3222.000000	6.696459
3221.000000	6.791041
3220.000000	6.876480
3219.000000	6.948589
3218.000000	7.004076
3217.000000	7.042354
3216.000000	7.062825
3215.000000	7.064342
3214.000000	7.048055
3213.000000	7.018518
3212.000000	6.979844
3211.000000	6.933927
3210.000000	6.883694
3209.000000	6.833828
3208.000000	6.787508
3207.000000	6.745236
3206.000000	6.708013
3205.000000	6.678317
3204.000000	6.656712
3203.000000	6.640995
3202.000000	6.629929
3201.000000	6.624568
3200.000000	6.624669
3199.000000	6.627569
3198.000000	6.631650
3197.000000	6.637588
3196.000000	6.645325
3195.000000	6.653203
3194.000000	6.661297
3193.000000	6.671654
3192.000000	6.684075
3191.000000	6.695553
3190.000000	6.705121
3189.000000	6.715837
3188.000000	6.730693
3187.000000	6.750194
3186.000000	6.775259
3185.000000	6.808269
3184.000000	6.849622
3183.000000	6.896426
3182.000000	6.945863
3181.000000	6.996662
3180.000000	7.045990
3179.000000	7.088778
3178.000000	7.121759
3177.000000	7.145298
3176.000000	7.160526
3175.000000	7.168525
3174.000000	7.173299
3173.000000	7.181644
3172.000000	7.198455
3171.000000	7.225605
3170.000000	7.266203
3169.000000	7.325918
3168.000000	7.408761
3167.000000	7.514289
3166.000000	7.641175
3165.000000	7.789601
3164.000000	7.959660
3163.000000	8.151820
3162.000000	8.368926
3161.000000	8.615247
3160.000000	8.890450
3159.000000	9.187402
3158.000000	9.496727
3157.000000	9.808884
3156.000000	10.112796
3155.000000	10.396861
3154.000000	10.653785
3153.000000	10.881521
3152.000000	11.079237
3151.000000	11.245435
3150.000000	11.380921
3149.000000	11.490268
3148.000000	11.577442
3147.000000	11.643802
3146.000000	11.689108
3145.000000	11.711081
3144.000000	11.703524
3143.000000	11.656429
3142.000000	11.562056
3141.000000	11.417676
3140.000000	11.222888
3139.000000	10.979482
3138.000000	10.692836
3137.000000	10.372579
3136.000000	10.029064
3135.000000	9.672227
3134.000000	9.315461
3133.000000	8.975344
3132.000000	8.666648
3131.000000	8.399353
3130.000000	8.181049
3129.000000	8.016816
3128.000000	7.906045
3127.000000	7.842029
3126.000000	7.816748
3125.000000	7.824004
3124.000000	7.856125
3123.000000	7.904798
3122.000000	7.965780
3121.000000	8.039596
3120.000000	8.126746
3119.000000	8.224399
3118.000000	8.329931
3117.000000	8.442377
3116.000000	8.558872
3115.000000	8.672795
3114.000000	8.776566
3113.000000	8.863113
3112.000000	8.923983
3111.000000	8.951039
3110.000000	8.940496
3109.000000	8.893354
3108.000000	8.809720
3107.000000	8.686891
3106.000000	8.525067
3105.000000	8.329838
3104.000000	8.109750
3103.000000	7.874070
3102.000000	7.635569
3101.000000	7.411019
3100.000000	7.215801
3099.000000	7.060035
3098.000000	6.950408
3097.000000	6.892384
3096.000000	6.887001
3095.000000	6.930742
3094.000000	7.018949
3093.000000	7.147958
3092.000000	7.313831
3091.000000	7.510738
3090.000000	7.733719
3089.000000	7.977993
3088.000000	8.236140
3087.000000	8.500261
3086.000000	8.766679
3085.000000	9.036033
3084.000000	9.307030
3083.000000	9.574316
3082.000000	9.833342
3081.000000	10.083317
3080.000000	10.324770
3079.000000	10.557852
3078.000000	10.784127
3077.000000	11.005846
3076.000000	11.222566
3075.000000	11.431430
3074.000000	11.631818
3073.000000	11.826384
3072.000000	12.016531
3071.000000	12.200824
3070.000000	12.378855
3069.000000	12.553472
3068.000000	12.727896
3067.000000	12.903138
3066.000000	13.079182
3065.000000	13.255636
3064.000000	13.430378
3063.000000	13.600533
3062.000000	13.765394
3061.000000	13.926109
3060.000000	14.082331
3059.000000	14.232187
3058.000000	14.375866
3057.000000	14.515830
3056.000000	14.653120
3055.000000	14.786329
3054.000000	14.914693
3053.000000	15.039595
3052.000000	15.162401
3051.000000	15.283515
3050.000000	15.403570
3049.000000	15.522581
3048.000000	15.638064
3047.000000	15.746724
3046.000000	15.848379
3045.000000	15.945571
3044.000000	16.039650
3043.000000	16.130457
3042.000000	16.219332
3041.000000	16.308726
3040.000000	16.398288
3039.000000	16.484595
3038.000000	16.565774
3037.000000	16.643810
3036.000000	16.722293
3035.000000	16.804497
3034.000000	16.893500
3033.000000	16.990785
3032.000000	17.093948
3031.000000	17.198493
3030.000000	17.302178
3029.000000	17.405478
3028.000000	17.508401
3027.000000	17.610216
3026.000000	17.712385
3025.000000	17.818228
3024.000000	17.928964
3023.000000	18.042617
3022.000000	18.157328
3021.000000	18.273109
3020.000000	18.389937
3019.000000	18.506773
3018.000000	18.623049
3017.000000	18.739060
3016.000000	18.854778
3015.000000	18.970356
3014.000000	19.087798
3013.000000	19.209768
3012.000000	19.336492
3011.000000	19.465552
3010.000000	19.594232
3009.000000	19.720185
3008.000000	19.840326
3007.000000	19.951709
3006.000000	20.053279
3005.000000	20.145201
3004.000000	20.226289
3003.000000	20.293115
3002.000000	20.340695
3001.000000	20.358144
3000.000000	20.321298
2999.000000	20.189396
2998.000000	19.917991
2997.000000	19.493079
2996.000000	18.969070
2995.000000	18.475843
2994.000000	18.165751
2993.000000	18.131130
2992.000000	18.354038
2991.000000	18.733152
2990.000000	19.153638
2989.000000	19.538684
2988.000000	19.858429
2987.000000	20.113788
2986.000000	20.321624
2985.000000	20.500695
2984.000000	20.662904
2983.000000	20.810885
2982.000000	20.942856
2981.000000	21.052463
2980.000000	21.123701
2979.000000	21.130636
2978.000000	21.049496
2977.000000	20.879209
2976.000000	20.657004
2975.000000	20.457402
2974.000000	20.364172
2973.000000	20.428289
2972.000000	20.642399
2971.000000	20.953043
2970.000000	21.296209
2969.000000	21.623331
2968.000000	21.907287
2967.000000	22.137800
2966.000000	22.317117
2965.000000	22.452149
2964.000000	22.547677
2963.000000	22.602942
2962.000000	22.612030
2961.000000	22.559388
2960.000000	22.408964
2959.000000	22.101983
2958.000000	21.572909
2957.000000	20.794974
2956.000000	19.834371
2955.000000	18.872370
2954.000000	18.145934
2953.000000	17.824431
2952.000000	17.912925
2951.000000	18.262653
2950.000000	18.676895
2949.000000	19.013667
2948.000000	19.229115
2947.000000	19.359415
2946.000000	19.478868
2945.000000	19.652578
2944.000000	19.905018
2943.000000	20.219284
2942.000000	20.561049
2941.000000	20.902112
2940.000000	21.228408
2939.000000	21.538502
2938.000000	21.841108
2937.000000	22.148096
2936.000000	22.465486
2935.000000	22.790833
2934.000000	23.118514
2933.000000	23.442881
2932.000000	23.756958
2931.000000	24.054226
2930.000000	24.332912
2929.000000	24.594619
2928.000000	24.838260
2927.000000	25.059964
2926.000000	25.259241
2925.000000	25.439699
2924.000000	25.603675
2923.000000	25.750479
2922.000000	25.880447
2921.000000	25.995642
2920.000000	26.095692
2919.000000	26.177742
2918.000000	26.240746
2917.000000	26.286162
2916.000000	26.314946
2915.000000	26.328175
2914.000000	26.330883
2913.000000	26.330421
2912.000000	26.330752
2911.000000	26.331845
2910.000000	26.334059
2909.000000	26.338956
2908.000000	26.345629
2907.000000	26.351135
2906.000000	26.355041
2905.000000	26.359900
2904.000000	26.367113
2903.000000	26.376185
2902.000000	26.388326
2901.000000	26.406453
2900.000000	26.430747
2899.000000	26.457489
2898.000000	26.482374
2897.000000	26.501760
2896.000000	26.510907
2895.000000	26.505378
2894.000000	26.485308
2893.000000	26.455365
2892.000000	26.420161
2891.000000	26.382818
2890.000000	26.347284
2889.000000	26.318043
2888.000000	26.296714
2887.000000	26.282515
2886.000000	26.276318
2885.000000	26.280840
2884.000000	26.296832
2883.000000	26.322382
2882.000000	26.356221
2881.000000	26.398002
2880.000000	26.445119
2879.000000	26.492214
2878.000000	26.534086
2877.000000	26.565833
2876.000000	26.581114
2875.000000	26.575316
2874.000000	26.551242
2873.000000	26.517833
2872.000000	26.482047
2871.000000	26.445401
2870.000000	26.409612
2869.000000	26.383021
2868.000000	26.380446
2867.000000	26.418682
2866.000000	26.511281
2865.000000	26.661811
2864.000000	26.860242
2863.000000	27.088125
2862.000000	27.328319
2861.000000	27.568818
2860.000000	27.800513
2859.000000	28.016364
2858.000000	28.213555
2857.000000	28.392669
2856.000000	28.553317
2855.000000	28.693899
2854.000000	28.814650
2853.000000	28.917559
2852.000000	29.003345
2851.000000	29.071924
2850.000000	29.125918
2849.000000	29.170652
2848.000000	29.210639
2847.000000	29.248689
2846.000000	29.288229
2845.000000	29.332578
2844.000000	29.381946
2843.000000	29.433914
2842.000000	29.487079
2841.000000	29.542051
2840.000000	29.599293
2839.000000	29.658830
2838.000000	29.721658
2837.000000	29.788635
2836.000000	29.858110
2835.000000	29.927330
2834.000000	29.995696
2833.000000	30.064193
2832.000000	30.132331
2831.000000	30.198623
2830.000000	30.263546
2829.000000	30.328982
2828.000000	30.394999
2827.000000	30.460083
2826.000000	30.524153
2825.000000	30.588366
2824.000000	30.652284
2823.000000	30.714102
2822.000000	30.773527
2821.000000	30.831590
2820.000000	30.887910
2819.000000	30.941008
2818.000000	30.991123
2817.000000	31.039964
2816.000000	31.087856
2815.000000	31.133785
2814.000000	31.177984
2813.000000	31.221834
2812.000000	31.265508
2811.000000	31.308328
2810.000000	31.350999
2809.000000	31.394718
2808.000000	31.438503
2807.000000	31.480243
2806.000000	31.520094
2805.000000	31.560099
2804.000000	31.600809
2803.000000	31.641112
2802.000000	31.681042
2801.000000	31.721845
2800.000000	31.763579
2799.000000	31.805411
2798.000000	31.848105
2797.000000	31.893354
2796.000000	31.940805
2795.000000	31.988466
2794.000000	32.035788
2793.000000	32.083701
2792.000000	32.132061
2791.000000	32.179877
2790.000000	32.227762
2789.000000	32.277216
2788.000000	32.327583
2787.000000	32.376619
2786.000000	32.423973
2785.000000	32.471497
2784.000000	32.520191
2783.000000	32.569501
2782.000000	32.619450
2781.000000	32.670737
2780.000000	32.722677
2779.000000	32.773550
2778.000000	32.822926
2777.000000	32.871320
2776.000000	32.917945
2775.000000	32.961255
2774.000000	33.001506
2773.000000	33.040363
2772.000000	33.078240
2771.000000	33.114481
2770.000000	33.149713
2769.000000	33.185402
2768.000000	33.221401
2767.000000	33.256283
2766.000000	33.289697
2765.000000	33.321839
2764.000000	33.351039
2763.000000	33.374710
2762.000000	33.392452
2761.000000	33.405892
2760.000000	33.415865
2759.000000	33.422286
2758.000000	33.426527
2757.000000	33.431123
2756.000000	33.437181
2755.000000	33.444495
2754.000000	33.453802
2753.000000	33.466461
2752.000000	33.482295
2751.000000	33.500247
2750.000000	33.520907
2749.000000	33.545957
2748.000000	33.575393
2747.000000	33.607899
2746.000000	33.643459
2745.000000	33.682765
2744.000000	33.724421
2743.000000	33.765236
2742.000000	33.802990
2741.000000	33.836532
2740.000000	33.863651
2739.000000	33.881738
2738.000000	33.890756
2737.000000	33.893541
2736.000000	33.893841
2735.000000	33.896587
2734.000000	33.909037
2733.000000	33.937743
2732.000000	33.983781
2731.000000	34.042831
2730.000000	34.109410
2729.000000	34.179002
2728.000000	34.247000
2727.000000	34.309441
2726.000000	34.365546
2725.000000	34.417056
2724.000000	34.464958
2723.000000	34.508906
2722.000000	34.549190
2721.000000	34.586559
2720.000000	34.620372
2719.000000	34.649377
2718.000000	34.674495
2717.000000	34.698777
2716.000000	34.724741
2715.000000	34.753863
2714.000000	34.787808
2713.000000	34.827304
2712.000000	34.869893
2711.000000	34.911313
2710.000000	34.949126
2709.000000	34.983046
2708.000000	35.012500
2707.000000	35.036603
2706.000000	35.056197
2705.000000	35.073393
2704.000000	35.088992
2703.000000	35.102538
2702.000000	35.114555
2701.000000	35.126233
2700.000000	35.137459
2699.000000	35.147556
2698.000000	35.157572
2697.000000	35.169419
2696.000000	35.183228
2695.000000	35.198191
2694.000000	35.215807
2693.000000	35.239617
2692.000000	35.271521
2691.000000	35.310646
2690.000000	35.355232
2689.000000	35.403129
2688.000000	35.450908
2687.000000	35.495135
2686.000000	35.534885
2685.000000	35.571111
2684.000000	35.603965
2683.000000	35.632949
2682.000000	35.658950
2681.000000	35.683263
2680.000000	35.704926
2679.000000	35.721640
2678.000000	35.733132
2677.000000	35.741631
2676.000000	35.749445
2675.000000	35.758633
2674.000000	35.772623
2673.000000	35.795255
2672.000000	35.827831
2671.000000	35.869228
2670.000000	35.918426
2669.000000	35.974322
2668.000000	36.033723
2667.000000	36.092120
2666.000000	36.146830
2665.000000	36.197410
2664.000000	36.243416
2663.000000	36.284371
2662.000000	36.321705
2661.000000	36.358045
2660.000000	36.394408
2659.000000	36.430114
2658.000000	36.465137
2657.000000	36.500422
2656.000000	36.536109
2655.000000	36.571642
2654.000000	36.607431
2653.000000	36.643982
2652.000000	36.679642
2651.000000	36.711293
2650.000000	36.737083
2649.000000	36.756688
2648.000000	36.769451
2647.000000	36.775050
2646.000000	36.776034
2645.000000	36.777332
2644.000000	36.783168
2643.000000	36.796060
2642.000000	36.817956
2641.000000	36.849670
2640.000000	36.889131
2639.000000	36.932270
2638.000000	36.976006
2637.000000	37.018716
2636.000000	37.058529
2635.000000	37.093572
2634.000000	37.123524
2633.000000	37.148764
2632.000000	37.168275
2631.000000	37.180731
2630.000000	37.187480
2629.000000	37.192785
2628.000000	37.201325
2627.000000	37.216937
2626.000000	37.242678
2625.000000	37.279324
2624.000000	37.323807
2623.000000	37.371411
2622.000000	37.419461
2621.000000	37.467139
2620.000000	37.512840
2619.000000	37.554125
2618.000000	37.589927
2617.000000	37.620544
2616.000000	37.645893
2615.000000	37.665825
2614.000000	37.681809
2613.000000	37.695998
2612.000000	37.708755
2611.000000	37.719421
2610.000000	37.728760
2609.000000	37.738453
2608.000000	37.748482
2607.000000	37.757140
2606.000000	37.763448
2605.000000	37.767272
2604.000000	37.767680
2603.000000	37.763725
2602.000000	37.756755
2601.000000	37.749843
2600.000000	37.745120
2599.000000	37.743632
2598.000000	37.747212
2597.000000	37.757921
2596.000000	37.775540
2595.000000	37.797840
2594.000000	37.823156
2593.000000	37.850557
2592.000000	37.878267
2591.000000	37.904228
2590.000000	37.928251
2589.000000	37.951567
2588.000000	37.974424
2587.000000	37.996278
2586.000000	38.017773
2585.000000	38.040120
2584.000000	38.062721
2583.000000	38.083775
2582.000000	38.103166
2581.000000	38.122713
2580.000000	38.143820
2579.000000	38.166947
2578.000000	38.192969
2577.000000	38.222776
2576.000000	38.255516
2575.000000	38.289309
2574.000000	38.323648
2573.000000	38.359191
2572.000000	38.395746
2571.000000	38.432392
2570.000000	38.469066
2569.000000	38.505896
2568.000000	38.541346
2567.000000	38.573282
2566.000000	38.601691
2565.000000	38.628366
2564.000000	38.654208
2563.000000	38.678999
2562.000000	38.703322
2561.000000	38.728396
2560.000000	38.754166
2559.000000	38.779610
2558.000000	38.804879
2557.000000	38.831203
2556.000000	38.859026
2555.000000	38.888128
2554.000000	38.919320
2553.000000	38.953811
2552.000000	38.991130
2551.000000	39.029598
2550.000000	39.068504
2549.000000	39.108129
2548.000000	39.147994
2547.000000	39.187045
2546.000000	39.225127
2545.000000	39.262358
2544.000000	39.297536
2543.000000	39.329151
2542.000000	39.357451
2541.000000	39.383455
2540.000000	39.406642
2539.000000	39.425436
2538.000000	39.439625
2537.000000	39.450159
2536.000000	39.456975
2535.000000	39.459623
2534.000000	39.459577
2533.000000	39.459973
2532.000000	39.463212
2531.000000	39.470717
2530.000000	39.484469
2529.000000	39.506425
2528.000000	39.536323
2527.000000	39.571868
2526.000000	39.611010
2525.000000	39.651976
2524.000000	39.691873
2523.000000	39.727498
2522.000000	39.757591
2521.000000	39.782595
2520.000000	39.802679
2519.000000	39.817676
2518.000000	39.828355
2517.000000	39.835780
2516.000000	39.839337
2515.000000	39.837631
2514.000000	39.830626
2513.000000	39.819065
2512.000000	39.802757
2511.000000	39.781368
2510.000000	39.756822
2509.000000	39.732617
2508.000000	39.710974
2507.000000	39.692733
2506.000000	39.679357
2505.000000	39.672535
2504.000000	39.672010
2503.000000	39.676219
2502.000000	39.684737
2501.000000	39.698245
2500.000000	39.716127
2499.000000	39.736422
2498.000000	39.758269
2497.000000	39.781919
2496.000000	39.806807
2495.000000	39.831641
2494.000000	39.856353
2493.000000	39.882102
2492.000000	39.909222
2491.000000	39.937096
2490.000000	39.965621
2489.000000	39.994776
2488.000000	40.023039
2487.000000	40.048395
2486.000000	40.070945
2485.000000	40.092871
2484.000000	40.116134
2483.000000	40.142112
2482.000000	40.172752
2481.000000	40.209709
2480.000000	40.252243
2479.000000	40.297676
2478.000000	40.343693
2477.000000	40.388309
2476.000000	40.428406
2475.000000	40.460918
2474.000000	40.485865
2473.000000	40.506534
2472.000000	40.526945
2471.000000	40.550451
2470.000000	40.579845
2469.000000	40.616184
2468.000000	40.657213
2467.000000	40.698785
2466.000000	40.737715
2465.000000	40.771790
2464.000000	40.798090
2463.000000	40.813629
2462.000000	40.817768
2461.000000	40.812178
2460.000000	40.798568
2459.000000	40.778885
2458.000000	40.756934
2457.000000	40.737590
2456.000000	40.723976
2455.000000	40.716960
2454.000000	40.717117
2453.000000	40.725021
2452.000000	40.739831
2451.000000	40.759701
2450.000000	40.784021
2449.000000	40.813086
2448.000000	40.846063
2447.000000	40.881083
2446.000000	40.917116
2445.000000	40.954067
2444.000000	40.990912
2443.000000	41.025858
2442.000000	41.058218
2441.000000	41.088386
2440.000000	41.116145
2439.000000	41.140850
2438.000000	41.163105
2437.000000	41.184440
2436.000000	41.205598
2435.000000	41.226795
2434.000000	41.249332
2433.000000	41.274749
2432.000000	41.302222
2431.000000	41.328555
2430.000000	41.350474
2429.000000	41.365507
2428.000000	41.371335
2427.000000	41.366636
2426.000000	41.353160
2425.000000	41.334971
2424.000000	41.315750
2423.000000	41.297999
2422.000000	41.284166
2421.000000	41.276325
2420.000000	41.274455
2419.000000	41.277008
2418.000000	41.283249
2417.000000	41.293573
2416.000000	41.307556
2415.000000	41.323860
2414.000000	41.341925
2413.000000	41.361886
2412.000000	41.382962
2411.000000	41.403550
2410.000000	41.423083
2409.000000	41.442043
2408.000000	41.460276
2407.000000	41.477008
2406.000000	41.492376
2405.000000	41.507075
2404.000000	41.520440
2403.000000	41.530743
2402.000000	41.537183
2401.000000	41.540071
2400.000000	41.539002
2399.000000	41.532481
2398.000000	41.519635
2397.000000	41.500066
2396.000000	41.472323
2395.000000	41.433965
2394.000000	41.383061
2393.000000	41.318865
2392.000000	41.240418
2391.000000	41.147040
2390.000000	41.040164
2389.000000	40.922546
2388.000000	40.796413
2387.000000	40.662910
2386.000000	40.524146
2385.000000	40.383875
2384.000000	40.245531
2383.000000	40.112404
2382.000000	39.988874
2381.000000	39.879818
2380.000000	39.787885
2379.000000	39.712551
2378.000000	39.652634
2377.000000	39.607595
2376.000000	39.576517
2375.000000	39.558116
2374.000000	39.553658
2373.000000	39.566281
2372.000000	39.596359
2371.000000	39.639606
2370.000000	39.689568
2369.000000	39.740769
2368.000000	39.787689
2367.000000	39.825208
2366.000000	39.851551
2365.000000	39.867524
2364.000000	39.875560
2363.000000	39.873897
2362.000000	39.861006
2361.000000	39.846584
2360.000000	39.838946
2359.000000	39.842626
2358.000000	39.856905
2357.000000	39.873173
2356.000000	39.886320
2355.000000	39.892508
2354.000000	39.899762
2353.000000	39.916353
2352.000000	39.941571
2351.000000	39.972323
2350.000000	39.993964
2349.000000	39.996533
2348.000000	39.984257
2347.000000	39.986808
2346.000000	40.038067
2345.000000	40.129784
2344.000000	40.226666
2343.000000	40.290631
2342.000000	40.311829
2341.000000	40.296532
2340.000000	40.251096
2339.000000	40.190217
2338.000000	40.131611
2337.000000	40.092651
2336.000000	40.079195
2335.000000	40.089155
2334.000000	40.119244
2333.000000	40.167001
2332.000000	40.223679
2331.000000	40.285435
2330.000000	40.346128
2329.000000	40.408170
2328.000000	40.465851
2327.000000	40.510201
2326.000000	40.541946
2325.000000	40.564164
2324.000000	40.590126
2323.000000	40.620956
2322.000000	40.656277
2321.000000	40.689897
2320.000000	40.715745
2319.000000	40.732499
2318.000000	40.737888
2317.000000	40.731539
2316.000000	40.707667
2315.000000	40.665952
2314.000000	40.609008
2313.000000	40.541714
2312.000000	40.463677
2311.000000	40.372850
2310.000000	40.269603
2309.000000	40.156114
2308.000000	40.034677
2307.000000	39.907347
2306.000000	39.781061
2305.000000	39.664522
2304.000000	39.567493
2303.000000	39.499392
2302.000000	39.470814
2301.000000	39.489365
2300.000000	39.554607
2299.000000	39.658473
2298.000000	39.789217
2297.000000	39.932932
2296.000000	40.074312
2295.000000	40.200489
2294.000000	40.305922
2293.000000	40.389879
2292.000000	40.453392
2291.000000	40.496907
2290.000000	40.522444
2289.000000	40.530737
2288.000000	40.519436
2287.000000	40.483882
2286.000000	40.421383
2285.000000	40.330751
2284.000000	40.212231
2283.000000	40.069828
2282.000000	39.915880
2281.000000	39.769243
2280.000000	39.648340
2279.000000	39.565705
2278.000000	39.526073
2277.000000	39.526528
2276.000000	39.558510
2275.000000	39.615796
2274.000000	39.698793
2273.000000	39.811279
2272.000000	39.952577
2271.000000	40.115821
2270.000000	40.292443
2269.000000	40.473923
2268.000000	40.652075
2267.000000	40.820683
2266.000000	40.977438
2265.000000	41.122136
2264.000000	41.253417
2263.000000	41.369736
2262.000000	41.472086
2261.000000	41.562833
2260.000000	41.643299
2259.000000	41.714368
2258.000000	41.779283
2257.000000	41.842847
2256.000000	41.908784
2255.000000	41.980093
2254.000000	42.060411
2253.000000	42.152560
2252.000000	42.255434
2251.000000	42.365193
2250.000000	42.478502
2249.000000	42.593033
2248.000000	42.706254
2247.000000	42.816295
2246.000000	42.923795
2245.000000	43.030442
2244.000000	43.136030
2243.000000	43.238909
2242.000000	43.338083
2241.000000	43.432760
2240.000000	43.520756
2239.000000	43.599675
2238.000000	43.669325
2237.000000	43.731017
2236.000000	43.785552
2235.000000	43.833510
2234.000000	43.876732
2233.000000	43.917268
2232.000000	43.955263
2231.000000	43.989891
2230.000000	44.021372
2229.000000	44.050243
2228.000000	44.075351
2227.000000	44.094587
2226.000000	44.107256
2225.000000	44.113933
2224.000000	44.114905
2223.000000	44.110857
2222.000000	44.104415
2221.000000	44.099018
2220.000000	44.096404
2219.000000	44.096772
2218.000000	44.100481
2217.000000	44.107436
2216.000000	44.115473
2215.000000	44.121335
2214.000000	44.122904
2213.000000	44.118904
2212.000000	44.107469
2211.000000	44.087485
2210.000000	44.061309
2209.000000	44.034591
2208.000000	44.013623
2207.000000	44.003537
2206.000000	44.007006
2205.000000	44.021574
2204.000000	44.038615
2203.000000	44.047470
2202.000000	44.041555
2201.000000	44.020847
2200.000000	43.991276
2199.000000	43.964668
2198.000000	43.957036
2197.000000	43.981990
2196.000000	44.043399
2195.000000	44.134709
2194.000000	44.244426
2193.000000	44.360814
2192.000000	44.474029
2191.000000	44.577706
2190.000000	44.669602
2189.000000	44.749245
2188.000000	44.815279
2187.000000	44.866506
2186.000000	44.904174
2185.000000	44.931425
2184.000000	44.950826
2183.000000	44.963941
2182.000000	44.972271
2181.000000	44.976702
2180.000000	44.976808
2179.000000	44.972667
2178.000000	44.966907
2177.000000	44.962981
2176.000000	44.962222
2175.000000	44.964253
2174.000000	44.969434
2173.000000	44.978838
2172.000000	44.992467
2171.000000	45.009767
2170.000000	45.031259
2169.000000	45.057678
2168.000000	45.087857
2167.000000	45.119351
2166.000000	45.150549
2165.000000	45.180493
2164.000000	45.207663
2163.000000	45.231251
2162.000000	45.253168
2161.000000	45.276787
2160.000000	45.304017
2159.000000	45.335195
2158.000000	45.370897
2157.000000	45.411666
2156.000000	45.456533
2155.000000	45.503851
2154.000000	45.553218
2153.000000	45.604691
2152.000000	45.656681
2151.000000	45.706290
2150.000000	45.751200
2149.000000	45.789598
2148.000000	45.818866
2147.000000	45.836471
2146.000000	45.841906
2145.000000	45.836351
2144.000000	45.821144
2143.000000	45.798261
2142.000000	45.771322
2141.000000	45.744016
2140.000000	45.717408
2139.000000	45.690021
2138.000000	45.660455
2137.000000	45.628795
2136.000000	45.596981
2135.000000	45.570121
2134.000000	45.556562
2133.000000	45.564349
2132.000000	45.596862
2131.000000	45.652202
2130.000000	45.725370
2129.000000	45.809034
2128.000000	45.893707
2127.000000	45.970401
2126.000000	46.033501
2125.000000	46.080036
2124.000000	46.107796
2123.000000	46.116070
2122.000000	46.107324
2121.000000	46.086144
2120.000000	46.056826
2119.000000	46.023456
2118.000000	45.991294
2117.000000	45.965367
2116.000000	45.947602
2115.000000	45.936983
2114.000000	45.931699
2113.000000	45.929491
2112.000000	45.926973
2111.000000	45.921122
2110.000000	45.911408
2109.000000	45.898707
2108.000000	45.882888
2107.000000	45.863615
2106.000000	45.843109
2105.000000	45.826094
2104.000000	45.817249
2103.000000	45.820206
2102.000000	45.838117
2101.000000	45.872210
2100.000000	45.919967
2099.000000	45.976756
2098.000000	46.038829
2097.000000	46.103595
2096.000000	46.167645
2095.000000	46.226800
2094.000000	46.277611
2093.000000	46.316675
2092.000000	46.339334
2091.000000	46.341644
2090.000000	46.324181
2089.000000	46.292824
2088.000000	46.256785
2087.000000	46.227308
2086.000000	46.216439
2085.000000	46.233371
2084.000000	46.280630
2083.000000	46.354543
2082.000000	46.448880
2081.000000	46.556460
2080.000000	46.669028
2079.000000	46.779366
2078.000000	46.883729
2077.000000	46.981067
2076.000000	47.070426
2075.000000	47.150774
2074.000000	47.222331
2073.000000	47.285909
2072.000000	47.341544
2071.000000	47.388525
2070.000000	47.426982
2069.000000	47.457764
2068.000000	47.481160
2067.000000	47.497793
2066.000000	47.510384
2065.000000	47.523315
2064.000000	47.539796
2063.000000	47.560730
2062.000000	47.586184
2061.000000	47.616283
2060.000000	47.650746
2059.000000	47.689031
2058.000000	47.730789
2057.000000	47.775150
2056.000000	47.820064
2055.000000	47.863454
2054.000000	47.904669
2053.000000	47.943748
2052.000000	47.980171
2051.000000	48.013285
2050.000000	48.043622
2049.000000	48.072742
2048.000000	48.101761
2047.000000	48.131081
2046.000000	48.161442
2045.000000	48.193729
2044.000000	48.227684
2043.000000	48.262354
2042.000000	48.297576
2041.000000	48.333759
2040.000000	48.370242
2039.000000	48.405303
2038.000000	48.437780
2037.000000	48.467585
2036.000000	48.494963
2035.000000	48.520424
2034.000000	48.545400
2033.000000	48.571850
2032.000000	48.600992
2031.000000	48.633117
2030.000000	48.667848
2029.000000	48.703883
2028.000000	48.739064
2027.000000	48.771497
2026.000000	48.801152
2025.000000	48.828911
2024.000000	48.855309
2023.000000	48.879797
2022.000000	48.901276
2021.000000	48.918619
2020.000000	48.930281
2019.000000	48.935643
2018.000000	48.936809
2017.000000	48.938406
2016.000000	48.944558
2015.000000	48.956654
2014.000000	48.973880
2013.000000	48.994608
2012.000000	49.017117
2011.000000	49.040046
2010.000000	49.062561
2009.000000	49.084196
2008.000000	49.105139
2007.000000	49.126649
2006.000000	49.150855
2005.000000	49.178939
2004.000000	49.210991
2003.000000	49.246612
2002.000000	49.285595
2001.000000	49.327532
2000.000000	49.370453
1999.000000	49.413000
1998.000000	49.454038
1997.000000	49.492544
1996.000000	49.528272
1995.000000	49.560356
1994.000000	49.586048
1993.000000	49.602115
1992.000000	49.608793
1991.000000	49.609764
1990.000000	49.607362
1989.000000	49.599815
1988.000000	49.584719
1987.000000	49.564028
1986.000000	49.543797
1985.000000	49.529246
1984.000000	49.523126
1983.000000	49.527935
1982.000000	49.545726
1981.000000	49.574216
1980.000000	49.605778
1979.000000	49.633435
1978.000000	49.653838
1977.000000	49.667101
1976.000000	49.676461
1975.000000	49.688450
1974.000000	49.710926
1973.000000	49.748346
1972.000000	49.799987
1971.000000	49.861808
1970.000000	49.928833
1969.000000	49.995796
1968.000000	50.058892
1967.000000	50.117923
1966.000000	50.174471
1965.000000	50.227245
1964.000000	50.271846
1963.000000	50.305576
1962.000000	50.330214
1961.000000	50.348131
1960.000000	50.357137
1959.000000	50.352297
1958.000000	50.331194
1957.000000	50.294930
1956.000000	50.245497
1955.000000	50.185388
1954.000000	50.119063
1953.000000	50.052199
1952.000000	49.990484
1951.000000	49.939328
1950.000000	49.905769
1949.000000	49.894737
1948.000000	49.905384
1947.000000	49.935663
1946.000000	49.984356
1945.000000	50.048012
1944.000000	50.119823
1943.000000	50.195911
1942.000000	50.280250
1941.000000	50.376688
1940.000000	50.481103
1939.000000	50.585126
1938.000000	50.684296
1937.000000	50.780406
1936.000000	50.875183
1935.000000	50.964965
1934.000000	51.043658
1933.000000	51.108564
1932.000000	51.159767
1931.000000	51.195788
1930.000000	51.217079
1929.000000	51.225733
1928.000000	51.224055
1927.000000	51.215539
1926.000000	51.202704
1925.000000	51.188468
1924.000000	51.172209
1923.000000	51.156487
1922.000000	51.150171
1921.000000	51.154871
1920.000000	51.156996
1919.000000	51.138976
1918.000000	51.102688
1917.000000	51.072462
1916.000000	51.063928
1915.000000	51.067164
1914.000000	51.065486
1913.000000	51.055954
1912.000000	51.047197
1911.000000	51.044314
1910.000000	51.047385
1909.000000	51.057806
1908.000000	51.079421
1907.000000	51.113063
1906.000000	51.153733
1905.000000	51.198773
1904.000000	51.244483
1903.000000	51.284253
1902.000000	51.312293
1901.000000	51.324858
1900.000000	51.323763
1899.000000	51.315503
1898.000000	51.307110
1897.000000	51.306426
1896.000000	51.318327
1895.000000	51.344097
1894.000000	51.384635
1893.000000	51.438933
1892.000000	51.501426
1891.000000	51.564012
1890.000000	51.625079
1889.000000	51.692479
1888.000000	51.770671
1887.000000	51.851672
1886.000000	51.923160
1885.000000	51.980762
1884.000000	52.030668
1883.000000	52.080182
1882.000000	52.130595
1881.000000	52.179552
1880.000000	52.227671
1879.000000	52.277039
1878.000000	52.324609
1877.000000	52.366781
1876.000000	52.402746
1875.000000	52.430898
1874.000000	52.451752
1873.000000	52.471296
1872.000000	52.493770
1871.000000	52.513134
1870.000000	52.520715
1869.000000	52.524584
1868.000000	52.544481
1867.000000	52.579866
1866.000000	52.606692
1865.000000	52.605057
1864.000000	52.573881
1863.000000	52.525222
1862.000000	52.472441
1861.000000	52.426896
1860.000000	52.401563
1859.000000	52.408970
1858.000000	52.453408
1857.000000	52.528763
1856.000000	52.624433
1855.000000	52.728768
1854.000000	52.831286
1853.000000	52.925078
1852.000000	53.009409
1851.000000	53.089232
1850.000000	53.161737
1849.000000	53.227587
1848.000000	53.300232
1847.000000	53.387384
1846.000000	53.470592
1845.000000	53.519598
1844.000000	53.536619
1843.000000	53.558793
1842.000000	53.604133
1841.000000	53.648807
1840.000000	53.665857
1839.000000	53.656012
1838.000000	53.641189
1837.000000	53.641033
1836.000000	53.654851
1835.000000	53.677535
1834.000000	53.714861
1833.000000	53.770888
1832.000000	53.837121
1831.000000	53.901124
1830.000000	53.962890
1829.000000	54.036367
1828.000000	54.118900
1827.000000	54.184592
1826.000000	54.211019
1825.000000	54.207477
1824.000000	54.213574
1823.000000	54.254318
1822.000000	54.318813
1821.000000	54.387823
1820.000000	54.459993
1819.000000	54.542917
1818.000000	54.634295
1817.000000	54.725176
1816.000000	54.808052
1815.000000	54.881496
1814.000000	54.943052
1813.000000	54.987768
1812.000000	55.021593
1811.000000	55.055834
1810.000000	55.098003
1809.000000	55.148089
1808.000000	55.202524
1807.000000	55.260295
1806.000000	55.317155
1805.000000	55.365177
1804.000000	55.400131
1803.000000	55.425199
1802.000000	55.445317
1801.000000	55.463156
1800.000000	55.485370
1799.000000	55.510077
1798.000000	55.530272
1797.000000	55.546918
1796.000000	55.570336
1795.000000	55.602979
1794.000000	55.621895
1793.000000	55.602054
1792.000000	55.565426
1791.000000	55.557356
1790.000000	55.584474
1789.000000	55.620751
1788.000000	55.649482
1787.000000	55.672740
1786.000000	55.698940
1785.000000	55.736643
1784.000000	55.792249
1783.000000	55.865052
1782.000000	55.936640
1781.000000	55.981255
1780.000000	56.002987
1779.000000	56.016772
1778.000000	56.026766
1777.000000	56.032706
1776.000000	56.052619
1775.000000	56.112260
1774.000000	56.200107
1773.000000	56.280230
1772.000000	56.354880
1771.000000	56.451783
1770.000000	56.557589
1769.000000	56.636166
1768.000000	56.674129
1767.000000	56.697336
1766.000000	56.741278
1765.000000	56.803488
1764.000000	56.853438
1763.000000	56.874114
1762.000000	56.883999
1761.000000	56.913237
1760.000000	56.968871
1759.000000	57.027852
1758.000000	57.065308
1757.000000	57.068262
1756.000000	57.060612
1755.000000	57.081740
1754.000000	57.129308
1753.000000	57.163946
1752.000000	57.161970
1751.000000	57.154815
1750.000000	57.193973
1749.000000	57.277789
1748.000000	57.354311
1747.000000	57.396547
1746.000000	57.403147
1745.000000	57.371696
1744.000000	57.309110
1743.000000	57.233223
1742.000000	57.154206
1741.000000	57.053442
1740.000000	56.919239
1739.000000	56.801140
1738.000000	56.770355
1737.000000	56.821989
1736.000000	56.880349
1735.000000	56.868118
1734.000000	56.801622
1733.000000	56.778970
1732.000000	56.808039
1731.000000	56.816005
1730.000000	56.774416
1729.000000	56.703874
1728.000000	56.637312
1727.000000	56.593231
1726.000000	56.559899
1725.000000	56.521317
1724.000000	56.482368
1723.000000	56.454296
1722.000000	56.445911
1721.000000	56.448206
1720.000000	56.435779
1719.000000	56.382746
1718.000000	56.295782
1717.000000	56.226620
1716.000000	56.194425
1715.000000	56.166069
1714.000000	56.123688
1713.000000	56.076842
1712.000000	56.039446
1711.000000	56.015873
1710.000000	55.995333
1709.000000	55.963787
1708.000000	55.920893
1707.000000	55.864716
1706.000000	55.783796
1705.000000	55.699831
1704.000000	55.662059
1703.000000	55.681081
1702.000000	55.683304
1701.000000	55.561912
1700.000000	55.371275
1699.000000	55.307048
1698.000000	55.357500
1697.000000	55.342037
1696.000000	55.171285
1695.000000	54.920781
1694.000000	54.717154
1693.000000	54.569479
1692.000000	54.415732
1691.000000	54.237175
1690.000000	54.061743
1689.000000	53.920439
1688.000000	53.827411
1687.000000	53.764818
1686.000000	53.654834
1685.000000	53.403718
1684.000000	53.060687
1683.000000	52.788950
1682.000000	52.585518
1681.000000	52.364020
1680.000000	52.109791
1679.000000	51.869589
1678.000000	51.671244
1677.000000	51.467259
1676.000000	51.194443
1675.000000	50.880265
1674.000000	50.614789
1673.000000	50.404876
1672.000000	50.184420
1671.000000	49.904797
1670.000000	49.577348
1669.000000	49.243364
1668.000000	48.934744
1667.000000	48.661911
1666.000000	48.410359
1665.000000	48.141441
1664.000000	47.819701
1663.000000	47.459164
1662.000000	47.113126
1661.000000	46.789539
1660.000000	46.461147
1659.000000	46.122281
1658.000000	45.797541
1657.000000	45.518570
1656.000000	45.291242
1655.000000	45.059116
1654.000000	44.704037
1653.000000	44.220170
1652.000000	43.769948
1651.000000	43.401646
1650.000000	43.042503
1649.000000	42.598494
1648.000000	42.011070
1647.000000	41.302453
1646.000000	40.575660
1645.000000	39.891681
1644.000000	39.238684
1643.000000	38.600471
1642.000000	37.972315
1641.000000	37.361057
1640.000000	36.807504
1639.000000	36.358638
1638.000000	36.018441
1637.000000	35.748612
1636.000000	35.538507
1635.000000	35.435222
1634.000000	35.438406
1633.000000	35.501104
1632.000000	35.591825
1631.000000	35.714966
1630.000000	35.886023
1629.000000	36.103949
1628.000000	36.355294
1627.000000	36.624340
1626.000000	36.897880
1625.000000	37.172776
1624.000000	37.465307
1623.000000	37.795276
1622.000000	38.152344
1621.000000	38.502571
1620.000000	38.844472
1619.000000	39.216796
1618.000000	39.671263
1617.000000	40.228635
1616.000000	40.828654
1615.000000	41.371817
1614.000000	41.823537
1613.000000	42.218093
1612.000000	42.589487
1611.000000	42.943825
1610.000000	43.263431
1609.000000	43.518692
1608.000000	43.674748
1607.000000	43.693599
1606.000000	43.538370
1605.000000	43.159638
1604.000000	42.506875
1603.000000	41.538281
1602.000000	40.220542
1601.000000	38.499783
1600.000000	36.249217
1599.000000	33.321618
1598.000000	29.661023
1597.000000	25.434669
1596.000000	21.120479
1595.000000	17.441758
1594.000000	15.022246
1593.000000	13.992851
1592.000000	14.032153
1591.000000	14.723381
1590.000000	15.790443
1589.000000	17.049919
1588.000000	18.325461
1587.000000	19.473445
1586.000000	20.453618
1585.000000	21.362166
1584.000000	22.337057
1583.000000	23.418086
1582.000000	24.495201
1581.000000	25.441742
1580.000000	26.271533
1579.000000	27.124815
1578.000000	28.121637
1577.000000	29.240898
1576.000000	30.292474
1575.000000	31.072197
1574.000000	31.558795
1573.000000	31.856507
1572.000000	32.069091
1571.000000	32.285953
1570.000000	32.584286
1569.000000	32.983629
1568.000000	33.448589
1567.000000	33.969188
1566.000000	34.553196
1565.000000	35.168383
1564.000000	35.755071
1563.000000	36.295105
1562.000000	36.812649
1561.000000	37.342031
1560.000000	37.936659
1559.000000	38.704562
1558.000000	39.558804
1557.000000	40.231966
1556.000000	40.746832
1555.000000	41.232689
1554.000000	41.729085
1553.000000	42.208933
1552.000000	42.651618
1551.000000	43.068940
1550.000000	43.484996
1549.000000	43.897011
1548.000000	44.273725
1547.000000	44.606421
1546.000000	44.911253
1545.000000	45.213396
1544.000000	45.526631
1543.000000	45.843656
1542.000000	46.149271
1541.000000	46.444026
1540.000000	46.727284
1539.000000	46.967995
1538.000000	47.140459
1537.000000	47.288739
1536.000000	47.446032
1535.000000	47.625030
1534.000000	47.835674
1533.000000	48.081991
1532.000000	48.338437
1531.000000	48.563056
1530.000000	48.752552
1529.000000	48.923357
1528.000000	49.088787
1527.000000	49.261821
1526.000000	49.448730
1525.000000	49.646093
1524.000000	49.848142
1523.000000	50.042379
1522.000000	50.217150
1521.000000	50.371875
1520.000000	50.505404
1519.000000	50.616406
1518.000000	50.707552
1517.000000	50.788678
1516.000000	50.874588
1515.000000	50.970141
1514.000000	51.064971
1513.000000	51.140808
1512.000000	51.198680
1511.000000	51.267420
1510.000000	51.375767
1509.000000	51.513363
1508.000000	51.656000
1507.000000	51.813173
1506.000000	51.975435
1505.000000	52.064743
1504.000000	52.102655
1503.000000	52.139111
1502.000000	52.193344
1501.000000	52.273194
1500.000000	52.378059
1499.000000	52.508981
1498.000000	52.659420
1497.000000	52.811370
1496.000000	52.944939
1495.000000	53.061754
1494.000000	53.180668
1493.000000	53.304668
1492.000000	53.430268
1491.000000	53.575337
1490.000000	53.781304
1489.000000	54.050359
1488.000000	54.324911
1487.000000	54.565060
1486.000000	54.780362
1485.000000	54.979790
1484.000000	55.166369
1483.000000	55.352887
1482.000000	55.546333
1481.000000	55.749579
1480.000000	55.954613
1479.000000	56.156358
1478.000000	56.354201
1477.000000	56.557219
1476.000000	56.781726
1475.000000	57.038927
1474.000000	57.318606
1473.000000	57.597932
1472.000000	57.865695
1471.000000	58.102860
1470.000000	58.292193
1469.000000	58.431887
1468.000000	58.532866
1467.000000	58.604571
1466.000000	58.616395
1465.000000	58.482123
1464.000000	58.132393
1463.000000	57.554230
1462.000000	56.759729
1461.000000	55.773649
1460.000000	54.644953
1459.000000	53.410529
1458.000000	52.045816
1457.000000	50.611963
1456.000000	49.350306
1455.000000	48.334347
1454.000000	47.341151
1453.000000	46.135429
1452.000000	44.685486
1451.000000	43.112410
1450.000000	41.468677
1449.000000	39.640463
1448.000000	37.546156
1447.000000	35.387941
1446.000000	33.606261
1445.000000	32.668494
1444.000000	32.917741
1443.000000	34.391127
1442.000000	36.709537
1441.000000	39.261156
1440.000000	41.547225
1439.000000	43.350122
1438.000000	44.666923
1437.000000	45.607814
1436.000000	46.354449
1435.000000	47.074554
1434.000000	47.845560
1433.000000	48.687510
1432.000000	49.580113
1431.000000	50.461099
1430.000000	51.263120
1429.000000	51.948634
1428.000000	52.500892
1427.000000	52.931859
1426.000000	53.282827
1425.000000	53.592474
1424.000000	53.884381
1423.000000	54.159992
1422.000000	54.421263
1421.000000	54.674420
1420.000000	54.924036
1419.000000	55.191235
1418.000000	55.497050
1417.000000	55.812515
1416.000000	56.093640
1415.000000	56.330730
1414.000000	56.542192
1413.000000	56.746569
1412.000000	56.939491
1411.000000	57.108414
1410.000000	57.259924
1409.000000	57.404179
1408.000000	57.524401
1407.000000	57.595752
1406.000000	57.610146
1405.000000	57.554036
1404.000000	57.401823
1403.000000	57.148902
1402.000000	56.834037
1401.000000	56.501750
1400.000000	56.184536
1399.000000	55.922821
1398.000000	55.745480
1397.000000	55.642610
1396.000000	55.599330
1395.000000	55.633025
1394.000000	55.743478
1393.000000	55.855689
1392.000000	55.874479
1391.000000	55.765986
1390.000000	55.570631
1389.000000	55.356636
1388.000000	55.189053
1387.000000	55.130877
1386.000000	55.224188
1385.000000	55.459670
1384.000000	55.803783
1383.000000	56.234010
1382.000000	56.737984
1381.000000	57.288649
1380.000000	57.834692
1379.000000	58.328847
1378.000000	58.747015
1377.000000	59.073269
1376.000000	59.275341
1375.000000	59.315214
1374.000000	59.161085
1373.000000	58.765071
1372.000000	58.031169
1371.000000	56.786032
1370.000000	54.776154
1369.000000	51.777955
1368.000000	47.879886
1367.000000	43.692121
1366.000000	40.151765
1365.000000	38.075039
1364.000000	37.855429
1363.000000	39.325670
1362.000000	41.802942
1361.000000	44.505377
1360.000000	46.979566
1359.000000	49.109500
1358.000000	50.916312
1357.000000	52.441178
1356.000000	53.720096
1355.000000	54.779447
1354.000000	55.645431
1353.000000	56.356765
1352.000000	56.953042
1351.000000	57.454181
1350.000000	57.869261
1349.000000	58.215757
1348.000000	58.516614
1347.000000	58.782559
1346.000000	59.021061
1345.000000	59.246212
1344.000000	59.469156
1343.000000	59.684513
1342.000000	59.885510
1341.000000	60.082893
1340.000000	60.293526
1339.000000	60.513555
1338.000000	60.720000
1337.000000	60.899701
1336.000000	61.056573
1335.000000	61.197824
1334.000000	61.331090
1333.000000	61.465508
1332.000000	61.602039
1331.000000	61.727735
1330.000000	61.827555
1329.000000	61.897756
1328.000000	61.938359
1327.000000	61.939102
1326.000000	61.878552
1325.000000	61.723764
1324.000000	61.426838
1323.000000	60.919973
1322.000000	60.134556
1321.000000	59.025489
1320.000000	57.564313
1319.000000	55.724339
1318.000000	53.504521
1317.000000	51.028497
1316.000000	48.646510
1315.000000	46.887633
1314.000000	46.186603
1313.000000	46.595983
1312.000000	47.775694
1311.000000	49.262836
1310.000000	50.758097
1309.000000	52.162378
1308.000000	53.459776
1307.000000	54.650716
1306.000000	55.753039
1305.000000	56.790937
1304.000000	57.756413
1303.000000	58.614126
1302.000000	59.346878
1301.000000	59.968066
1300.000000	60.484902
1299.000000	60.890770
1298.000000	61.190124
1297.000000	61.389244
1296.000000	61.467404
1295.000000	61.368793
1294.000000	61.008168
1293.000000	60.245094
1292.000000	58.915879
1291.000000	57.045129
1290.000000	55.051761
1289.000000	53.602203
1288.000000	53.124894
1287.000000	53.447166
1286.000000	53.958416
1285.000000	54.143871
1284.000000	53.905296
1283.000000	53.455009
1282.000000	53.059307
1281.000000	52.887530
1280.000000	52.989712
1279.000000	53.296800
1278.000000	53.634166
1277.000000	53.740585
1276.000000	53.265370
1275.000000	51.802711
1274.000000	49.152982
1273.000000	45.741465
1272.000000	42.747600
1271.000000	41.525594
1270.000000	42.679078
1269.000000	45.670150
1268.000000	49.304250
1267.000000	52.566455
1266.000000	55.048723
1265.000000	56.816972
1264.000000	58.089952
1263.000000	59.048587
1262.000000	59.809342
1261.000000	60.439360
1260.000000	60.965350
1259.000000	61.392214
1258.000000	61.735662
1257.000000	62.012725
1256.000000	62.229252
1255.000000	62.393854
1254.000000	62.530648
1253.000000	62.667700
1252.000000	62.818423
1251.000000	62.988110
1250.000000	63.185887
1249.000000	63.415776
1248.000000	63.664926
1247.000000	63.915156
1246.000000	64.159962
1245.000000	64.399089
1244.000000	64.625085
1243.000000	64.829659
1242.000000	65.016849
1241.000000	65.195227
1240.000000	65.362455
1239.000000	65.508701
1238.000000	65.630597
1237.000000	65.727183
1236.000000	65.789207
1235.000000	65.808523
1234.000000	65.791924
1233.000000	65.754345
1232.000000	65.702258
1231.000000	65.635426
1230.000000	65.558258
1229.000000	65.470066
1228.000000	65.349748
1227.000000	65.158771
1226.000000	64.849616
1225.000000	64.365778
1224.000000	63.633690
1223.000000	62.588869
1222.000000	61.214972
1221.000000	59.551677
1220.000000	57.687741
1219.000000	55.737227
1218.000000	53.806622
1217.000000	51.954636
1216.000000	50.172368
1215.000000	48.407752
1214.000000	46.602607
1213.000000	44.723682
1212.000000	42.783945
1211.000000	40.853280
1210.000000	39.040335
1209.000000	37.469549
1208.000000	36.256549
1207.000000	35.459055
1206.000000	35.032125
1205.000000	34.835746
1204.000000	34.740540
1203.000000	34.737887
1202.000000	34.940190
1201.000000	35.494413
1200.000000	36.458892
1199.000000	37.755544
1198.000000	39.219833
1197.000000	40.694401
1196.000000	42.105392
1195.000000	43.460403
1194.000000	44.804593
1193.000000	46.180521
1192.000000	47.604994
1191.000000	49.063025
1190.000000	50.515230
1189.000000	51.912548
1188.000000	53.206429
1187.000000	54.360322
1186.000000	55.355581
1185.000000	56.193571
1184.000000	56.889012
1183.000000	57.458977
1182.000000	57.924532
1181.000000	58.304104
1180.000000	58.609838
1179.000000	58.852279
1178.000000	59.041673
1177.000000	59.186837
1176.000000	59.290316
1175.000000	59.356922
1174.000000	59.404879
1173.000000	59.460458
1172.000000	59.545573
1171.000000	59.674792
1170.000000	59.858848
1169.000000	60.099658
1168.000000	60.381934
1167.000000	60.676018
1166.000000	60.949199
1165.000000	61.170526
1164.000000	61.313167
1163.000000	61.368123
1162.000000	61.359824
1161.000000	61.338489
1160.000000	61.354072
1159.000000	61.438864
1158.000000	61.605839
1157.000000	61.849987
1156.000000	62.150330
1155.000000	62.480287
1154.000000	62.818369
1153.000000	63.147096
1152.000000	63.444993
1151.000000	63.691955
1150.000000	63.883175
1149.000000	64.029883
1148.000000	64.145576
1147.000000	64.241109
1146.000000	64.328369
1145.000000	64.412100
1144.000000	64.479009
1143.000000	64.499797
1142.000000	64.445792
1141.000000	64.297869
1140.000000	64.040276
1139.000000	63.665314
1138.000000	63.175240
1137.000000	62.572257
1136.000000	61.847610
1135.000000	60.976693
1134.000000	59.932383
1133.000000	58.685302
1132.000000	57.207701
1131.000000	55.499891
1130.000000	53.609943
1129.000000	51.634983
1128.000000	49.698123
1127.000000	47.916295
1126.000000	46.365765
1125.000000	45.050083
1124.000000	43.887164
1123.000000	42.700219
1122.000000	41.208931
1121.000000	39.064230
1120.000000	35.934808
1119.000000	31.675153
1118.000000	26.502843
1117.000000	21.082378
1116.000000	16.394971
1115.000000	13.421145
1114.000000	12.746340
1113.000000	14.354340
1112.000000	17.709790
1111.000000	21.943476
1110.000000	26.135560
1109.000000	29.592028
1108.000000	31.958620
1107.000000	33.072293
1106.000000	32.759945
1105.000000	30.908099
1104.000000	27.840102
1103.000000	24.563716
1102.000000	22.441239
1101.000000	22.447477
1100.000000	24.656513
1099.000000	28.338556
1098.000000	32.494927
1097.000000	36.388756
1096.000000	39.701560
1095.000000	42.413063
1094.000000	44.623539
1093.000000	46.448617
1092.000000	47.981478
1091.000000	49.295290
1090.000000	50.451696
1089.000000	51.501595
1088.000000	52.488167
1087.000000	53.438158
1086.000000	54.368173
1085.000000	55.282275
1084.000000	56.163432
1083.000000	56.984337
1082.000000	57.723630
1081.000000	58.374696
1080.000000	58.939492
1079.000000	59.425798
1078.000000	59.854768
1077.000000	60.250741
1076.000000	60.624607
1075.000000	60.971377
1074.000000	61.275078
1073.000000	61.510064
1072.000000	61.628110
1071.000000	61.566161
1070.000000	61.269615
1069.000000	60.689696
1068.000000	59.783557
1067.000000	58.513078
1066.000000	56.859846
1065.000000	54.839357
1064.000000	52.491624
1063.000000	49.891860
1062.000000	47.126486
1061.000000	44.246222
1060.000000	41.237529
1059.000000	38.022738
1058.000000	34.514404
1057.000000	30.698737
1056.000000	26.726260
1055.000000	22.928449
1054.000000	19.749141
1053.000000	17.601426
1052.000000	16.759334
1051.000000	17.293412
1050.000000	19.018217
1049.000000	21.573902
1048.000000	24.539299
1047.000000	27.546239
1046.000000	30.359695
1045.000000	32.882014
1044.000000	35.122155
1043.000000	37.124717
1042.000000	38.919015
1041.000000	40.509481
1040.000000	41.899895
1039.000000	43.102346
1038.000000	44.137936
1037.000000	45.032746
1036.000000	45.807586
1035.000000	46.483590
1034.000000	47.081496
1033.000000	47.622564
1032.000000	48.129258
1031.000000	48.622138
1030.000000	49.119394
1029.000000	49.631962
1028.000000	50.163419
1027.000000	50.717281
1026.000000	51.302197
1025.000000	51.925593
1024.000000	52.582921
1023.000000	53.256114
1022.000000	53.922640
1021.000000	54.561080
1020.000000	55.152246
1019.000000	55.679541
1018.000000	56.124402
1017.000000	56.457606
1016.000000	56.615958
1015.000000	56.508452
1014.000000	56.027717
1013.000000	55.053318
1012.000000	53.476954
1011.000000	51.195776
1010.000000	48.114219
1009.000000	44.151141
1008.000000	39.337969
1007.000000	34.030391
1006.000000	29.033793
1005.000000	25.418321
1004.000000	24.035890
1003.000000	25.046613
1002.000000	27.801975
1001.000000	31.208431
1000.000000	34.198399
999.000000	35.984517
998.000000	36.145398
997.000000	34.730900
996.000000	32.400027
995.000000	30.288650
994.000000	29.465377
993.000000	30.335159
992.000000	32.515166
991.000000	35.233317
990.000000	37.850737
989.000000	40.101685
988.000000	42.001726
987.000000	43.643930
986.000000	45.096016
985.000000	46.388290
984.000000	47.530973
983.000000	48.529512
982.000000	49.405614
981.000000	50.194048
980.000000	50.918697
979.000000	51.588688
978.000000	52.206598
977.000000	52.776809
976.000000	53.298380
975.000000	53.765443
974.000000	54.182833
973.000000	54.564818
972.000000	54.921650
971.000000	55.255965
970.000000	55.572128
969.000000	55.877584
968.000000	56.169419
967.000000	56.435024
966.000000	56.667625
965.000000	56.870239
964.000000	57.046489
963.000000	57.199771
962.000000	57.343924
961.000000	57.501090
960.000000	57.685566
959.000000	57.900106
958.000000	58.145982
957.000000	58.422293
956.000000	58.713354
955.000000	58.990429
954.000000	59.230600
953.000000	59.423293
952.000000	59.560751
951.000000	59.638827
950.000000	59.668865
949.000000	59.676035
948.000000	59.681015
947.000000	59.694291
946.000000	59.726840
945.000000	59.789029
944.000000	59.877462
943.000000	59.976897
942.000000	60.078842
941.000000	60.186229
940.000000	60.300382
939.000000	60.418059
938.000000	60.543418
937.000000	60.686843
936.000000	60.847177
935.000000	61.008524
934.000000	61.156577
933.000000	61.283761
932.000000	61.376651
931.000000	61.417394
930.000000	61.401582
929.000000	61.342785
928.000000	61.257573
927.000000	61.160951
926.000000	61.077670
925.000000	61.038712
924.000000	61.060914
923.000000	61.141899
922.000000	61.275856
921.000000	61.455884
920.000000	61.660087
919.000000	61.854003
918.000000	62.014418
917.000000	62.136760
916.000000	62.217721
915.000000	62.251039
914.000000	62.244697
913.000000	62.221398
912.000000	62.193693
911.000000	62.158490
910.000000	62.117574
909.000000	62.082509
908.000000	62.054720
907.000000	62.023590
906.000000	61.991102
905.000000	61.974580
904.000000	61.976147
903.000000	61.973691
902.000000	61.953359
901.000000	61.930003
900.000000	61.924446
899.000000	61.932665
898.000000	61.918746
897.000000	61.809100
896.000000	61.510377
895.000000	60.980600
894.000000	60.277595
893.000000	59.465014
892.000000	58.454460
891.000000	57.062722
890.000000	55.333944
889.000000	53.753077
888.000000	52.974325
887.000000	53.291810
886.000000	54.403121
885.000000	55.711257
884.000000	56.805052
883.000000	57.604642
882.000000	58.189826
881.000000	58.622816
880.000000	58.933883
879.000000	59.174841
878.000000	59.412306
877.000000	59.682380
876.000000	59.975788
875.000000	60.256977
874.000000	60.483063
873.000000	60.624051
872.000000	60.679256
871.000000	60.676235
870.000000	60.651257
869.000000	60.631587
868.000000	60.634905
867.000000	60.670797
866.000000	60.736176
865.000000	60.815289
864.000000	60.889632
863.000000	60.948083
862.000000	60.987648
861.000000	61.008576
860.000000	61.011307
859.000000	60.994906
858.000000	60.956588
857.000000	60.893925
856.000000	60.809686
855.000000	60.714291
854.000000	60.621423
853.000000	60.541922
852.000000	60.481514
851.000000	60.442380
850.000000	60.424422
849.000000	60.426704
848.000000	60.449699
847.000000	60.496938
846.000000	60.573630
845.000000	60.681146
844.000000	60.812944
843.000000	60.954579
842.000000	61.087294
841.000000	61.190616
840.000000	61.244163
839.000000	61.231156
838.000000	61.144246
837.000000	60.988595
836.000000	60.779214
835.000000	60.539664
834.000000	60.300907
833.000000	60.096036
832.000000	59.950576
831.000000	59.875648
830.000000	59.868288
829.000000	59.916819
828.000000	60.005424
827.000000	60.115861
826.000000	60.230835
825.000000	60.335908
824.000000	60.418173
823.000000	60.465150
822.000000	60.468744
821.000000	60.427408
820.000000	60.341620
819.000000	60.209509
818.000000	60.027816
817.000000	59.796887
816.000000	59.514512
815.000000	59.169537
814.000000	58.738429
813.000000	58.171992
812.000000	57.376091
811.000000	56.218588
810.000000	54.622213
809.000000	52.709398
808.000000	50.858065
807.000000	49.549419
806.000000	49.095018
805.000000	49.471891
804.000000	50.398268
803.000000	51.543518
802.000000	52.664991
801.000000	53.627999
800.000000	54.373450
799.000000	54.895210
798.000000	55.224264
797.000000	55.401125
796.000000	55.455146
795.000000	55.405030
794.000000	55.267566
793.000000	55.055283
792.000000	54.780223
791.000000	54.466113
790.000000	54.152253
789.000000	53.879696
788.000000	53.675010
787.000000	53.548998
786.000000	53.500160
785.000000	53.513015
784.000000	53.556759
783.000000	53.593296
782.000000	53.588106
781.000000	53.516235
780.000000	53.367813
779.000000	53.156430
778.000000	52.921448
777.000000	52.715735
776.000000	52.588199
775.000000	52.573666
774.000000	52.687321
773.000000	52.921324
772.000000	53.246518
771.000000	53.623249
770.000000	54.013769
769.000000	54.385271
768.000000	54.708750
767.000000	54.962768
766.000000	55.139901
765.000000	55.243699
764.000000	55.280716
763.000000	55.259197
762.000000	55.192696
761.000000	55.097451
760.000000	54.985204
759.000000	54.864383
758.000000	54.746068
757.000000	54.644199
756.000000	54.570502
755.000000	54.534199
754.000000	54.544732
753.000000	54.608082
752.000000	54.719315
751.000000	54.862671
750.000000	55.018512
749.000000	55.164937
748.000000	55.274624
747.000000	55.318758
746.000000	55.278571
745.000000	55.149850
744.000000	54.938863
743.000000	54.661008
742.000000	54.342783
741.000000	54.016770
740.000000	53.710758
739.000000	53.444315
738.000000	53.232007
737.000000	53.081217
736.000000	52.984004
735.000000	52.916350
734.000000	52.847780
733.000000	52.747848
732.000000	52.584469
731.000000	52.326944
730.000000	51.956674
729.000000	51.472165
728.000000	50.887199
727.000000	50.235815
726.000000	49.582276
725.000000	49.015698
724.000000	48.621968
723.000000	48.452800
722.000000	48.515437
721.000000	48.777608
720.000000	49.175121
719.000000	49.629564
718.000000	50.079169
717.000000	50.497746
716.000000	50.884265
715.000000	51.242376
714.000000	51.570752
713.000000	51.861598
712.000000	52.098732
711.000000	52.262897
710.000000	52.346109
709.000000	52.356062
708.000000	52.305326
707.000000	52.205710
706.000000	52.074804
705.000000	51.936791
704.000000	51.810126
703.000000	51.698990
702.000000	51.603342
701.000000	51.528808
700.000000	51.478971
699.000000	51.450808
698.000000	51.444818
697.000000	51.470230
696.000000	51.532143
695.000000	51.620476
694.000000	51.722524
693.000000	51.833750
692.000000	51.943650
691.000000	52.027754
690.000000	52.064429
689.000000	52.048425
688.000000	51.977918
687.000000	51.843211
686.000000	51.649054
685.000000	51.430827
684.000000	51.227999
683.000000	51.058684
682.000000	50.934679
681.000000	50.879290
680.000000	50.903764
679.000000	50.986070
678.000000	51.100073
677.000000	51.238056
676.000000	51.388986
675.000000	51.527069
674.000000	51.639953
673.000000	51.723890
672.000000	51.733253
671.000000	51.592975
670.000000	51.299926
669.000000	51.029841
668.000000	50.972312
667.000000	51.123353
666.000000	51.345826
665.000000	51.449849
664.000000	51.381946
663.000000	51.255178
662.000000	51.171688
661.000000	51.157970
660.000000	51.199679
659.000000	51.302210
658.000000	51.465203
657.000000	51.655377
656.000000	51.835386
655.000000	51.992959
654.000000	52.118510
653.000000	52.184042
652.000000	52.173096
651.000000	52.104294
650.000000	52.004232
649.000000	51.881782
648.000000	51.747600
647.000000	51.630918
646.000000	51.552940
645.000000	51.508921
644.000000	51.490760
643.000000	51.504397
642.000000	51.553862
641.000000	51.626913
640.000000	51.712187
639.000000	51.813457
638.000000	51.932512
637.000000	52.056681
636.000000	52.174821
635.000000	52.285640
634.000000	52.381085
633.000000	52.439598
632.000000	52.444750
631.000000	52.398628
630.000000	52.309598
629.000000	52.182813
628.000000	52.033343
627.000000	51.894405
626.000000	51.798530
625.000000	51.759756
624.000000	51.780759
623.000000	51.862701
622.000000	51.997085
621.000000	52.157625
620.000000	52.314062
619.000000	52.449483
618.000000	52.560143
617.000000	52.645726
616.000000	52.704965
615.000000	52.736125
614.000000	52.737624
613.000000	52.711722
612.000000	52.667181
611.000000	52.614289
610.000000	52.557183
609.000000	52.495032
608.000000	52.430575
607.000000	52.372417
606.000000	52.329243
605.000000	52.308145
604.000000	52.315421
603.000000	52.352491
602.000000	52.412290
601.000000	52.480956
600.000000	52.536373
599.000000	52.541864
598.000000	52.453212
597.000000	52.227950
596.000000	51.829374
595.000000	51.209010
594.000000	50.258281
593.000000	48.751946
592.000000	46.360829
591.000000	42.886652
590.000000	38.647651
589.000000	34.640167
588.000000	32.165523
587.000000	32.081860
586.000000	34.210233
585.000000	37.467173
584.000000	40.685820
583.000000	43.271269
582.000000	45.191377
581.000000	46.625625
580.000000	47.729660
579.000000	48.602833
578.000000	49.306498
577.000000	49.862987
576.000000	50.277270
575.000000	50.571491
574.000000	50.772125
573.000000	50.892331
572.000000	50.947820
571.000000	50.973447
570.000000	51.003958
569.000000	51.046181
568.000000	51.096063
567.000000	51.158272
566.000000	51.222112
565.000000	51.240037
564.000000	51.155733
563.000000	50.949455
562.000000	50.642901
561.000000	50.275376
560.000000	49.891635
559.000000	49.529605
558.000000	49.192901
557.000000	48.853984
556.000000	48.515344
555.000000	48.249212
554.000000	48.148064
553.000000	48.249191
552.000000	48.527226
551.000000	48.927237
550.000000	49.374371
549.000000	49.792216
548.000000	50.144844
547.000000	50.448456
546.000000	50.731054
545.000000	50.996247
544.000000	51.236111
543.000000	51.451586
542.000000	51.640435
541.000000	51.781702
540.000000	51.853507
539.000000	51.853366
538.000000	51.790066
537.000000	51.671694
536.000000	51.512625
535.000000	51.341639
534.000000	51.185067
533.000000	51.052893
532.000000	50.952166
531.000000	50.895027
530.000000	50.879890
529.000000	50.882616
528.000000	50.878722
527.000000	50.858022
526.000000	50.802236
525.000000	50.670679
524.000000	50.428530
523.000000	50.067261
522.000000	49.585880
521.000000	48.966594
520.000000	48.185466
519.000000	47.227756
518.000000	46.083588
517.000000	44.769898
516.000000	43.391020
515.000000	42.147947
514.000000	41.248846
513.000000	40.825623
512.000000	40.918410
511.000000	41.485394
510.000000	42.397352
509.000000	43.479734
508.000000	44.599902
507.000000	45.678702
506.000000	46.651371
505.000000	47.474158
504.000000	48.161289
503.000000	48.765632
502.000000	49.311580
501.000000	49.776243
500.000000	50.142766
499.000000	50.432714
498.000000	50.669317
497.000000	50.855330
496.000000	50.997307
495.000000	51.121172
494.000000	51.251174
493.000000	51.389907
492.000000	51.533273
491.000000	51.685181
490.000000	51.841437
489.000000	51.982361
488.000000	52.090286
487.000000	52.153731
486.000000	52.139997
485.000000	51.978236
484.000000	51.592967
483.000000	50.929973
482.000000	49.953586
481.000000	48.644937
480.000000	47.014324
479.000000	45.105412
478.000000	42.980735
477.000000	40.762165
476.000000	38.712704
475.000000	37.229143
474.000000	36.663422
473.000000	37.132390
472.000000	38.447038
471.000000	40.218762
470.000000	42.100939
469.000000	43.906103
468.000000	45.557437
467.000000	47.012105
466.000000	48.239969
465.000000	49.238632
464.000000	50.035814
463.000000	50.672121
462.000000	51.182558
461.000000	51.591711
460.000000	51.921129
459.000000	52.212901
458.000000	52.518270
457.000000	52.843877
456.000000	53.153997
455.000000	53.437207
454.000000	53.726264
453.000000	54.051640
452.000000	54.400518
451.000000	54.729675
450.000000	55.005213
449.000000	55.215888
448.000000	55.362593
447.000000	55.458066
446.000000	55.528737
445.000000	55.597627
444.000000	55.671939
443.000000	55.749764
442.000000	55.828999
441.000000	55.908086
440.000000	55.988192
439.000000	56.075283
438.000000	56.176020
437.000000	56.294428
436.000000	56.435240
435.000000	56.602314
434.000000	56.781528
433.000000	56.931204
432.000000	57.003777
431.000000	56.986520
430.000000	56.909745
429.000000	56.805273
428.000000	56.677776
427.000000	56.531906
426.000000	56.395201
425.000000	56.292531
424.000000	56.228860
423.000000	56.211471
422.000000	56.259487
421.000000	56.383873
420.000000	56.586808
419.000000	56.881028
418.000000	57.232258
417.000000	57.563335
416.000000	57.847591
415.000000	58.103415
414.000000	58.348089
413.000000	58.581764
412.000000	58.778769
411.000000	58.901616
410.000000	58.927442
409.000000	58.839761
408.000000	58.605928
407.000000	58.233533
406.000000	57.843505
405.000000	57.630353
404.000000	57.671027
403.000000	57.931134
402.000000	58.152085
401.000000	58.302836
400.000000	58.408132
