PE IR       SUBTECH     SPECTRUM    ASCII       PEDS        4.00        
   -1
23ms006-cis.asc
24/10/21
15:22:00.00
24/10/21
15:22:00.00
Administrator
Sample 1314 By Administrator Date Monday, October 21 2024
400.000000
#HDR
-1
-1
#GR
cm-1
%T
1.0
0.0
4000.000000
-1.000000
3601
8
91.688495
17.592039
#DATA
4000.000000	72.817659
3999.000000	72.808831
3998.000000	72.801867
3997.000000	72.796580
3996.000000	72.793254
3995.000000	72.791569
3994.000000	72.790617
3993.000000	72.790027
3992.000000	72.790346
3991.000000	72.792158
3990.000000	72.795423
3989.000000	72.800255
3988.000000	72.807892
3987.000000	72.819881
3986.000000	72.836427
3985.000000	72.856323
3984.000000	72.878323
3983.000000	72.902036
3982.000000	72.927622
3981.000000	72.955171
3980.000000	72.984552
3979.000000	73.015475
3978.000000	73.047676
3977.000000	73.080653
3976.000000	73.113671
3975.000000	73.146211
3974.000000	73.178065
3973.000000	73.208727
3972.000000	73.237333
3971.000000	73.263634
3970.000000	73.288158
3969.000000	73.311957
3968.000000	73.336504
3967.000000	73.363680
3966.000000	73.394839
3965.000000	73.430039
3964.000000	73.468116
3963.000000	73.507746
3962.000000	73.548191
3961.000000	73.589043
3960.000000	73.630118
3959.000000	73.671912
3958.000000	73.714343
3957.000000	73.756440
3956.000000	73.797758
3955.000000	73.839672
3954.000000	73.883452
3953.000000	73.928172
3952.000000	73.971493
3951.000000	74.011213
3950.000000	74.046470
3949.000000	74.078349
3948.000000	74.109387
3947.000000	74.140773
3946.000000	74.171827
3945.000000	74.202192
3944.000000	74.231751
3943.000000	74.258753
3942.000000	74.281286
3941.000000	74.301766
3940.000000	74.327160
3939.000000	74.362669
3938.000000	74.405101
3937.000000	74.446584
3936.000000	74.483010
3935.000000	74.517391
3934.000000	74.552929
3933.000000	74.586317
3932.000000	74.611959
3931.000000	74.630092
3930.000000	74.647764
3929.000000	74.669919
3928.000000	74.693352
3927.000000	74.712385
3926.000000	74.726498
3925.000000	74.737903
3924.000000	74.746043
3923.000000	74.752873
3922.000000	74.766828
3921.000000	74.791681
3920.000000	74.817448
3919.000000	74.831785
3918.000000	74.835212
3917.000000	74.837455
3916.000000	74.842398
3915.000000	74.847982
3914.000000	74.855936
3913.000000	74.870917
3912.000000	74.890256
3911.000000	74.909267
3910.000000	74.928012
3909.000000	74.951959
3908.000000	74.981976
3907.000000	75.014594
3906.000000	75.046934
3905.000000	75.079600
3904.000000	75.111646
3903.000000	75.138674
3902.000000	75.160791
3901.000000	75.184393
3900.000000	75.211976
3899.000000	75.236025
3898.000000	75.252004
3897.000000	75.269895
3896.000000	75.302122
3895.000000	75.345961
3894.000000	75.385633
3893.000000	75.413829
3892.000000	75.438775
3891.000000	75.472133
3890.000000	75.508148
3889.000000	75.540968
3888.000000	75.580393
3887.000000	75.634105
3886.000000	75.691183
3885.000000	75.731060
3884.000000	75.746484
3883.000000	75.759221
3882.000000	75.787138
3881.000000	75.816278
3880.000000	75.826428
3879.000000	75.818634
3878.000000	75.812269
3877.000000	75.826830
3876.000000	75.860474
3875.000000	75.894059
3874.000000	75.908517
3873.000000	75.900087
3872.000000	75.891800
3871.000000	75.914010
3870.000000	75.964557
3869.000000	76.006350
3868.000000	76.018013
3867.000000	76.031467
3866.000000	76.076649
3865.000000	76.127356
3864.000000	76.141196
3863.000000	76.123527
3862.000000	76.115043
3861.000000	76.136821
3860.000000	76.172567
3859.000000	76.203471
3858.000000	76.220578
3857.000000	76.225311
3856.000000	76.228050
3855.000000	76.249495
3854.000000	76.301476
3853.000000	76.359254
3852.000000	76.383111
3851.000000	76.387718
3850.000000	76.416005
3849.000000	76.463376
3848.000000	76.498169
3847.000000	76.512730
3846.000000	76.523468
3845.000000	76.543329
3844.000000	76.571674
3843.000000	76.603872
3842.000000	76.631738
3841.000000	76.653621
3840.000000	76.676691
3839.000000	76.708057
3838.000000	76.744450
3837.000000	76.779582
3836.000000	76.808565
3835.000000	76.831275
3834.000000	76.848567
3833.000000	76.861546
3832.000000	76.872399
3831.000000	76.881669
3830.000000	76.890370
3829.000000	76.903863
3828.000000	76.927488
3827.000000	76.962269
3826.000000	76.999107
3825.000000	77.027763
3824.000000	77.055037
3823.000000	77.099165
3822.000000	77.157887
3821.000000	77.206427
3820.000000	77.217489
3819.000000	77.201638
3818.000000	77.205708
3817.000000	77.245250
3816.000000	77.289880
3815.000000	77.300552
3814.000000	77.277156
3813.000000	77.266147
3812.000000	77.293746
3811.000000	77.331680
3810.000000	77.349516
3809.000000	77.356365
3808.000000	77.384028
3807.000000	77.440828
3806.000000	77.495900
3805.000000	77.525163
3804.000000	77.548784
3803.000000	77.590809
3802.000000	77.641778
3801.000000	77.675782
3800.000000	77.675937
3799.000000	77.667819
3798.000000	77.685500
3797.000000	77.715643
3796.000000	77.725731
3795.000000	77.709156
3794.000000	77.690934
3793.000000	77.695405
3792.000000	77.719336
3791.000000	77.742996
3790.000000	77.759989
3789.000000	77.778596
3788.000000	77.804478
3787.000000	77.833262
3786.000000	77.860037
3785.000000	77.884970
3784.000000	77.908767
3783.000000	77.930944
3782.000000	77.954689
3781.000000	77.982932
3780.000000	78.008990
3779.000000	78.022923
3778.000000	78.023436
3777.000000	78.024401
3776.000000	78.042573
3775.000000	78.079371
3774.000000	78.118353
3773.000000	78.147458
3772.000000	78.174315
3771.000000	78.212574
3770.000000	78.257407
3769.000000	78.292319
3768.000000	78.316039
3767.000000	78.345419
3766.000000	78.388357
3765.000000	78.433131
3764.000000	78.465476
3763.000000	78.490439
3762.000000	78.527565
3761.000000	78.579990
3760.000000	78.625519
3759.000000	78.651638
3758.000000	78.673439
3757.000000	78.707274
3756.000000	78.746542
3755.000000	78.784353
3754.000000	78.829407
3753.000000	78.886887
3752.000000	78.944423
3751.000000	78.993332
3750.000000	79.047068
3749.000000	79.107689
3748.000000	79.147132
3747.000000	79.157388
3746.000000	79.170743
3745.000000	79.216356
3744.000000	79.279132
3743.000000	79.306246
3742.000000	79.305441
3741.000000	79.336515
3740.000000	79.393432
3739.000000	79.431187
3738.000000	79.445306
3737.000000	79.467809
3736.000000	79.503990
3735.000000	79.522094
3734.000000	79.512505
3733.000000	79.507025
3732.000000	79.525681
3731.000000	79.549272
3730.000000	79.558891
3729.000000	79.564264
3728.000000	79.583312
3727.000000	79.613598
3726.000000	79.637215
3725.000000	79.646423
3724.000000	79.656616
3723.000000	79.679483
3722.000000	79.705513
3721.000000	79.723631
3720.000000	79.736071
3719.000000	79.754579
3718.000000	79.787892
3717.000000	79.832470
3716.000000	79.877119
3715.000000	79.921161
3714.000000	79.974080
3713.000000	80.035613
3712.000000	80.090873
3711.000000	80.127535
3710.000000	80.149062
3709.000000	80.168013
3708.000000	80.191513
3707.000000	80.219564
3706.000000	80.247160
3705.000000	80.272280
3704.000000	80.296990
3703.000000	80.322746
3702.000000	80.347602
3701.000000	80.369930
3700.000000	80.390954
3699.000000	80.416161
3698.000000	80.452988
3697.000000	80.499356
3696.000000	80.542783
3695.000000	80.578104
3694.000000	80.617461
3693.000000	80.667206
3692.000000	80.713927
3691.000000	80.745057
3690.000000	80.770132
3689.000000	80.808635
3688.000000	80.859063
3687.000000	80.900140
3686.000000	80.923197
3685.000000	80.942665
3684.000000	80.965850
3683.000000	80.985452
3682.000000	80.998812
3681.000000	81.017195
3680.000000	81.047404
3679.000000	81.076753
3678.000000	81.102431
3677.000000	81.147731
3676.000000	81.225261
3675.000000	81.298062
3674.000000	81.321719
3673.000000	81.318348
3672.000000	81.341934
3671.000000	81.392726
3670.000000	81.427841
3669.000000	81.418881
3668.000000	81.385424
3667.000000	81.368707
3666.000000	81.376066
3665.000000	81.386629
3664.000000	81.386934
3663.000000	81.382815
3662.000000	81.386432
3661.000000	81.400179
3660.000000	81.416204
3659.000000	81.430072
3658.000000	81.450681
3657.000000	81.488160
3656.000000	81.538012
3655.000000	81.579529
3654.000000	81.607562
3653.000000	81.641500
3652.000000	81.693872
3651.000000	81.751851
3650.000000	81.794684
3649.000000	81.815920
3648.000000	81.826816
3647.000000	81.835787
3646.000000	81.836845
3645.000000	81.828287
3644.000000	81.817325
3643.000000	81.809448
3642.000000	81.802318
3641.000000	81.793555
3640.000000	81.787789
3639.000000	81.792805
3638.000000	81.806857
3637.000000	81.820098
3636.000000	81.831091
3635.000000	81.846937
3634.000000	81.864045
3633.000000	81.864196
3632.000000	81.844237
3631.000000	81.830620
3630.000000	81.848849
3629.000000	81.888656
3628.000000	81.908277
3627.000000	81.888510
3626.000000	81.857103
3625.000000	81.832711
3624.000000	81.799493
3623.000000	81.742241
3622.000000	81.670794
3621.000000	81.608298
3620.000000	81.563761
3619.000000	81.526702
3618.000000	81.484807
3617.000000	81.435097
3616.000000	81.380643
3615.000000	81.322928
3614.000000	81.257467
3613.000000	81.176275
3612.000000	81.079081
3611.000000	80.978635
3610.000000	80.889208
3609.000000	80.809273
3608.000000	80.722513
3607.000000	80.618496
3606.000000	80.503886
3605.000000	80.391368
3604.000000	80.284405
3603.000000	80.179644
3602.000000	80.077800
3601.000000	79.983905
3600.000000	79.899634
3599.000000	79.821782
3598.000000	79.749779
3597.000000	79.681066
3596.000000	79.611068
3595.000000	79.536776
3594.000000	79.458487
3593.000000	79.375809
3592.000000	79.290838
3591.000000	79.208841
3590.000000	79.138735
3589.000000	79.088110
3588.000000	79.055730
3587.000000	79.031517
3586.000000	79.005329
3585.000000	78.973958
3584.000000	78.935697
3583.000000	78.886064
3582.000000	78.822921
3581.000000	78.750410
3580.000000	78.675822
3579.000000	78.603143
3578.000000	78.532964
3577.000000	78.463466
3576.000000	78.392963
3575.000000	78.320939
3574.000000	78.247981
3573.000000	78.174205
3572.000000	78.099103
3571.000000	78.022004
3570.000000	77.943551
3569.000000	77.866047
3568.000000	77.788326
3567.000000	77.703491
3566.000000	77.605926
3565.000000	77.497476
3564.000000	77.382640
3563.000000	77.261523
3562.000000	77.131219
3561.000000	76.991784
3560.000000	76.847515
3559.000000	76.702939
3558.000000	76.559407
3557.000000	76.415914
3556.000000	76.270071
3555.000000	76.119593
3554.000000	75.963739
3553.000000	75.803570
3552.000000	75.640145
3551.000000	75.473246
3550.000000	75.301972
3549.000000	75.125939
3548.000000	74.944125
3547.000000	74.754557
3546.000000	74.556626
3545.000000	74.351847
3544.000000	74.141085
3543.000000	73.923026
3542.000000	73.695491
3541.000000	73.457422
3540.000000	73.208619
3539.000000	72.949031
3538.000000	72.679176
3537.000000	72.400484
3536.000000	72.114269
3535.000000	71.820110
3534.000000	71.516247
3533.000000	71.200586
3532.000000	70.871279
3531.000000	70.526021
3530.000000	70.163399
3529.000000	69.784060
3528.000000	69.389689
3527.000000	68.980313
3526.000000	68.554271
3525.000000	68.110654
3524.000000	67.650054
3523.000000	67.173080
3522.000000	66.679829
3521.000000	66.170357
3520.000000	65.644421
3519.000000	65.100561
3518.000000	64.536685
3517.000000	63.952536
3516.000000	63.350893
3515.000000	62.735095
3514.000000	62.106177
3513.000000	61.462590
3512.000000	60.801984
3511.000000	60.121998
3510.000000	59.422567
3509.000000	58.708715
3508.000000	57.987136
3507.000000	57.257959
3506.000000	56.512918
3505.000000	55.743389
3504.000000	54.949878
3503.000000	54.142371
3502.000000	53.332728
3501.000000	52.527052
3500.000000	51.723014
3499.000000	50.912809
3498.000000	50.090073
3497.000000	49.255569
3496.000000	48.416142
3495.000000	47.578492
3494.000000	46.745997
3493.000000	45.920883
3492.000000	45.105300
3491.000000	44.299118
3490.000000	43.500656
3489.000000	42.711885
3488.000000	41.940229
3487.000000	41.193183
3486.000000	40.473167
3485.000000	39.777563
3484.000000	39.100011
3483.000000	38.432881
3482.000000	37.773650
3481.000000	37.129547
3480.000000	36.511602
3479.000000	35.922132
3478.000000	35.352203
3477.000000	34.791135
3476.000000	34.233851
3475.000000	33.679756
3474.000000	33.129758
3473.000000	32.586882
3472.000000	32.056578
3471.000000	31.545391
3470.000000	31.062991
3469.000000	30.624044
3468.000000	30.243385
3467.000000	29.928147
3466.000000	29.677257
3465.000000	29.488722
3464.000000	29.362255
3463.000000	29.297248
3462.000000	29.294964
3461.000000	29.360865
3460.000000	29.499937
3459.000000	29.708038
3458.000000	29.972090
3457.000000	30.278576
3456.000000	30.615578
3455.000000	30.968857
3454.000000	31.322412
3453.000000	31.662654
3452.000000	31.977926
3451.000000	32.254317
3450.000000	32.476240
3449.000000	32.632252
3448.000000	32.716620
3447.000000	32.726170
3446.000000	32.661693
3445.000000	32.528778
3444.000000	32.334341
3443.000000	32.084187
3442.000000	31.785875
3441.000000	31.453924
3440.000000	31.106328
3439.000000	30.757958
3438.000000	30.422456
3437.000000	30.116869
3436.000000	29.858138
3435.000000	29.654890
3434.000000	29.506815
3433.000000	29.411329
3432.000000	29.369075
3431.000000	29.383567
3430.000000	29.461703
3429.000000	29.613652
3428.000000	29.845582
3427.000000	30.156786
3426.000000	30.543949
3425.000000	31.006613
3424.000000	31.546247
3423.000000	32.159827
3422.000000	32.842691
3421.000000	33.591988
3420.000000	34.402990
3419.000000	35.265719
3418.000000	36.166571
3417.000000	37.094478
3416.000000	38.040691
3415.000000	38.995684
3414.000000	39.951589
3413.000000	40.903961
3412.000000	41.848274
3411.000000	42.777123
3410.000000	43.684187
3409.000000	44.568252
3408.000000	45.429507
3407.000000	46.263424
3406.000000	47.062649
3405.000000	47.822849
3404.000000	48.543588
3403.000000	49.227470
3402.000000	49.881201
3401.000000	50.514805
3400.000000	51.135404
3399.000000	51.741204
3398.000000	52.325142
3397.000000	52.882798
3396.000000	53.414010
3395.000000	53.920331
3394.000000	54.404166
3393.000000	54.870467
3392.000000	55.325420
3391.000000	55.772159
3390.000000	56.210579
3389.000000	56.639598
3388.000000	57.058469
3387.000000	57.467031
3386.000000	57.866493
3385.000000	58.259650
3384.000000	58.648048
3383.000000	59.030478
3382.000000	59.405614
3381.000000	59.774555
3380.000000	60.139483
3379.000000	60.501206
3378.000000	60.860020
3377.000000	61.217446
3376.000000	61.574639
3375.000000	61.929975
3374.000000	62.280029
3373.000000	62.622642
3372.000000	62.957985
3371.000000	63.287524
3370.000000	63.613707
3369.000000	63.939535
3368.000000	64.266579
3367.000000	64.593600
3366.000000	64.917950
3365.000000	65.237775
3364.000000	65.551938
3363.000000	65.859387
3362.000000	66.160301
3361.000000	66.456714
3360.000000	66.750591
3359.000000	67.041808
3358.000000	67.329041
3357.000000	67.611831
3356.000000	67.890087
3355.000000	68.162942
3354.000000	68.429535
3353.000000	68.690333
3352.000000	68.946666
3351.000000	69.199228
3350.000000	69.447995
3349.000000	69.692878
3348.000000	69.933334
3347.000000	70.168292
3346.000000	70.397288
3345.000000	70.621117
3344.000000	70.840331
3343.000000	71.053698
3342.000000	71.259416
3341.000000	71.457061
3340.000000	71.647806
3339.000000	71.833236
3338.000000	72.014333
3337.000000	72.191193
3336.000000	72.362299
3335.000000	72.524669
3334.000000	72.675632
3333.000000	72.813731
3332.000000	72.938069
3331.000000	73.047227
3330.000000	73.139824
3329.000000	73.215824
3328.000000	73.275502
3327.000000	73.318381
3326.000000	73.342887
3325.000000	73.346223
3324.000000	73.324474
3323.000000	73.272545
3322.000000	73.186177
3321.000000	73.063132
3320.000000	72.901494
3319.000000	72.699291
3318.000000	72.453748
3317.000000	72.162247
3316.000000	71.820866
3315.000000	71.422163
3314.000000	70.957326
3313.000000	70.417185
3312.000000	69.792678
3311.000000	69.075345
3310.000000	68.256764
3309.000000	67.332778
3308.000000	66.301046
3307.000000	65.158705
3306.000000	63.903135
3305.000000	62.528980
3304.000000	61.030214
3303.000000	59.397917
3302.000000	57.625019
3301.000000	55.712876
3300.000000	53.669718
3299.000000	51.512145
3298.000000	49.268740
3297.000000	46.982934
3296.000000	44.708329
3295.000000	42.497539
3294.000000	40.397837
3293.000000	38.451539
3292.000000	36.690032
3291.000000	35.121876
3290.000000	33.734675
3289.000000	32.501047
3288.000000	31.386185
3287.000000	30.354439
3286.000000	29.374566
3285.000000	28.429602
3284.000000	27.513911
3283.000000	26.630000
3282.000000	25.791736
3281.000000	25.023951
3280.000000	24.357636
3279.000000	23.820635
3278.000000	23.436807
3277.000000	23.229146
3276.000000	23.210862
3275.000000	23.379219
3274.000000	23.716208
3273.000000	24.191553
3272.000000	24.764758
3271.000000	25.382178
3270.000000	25.983974
3269.000000	26.513124
3268.000000	26.919035
3267.000000	27.161484
3266.000000	27.219771
3265.000000	27.096232
3264.000000	26.810526
3263.000000	26.395071
3262.000000	25.891918
3261.000000	25.353135
3260.000000	24.831077
3259.000000	24.368802
3258.000000	24.001181
3257.000000	23.757339
3256.000000	23.655058
3255.000000	23.695987
3254.000000	23.870247
3253.000000	24.160466
3252.000000	24.543809
3251.000000	24.989276
3250.000000	25.463766
3249.000000	25.940032
3248.000000	26.394561
3247.000000	26.805949
3246.000000	27.157378
3245.000000	27.440012
3244.000000	27.650815
3243.000000	27.790990
3242.000000	27.867039
3241.000000	27.891667
3240.000000	27.878781
3239.000000	27.837500
3238.000000	27.775535
3237.000000	27.701243
3236.000000	27.621845
3235.000000	27.542620
3234.000000	27.468844
3233.000000	27.405227
3232.000000	27.348400
3231.000000	27.284764
3230.000000	27.199670
3229.000000	27.084668
3228.000000	26.934899
3227.000000	26.744194
3226.000000	26.507922
3225.000000	26.227430
3224.000000	25.906051
3223.000000	25.546019
3222.000000	25.151827
3221.000000	24.733762
3220.000000	24.304471
3219.000000	23.873247
3218.000000	23.447368
3217.000000	23.033741
3216.000000	22.635412
3215.000000	22.249814
3214.000000	21.873746
3213.000000	21.506668
3212.000000	21.146374
3211.000000	20.786735
3210.000000	20.423891
3209.000000	20.061373
3208.000000	19.705249
3207.000000	19.358994
3206.000000	19.027089
3205.000000	18.717824
3204.000000	18.438907
3203.000000	18.193435
3202.000000	17.984054
3201.000000	17.817049
3200.000000	17.696655
3199.000000	17.621991
3198.000000	17.592039
3197.000000	17.609436
3196.000000	17.676393
3195.000000	17.789087
3194.000000	17.943435
3193.000000	18.139307
3192.000000	18.375280
3191.000000	18.645851
3190.000000	18.944918
3189.000000	19.270200
3188.000000	19.619316
3187.000000	19.985821
3186.000000	20.364484
3185.000000	20.754426
3184.000000	21.154872
3183.000000	21.561602
3182.000000	21.970977
3181.000000	22.383418
3180.000000	22.798404
3179.000000	23.211021
3178.000000	23.616745
3177.000000	24.015386
3176.000000	24.406837
3175.000000	24.787398
3174.000000	25.153912
3173.000000	25.507360
3172.000000	25.849320
3171.000000	26.178239
3170.000000	26.493086
3169.000000	26.796327
3168.000000	27.089680
3167.000000	27.371282
3166.000000	27.639160
3165.000000	27.894361
3164.000000	28.137273
3163.000000	28.364364
3162.000000	28.572629
3161.000000	28.762667
3160.000000	28.935344
3159.000000	29.089141
3158.000000	29.223393
3157.000000	29.341581
3156.000000	29.447564
3155.000000	29.543038
3154.000000	29.631608
3153.000000	29.720944
3152.000000	29.817754
3151.000000	29.923241
3150.000000	30.036530
3149.000000	30.158844
3148.000000	30.291373
3147.000000	30.432596
3146.000000	30.581102
3145.000000	30.737711
3144.000000	30.901951
3143.000000	31.070126
3142.000000	31.238999
3141.000000	31.408154
3140.000000	31.576160
3139.000000	31.738274
3138.000000	31.890385
3137.000000	32.031614
3136.000000	32.160339
3135.000000	32.270782
3134.000000	32.356690
3133.000000	32.413614
3132.000000	32.435890
3131.000000	32.414254
3130.000000	32.339054
3129.000000	32.205318
3128.000000	32.011002
3127.000000	31.756686
3126.000000	31.449240
3125.000000	31.102000
3124.000000	30.730300
3123.000000	30.347332
3122.000000	29.966953
3121.000000	29.604183
3120.000000	29.268618
3119.000000	28.960815
3118.000000	28.677478
3117.000000	28.416663
3116.000000	28.175458
3115.000000	27.947930
3114.000000	27.728602
3113.000000	27.515315
3112.000000	27.305934
3111.000000	27.096724
3110.000000	26.887717
3109.000000	26.685032
3108.000000	26.495327
3107.000000	26.321750
3106.000000	26.167392
3105.000000	26.039053
3104.000000	25.943051
3103.000000	25.882688
3102.000000	25.863233
3101.000000	25.893322
3100.000000	25.980076
3099.000000	26.124199
3098.000000	26.324000
3097.000000	26.579978
3096.000000	26.890641
3095.000000	27.251325
3094.000000	27.657480
3093.000000	28.106647
3092.000000	28.595221
3091.000000	29.115625
3090.000000	29.661149
3089.000000	30.227191
3088.000000	30.807047
3087.000000	31.391962
3086.000000	31.976689
3085.000000	32.561537
3084.000000	33.145639
3083.000000	33.723324
3082.000000	34.289511
3081.000000	34.843988
3080.000000	35.388039
3079.000000	35.920956
3078.000000	36.442332
3077.000000	36.952976
3076.000000	37.451589
3075.000000	37.933879
3074.000000	38.397652
3073.000000	38.845402
3072.000000	39.279252
3071.000000	39.698124
3070.000000	40.101441
3069.000000	40.491841
3068.000000	40.871885
3067.000000	41.240863
3066.000000	41.597997
3065.000000	41.944990
3064.000000	42.283291
3063.000000	42.612350
3062.000000	42.932033
3061.000000	43.244253
3060.000000	43.549923
3059.000000	43.847369
3058.000000	44.135883
3057.000000	44.417441
3056.000000	44.693686
3055.000000	44.963925
3054.000000	45.227804
3053.000000	45.487424
3052.000000	45.744692
3051.000000	45.999381
3050.000000	46.250910
3049.000000	46.499207
3048.000000	46.743081
3047.000000	46.980426
3046.000000	47.211481
3045.000000	47.439125
3044.000000	47.665060
3043.000000	47.888846
3042.000000	48.111020
3041.000000	48.333610
3040.000000	48.556257
3039.000000	48.775194
3038.000000	48.988008
3037.000000	49.196440
3036.000000	49.403360
3035.000000	49.609936
3034.000000	49.816692
3033.000000	50.024334
3032.000000	50.232034
3031.000000	50.437727
3030.000000	50.641201
3029.000000	50.843990
3028.000000	51.045501
3027.000000	51.242546
3026.000000	51.433790
3025.000000	51.621398
3024.000000	51.806547
3023.000000	51.986680
3022.000000	52.158641
3021.000000	52.320893
3020.000000	52.470912
3019.000000	52.602695
3018.000000	52.709643
3017.000000	52.787793
3016.000000	52.835479
3015.000000	52.853904
3014.000000	52.850316
3013.000000	52.839736
3012.000000	52.841122
3011.000000	52.872541
3010.000000	52.948261
3009.000000	53.075134
3008.000000	53.248458
3007.000000	53.452666
3006.000000	53.667406
3005.000000	53.871847
3004.000000	54.043677
3003.000000	54.157948
3002.000000	54.189997
3001.000000	54.118622
3000.000000	53.931233
2999.000000	53.634015
2998.000000	53.264650
2997.000000	52.893404
2996.000000	52.605412
2995.000000	52.473971
2994.000000	52.536869
2993.000000	52.785927
2992.000000	53.170739
2991.000000	53.620844
2990.000000	54.073412
2989.000000	54.489401
2988.000000	54.852752
2987.000000	55.161514
2986.000000	55.421763
2985.000000	55.641838
2984.000000	55.827391
2983.000000	55.979398
2982.000000	56.097608
2981.000000	56.181792
2980.000000	56.229296
2979.000000	56.234054
2978.000000	56.190391
2977.000000	56.098551
2976.000000	55.966150
2975.000000	55.809244
2974.000000	55.652129
2973.000000	55.521924
2972.000000	55.438578
2971.000000	55.406671
2970.000000	55.413580
2969.000000	55.429815
2968.000000	55.411282
2967.000000	55.310857
2966.000000	55.098906
2965.000000	54.778882
2964.000000	54.386497
2963.000000	53.975547
2962.000000	53.601701
2961.000000	53.308526
2960.000000	53.120454
2959.000000	53.044235
2958.000000	53.077723
2957.000000	53.213441
2956.000000	53.435316
2955.000000	53.717689
2954.000000	54.030064
2953.000000	54.341977
2952.000000	54.622538
2951.000000	54.844524
2950.000000	54.993727
2949.000000	55.076062
2948.000000	55.112482
2947.000000	55.123885
2946.000000	55.113544
2945.000000	55.051693
2944.000000	54.876841
2943.000000	54.526345
2942.000000	53.991106
2941.000000	53.355337
2940.000000	52.785881
2939.000000	52.467717
2938.000000	52.520491
2937.000000	52.948271
2936.000000	53.647458
2935.000000	54.466649
2934.000000	55.274166
2933.000000	55.994208
2932.000000	56.602891
2931.000000	57.108120
2930.000000	57.532306
2929.000000	57.899319
2928.000000	58.227357
2927.000000	58.526742
2926.000000	58.803991
2925.000000	59.063761
2924.000000	59.307351
2923.000000	59.532615
2922.000000	59.737422
2921.000000	59.921149
2920.000000	60.082193
2919.000000	60.217881
2918.000000	60.327503
2917.000000	60.413705
2916.000000	60.480365
2915.000000	60.531169
2914.000000	60.570662
2913.000000	60.603372
2912.000000	60.630852
2911.000000	60.651690
2910.000000	60.664355
2909.000000	60.667441
2908.000000	60.656449
2907.000000	60.622423
2906.000000	60.554499
2905.000000	60.440869
2904.000000	60.267159
2903.000000	60.018447
2902.000000	59.686735
2901.000000	59.278002
2900.000000	58.814733
2899.000000	58.336440
2898.000000	57.895631
2897.000000	57.547643
2896.000000	57.333803
2895.000000	57.270133
2894.000000	57.348300
2893.000000	57.541888
2892.000000	57.814308
2891.000000	58.127647
2890.000000	58.452279
2889.000000	58.769460
2888.000000	59.067717
2887.000000	59.339790
2886.000000	59.582814
2885.000000	59.798094
2884.000000	59.987131
2883.000000	60.150286
2882.000000	60.289085
2881.000000	60.407464
2880.000000	60.510008
2879.000000	60.601104
2878.000000	60.686110
2877.000000	60.770328
2876.000000	60.855625
2875.000000	60.939969
2874.000000	61.021257
2873.000000	61.099329
2872.000000	61.174467
2871.000000	61.247575
2870.000000	61.322867
2869.000000	61.407366
2868.000000	61.505728
2867.000000	61.617300
2866.000000	61.738868
2865.000000	61.867309
2864.000000	61.998489
2863.000000	62.126868
2862.000000	62.248382
2861.000000	62.362045
2860.000000	62.467895
2859.000000	62.565735
2858.000000	62.657300
2857.000000	62.747359
2856.000000	62.840961
2855.000000	62.940962
2854.000000	63.048293
2853.000000	63.161474
2852.000000	63.274161
2851.000000	63.375593
2850.000000	63.456112
2849.000000	63.512150
2848.000000	63.546351
2847.000000	63.565404
2846.000000	63.578566
2845.000000	63.595320
2844.000000	63.621835
2843.000000	63.659631
2842.000000	63.707752
2841.000000	63.764994
2840.000000	63.829797
2839.000000	63.900218
2838.000000	63.975089
2837.000000	64.053910
2836.000000	64.135527
2835.000000	64.218655
2834.000000	64.303753
2833.000000	64.392439
2832.000000	64.484637
2831.000000	64.578017
2830.000000	64.670566
2829.000000	64.761760
2828.000000	64.850994
2827.000000	64.937124
2826.000000	65.020182
2825.000000	65.101570
2824.000000	65.181845
2823.000000	65.259921
2822.000000	65.334944
2821.000000	65.407108
2820.000000	65.476149
2819.000000	65.541035
2818.000000	65.601774
2817.000000	65.659825
2816.000000	65.716226
2815.000000	65.771001
2814.000000	65.824708
2813.000000	65.878531
2812.000000	65.932144
2811.000000	65.983395
2810.000000	66.030801
2809.000000	66.074761
2808.000000	66.115917
2807.000000	66.154330
2806.000000	66.191084
2805.000000	66.228814
2804.000000	66.269519
2803.000000	66.313038
2802.000000	66.358077
2801.000000	66.403222
2800.000000	66.446591
2799.000000	66.486269
2798.000000	66.521871
2797.000000	66.554506
2796.000000	66.585081
2795.000000	66.614225
2794.000000	66.643837
2793.000000	66.676555
2792.000000	66.713003
2791.000000	66.751153
2790.000000	66.788657
2789.000000	66.823981
2788.000000	66.855179
2787.000000	66.880068
2786.000000	66.898759
2785.000000	66.914545
2784.000000	66.931661
2783.000000	66.953692
2782.000000	66.984036
2781.000000	67.025141
2780.000000	67.075982
2779.000000	67.131981
2778.000000	67.188410
2777.000000	67.242824
2776.000000	67.294149
2775.000000	67.341817
2774.000000	67.386931
2773.000000	67.432347
2772.000000	67.480250
2771.000000	67.530632
2770.000000	67.582426
2769.000000	67.634496
2768.000000	67.684891
2767.000000	67.730864
2766.000000	67.770758
2765.000000	67.804813
2764.000000	67.833845
2763.000000	67.858742
2762.000000	67.881563
2761.000000	67.905271
2760.000000	67.931298
2759.000000	67.958462
2758.000000	67.984767
2757.000000	68.008666
2756.000000	68.028267
2755.000000	68.041476
2754.000000	68.048278
2753.000000	68.051989
2752.000000	68.057516
2751.000000	68.069145
2750.000000	68.089806
2749.000000	68.120162
2748.000000	68.157121
2747.000000	68.194540
2746.000000	68.226652
2745.000000	68.250711
2744.000000	68.266973
2743.000000	68.277919
2742.000000	68.287570
2741.000000	68.299413
2740.000000	68.313733
2739.000000	68.327935
2738.000000	68.340121
2737.000000	68.351729
2736.000000	68.366863
2735.000000	68.390615
2734.000000	68.427764
2733.000000	68.480292
2732.000000	68.545108
2731.000000	68.615580
2730.000000	68.685969
2729.000000	68.753740
2728.000000	68.817880
2727.000000	68.877261
2726.000000	68.931397
2725.000000	68.980839
2724.000000	69.025669
2723.000000	69.064863
2722.000000	69.097580
2721.000000	69.123736
2720.000000	69.143258
2719.000000	69.156245
2718.000000	69.164619
2717.000000	69.172271
2716.000000	69.182629
2715.000000	69.197203
2714.000000	69.216644
2713.000000	69.241537
2712.000000	69.271578
2711.000000	69.305332
2710.000000	69.341387
2709.000000	69.378684
2708.000000	69.415536
2707.000000	69.449742
2706.000000	69.480160
2705.000000	69.506865
2704.000000	69.529404
2703.000000	69.546384
2702.000000	69.557140
2701.000000	69.562160
2700.000000	69.561673
2699.000000	69.555210
2698.000000	69.543107
2697.000000	69.527320
2696.000000	69.510077
2695.000000	69.493081
2694.000000	69.478133
2693.000000	69.466801
2692.000000	69.459070
2691.000000	69.453763
2690.000000	69.450707
2689.000000	69.451162
2688.000000	69.455832
2687.000000	69.463886
2686.000000	69.474331
2685.000000	69.486656
2684.000000	69.499834
2683.000000	69.512712
2682.000000	69.526036
2681.000000	69.542758
2680.000000	69.565562
2679.000000	69.595077
2678.000000	69.630571
2677.000000	69.670226
2676.000000	69.710226
2675.000000	69.745432
2674.000000	69.772120
2673.000000	69.789330
2672.000000	69.797646
2671.000000	69.798461
2670.000000	69.795147
2669.000000	69.793427
2668.000000	69.799262
2667.000000	69.816676
2666.000000	69.847153
2665.000000	69.889121
2664.000000	69.937333
2663.000000	69.984489
2662.000000	70.024569
2661.000000	70.054331
2660.000000	70.072416
2659.000000	70.079061
2658.000000	70.077030
2657.000000	70.071059
2656.000000	70.065325
2655.000000	70.062186
2654.000000	70.063411
2653.000000	70.070763
2652.000000	70.084899
2651.000000	70.105343
2650.000000	70.132093
2649.000000	70.165763
2648.000000	70.205959
2647.000000	70.250803
2646.000000	70.298317
2645.000000	70.346997
2644.000000	70.394581
2643.000000	70.438295
2642.000000	70.477083
2641.000000	70.512342
2640.000000	70.546041
2639.000000	70.579315
2638.000000	70.613040
2637.000000	70.648092
2636.000000	70.684342
2635.000000	70.720497
2634.000000	70.755436
2633.000000	70.788374
2632.000000	70.817513
2631.000000	70.840228
2630.000000	70.855170
2629.000000	70.863385
2628.000000	70.866991
2627.000000	70.867940
2626.000000	70.868371
2625.000000	70.870359
2624.000000	70.874766
2623.000000	70.881216
2622.000000	70.889255
2621.000000	70.898383
2620.000000	70.906691
2619.000000	70.911170
2618.000000	70.909737
2617.000000	70.901801
2616.000000	70.887047
2615.000000	70.865147
2614.000000	70.837161
2613.000000	70.805639
2612.000000	70.772800
2611.000000	70.740184
2610.000000	70.710179
2609.000000	70.686107
2608.000000	70.670182
2607.000000	70.662858
2606.000000	70.664319
2605.000000	70.675291
2604.000000	70.695742
2603.000000	70.724223
2602.000000	70.759362
2601.000000	70.799990
2600.000000	70.843730
2599.000000	70.887071
2598.000000	70.927353
2597.000000	70.963836
2596.000000	70.996456
2595.000000	71.025312
2594.000000	71.051869
2593.000000	71.078923
2592.000000	71.108338
2591.000000	71.139750
2590.000000	71.171601
2589.000000	71.202165
2588.000000	71.229450
2587.000000	71.251699
2586.000000	71.268889
2585.000000	71.282750
2584.000000	71.295193
2583.000000	71.308012
2582.000000	71.324168
2581.000000	71.347398
2580.000000	71.379852
2579.000000	71.421245
2578.000000	71.470359
2577.000000	71.526178
2576.000000	71.586990
2575.000000	71.650143
2574.000000	71.713464
2573.000000	71.775587
2572.000000	71.834901
2571.000000	71.889566
2570.000000	71.938988
2569.000000	71.984006
2568.000000	72.025351
2567.000000	72.063214
2566.000000	72.098709
2565.000000	72.134276
2564.000000	72.171715
2563.000000	72.210963
2562.000000	72.250936
2561.000000	72.290357
2560.000000	72.327448
2559.000000	72.360147
2558.000000	72.387628
2557.000000	72.410894
2556.000000	72.431924
2555.000000	72.453280
2554.000000	72.478341
2553.000000	72.510071
2552.000000	72.548712
2551.000000	72.591618
2550.000000	72.635555
2549.000000	72.678119
2548.000000	72.717058
2547.000000	72.750222
2546.000000	72.777155
2545.000000	72.799799
2544.000000	72.820939
2543.000000	72.842680
2542.000000	72.866186
2541.000000	72.891144
2540.000000	72.915020
2539.000000	72.933689
2538.000000	72.943755
2537.000000	72.943700
2536.000000	72.932879
2535.000000	72.911527
2534.000000	72.881889
2533.000000	72.848258
2532.000000	72.814951
2531.000000	72.784457
2530.000000	72.757729
2529.000000	72.734459
2528.000000	72.712706
2527.000000	72.689713
2526.000000	72.663905
2525.000000	72.635680
2524.000000	72.606180
2523.000000	72.576425
2522.000000	72.547715
2521.000000	72.521216
2520.000000	72.496427
2519.000000	72.470883
2518.000000	72.441752
2517.000000	72.406936
2516.000000	72.364655
2515.000000	72.313976
2514.000000	72.256522
2513.000000	72.196793
2512.000000	72.140335
2511.000000	72.092381
2510.000000	72.057684
2509.000000	72.039665
2508.000000	72.038725
2507.000000	72.051892
2506.000000	72.075171
2505.000000	72.104926
2504.000000	72.137686
2503.000000	72.170837
2502.000000	72.203622
2501.000000	72.236846
2500.000000	72.270780
2499.000000	72.304348
2498.000000	72.336376
2497.000000	72.366043
2496.000000	72.391904
2495.000000	72.411987
2494.000000	72.425418
2493.000000	72.432923
2492.000000	72.435886
2491.000000	72.435904
2490.000000	72.435399
2489.000000	72.437189
2488.000000	72.442852
2487.000000	72.452544
2486.000000	72.466291
2485.000000	72.484101
2484.000000	72.504725
2483.000000	72.525939
2482.000000	72.546375
2481.000000	72.566018
2480.000000	72.584922
2479.000000	72.602755
2478.000000	72.620016
2477.000000	72.638247
2476.000000	72.658925
2475.000000	72.683367
2474.000000	72.713567
2473.000000	72.751759
2472.000000	72.798402
2471.000000	72.851727
2470.000000	72.909234
2469.000000	72.968197
2468.000000	73.025058
2467.000000	73.076074
2466.000000	73.119391
2465.000000	73.155680
2464.000000	73.186824
2463.000000	73.215020
2462.000000	73.242958
2461.000000	73.273008
2460.000000	73.305378
2459.000000	73.338101
2458.000000	73.368598
2457.000000	73.394392
2456.000000	73.412777
2455.000000	73.421631
2454.000000	73.421642
2453.000000	73.416682
2452.000000	73.411838
2451.000000	73.411675
2450.000000	73.419781
2449.000000	73.437956
2448.000000	73.465115
2447.000000	73.497986
2446.000000	73.533182
2445.000000	73.568271
2444.000000	73.601339
2443.000000	73.631613
2442.000000	73.660684
2441.000000	73.691528
2440.000000	73.725937
2439.000000	73.763546
2438.000000	73.803029
2437.000000	73.842614
2436.000000	73.879317
2435.000000	73.909165
2434.000000	73.929267
2433.000000	73.939135
2432.000000	73.940135
2431.000000	73.934956
2430.000000	73.926985
2429.000000	73.918980
2428.000000	73.911435
2427.000000	73.902529
2426.000000	73.889778
2425.000000	73.870507
2424.000000	73.841970
2423.000000	73.803156
2422.000000	73.757150
2421.000000	73.710861
2420.000000	73.671943
2419.000000	73.646283
2418.000000	73.637095
2417.000000	73.644074
2416.000000	73.662509
2415.000000	73.684795
2414.000000	73.703577
2413.000000	73.713241
2412.000000	73.709445
2411.000000	73.689576
2410.000000	73.654334
2409.000000	73.607744
2408.000000	73.555198
2407.000000	73.501537
2406.000000	73.450657
2405.000000	73.404890
2404.000000	73.364393
2403.000000	73.328187
2402.000000	73.295916
2401.000000	73.267968
2400.000000	73.244418
2399.000000	73.225206
2398.000000	73.210759
2397.000000	73.201008
2396.000000	73.193681
2395.000000	73.184902
2394.000000	73.171314
2393.000000	73.150768
2392.000000	73.121631
2391.000000	73.083614
2390.000000	73.039241
2389.000000	72.993055
2388.000000	72.949391
2387.000000	72.911881
2386.000000	72.884328
2385.000000	72.869938
2384.000000	72.870137
2383.000000	72.884583
2382.000000	72.913071
2381.000000	72.954986
2380.000000	73.006880
2379.000000	73.063645
2378.000000	73.119427
2377.000000	73.169026
2376.000000	73.207741
2375.000000	73.231781
2374.000000	73.240196
2373.000000	73.232905
2372.000000	73.211549
2371.000000	73.182569
2370.000000	73.155104
2369.000000	73.135427
2368.000000	73.128105
2367.000000	73.138437
2366.000000	73.165781
2365.000000	73.203627
2364.000000	73.253130
2363.000000	73.314862
2362.000000	73.384650
2361.000000	73.462118
2360.000000	73.536523
2359.000000	73.602299
2358.000000	73.654156
2357.000000	73.677378
2356.000000	73.669315
2355.000000	73.623546
2354.000000	73.541932
2353.000000	73.449195
2352.000000	73.410599
2351.000000	73.483327
2350.000000	73.621426
2349.000000	73.733486
2348.000000	73.750159
2347.000000	73.685953
2346.000000	73.630924
2345.000000	73.656171
2344.000000	73.769634
2343.000000	73.895738
2342.000000	73.987094
2341.000000	74.046452
2340.000000	74.082889
2339.000000	74.104662
2338.000000	74.110739
2337.000000	74.109726
2336.000000	74.110991
2335.000000	74.118424
2334.000000	74.125791
2333.000000	74.119838
2332.000000	74.089922
2331.000000	74.042477
2330.000000	73.971179
2329.000000	73.893268
2328.000000	73.820221
2327.000000	73.762348
2326.000000	73.727183
2325.000000	73.704569
2324.000000	73.701566
2323.000000	73.704474
2322.000000	73.709636
2321.000000	73.707432
2320.000000	73.694505
2319.000000	73.673711
2318.000000	73.644627
2317.000000	73.613608
2316.000000	73.577698
2315.000000	73.538373
2314.000000	73.492097
2313.000000	73.440201
2312.000000	73.379365
2311.000000	73.307164
2310.000000	73.222740
2309.000000	73.128134
2308.000000	73.027019
2307.000000	72.919414
2306.000000	72.808286
2305.000000	72.695713
2304.000000	72.585938
2303.000000	72.479629
2302.000000	72.377637
2301.000000	72.281190
2300.000000	72.189662
2299.000000	72.101413
2298.000000	72.016112
2297.000000	71.937128
2296.000000	71.867911
2295.000000	71.810504
2294.000000	71.768030
2293.000000	71.743603
2292.000000	71.740272
2291.000000	71.756989
2290.000000	71.793365
2289.000000	71.847238
2288.000000	71.915982
2287.000000	71.994441
2286.000000	72.078957
2285.000000	72.166347
2284.000000	72.252269
2283.000000	72.331147
2282.000000	72.400689
2281.000000	72.463106
2280.000000	72.521510
2279.000000	72.577234
2278.000000	72.631009
2277.000000	72.684707
2276.000000	72.738796
2275.000000	72.792777
2274.000000	72.846539
2273.000000	72.901961
2272.000000	72.960916
2271.000000	73.024531
2270.000000	73.095410
2269.000000	73.177480
2268.000000	73.273368
2267.000000	73.382409
2266.000000	73.501703
2265.000000	73.627883
2264.000000	73.756111
2263.000000	73.880708
2262.000000	73.997833
2261.000000	74.105858
2260.000000	74.204680
2259.000000	74.294106
2258.000000	74.375773
2257.000000	74.452975
2256.000000	74.528310
2255.000000	74.602629
2254.000000	74.675900
2253.000000	74.748592
2252.000000	74.819851
2251.000000	74.887880
2250.000000	74.951805
2249.000000	75.012716
2248.000000	75.071887
2247.000000	75.129238
2246.000000	75.184652
2245.000000	75.238837
2244.000000	75.291977
2243.000000	75.342570
2242.000000	75.388758
2241.000000	75.429437
2240.000000	75.463565
2239.000000	75.489720
2238.000000	75.507547
2237.000000	75.518364
2236.000000	75.523956
2235.000000	75.525803
2234.000000	75.526354
2233.000000	75.529329
2232.000000	75.537619
2231.000000	75.551760
2230.000000	75.570744
2229.000000	75.592940
2228.000000	75.615607
2227.000000	75.635439
2226.000000	75.650788
2225.000000	75.662518
2224.000000	75.672146
2223.000000	75.680581
2222.000000	75.688997
2221.000000	75.699082
2220.000000	75.711318
2219.000000	75.724489
2218.000000	75.737821
2217.000000	75.752214
2216.000000	75.768673
2215.000000	75.787129
2214.000000	75.807896
2213.000000	75.832558
2212.000000	75.862218
2211.000000	75.895989
2210.000000	75.932202
2209.000000	75.969669
2208.000000	76.006767
2207.000000	76.040624
2206.000000	76.068472
2205.000000	76.089067
2204.000000	76.102054
2203.000000	76.107332
2202.000000	76.105987
2201.000000	76.100741
2200.000000	76.094336
2199.000000	76.088271
2198.000000	76.083706
2197.000000	76.082178
2196.000000	76.084563
2195.000000	76.090436
2194.000000	76.099523
2193.000000	76.112620
2192.000000	76.130298
2191.000000	76.152043
2190.000000	76.177568
2189.000000	76.207881
2188.000000	76.243909
2187.000000	76.285051
2186.000000	76.329727
2185.000000	76.376257
2184.000000	76.422385
2183.000000	76.465054
2182.000000	76.501848
2181.000000	76.532109
2180.000000	76.556407
2179.000000	76.575904
2178.000000	76.592729
2177.000000	76.609618
2176.000000	76.628048
2175.000000	76.647338
2174.000000	76.665835
2173.000000	76.681928
2172.000000	76.693532
2171.000000	76.698239
2170.000000	76.695139
2169.000000	76.685761
2168.000000	76.672803
2167.000000	76.658936
2166.000000	76.647164
2165.000000	76.640533
2164.000000	76.640251
2163.000000	76.645146
2162.000000	76.653595
2161.000000	76.664745
2160.000000	76.677305
2159.000000	76.688930
2158.000000	76.698182
2157.000000	76.706089
2156.000000	76.714871
2155.000000	76.726159
2154.000000	76.741155
2153.000000	76.761001
2152.000000	76.785612
2151.000000	76.812894
2150.000000	76.839949
2149.000000	76.864382
2148.000000	76.884070
2147.000000	76.897186
2146.000000	76.903628
2145.000000	76.905643
2144.000000	76.906197
2143.000000	76.907505
2142.000000	76.911403
2141.000000	76.919469
2140.000000	76.931645
2139.000000	76.945643
2138.000000	76.958546
2137.000000	76.968142
2136.000000	76.972451
2135.000000	76.969595
2134.000000	76.959351
2133.000000	76.943817
2132.000000	76.925686
2131.000000	76.906766
2130.000000	76.888707
2129.000000	76.873542
2128.000000	76.862251
2127.000000	76.853683
2126.000000	76.845869
2125.000000	76.837713
2124.000000	76.828974
2123.000000	76.820254
2122.000000	76.814104
2121.000000	76.814863
2120.000000	76.826189
2119.000000	76.849126
2118.000000	76.882503
2117.000000	76.923583
2116.000000	76.967581
2115.000000	77.008298
2114.000000	77.040870
2113.000000	77.063612
2112.000000	77.077074
2111.000000	77.082762
2110.000000	77.083317
2109.000000	77.082370
2108.000000	77.082853
2107.000000	77.086016
2106.000000	77.092558
2105.000000	77.103172
2104.000000	77.117120
2103.000000	77.131511
2102.000000	77.142929
2101.000000	77.148897
2100.000000	77.147207
2099.000000	77.135689
2098.000000	77.113858
2097.000000	77.084000
2096.000000	77.049930
2095.000000	77.015649
2094.000000	76.985702
2093.000000	76.964924
2092.000000	76.956504
2091.000000	76.961127
2090.000000	76.978486
2089.000000	77.007959
2088.000000	77.046792
2087.000000	77.089507
2086.000000	77.130624
2085.000000	77.167004
2084.000000	77.197118
2083.000000	77.219874
2082.000000	77.235160
2081.000000	77.244273
2080.000000	77.248259
2079.000000	77.246698
2078.000000	77.238996
2077.000000	77.225372
2076.000000	77.205567
2075.000000	77.177865
2074.000000	77.141159
2073.000000	77.096783
2072.000000	77.047291
2071.000000	76.994637
2070.000000	76.940434
2069.000000	76.886441
2068.000000	76.832882
2067.000000	76.777392
2066.000000	76.717147
2065.000000	76.651525
2064.000000	76.581543
2063.000000	76.507908
2062.000000	76.431008
2061.000000	76.351942
2060.000000	76.272456
2059.000000	76.194473
2058.000000	76.120213
2057.000000	76.051433
2056.000000	75.987771
2055.000000	75.927088
2054.000000	75.868429
2053.000000	75.812951
2052.000000	75.761708
2051.000000	75.714928
2050.000000	75.673778
2049.000000	75.640801
2048.000000	75.617570
2047.000000	75.603388
2046.000000	75.597021
2045.000000	75.597473
2044.000000	75.602522
2043.000000	75.609013
2042.000000	75.615793
2041.000000	75.625057
2040.000000	75.639710
2039.000000	75.661344
2038.000000	75.691484
2037.000000	75.732103
2036.000000	75.783725
2035.000000	75.844376
2034.000000	75.911388
2033.000000	75.982821
2032.000000	76.056304
2031.000000	76.128698
2030.000000	76.198239
2029.000000	76.265209
2028.000000	76.330453
2027.000000	76.393995
2026.000000	76.455976
2025.000000	76.517007
2024.000000	76.576715
2023.000000	76.633948
2022.000000	76.688485
2021.000000	76.741599
2020.000000	76.794072
2019.000000	76.845443
2018.000000	76.896097
2017.000000	76.948678
2016.000000	77.006032
2015.000000	77.068351
2014.000000	77.133420
2013.000000	77.198863
2012.000000	77.263375
2011.000000	77.326582
2010.000000	77.388871
2009.000000	77.450866
2008.000000	77.512982
2007.000000	77.575362
2006.000000	77.638482
2005.000000	77.702750
2004.000000	77.767031
2003.000000	77.829046
2002.000000	77.886328
2001.000000	77.937916
2000.000000	77.983778
1999.000000	78.024627
1998.000000	78.063322
1997.000000	78.103806
1996.000000	78.148488
1995.000000	78.196402
1994.000000	78.244494
1993.000000	78.290298
1992.000000	78.334151
1991.000000	78.379137
1990.000000	78.428219
1989.000000	78.481363
1988.000000	78.536233
1987.000000	78.591424
1986.000000	78.647821
1985.000000	78.706544
1984.000000	78.766585
1983.000000	78.826125
1982.000000	78.884472
1981.000000	78.942142
1980.000000	78.998533
1979.000000	79.052235
1978.000000	79.103784
1977.000000	79.155280
1976.000000	79.208238
1975.000000	79.262621
1974.000000	79.318153
1973.000000	79.374460
1972.000000	79.430094
1971.000000	79.482870
1970.000000	79.530952
1969.000000	79.572483
1968.000000	79.605185
1967.000000	79.628676
1966.000000	79.646555
1965.000000	79.662830
1964.000000	79.677144
1963.000000	79.685649
1962.000000	79.685708
1961.000000	79.677894
1960.000000	79.663807
1959.000000	79.645381
1958.000000	79.626094
1957.000000	79.609951
1956.000000	79.599132
1955.000000	79.594111
1954.000000	79.596243
1953.000000	79.606609
1952.000000	79.623937
1951.000000	79.645332
1950.000000	79.668585
1949.000000	79.693092
1948.000000	79.717367
1947.000000	79.739221
1946.000000	79.758148
1945.000000	79.774108
1944.000000	79.784640
1943.000000	79.786934
1942.000000	79.784208
1941.000000	79.784956
1940.000000	79.792818
1939.000000	79.803026
1938.000000	79.810112
1937.000000	79.813510
1936.000000	79.814990
1935.000000	79.814398
1934.000000	79.810643
1933.000000	79.803532
1932.000000	79.794139
1931.000000	79.783482
1930.000000	79.772119
1929.000000	79.762975
1928.000000	79.758377
1927.000000	79.759982
1926.000000	79.767544
1925.000000	79.778484
1924.000000	79.790339
1923.000000	79.802299
1922.000000	79.818013
1921.000000	79.840488
1920.000000	79.864776
1919.000000	79.880803
1918.000000	79.883492
1917.000000	79.879241
1916.000000	79.877517
1915.000000	79.878423
1914.000000	79.876716
1913.000000	79.870642
1912.000000	79.862007
1911.000000	79.851139
1910.000000	79.836854
1909.000000	79.821946
1908.000000	79.811193
1907.000000	79.808144
1906.000000	79.812675
1905.000000	79.823497
1904.000000	79.841695
1903.000000	79.867259
1902.000000	79.899403
1901.000000	79.938437
1900.000000	79.983577
1899.000000	80.032675
1898.000000	80.082338
1897.000000	80.128982
1896.000000	80.171004
1895.000000	80.208918
1894.000000	80.246371
1893.000000	80.287395
1892.000000	80.330995
1891.000000	80.370372
1890.000000	80.399637
1889.000000	80.421727
1888.000000	80.445799
1887.000000	80.475004
1886.000000	80.504090
1885.000000	80.528780
1884.000000	80.551181
1883.000000	80.575694
1882.000000	80.604213
1881.000000	80.636867
1880.000000	80.672536
1879.000000	80.709619
1878.000000	80.746675
1877.000000	80.782108
1876.000000	80.815669
1875.000000	80.848089
1874.000000	80.880309
1873.000000	80.914556
1872.000000	80.952875
1871.000000	80.993522
1870.000000	81.029544
1869.000000	81.054140
1868.000000	81.071523
1867.000000	81.093571
1866.000000	81.124128
1865.000000	81.158734
1864.000000	81.193684
1863.000000	81.227943
1862.000000	81.261519
1861.000000	81.295252
1860.000000	81.330675
1859.000000	81.368338
1858.000000	81.406728
1857.000000	81.443731
1856.000000	81.478271
1855.000000	81.509951
1854.000000	81.537425
1853.000000	81.562818
1852.000000	81.589144
1851.000000	81.618411
1850.000000	81.652295
1849.000000	81.690124
1848.000000	81.730465
1847.000000	81.770174
1846.000000	81.805064
1845.000000	81.830089
1844.000000	81.844956
1843.000000	81.860887
1842.000000	81.887952
1841.000000	81.923257
1840.000000	81.959249
1839.000000	81.993080
1838.000000	82.023936
1837.000000	82.052354
1836.000000	82.080815
1835.000000	82.110454
1834.000000	82.141150
1833.000000	82.173122
1832.000000	82.203283
1831.000000	82.226017
1830.000000	82.239371
1829.000000	82.254150
1828.000000	82.285592
1827.000000	82.332346
1826.000000	82.380286
1825.000000	82.417795
1824.000000	82.446958
1823.000000	82.477475
1822.000000	82.511052
1821.000000	82.542154
1820.000000	82.568040
1819.000000	82.592929
1818.000000	82.619943
1817.000000	82.647329
1816.000000	82.674400
1815.000000	82.701823
1814.000000	82.728934
1813.000000	82.749213
1812.000000	82.755849
1811.000000	82.750016
1810.000000	82.737674
1809.000000	82.725648
1808.000000	82.718808
1807.000000	82.718573
1806.000000	82.722986
1805.000000	82.728603
1804.000000	82.735397
1803.000000	82.744203
1802.000000	82.754996
1801.000000	82.764134
1800.000000	82.770901
1799.000000	82.781349
1798.000000	82.798734
1797.000000	82.821108
1796.000000	82.845373
1795.000000	82.869240
1794.000000	82.890446
1793.000000	82.900841
1792.000000	82.895600
1791.000000	82.889381
1790.000000	82.898594
1789.000000	82.921585
1788.000000	82.948570
1787.000000	82.972550
1786.000000	82.989116
1785.000000	82.997114
1784.000000	83.001454
1783.000000	83.004181
1782.000000	83.004465
1781.000000	82.999920
1780.000000	82.995596
1779.000000	83.005881
1778.000000	83.036843
1777.000000	83.082789
1776.000000	83.132139
1775.000000	83.179521
1774.000000	83.227377
1773.000000	83.269278
1772.000000	83.291160
1771.000000	83.301580
1770.000000	83.320235
1769.000000	83.351085
1768.000000	83.393110
1767.000000	83.445770
1766.000000	83.505898
1765.000000	83.563303
1764.000000	83.606267
1763.000000	83.625750
1762.000000	83.621327
1761.000000	83.606544
1760.000000	83.600419
1759.000000	83.608076
1758.000000	83.624247
1757.000000	83.649151
1756.000000	83.685293
1755.000000	83.733692
1754.000000	83.788280
1753.000000	83.840658
1752.000000	83.883775
1751.000000	83.911863
1750.000000	83.923160
1749.000000	83.925406
1748.000000	83.930578
1747.000000	83.947870
1746.000000	83.984744
1745.000000	84.035933
1744.000000	84.088866
1743.000000	84.135646
1742.000000	84.172722
1741.000000	84.195352
1740.000000	84.200108
1739.000000	84.193653
1738.000000	84.189624
1737.000000	84.192612
1736.000000	84.203689
1735.000000	84.225626
1734.000000	84.245597
1733.000000	84.263796
1732.000000	84.288677
1731.000000	84.301732
1730.000000	84.289008
1729.000000	84.262169
1728.000000	84.238641
1727.000000	84.226411
1726.000000	84.226574
1725.000000	84.234325
1724.000000	84.247523
1723.000000	84.268582
1722.000000	84.295460
1721.000000	84.321735
1720.000000	84.340886
1719.000000	84.352748
1718.000000	84.353894
1717.000000	84.345174
1716.000000	84.344115
1715.000000	84.358993
1714.000000	84.381394
1713.000000	84.407883
1712.000000	84.439918
1711.000000	84.474593
1710.000000	84.508840
1709.000000	84.544188
1708.000000	84.579851
1707.000000	84.614569
1706.000000	84.645892
1705.000000	84.671799
1704.000000	84.696684
1703.000000	84.723985
1702.000000	84.766478
1701.000000	84.827249
1700.000000	84.876682
1699.000000	84.913915
1698.000000	84.953745
1697.000000	84.982357
1696.000000	85.001537
1695.000000	85.038332
1694.000000	85.103038
1693.000000	85.169827
1692.000000	85.218039
1691.000000	85.253107
1690.000000	85.280946
1689.000000	85.298499
1688.000000	85.302651
1687.000000	85.307643
1686.000000	85.336672
1685.000000	85.382579
1684.000000	85.400293
1683.000000	85.397865
1682.000000	85.412267
1681.000000	85.425455
1680.000000	85.419904
1679.000000	85.403574
1678.000000	85.385525
1677.000000	85.365681
1676.000000	85.341904
1675.000000	85.319576
1674.000000	85.313208
1673.000000	85.319024
1672.000000	85.316001
1671.000000	85.293590
1670.000000	85.246118
1669.000000	85.176193
1668.000000	85.106574
1667.000000	85.058390
1666.000000	85.028345
1665.000000	84.998172
1664.000000	84.955699
1663.000000	84.897802
1662.000000	84.830531
1661.000000	84.756544
1660.000000	84.666076
1659.000000	84.560728
1658.000000	84.445695
1657.000000	84.312163
1656.000000	84.142890
1655.000000	83.939936
1654.000000	83.676549
1653.000000	83.293329
1652.000000	82.902293
1651.000000	82.604768
1650.000000	82.284731
1649.000000	81.786390
1648.000000	80.954689
1647.000000	79.687280
1646.000000	78.054279
1645.000000	76.206901
1644.000000	74.171177
1643.000000	71.843334
1642.000000	69.146839
1641.000000	66.146015
1640.000000	63.082949
1639.000000	60.236289
1638.000000	57.755934
1637.000000	55.718812
1636.000000	54.328514
1635.000000	53.861935
1634.000000	54.303723
1633.000000	55.378935
1632.000000	56.852915
1631.000000	58.585257
1630.000000	60.478006
1629.000000	62.448769
1628.000000	64.407431
1627.000000	66.232287
1626.000000	67.854763
1625.000000	69.333641
1624.000000	70.764604
1623.000000	72.128160
1622.000000	73.316867
1621.000000	74.302297
1620.000000	75.149359
1619.000000	75.926858
1618.000000	76.671835
1617.000000	77.392601
1616.000000	78.057063
1615.000000	78.601266
1614.000000	78.998714
1613.000000	79.294814
1612.000000	79.551337
1611.000000	79.771584
1610.000000	79.913647
1609.000000	79.966952
1608.000000	79.948729
1607.000000	79.836148
1606.000000	79.572759
1605.000000	79.122935
1604.000000	78.476294
1603.000000	77.613089
1602.000000	76.525276
1601.000000	75.278260
1600.000000	74.000553
1599.000000	72.814167
1598.000000	71.792958
1597.000000	70.974099
1596.000000	70.366137
1595.000000	69.926241
1594.000000	69.562913
1593.000000	69.196458
1592.000000	68.798309
1591.000000	68.358376
1590.000000	67.857535
1589.000000	67.290780
1588.000000	66.677233
1587.000000	66.018263
1586.000000	65.279484
1585.000000	64.440993
1584.000000	63.525106
1583.000000	62.556713
1582.000000	61.531843
1581.000000	60.454773
1580.000000	59.356266
1579.000000	58.213394
1578.000000	56.872728
1577.000000	55.125163
1576.000000	53.018555
1575.000000	50.963790
1574.000000	49.259360
1573.000000	47.829079
1572.000000	46.506573
1571.000000	45.242580
1570.000000	44.107604
1569.000000	43.229914
1568.000000	42.703936
1567.000000	42.539805
1566.000000	42.661358
1565.000000	42.961881
1564.000000	43.386345
1563.000000	43.934890
1562.000000	44.628150
1561.000000	45.507183
1560.000000	46.711972
1559.000000	48.258904
1558.000000	49.788539
1557.000000	50.999931
1556.000000	51.947463
1555.000000	52.779779
1554.000000	53.545704
1553.000000	54.202175
1552.000000	54.740939
1551.000000	55.246744
1550.000000	55.810786
1549.000000	56.463974
1548.000000	57.205126
1547.000000	58.058281
1546.000000	59.044385
1545.000000	60.114329
1544.000000	61.175651
1543.000000	62.192640
1542.000000	63.191965
1541.000000	64.181208
1540.000000	65.115651
1539.000000	65.965776
1538.000000	66.733485
1537.000000	67.418273
1536.000000	68.056150
1535.000000	68.719268
1534.000000	69.431009
1533.000000	70.119990
1532.000000	70.728284
1531.000000	71.283403
1530.000000	71.816769
1529.000000	72.322414
1528.000000	72.796088
1527.000000	73.260090
1526.000000	73.725272
1525.000000	74.163260
1524.000000	74.554446
1523.000000	74.921506
1522.000000	75.273327
1521.000000	75.577842
1520.000000	75.836317
1519.000000	76.088549
1518.000000	76.342148
1517.000000	76.572368
1516.000000	76.781347
1515.000000	77.005819
1514.000000	77.258677
1513.000000	77.512416
1512.000000	77.747637
1511.000000	77.968976
1510.000000	78.182706
1509.000000	78.379752
1508.000000	78.556990
1507.000000	78.715185
1506.000000	78.874836
1505.000000	79.064156
1504.000000	79.273397
1503.000000	79.488010
1502.000000	79.701411
1501.000000	79.895575
1500.000000	80.059061
1499.000000	80.203525
1498.000000	80.338785
1497.000000	80.452915
1496.000000	80.556180
1495.000000	80.686264
1494.000000	80.845246
1493.000000	80.999091
1492.000000	81.135973
1491.000000	81.267111
1490.000000	81.379056
1489.000000	81.444192
1488.000000	81.477530
1487.000000	81.514194
1486.000000	81.543992
1485.000000	81.531076
1484.000000	81.461615
1483.000000	81.336640
1482.000000	81.127479
1481.000000	80.792921
1480.000000	80.329941
1479.000000	79.727671
1478.000000	78.895315
1477.000000	77.728042
1476.000000	76.241802
1475.000000	74.532169
1474.000000	72.624725
1473.000000	70.548541
1472.000000	68.559579
1471.000000	66.992345
1470.000000	65.924601
1469.000000	65.247954
1468.000000	64.904920
1467.000000	64.932072
1466.000000	65.390554
1465.000000	66.253580
1464.000000	67.333353
1463.000000	68.370171
1462.000000	69.177520
1461.000000	69.675397
1460.000000	69.829838
1459.000000	69.606286
1458.000000	68.962199
1457.000000	68.001708
1456.000000	67.093384
1455.000000	66.514353
1454.000000	66.212798
1453.000000	66.045797
1452.000000	65.944445
1451.000000	65.899619
1450.000000	65.926955
1449.000000	66.047887
1448.000000	66.272879
1447.000000	66.578622
1446.000000	66.936978
1445.000000	67.347340
1444.000000	67.831082
1443.000000	68.413791
1442.000000	69.114673
1441.000000	69.939223
1440.000000	70.871810
1439.000000	71.902123
1438.000000	73.044994
1437.000000	74.265424
1436.000000	75.402576
1435.000000	76.312757
1434.000000	77.018961
1433.000000	77.617211
1432.000000	78.155440
1431.000000	78.628184
1430.000000	79.027359
1429.000000	79.361646
1428.000000	79.634750
1427.000000	79.848581
1426.000000	80.028055
1425.000000	80.203206
1424.000000	80.377293
1423.000000	80.544453
1422.000000	80.718738
1421.000000	80.921630
1420.000000	81.141016
1419.000000	81.329684
1418.000000	81.473585
1417.000000	81.598004
1416.000000	81.707537
1415.000000	81.798705
1414.000000	81.891986
1413.000000	82.011240
1412.000000	82.156041
1411.000000	82.312642
1410.000000	82.478705
1409.000000	82.652607
1408.000000	82.814678
1407.000000	82.940204
1406.000000	83.027724
1405.000000	83.090278
1404.000000	83.130362
1403.000000	83.145858
1402.000000	83.133932
1401.000000	83.069018
1400.000000	82.896477
1399.000000	82.599343
1398.000000	82.263728
1397.000000	82.020311
1396.000000	81.942378
1395.000000	82.015521
1394.000000	82.171022
1393.000000	82.342560
1392.000000	82.508401
1391.000000	82.694883
1390.000000	82.949022
1389.000000	83.300205
1388.000000	83.731425
1387.000000	84.179294
1386.000000	84.574713
1385.000000	84.877771
1384.000000	85.075058
1383.000000	85.177594
1382.000000	85.221603
1381.000000	85.248113
1380.000000	85.274014
1379.000000	85.287516
1378.000000	85.262081
1377.000000	85.148115
1376.000000	84.831489
1375.000000	84.105820
1374.000000	82.712406
1373.000000	80.459259
1372.000000	77.360420
1371.000000	73.736780
1370.000000	70.251512
1369.000000	67.757521
1368.000000	66.863791
1367.000000	67.512465
1366.000000	69.047521
1365.000000	70.666312
1364.000000	71.748235
1363.000000	71.969611
1362.000000	71.387000
1361.000000	70.460399
1360.000000	69.856303
1359.000000	70.115646
1358.000000	71.392375
1357.000000	73.395260
1356.000000	75.600421
1355.000000	77.569383
1354.000000	79.123584
1353.000000	80.299111
1352.000000	81.203346
1351.000000	81.923676
1350.000000	82.514809
1349.000000	83.005250
1348.000000	83.404237
1347.000000	83.720063
1346.000000	83.970743
1345.000000	84.176010
1344.000000	84.350682
1343.000000	84.509637
1342.000000	84.671971
1341.000000	84.850672
1340.000000	85.042176
1339.000000	85.234429
1338.000000	85.417669
1337.000000	85.580037
1336.000000	85.701593
1335.000000	85.762640
1334.000000	85.750874
1333.000000	85.644521
1332.000000	85.395520
1331.000000	84.938974
1330.000000	84.221972
1329.000000	83.224520
1328.000000	81.939232
1327.000000	80.339040
1326.000000	78.398845
1325.000000	76.203108
1324.000000	74.062567
1323.000000	72.454446
1322.000000	71.737688
1321.000000	71.898211
1320.000000	72.590400
1319.000000	73.417132
1318.000000	74.171525
1317.000000	74.840394
1316.000000	75.462274
1315.000000	76.048549
1314.000000	76.607562
1313.000000	77.183880
1312.000000	77.841409
1311.000000	78.612557
1310.000000	79.466874
1309.000000	80.320290
1308.000000	81.072030
1307.000000	81.644476
1306.000000	82.001170
1305.000000	82.124769
1304.000000	81.993095
1303.000000	81.581179
1302.000000	80.880469
1301.000000	79.927345
1300.000000	78.832009
1299.000000	77.787679
1298.000000	77.009730
1297.000000	76.619456
1296.000000	76.570017
1295.000000	76.674780
1294.000000	76.702505
1293.000000	76.460126
1292.000000	75.832085
1291.000000	74.785237
1290.000000	73.340741
1289.000000	71.554414
1288.000000	69.558509
1287.000000	67.627135
1286.000000	66.135596
1285.000000	65.385524
1284.000000	65.445463
1283.000000	66.155797
1282.000000	67.287734
1281.000000	68.678636
1280.000000	70.222742
1279.000000	71.772166
1278.000000	73.104995
1277.000000	74.018114
1276.000000	74.434548
1275.000000	74.424392
1274.000000	74.156612
1273.000000	73.848297
1272.000000	73.727996
1271.000000	73.984567
1270.000000	74.694667
1269.000000	75.783681
1268.000000	77.067373
1267.000000	78.350049
1266.000000	79.504650
1265.000000	80.488303
1264.000000	81.309288
1263.000000	81.992120
1262.000000	82.562375
1261.000000	83.041995
1260.000000	83.445152
1259.000000	83.781513
1258.000000	84.067706
1257.000000	84.321986
1256.000000	84.553346
1255.000000	84.764056
1254.000000	84.957931
1253.000000	85.140346
1252.000000	85.310257
1251.000000	85.463571
1250.000000	85.603155
1249.000000	85.736596
1248.000000	85.866979
1247.000000	85.993648
1246.000000	86.119572
1245.000000	86.248040
1244.000000	86.372967
1243.000000	86.482521
1242.000000	86.570784
1241.000000	86.638121
1240.000000	86.683903
1239.000000	86.708257
1238.000000	86.719655
1237.000000	86.729470
1236.000000	86.739568
1235.000000	86.743174
1234.000000	86.733542
1233.000000	86.704592
1232.000000	86.645796
1231.000000	86.547102
1230.000000	86.409448
1229.000000	86.239607
1228.000000	86.038650
1227.000000	85.800690
1226.000000	85.515793
1225.000000	85.166363
1224.000000	84.715304
1223.000000	84.112864
1222.000000	83.312595
1221.000000	82.276026
1220.000000	80.983156
1219.000000	79.444029
1218.000000	77.707478
1217.000000	75.852844
1216.000000	73.976536
1215.000000	72.190132
1214.000000	70.618805
1213.000000	69.386054
1212.000000	68.587898
1211.000000	68.266650
1210.000000	68.376732
1209.000000	68.789175
1208.000000	69.332122
1207.000000	69.836111
1206.000000	70.171756
1205.000000	70.260631
1204.000000	70.069605
1203.000000	69.603435
1202.000000	68.907493
1201.000000	68.079202
1200.000000	67.274052
1199.000000	66.681511
1198.000000	66.464222
1197.000000	66.694785
1196.000000	67.345362
1195.000000	68.318237
1194.000000	69.495553
1193.000000	70.779671
1192.000000	72.098829
1191.000000	73.402711
1190.000000	74.652885
1189.000000	75.819666
1188.000000	76.882049
1187.000000	77.829809
1186.000000	78.666582
1185.000000	79.409509
1184.000000	80.080337
1183.000000	80.693145
1182.000000	81.254216
1181.000000	81.760071
1180.000000	82.199418
1179.000000	82.562226
1178.000000	82.845261
1177.000000	83.053368
1176.000000	83.191566
1175.000000	83.264865
1174.000000	83.281609
1173.000000	83.240881
1172.000000	83.122896
1171.000000	82.885887
1170.000000	82.474068
1169.000000	81.829560
1168.000000	80.903432
1167.000000	79.691451
1166.000000	78.268588
1165.000000	76.794633
1164.000000	75.482653
1163.000000	74.542609
1162.000000	74.110563
1161.000000	74.206177
1160.000000	74.741781
1159.000000	75.560700
1158.000000	76.497959
1157.000000	77.418752
1156.000000	78.233720
1155.000000	78.899704
1154.000000	79.409751
1153.000000	79.777569
1152.000000	80.019990
1151.000000	80.147687
1150.000000	80.159716
1149.000000	80.045950
1148.000000	79.777633
1147.000000	79.312077
1146.000000	78.603144
1145.000000	77.593058
1144.000000	76.218586
1143.000000	74.416808
1142.000000	72.157199
1141.000000	69.486274
1140.000000	66.549696
1139.000000	63.578049
1138.000000	60.799142
1137.000000	58.331982
1136.000000	56.145182
1135.000000	54.123532
1134.000000	52.194700
1133.000000	50.467260
1132.000000	49.269785
1131.000000	49.012230
1130.000000	49.978177
1129.000000	52.143078
1128.000000	55.167971
1127.000000	58.526971
1126.000000	61.669499
1125.000000	64.151181
1124.000000	65.679925
1123.000000	66.107200
1122.000000	65.414167
1121.000000	63.708834
1120.000000	61.167280
1119.000000	58.017426
1118.000000	54.593794
1117.000000	51.418853
1116.000000	49.173257
1115.000000	48.465692
1114.000000	49.509804
1113.000000	51.977584
1112.000000	55.144027
1111.000000	58.166038
1110.000000	60.399837
1109.000000	61.629421
1108.000000	62.106883
1107.000000	62.362848
1106.000000	62.876292
1105.000000	63.820742
1104.000000	65.037306
1103.000000	66.175464
1102.000000	66.835207
1101.000000	66.697287
1100.000000	65.655437
1099.000000	63.951811
1098.000000	62.185400
1097.000000	61.097438
1096.000000	61.217672
1095.000000	62.608340
1094.000000	64.878331
1093.000000	67.445019
1092.000000	69.843420
1091.000000	71.855115
1090.000000	73.466213
1089.000000	74.756210
1088.000000	75.812731
1087.000000	76.701750
1086.000000	77.471057
1085.000000	78.151135
1084.000000	78.751270
1083.000000	79.274580
1082.000000	79.726614
1081.000000	80.117690
1080.000000	80.455399
1079.000000	80.739101
1078.000000	80.967221
1077.000000	81.128821
1076.000000	81.194906
1075.000000	81.121787
1074.000000	80.852568
1073.000000	80.324711
1072.000000	79.443842
1071.000000	78.073584
1070.000000	76.040609
1069.000000	73.119924
1068.000000	69.101635
1067.000000	63.925719
1066.000000	57.881565
1065.000000	51.711759
1064.000000	46.439779
1063.000000	42.897935
1062.000000	41.210706
1061.000000	40.655298
1060.000000	40.093026
1059.000000	38.730387
1058.000000	36.621178
1057.000000	34.630518
1056.000000	33.879339
1055.000000	35.029553
1054.000000	37.968726
1053.000000	41.996326
1052.000000	46.300333
1051.000000	50.322185
1050.000000	53.817980
1049.000000	56.773636
1048.000000	59.283492
1047.000000	61.461917
1046.000000	63.385449
1045.000000	65.090029
1044.000000	66.584868
1043.000000	67.878755
1042.000000	68.987691
1041.000000	69.924798
1040.000000	70.709964
1039.000000	71.368298
1038.000000	71.926539
1037.000000	72.406084
1036.000000	72.818503
1035.000000	73.175040
1034.000000	73.484630
1033.000000	73.749923
1032.000000	73.970261
1031.000000	74.147531
1030.000000	74.290518
1029.000000	74.408366
1028.000000	74.506339
1027.000000	74.588388
1026.000000	74.655022
1025.000000	74.699472
1024.000000	74.705757
1023.000000	74.654157
1022.000000	74.528202
1021.000000	74.308782
1020.000000	73.974181
1019.000000	73.501190
1018.000000	72.862656
1017.000000	72.026655
1016.000000	70.953688
1015.000000	69.622542
1014.000000	68.064516
1013.000000	66.389945
1012.000000	64.786594
1011.000000	63.462411
1010.000000	62.537784
1009.000000	61.954568
1008.000000	61.503181
1007.000000	60.981523
1006.000000	60.399420
1005.000000	60.036615
1004.000000	60.278179
1003.000000	61.337637
1002.000000	63.082008
1001.000000	65.117541
1000.000000	67.013717
999.000000	68.477544
998.000000	69.391894
997.000000	69.768836
996.000000	69.706950
995.000000	69.377608
994.000000	69.013638
993.000000	68.863771
992.000000	69.119749
991.000000	69.839378
990.000000	70.918336
989.000000	72.148906
988.000000	73.332516
987.000000	74.353877
986.000000	75.188628
985.000000	75.867773
984.000000	76.441409
983.000000	76.957731
982.000000	77.451451
981.000000	77.934643
980.000000	78.397983
979.000000	78.824832
978.000000	79.197745
977.000000	79.502737
976.000000	79.734457
975.000000	79.903465
974.000000	80.037459
973.000000	80.169041
972.000000	80.325009
971.000000	80.521771
970.000000	80.761166
969.000000	81.026599
968.000000	81.286395
967.000000	81.508501
966.000000	81.674539
965.000000	81.782651
964.000000	81.845102
963.000000	81.886966
962.000000	81.941082
961.000000	82.034811
960.000000	82.178276
959.000000	82.364214
958.000000	82.572988
957.000000	82.776658
956.000000	82.946332
955.000000	83.065291
954.000000	83.137222
953.000000	83.181061
952.000000	83.220633
951.000000	83.279377
950.000000	83.375838
949.000000	83.515256
948.000000	83.685152
947.000000	83.862871
946.000000	84.027116
945.000000	84.162059
944.000000	84.258688
943.000000	84.320500
942.000000	84.365328
941.000000	84.414780
940.000000	84.481986
939.000000	84.571043
938.000000	84.681073
937.000000	84.804233
936.000000	84.924398
935.000000	85.026211
934.000000	85.105911
933.000000	85.170115
932.000000	85.227565
931.000000	85.287241
930.000000	85.358960
929.000000	85.446815
928.000000	85.542658
927.000000	85.632011
926.000000	85.705822
925.000000	85.762589
924.000000	85.804654
923.000000	85.839965
922.000000	85.884068
921.000000	85.951132
920.000000	86.042553
919.000000	86.147781
918.000000	86.252889
917.000000	86.342515
916.000000	86.399848
915.000000	86.416215
914.000000	86.402081
913.000000	86.382019
912.000000	86.378218
911.000000	86.403088
910.000000	86.456764
909.000000	86.516399
908.000000	86.528723
907.000000	86.419081
906.000000	86.118186
905.000000	85.578462
904.000000	84.787573
903.000000	83.802445
902.000000	82.784071
901.000000	81.976969
900.000000	81.613539
899.000000	81.794538
898.000000	82.430451
897.000000	83.298863
896.000000	84.159949
895.000000	84.854135
894.000000	85.334426
893.000000	85.633022
892.000000	85.818318
891.000000	85.965785
890.000000	86.139591
889.000000	86.370586
888.000000	86.646611
887.000000	86.915138
886.000000	87.095861
885.000000	87.098011
884.000000	86.852327
883.000000	86.365095
882.000000	85.740710
881.000000	85.130941
880.000000	84.638949
879.000000	84.269540
878.000000	83.975661
877.000000	83.747511
876.000000	83.652429
875.000000	83.777104
874.000000	84.135508
873.000000	84.632592
872.000000	85.125254
871.000000	85.520052
870.000000	85.817248
869.000000	86.078132
868.000000	86.362547
867.000000	86.694754
866.000000	87.059127
865.000000	87.409709
864.000000	87.684885
863.000000	87.835870
862.000000	87.853018
861.000000	87.769038
860.000000	87.643025
859.000000	87.542256
858.000000	87.525723
857.000000	87.623046
856.000000	87.820369
855.000000	88.068444
854.000000	88.303990
853.000000	88.468232
852.000000	88.521657
851.000000	88.460455
850.000000	88.323166
849.000000	88.174291
848.000000	88.076808
847.000000	88.073914
846.000000	88.180938
845.000000	88.378908
844.000000	88.615302
843.000000	88.823125
842.000000	88.949317
841.000000	88.970808
840.000000	88.895970
839.000000	88.763375
838.000000	88.633800
837.000000	88.566524
836.000000	88.593861
835.000000	88.714137
834.000000	88.899408
833.000000	89.103714
832.000000	89.272710
831.000000	89.363490
830.000000	89.364895
829.000000	89.299327
828.000000	89.207941
827.000000	89.137080
826.000000	89.128027
825.000000	89.201647
824.000000	89.346181
823.000000	89.524362
822.000000	89.693451
821.000000	89.817635
820.000000	89.872816
819.000000	89.855932
818.000000	89.790801
817.000000	89.715635
816.000000	89.661665
815.000000	89.643753
814.000000	89.661686
813.000000	89.698729
812.000000	89.722406
811.000000	89.696880
810.000000	89.599436
809.000000	89.423383
808.000000	89.168147
807.000000	88.836484
806.000000	88.432004
805.000000	87.947699
804.000000	87.356652
803.000000	86.613911
802.000000	85.673180
801.000000	84.492353
800.000000	83.037807
799.000000	81.301576
798.000000	79.311601
797.000000	77.131033
796.000000	74.842776
795.000000	72.539456
794.000000	70.316273
793.000000	68.266948
792.000000	66.484129
791.000000	65.059536
790.000000	64.079205
789.000000	63.602579
788.000000	63.650107
787.000000	64.186811
786.000000	65.122887
785.000000	66.329587
784.000000	67.653100
783.000000	68.934054
782.000000	70.025590
781.000000	70.819255
780.000000	71.264104
779.000000	71.377399
778.000000	71.236380
777.000000	70.948672
776.000000	70.609864
775.000000	70.271945
774.000000	69.947902
773.000000	69.643021
772.000000	69.392169
771.000000	69.268627
770.000000	69.361955
769.000000	69.737844
768.000000	70.414394
767.000000	71.365261
766.000000	72.539589
765.000000	73.878940
764.000000	75.314093
763.000000	76.760378
762.000000	78.121788
761.000000	79.307187
760.000000	80.250120
759.000000	80.932031
758.000000	81.397208
757.000000	81.742269
756.000000	82.082762
755.000000	82.514573
754.000000	83.087025
753.000000	83.787592
752.000000	84.542597
751.000000	85.241183
750.000000	85.775757
749.000000	86.081431
748.000000	86.158729
747.000000	86.076710
746.000000	85.952748
745.000000	85.911015
744.000000	86.038085
743.000000	86.355434
742.000000	86.814965
741.000000	87.313681
740.000000	87.724679
739.000000	87.942137
738.000000	87.921399
737.000000	87.692483
736.000000	87.345792
735.000000	87.001000
734.000000	86.767789
733.000000	86.708889
732.000000	86.820258
731.000000	87.036846
730.000000	87.257164
729.000000	87.375861
728.000000	87.316106
727.000000	87.055724
726.000000	86.635107
725.000000	86.137961
724.000000	85.652894
723.000000	85.232138
722.000000	84.857883
721.000000	84.433289
720.000000	83.815459
719.000000	82.888553
718.000000	81.633221
717.000000	80.151211
716.000000	78.642446
715.000000	77.349065
714.000000	76.485671
713.000000	76.177400
712.000000	76.428530
711.000000	77.134221
710.000000	78.127972
709.000000	79.234298
708.000000	80.304904
707.000000	81.242560
706.000000	82.017272
705.000000	82.660948
704.000000	83.237124
703.000000	83.810780
702.000000	84.425857
701.000000	85.087251
700.000000	85.757238
699.000000	86.371810
698.000000	86.871919
697.000000	87.228761
696.000000	87.451850
695.000000	87.587789
694.000000	87.702356
693.000000	87.852678
692.000000	88.070453
691.000000	88.353876
690.000000	88.668145
689.000000	88.953496
688.000000	89.149575
687.000000	89.233191
686.000000	89.226193
685.000000	89.174577
684.000000	89.134777
683.000000	89.162300
682.000000	89.287319
681.000000	89.491633
680.000000	89.716569
679.000000	89.897181
678.000000	89.982554
677.000000	89.945028
676.000000	89.810998
675.000000	89.643185
674.000000	89.518579
673.000000	89.529351
672.000000	89.771819
671.000000	90.293556
670.000000	91.006612
669.000000	91.597779
668.000000	91.688495
667.000000	91.251878
666.000000	90.587562
665.000000	90.005020
664.000000	89.653750
663.000000	89.539042
662.000000	89.623663
661.000000	89.862741
660.000000	90.178766
659.000000	90.459162
658.000000	90.600602
657.000000	90.555409
656.000000	90.343234
655.000000	90.023523
654.000000	89.699134
653.000000	89.496329
652.000000	89.492951
651.000000	89.681248
650.000000	89.988503
649.000000	90.309689
648.000000	90.520069
647.000000	90.510738
646.000000	90.260463
645.000000	89.852873
644.000000	89.414975
643.000000	89.065402
642.000000	88.897635
641.000000	88.956580
640.000000	89.203941
639.000000	89.520724
638.000000	89.763840
637.000000	89.825195
636.000000	89.649864
635.000000	89.249807
634.000000	88.723540
633.000000	88.225733
632.000000	87.890834
631.000000	87.782535
630.000000	87.889497
629.000000	88.134554
628.000000	88.385375
627.000000	88.490774
626.000000	88.349812
625.000000	87.956976
624.000000	87.387444
623.000000	86.762348
622.000000	86.220584
621.000000	85.877195
620.000000	85.771958
619.000000	85.847153
618.000000	85.967651
617.000000	85.972070
616.000000	85.734438
615.000000	85.210619
614.000000	84.448781
613.000000	83.557432
612.000000	82.657987
611.000000	81.854464
610.000000	81.205390
609.000000	80.694108
608.000000	80.229254
607.000000	79.678280
606.000000	78.915391
605.000000	77.859824
604.000000	76.506965
603.000000	74.938991
602.000000	73.280566
601.000000	71.634754
600.000000	70.065151
599.000000	68.604388
598.000000	67.237243
597.000000	65.888188
596.000000	64.474757
595.000000	62.971887
594.000000	61.407056
593.000000	59.819524
592.000000	58.272739
591.000000	56.870319
590.000000	55.693992
589.000000	54.739182
588.000000	53.942270
587.000000	53.232185
586.000000	52.514506
585.000000	51.666011
584.000000	50.618924
583.000000	49.426187
582.000000	48.211234
581.000000	47.097073
580.000000	46.217076
579.000000	45.732232
578.000000	45.745043
577.000000	46.231572
576.000000	47.081125
575.000000	48.140314
574.000000	49.216539
573.000000	50.121312
572.000000	50.785534
571.000000	51.318542
570.000000	51.928169
569.000000	52.782892
568.000000	53.933201
567.000000	55.301828
566.000000	56.711990
565.000000	57.979122
564.000000	59.015536
563.000000	59.845453
562.000000	60.541049
561.000000	61.168972
560.000000	61.787838
559.000000	62.444043
558.000000	63.144087
557.000000	63.848608
556.000000	64.508275
555.000000	65.098272
554.000000	65.614630
553.000000	66.066864
552.000000	66.488743
551.000000	66.938073
550.000000	67.463764
549.000000	68.072104
548.000000	68.729818
547.000000	69.385715
546.000000	69.983600
545.000000	70.475850
544.000000	70.842505
543.000000	71.105476
542.000000	71.325153
541.000000	71.574783
540.000000	71.909909
539.000000	72.349594
538.000000	72.871156
537.000000	73.416266
536.000000	73.905580
535.000000	74.265582
534.000000	74.463796
533.000000	74.524154
532.000000	74.511547
531.000000	74.500534
530.000000	74.548480
529.000000	74.675245
528.000000	74.854340
527.000000	75.018234
526.000000	75.069242
525.000000	74.911902
524.000000	74.496201
523.000000	73.849850
522.000000	73.083046
521.000000	72.342514
520.000000	71.737532
519.000000	71.274264
518.000000	70.815999
517.000000	70.121835
516.000000	68.966319
515.000000	67.286681
514.000000	65.240114
513.000000	63.139498
512.000000	61.341964
511.000000	60.157697
510.000000	59.761146
509.000000	60.152673
508.000000	61.226581
507.000000	62.807522
506.000000	64.653035
505.000000	66.517643
504.000000	68.239275
503.000000	69.750913
502.000000	71.027722
501.000000	72.081538
500.000000	72.977529
499.000000	73.810984
498.000000	74.651834
497.000000	75.518417
496.000000	76.380717
495.000000	77.179979
494.000000	77.861008
493.000000	78.397603
492.000000	78.803200
491.000000	79.119622
490.000000	79.403816
489.000000	79.715227
488.000000	80.093377
487.000000	80.541481
486.000000	81.029427
485.000000	81.508525
484.000000	81.925107
483.000000	82.234220
482.000000	82.426105
481.000000	82.537910
480.000000	82.621172
479.000000	82.706539
478.000000	82.805154
477.000000	82.918078
476.000000	83.021412
475.000000	83.043962
474.000000	82.884755
473.000000	82.448362
472.000000	81.693624
471.000000	80.686764
470.000000	79.609690
469.000000	78.689519
468.000000	78.102284
467.000000	77.882613
466.000000	77.872439
465.000000	77.780553
464.000000	77.343218
463.000000	76.491428
462.000000	75.450592
461.000000	74.642525
460.000000	74.451844
459.000000	75.057779
458.000000	76.352905
457.000000	77.957371
456.000000	79.459830
455.000000	80.684018
454.000000	81.656800
453.000000	82.438452
452.000000	83.030864
451.000000	83.404991
450.000000	83.550837
449.000000	83.468314
448.000000	83.132597
447.000000	82.515270
446.000000	81.664413
445.000000	80.721551
444.000000	79.884003
443.000000	79.360479
442.000000	79.290358
441.000000	79.649456
440.000000	80.269623
439.000000	80.957839
438.000000	81.591633
437.000000	82.133786
436.000000	82.570732
435.000000	82.879448
434.000000	83.061323
433.000000	83.159245
432.000000	83.209575
431.000000	83.220874
430.000000	83.202789
429.000000	83.175458
428.000000	83.137003
427.000000	83.049942
426.000000	82.888082
425.000000	82.670761
424.000000	82.439392
423.000000	82.226565
422.000000	82.056668
421.000000	81.947997
420.000000	81.898407
419.000000	81.876044
418.000000	81.856245
417.000000	81.848995
416.000000	81.840597
415.000000	81.797213
414.000000	81.724576
413.000000	81.672613
412.000000	81.680027
411.000000	81.749246
410.000000	81.872130
409.000000	82.046871
408.000000	82.253056
407.000000	82.444167
406.000000	82.592169
405.000000	82.712636
404.000000	82.816055
403.000000	82.896355
402.000000	82.980942
401.000000	83.136100
400.000000	83.370319
