PE IR       SUBTECH     SPECTRUM    ASCII       PEDS        4.00        
   -1
23MS095-trans.asc
24/10/15
15:26:09.00
24/10/15
15:26:09.00
Administrator
Sample 1269 By Administrator Date Tuesday, October 15 2024
400.000000
#HDR
-1
-1
#GR
cm-1
%T
1.0
0.0
4000.000000
-1.000000
3601
8
120.920218
20.312428
#DATA
4000.000000	94.539257
3999.000000	94.488439
3998.000000	94.449596
3997.000000	94.421345
3996.000000	94.389625
3995.000000	94.344056
3994.000000	94.292573
3993.000000	94.252159
3992.000000	94.225544
3991.000000	94.197252
3990.000000	94.153889
3989.000000	94.098721
3988.000000	94.043083
3987.000000	93.991640
3986.000000	93.941688
3985.000000	93.890422
3984.000000	93.835855
3983.000000	93.773835
3982.000000	93.698684
3981.000000	93.610840
3980.000000	93.522367
3979.000000	93.450435
3978.000000	93.405133
3977.000000	93.386936
3976.000000	93.390674
3975.000000	93.408926
3974.000000	93.435343
3973.000000	93.472038
3972.000000	93.529331
3971.000000	93.611037
3970.000000	93.709200
3969.000000	93.807450
3968.000000	93.891729
3967.000000	93.959743
3966.000000	94.021851
3965.000000	94.090727
3964.000000	94.165712
3963.000000	94.226392
3962.000000	94.250237
3961.000000	94.241191
3960.000000	94.229241
3959.000000	94.232515
3958.000000	94.247416
3957.000000	94.262104
3956.000000	94.273247
3955.000000	94.286807
3954.000000	94.310945
3953.000000	94.358297
3952.000000	94.438207
3951.000000	94.550606
3950.000000	94.675177
3949.000000	94.765990
3948.000000	94.793388
3947.000000	94.807428
3946.000000	94.910682
3945.000000	95.139777
3944.000000	95.403118
3943.000000	95.563729
3942.000000	95.584501
3941.000000	95.567199
3940.000000	95.626551
3939.000000	95.749085
3938.000000	95.844400
3937.000000	95.878998
3936.000000	95.916036
3935.000000	96.023747
3934.000000	96.184707
3933.000000	96.324346
3932.000000	96.379420
3931.000000	96.342742
3930.000000	96.256335
3929.000000	96.190248
3928.000000	96.231463
3927.000000	96.399124
3926.000000	96.574802
3925.000000	96.607013
3924.000000	96.491776
3923.000000	96.374980
3922.000000	96.362816
3921.000000	96.432263
3920.000000	96.541644
3919.000000	96.683487
3918.000000	96.812872
3917.000000	96.841850
3916.000000	96.767810
3915.000000	96.711496
3914.000000	96.776467
3913.000000	96.927016
3912.000000	97.074030
3911.000000	97.137195
3910.000000	97.108886
3909.000000	97.043126
3908.000000	97.034866
3907.000000	97.155269
3906.000000	97.357918
3905.000000	97.482967
3904.000000	97.413285
3903.000000	97.251200
3902.000000	97.242275
3901.000000	97.449148
3900.000000	97.646924
3899.000000	97.635174
3898.000000	97.469963
3897.000000	97.340346
3896.000000	97.364158
3895.000000	97.549868
3894.000000	97.909937
3893.000000	98.353387
3892.000000	98.567264
3891.000000	98.234852
3890.000000	97.602957
3889.000000	97.331075
3888.000000	97.690453
3887.000000	98.303802
3886.000000	98.543325
3885.000000	98.173708
3884.000000	97.699267
3883.000000	97.717755
3882.000000	98.193134
3881.000000	98.597729
3880.000000	98.490044
3879.000000	97.996911
3878.000000	97.694253
3877.000000	97.885201
3876.000000	98.300395
3875.000000	98.449584
3874.000000	98.185154
3873.000000	97.943646
3872.000000	98.169339
3871.000000	98.628693
3870.000000	98.644143
3869.000000	98.062863
3868.000000	97.602258
3867.000000	97.787543
3866.000000	98.304614
3865.000000	98.646520
3864.000000	98.674716
3863.000000	98.523800
3862.000000	98.385382
3861.000000	98.288549
3860.000000	98.182723
3859.000000	98.022638
3858.000000	97.867473
3857.000000	97.898725
3856.000000	98.335569
3855.000000	99.166731
3854.000000	99.747692
3853.000000	99.101858
3852.000000	97.651616
3851.000000	96.896498
3850.000000	97.164685
3849.000000	97.787042
3848.000000	98.324857
3847.000000	98.701189
3846.000000	98.962589
3845.000000	99.124365
3844.000000	99.116952
3843.000000	98.901729
3842.000000	98.681443
3841.000000	98.682460
3840.000000	98.915828
3839.000000	99.161655
3838.000000	99.150428
3837.000000	98.821082
3836.000000	98.442781
3835.000000	98.358902
3834.000000	98.638293
3833.000000	99.021649
3832.000000	99.197645
3831.000000	99.110638
3830.000000	99.004609
3829.000000	99.126382
3828.000000	99.399047
3827.000000	99.455333
3826.000000	99.147745
3825.000000	98.827966
3824.000000	98.972449
3823.000000	99.600176
3822.000000	100.129162
3821.000000	99.817033
3820.000000	98.866145
3819.000000	98.414887
3818.000000	98.925327
3817.000000	99.741868
3816.000000	99.974116
3815.000000	99.483585
3814.000000	98.991817
3813.000000	98.972569
3812.000000	99.179658
3811.000000	99.349666
3810.000000	99.592126
3809.000000	100.058691
3808.000000	100.478288
3807.000000	100.292404
3806.000000	99.516070
3805.000000	98.985124
3804.000000	99.311084
3803.000000	100.172947
3802.000000	100.704805
3801.000000	100.309890
3800.000000	99.502068
3799.000000	99.271333
3798.000000	99.721981
3797.000000	100.249822
3796.000000	100.410016
3795.000000	100.291927
3794.000000	100.229809
3793.000000	100.345169
3792.000000	100.523562
3791.000000	100.651801
3790.000000	100.703850
3789.000000	100.716637
3788.000000	100.749065
3787.000000	100.843410
3786.000000	100.944036
3785.000000	100.914463
3784.000000	100.739931
3783.000000	100.620386
3782.000000	100.749828
3781.000000	101.058622
3780.000000	101.268542
3779.000000	101.172790
3778.000000	100.905467
3777.000000	100.757128
3776.000000	100.779289
3775.000000	100.799226
3774.000000	100.772083
3773.000000	100.854660
3772.000000	101.115491
3771.000000	101.339835
3770.000000	101.262785
3769.000000	100.939126
3768.000000	100.740588
3767.000000	100.856399
3766.000000	101.028722
3765.000000	100.942065
3764.000000	100.685111
3763.000000	100.617893
3762.000000	100.857748
3761.000000	101.163187
3760.000000	101.309778
3759.000000	101.223649
3758.000000	100.930128
3757.000000	100.552428
3756.000000	100.293444
3755.000000	100.293482
3754.000000	100.505951
3753.000000	100.807362
3752.000000	101.111037
3751.000000	101.187808
3750.000000	100.678036
3749.000000	99.748526
3748.000000	99.258731
3747.000000	99.799793
3746.000000	101.048572
3745.000000	102.012735
3744.000000	101.644700
3743.000000	100.395616
3742.000000	99.775981
3741.000000	100.032497
3740.000000	100.512247
3739.000000	100.932302
3738.000000	101.338496
3737.000000	101.695356
3736.000000	101.811406
3735.000000	101.720224
3734.000000	101.696687
3733.000000	101.778927
3732.000000	101.708499
3731.000000	101.437641
3730.000000	101.303483
3729.000000	101.554221
3728.000000	102.010222
3727.000000	102.321900
3726.000000	102.356935
3725.000000	102.303696
3724.000000	102.343480
3723.000000	102.435356
3722.000000	102.472535
3721.000000	102.437980
3720.000000	102.435542
3719.000000	102.481116
3718.000000	102.446951
3717.000000	102.300954
3716.000000	102.205159
3715.000000	102.325754
3714.000000	102.649629
3713.000000	103.005659
3712.000000	103.173426
3711.000000	103.016019
3710.000000	102.681164
3709.000000	102.453484
3708.000000	102.415716
3707.000000	102.483804
3706.000000	102.617834
3705.000000	102.857676
3704.000000	103.202922
3703.000000	103.523584
3702.000000	103.621756
3701.000000	103.417139
3700.000000	103.122878
3699.000000	103.041224
3698.000000	103.170374
3697.000000	103.276029
3696.000000	103.238735
3695.000000	103.140844
3694.000000	103.085862
3693.000000	103.090789
3692.000000	103.179667
3691.000000	103.402152
3690.000000	103.683798
3689.000000	103.711486
3688.000000	103.271610
3687.000000	102.720705
3686.000000	102.586979
3685.000000	102.869804
3684.000000	103.220740
3683.000000	103.448217
3682.000000	103.554233
3681.000000	103.510268
3680.000000	103.244851
3679.000000	102.983012
3678.000000	103.141144
3677.000000	103.742739
3676.000000	104.089407
3675.000000	103.417489
3674.000000	102.308940
3673.000000	102.037250
3672.000000	102.731827
3671.000000	103.585428
3670.000000	103.852221
3669.000000	103.418605
3668.000000	102.906463
3667.000000	102.836301
3666.000000	103.108827
3665.000000	103.412633
3664.000000	103.614426
3663.000000	103.706210
3662.000000	103.657521
3661.000000	103.470838
3660.000000	103.283788
3659.000000	103.316594
3658.000000	103.576969
3657.000000	103.728103
3656.000000	103.371985
3655.000000	102.643620
3654.000000	102.134540
3653.000000	102.128973
3652.000000	102.431342
3651.000000	102.758804
3650.000000	102.905350
3649.000000	102.726927
3648.000000	102.256399
3647.000000	101.751301
3646.000000	101.497035
3645.000000	101.572574
3644.000000	101.851151
3643.000000	102.113394
3642.000000	102.215435
3641.000000	102.178139
3640.000000	102.089365
3639.000000	101.968373
3638.000000	101.791815
3637.000000	101.630513
3636.000000	101.546123
3635.000000	101.409548
3634.000000	101.038019
3633.000000	100.545662
3632.000000	100.321021
3631.000000	100.577650
3630.000000	101.042332
3629.000000	101.015292
3628.000000	100.178549
3627.000000	99.260359
3626.000000	98.959234
3625.000000	99.077713
3624.000000	99.189171
3623.000000	99.207367
3622.000000	99.256079
3621.000000	99.360749
3620.000000	99.350698
3619.000000	99.010209
3618.000000	98.386585
3617.000000	97.856877
3616.000000	97.694615
3615.000000	97.781353
3614.000000	97.809251
3613.000000	97.613265
3612.000000	97.313847
3611.000000	97.144313
3610.000000	97.152705
3609.000000	97.156979
3608.000000	96.979141
3607.000000	96.649269
3606.000000	96.351162
3605.000000	96.195304
3604.000000	96.143587
3603.000000	96.114439
3602.000000	96.031503
3601.000000	95.838641
3600.000000	95.550253
3599.000000	95.253453
3598.000000	95.014406
3597.000000	94.855954
3596.000000	94.730319
3595.000000	94.536271
3594.000000	94.203974
3593.000000	93.778304
3592.000000	93.401854
3591.000000	93.199029
3590.000000	93.179230
3589.000000	93.222306
3588.000000	93.127679
3587.000000	92.769333
3586.000000	92.279739
3585.000000	91.918768
3584.000000	91.771686
3583.000000	91.737373
3582.000000	91.696609
3581.000000	91.603071
3580.000000	91.461073
3579.000000	91.291692
3578.000000	91.113036
3577.000000	90.941296
3576.000000	90.786456
3575.000000	90.629996
3574.000000	90.443313
3573.000000	90.213927
3572.000000	89.971626
3571.000000	89.791013
3570.000000	89.741519
3569.000000	89.809028
3568.000000	89.867639
3567.000000	89.765376
3566.000000	89.503727
3565.000000	89.268898
3564.000000	89.206547
3563.000000	89.287923
3562.000000	89.410103
3561.000000	89.505016
3560.000000	89.556460
3559.000000	89.572410
3558.000000	89.568231
3557.000000	89.562393
3556.000000	89.582929
3555.000000	89.648778
3554.000000	89.738886
3553.000000	89.792989
3552.000000	89.764258
3551.000000	89.683906
3550.000000	89.640250
3549.000000	89.684441
3548.000000	89.788984
3547.000000	89.889847
3546.000000	89.941031
3545.000000	89.945321
3544.000000	89.941412
3543.000000	89.958690
3542.000000	89.997133
3541.000000	90.040932
3540.000000	90.083876
3539.000000	90.128612
3538.000000	90.168372
3537.000000	90.186439
3536.000000	90.167239
3535.000000	90.119474
3534.000000	90.069615
3533.000000	90.036960
3532.000000	90.018680
3531.000000	90.000205
3530.000000	89.966149
3529.000000	89.898868
3528.000000	89.787715
3527.000000	89.651927
3526.000000	89.536701
3525.000000	89.465758
3524.000000	89.411133
3523.000000	89.322507
3522.000000	89.187598
3521.000000	89.042350
3520.000000	88.915729
3519.000000	88.790605
3518.000000	88.631807
3517.000000	88.437096
3516.000000	88.227773
3515.000000	88.009510
3514.000000	87.774584
3513.000000	87.530816
3512.000000	87.294291
3511.000000	87.056808
3510.000000	86.783557
3509.000000	86.453842
3508.000000	86.094342
3507.000000	85.756192
3506.000000	85.461693
3505.000000	85.187987
3504.000000	84.894692
3503.000000	84.559062
3502.000000	84.194325
3501.000000	83.839120
3500.000000	83.524813
3499.000000	83.251090
3498.000000	82.993731
3497.000000	82.730483
3496.000000	82.457310
3495.000000	82.183927
3494.000000	81.923897
3493.000000	81.689543
3492.000000	81.485598
3491.000000	81.309087
3490.000000	81.155620
3489.000000	81.020271
3488.000000	80.895925
3487.000000	80.780353
3486.000000	80.687308
3485.000000	80.639380
3484.000000	80.640146
3483.000000	80.664357
3482.000000	80.684345
3481.000000	80.701816
3480.000000	80.743540
3479.000000	80.829283
3478.000000	80.955715
3477.000000	81.105908
3476.000000	81.263202
3475.000000	81.415659
3474.000000	81.559765
3473.000000	81.703170
3472.000000	81.855048
3471.000000	82.016253
3470.000000	82.186517
3469.000000	82.370166
3468.000000	82.566221
3467.000000	82.763095
3466.000000	82.953600
3465.000000	83.145530
3464.000000	83.345059
3463.000000	83.541270
3462.000000	83.720434
3461.000000	83.888079
3460.000000	84.063018
3459.000000	84.252507
3458.000000	84.447693
3457.000000	84.639342
3456.000000	84.824428
3455.000000	85.005508
3454.000000	85.184389
3453.000000	85.357706
3452.000000	85.521434
3451.000000	85.683273
3450.000000	85.862822
3449.000000	86.065126
3448.000000	86.262823
3447.000000	86.422754
3446.000000	86.553269
3445.000000	86.700351
3444.000000	86.888944
3443.000000	87.093492
3442.000000	87.276158
3441.000000	87.432490
3440.000000	87.584058
3439.000000	87.742332
3438.000000	87.901628
3437.000000	88.058448
3436.000000	88.216857
3435.000000	88.380200
3434.000000	88.543703
3433.000000	88.699592
3432.000000	88.845622
3431.000000	88.986082
3430.000000	89.127723
3429.000000	89.273421
3428.000000	89.420485
3427.000000	89.562522
3426.000000	89.695756
3425.000000	89.824979
3424.000000	89.960422
3423.000000	90.106484
3422.000000	90.255281
3421.000000	90.394973
3420.000000	90.522651
3419.000000	90.647417
3418.000000	90.780195
3417.000000	90.922778
3416.000000	91.068770
3415.000000	91.212098
3414.000000	91.352044
3413.000000	91.491073
3412.000000	91.630755
3411.000000	91.771090
3410.000000	91.912191
3409.000000	92.054514
3408.000000	92.198122
3407.000000	92.340850
3406.000000	92.479299
3405.000000	92.612968
3404.000000	92.743999
3403.000000	92.874893
3402.000000	93.010138
3401.000000	93.159654
3400.000000	93.330086
3399.000000	93.510219
3398.000000	93.676479
3397.000000	93.818048
3396.000000	93.948694
3395.000000	94.087747
3394.000000	94.238196
3393.000000	94.389997
3392.000000	94.537860
3391.000000	94.686304
3390.000000	94.839737
3389.000000	94.996034
3388.000000	95.150947
3387.000000	95.302314
3386.000000	95.448636
3385.000000	95.589198
3384.000000	95.725663
3383.000000	95.862091
3382.000000	96.001970
3381.000000	96.146498
3380.000000	96.293769
3379.000000	96.439212
3378.000000	96.580553
3377.000000	96.721048
3376.000000	96.864588
3375.000000	97.008323
3374.000000	97.145908
3373.000000	97.277215
3372.000000	97.409398
3371.000000	97.548855
3370.000000	97.697995
3369.000000	97.858044
3368.000000	98.027874
3367.000000	98.200981
3366.000000	98.369744
3365.000000	98.533373
3364.000000	98.697442
3363.000000	98.865888
3362.000000	99.037998
3361.000000	99.213298
3360.000000	99.393751
3359.000000	99.580089
3358.000000	99.769533
3357.000000	99.957885
3356.000000	100.141679
3355.000000	100.318771
3354.000000	100.491037
3353.000000	100.666127
3352.000000	100.852127
3351.000000	101.049200
3350.000000	101.249930
3349.000000	101.446364
3348.000000	101.634008
3347.000000	101.811686
3346.000000	101.981073
3345.000000	102.147566
3344.000000	102.315291
3343.000000	102.480057
3342.000000	102.633134
3341.000000	102.772404
3340.000000	102.905131
3339.000000	103.037324
3338.000000	103.164078
3337.000000	103.272996
3336.000000	103.353672
3335.000000	103.402797
3334.000000	103.422335
3333.000000	103.413172
3332.000000	103.371543
3331.000000	103.289249
3330.000000	103.158142
3329.000000	102.974543
3328.000000	102.737054
3327.000000	102.443958
3326.000000	102.091396
3325.000000	101.673826
3324.000000	101.185458
3323.000000	100.617059
3322.000000	99.959648
3321.000000	99.206181
3320.000000	98.344806
3319.000000	97.356513
3318.000000	96.215537
3317.000000	94.898567
3316.000000	93.383333
3315.000000	91.638339
3314.000000	89.631570
3313.000000	87.342314
3312.000000	84.770728
3311.000000	81.935519
3310.000000	78.864651
3309.000000	75.603757
3308.000000	72.215784
3307.000000	68.771860
3306.000000	65.344287
3305.000000	61.998951
3304.000000	58.792586
3303.000000	55.772658
3302.000000	52.982166
3301.000000	50.462412
3300.000000	48.249074
3299.000000	46.362270
3298.000000	44.813339
3297.000000	43.611437
3296.000000	42.745902
3295.000000	42.176516
3294.000000	41.832253
3293.000000	41.628517
3292.000000	41.485065
3291.000000	41.331415
3290.000000	41.126265
3289.000000	40.864620
3288.000000	40.569520
3287.000000	40.276559
3286.000000	40.019087
3285.000000	39.821470
3284.000000	39.689337
3283.000000	39.606711
3282.000000	39.546985
3281.000000	39.485166
3280.000000	39.398834
3279.000000	39.266843
3278.000000	39.077345
3277.000000	38.834837
3276.000000	38.553775
3275.000000	38.249045
3274.000000	37.939228
3273.000000	37.654389
3272.000000	37.432504
3271.000000	37.307600
3270.000000	37.307445
3269.000000	37.455311
3268.000000	37.765385
3267.000000	38.240502
3266.000000	38.870422
3265.000000	39.633227
3264.000000	40.490091
3263.000000	41.380070
3262.000000	42.230762
3261.000000	42.970790
3260.000000	43.532594
3259.000000	43.855923
3258.000000	43.902291
3257.000000	43.658038
3256.000000	43.130640
3255.000000	42.336502
3254.000000	41.297555
3253.000000	40.049213
3252.000000	38.622298
3251.000000	37.035745
3250.000000	35.303539
3249.000000	33.448573
3248.000000	31.513842
3247.000000	29.558404
3246.000000	27.662775
3245.000000	25.932438
3244.000000	24.480133
3243.000000	23.388844
3242.000000	22.688732
3241.000000	22.344948
3240.000000	22.260105
3239.000000	22.306374
3238.000000	22.365230
3237.000000	22.362019
3236.000000	22.268632
3235.000000	22.088991
3234.000000	21.848929
3233.000000	21.580299
3232.000000	21.304694
3231.000000	21.030181
3230.000000	20.766812
3229.000000	20.539140
3228.000000	20.378197
3227.000000	20.312428
3226.000000	20.370025
3225.000000	20.579500
3224.000000	20.960688
3223.000000	21.512955
3222.000000	22.220116
3221.000000	23.056662
3220.000000	23.981081
3219.000000	24.936494
3218.000000	25.864670
3217.000000	26.720039
3216.000000	27.468481
3215.000000	28.086060
3214.000000	28.569615
3213.000000	28.943499
3212.000000	29.246066
3211.000000	29.512775
3210.000000	29.776542
3209.000000	30.071636
3208.000000	30.428220
3207.000000	30.864316
3206.000000	31.388490
3205.000000	32.004440
3204.000000	32.709216
3203.000000	33.491355
3202.000000	34.337459
3201.000000	35.237607
3200.000000	36.177898
3199.000000	37.137421
3198.000000	38.096000
3197.000000	39.041136
3196.000000	39.963893
3195.000000	40.853295
3194.000000	41.699121
3193.000000	42.494417
3192.000000	43.230841
3191.000000	43.895049
3190.000000	44.477853
3189.000000	44.980074
3188.000000	45.407045
3187.000000	45.763261
3186.000000	46.054714
3185.000000	46.293857
3184.000000	46.493247
3183.000000	46.661088
3182.000000	46.806546
3181.000000	46.940629
3180.000000	47.070148
3179.000000	47.194887
3178.000000	47.317118
3177.000000	47.449330
3176.000000	47.607710
3175.000000	47.803215
3174.000000	48.042579
3173.000000	48.332217
3172.000000	48.674097
3171.000000	49.064820
3170.000000	49.501414
3169.000000	49.984988
3168.000000	50.515746
3167.000000	51.086666
3166.000000	51.689609
3165.000000	52.319668
3164.000000	52.971301
3163.000000	53.636781
3162.000000	54.309823
3161.000000	54.985278
3160.000000	55.650111
3159.000000	56.280375
3158.000000	56.847189
3157.000000	57.322091
3156.000000	57.671186
3155.000000	57.853380
3154.000000	57.830681
3153.000000	57.577585
3152.000000	57.093337
3151.000000	56.410935
3150.000000	55.602651
3149.000000	54.766718
3148.000000	53.989695
3147.000000	53.317872
3146.000000	52.750811
3145.000000	52.249386
3144.000000	51.748791
3143.000000	51.176767
3142.000000	50.479686
3141.000000	49.637137
3140.000000	48.655205
3139.000000	47.557061
3138.000000	46.381870
3137.000000	45.184380
3136.000000	44.021591
3135.000000	42.940589
3134.000000	41.981146
3133.000000	41.181965
3132.000000	40.574188
3131.000000	40.174377
3130.000000	39.989974
3129.000000	40.018400
3128.000000	40.245867
3127.000000	40.648469
3126.000000	41.202432
3125.000000	41.890137
3124.000000	42.686804
3123.000000	43.561393
3122.000000	44.487817
3121.000000	45.450347
3120.000000	46.436442
3119.000000	47.427784
3118.000000	48.407818
3117.000000	49.366638
3116.000000	50.294442
3115.000000	51.176895
3114.000000	52.002370
3113.000000	52.766245
3112.000000	53.464067
3111.000000	54.089572
3110.000000	54.639137
3109.000000	55.114337
3108.000000	55.513278
3107.000000	55.829109
3106.000000	56.062000
3105.000000	56.221368
3104.000000	56.320257
3103.000000	56.371477
3102.000000	56.393993
3101.000000	56.417810
3100.000000	56.477498
3099.000000	56.604008
3098.000000	56.821688
3097.000000	57.146443
3096.000000	57.579451
3095.000000	58.109995
3094.000000	58.724074
3093.000000	59.407786
3092.000000	60.143203
3091.000000	60.906933
3090.000000	61.679125
3089.000000	62.446750
3088.000000	63.198758
3087.000000	63.924747
3086.000000	64.619878
3085.000000	65.284679
3084.000000	65.917779
3083.000000	66.514265
3082.000000	67.072121
3081.000000	67.596195
3080.000000	68.092126
3079.000000	68.562434
3078.000000	69.010780
3077.000000	69.442800
3076.000000	69.860851
3075.000000	70.262565
3074.000000	70.646998
3073.000000	71.017039
3072.000000	71.374274
3071.000000	71.717688
3070.000000	72.049031
3069.000000	72.374605
3068.000000	72.698935
3067.000000	73.019846
3066.000000	73.332510
3065.000000	73.635222
3064.000000	73.929769
3063.000000	74.218411
3062.000000	74.501885
3061.000000	74.779363
3060.000000	75.049043
3059.000000	75.310090
3058.000000	75.564023
3057.000000	75.812483
3056.000000	76.053978
3055.000000	76.286003
3054.000000	76.509886
3053.000000	76.730099
3052.000000	76.948785
3051.000000	77.163044
3050.000000	77.367885
3049.000000	77.560147
3048.000000	77.739949
3047.000000	77.910702
3046.000000	78.077895
3045.000000	78.245443
3044.000000	78.413066
3043.000000	78.578599
3042.000000	78.742478
3041.000000	78.906639
3040.000000	79.069598
3039.000000	79.227479
3038.000000	79.379538
3037.000000	79.529676
3036.000000	79.682349
3035.000000	79.839710
3034.000000	80.002919
3033.000000	80.171393
3032.000000	80.339729
3031.000000	80.501189
3030.000000	80.656242
3029.000000	80.812493
3028.000000	80.974521
3027.000000	81.139384
3026.000000	81.303943
3025.000000	81.470156
3024.000000	81.640165
3023.000000	81.811363
3022.000000	81.979962
3021.000000	82.146092
3020.000000	82.312724
3019.000000	82.481235
3018.000000	82.650008
3017.000000	82.816011
3016.000000	82.975997
3015.000000	83.127565
3014.000000	83.269817
3013.000000	83.402193
3012.000000	83.522034
3011.000000	83.624146
3010.000000	83.703796
3009.000000	83.757230
3008.000000	83.778718
3007.000000	83.759210
3006.000000	83.687614
3005.000000	83.554414
3004.000000	83.353331
3003.000000	83.083489
3002.000000	82.750456
3001.000000	82.361445
3000.000000	81.919090
2999.000000	81.416249
2998.000000	80.843400
2997.000000	80.209053
2996.000000	79.562389
2995.000000	78.996315
2994.000000	78.612300
2993.000000	78.465746
2992.000000	78.532887
2991.000000	78.732003
2990.000000	78.974362
2989.000000	79.199971
2988.000000	79.381221
2987.000000	79.511192
2986.000000	79.597903
2985.000000	79.658859
2984.000000	79.713256
2983.000000	79.777551
2982.000000	79.866513
2981.000000	79.991204
2980.000000	80.150495
2979.000000	80.328275
2978.000000	80.504596
2977.000000	80.671514
2976.000000	80.841616
2975.000000	81.043969
2974.000000	81.308767
2973.000000	81.646237
2972.000000	82.034049
2971.000000	82.425690
2970.000000	82.770625
2969.000000	83.028953
2968.000000	83.171201
2967.000000	83.176178
2966.000000	83.032654
2965.000000	82.739250
2964.000000	82.301218
2963.000000	81.726508
2962.000000	81.029514
2961.000000	80.230144
2960.000000	79.344899
2959.000000	78.377846
2958.000000	77.324295
2957.000000	76.195400
2956.000000	75.048145
2955.000000	73.997846
2954.000000	73.181073
2953.000000	72.680537
2952.000000	72.469624
2951.000000	72.434056
2950.000000	72.455846
2949.000000	72.479808
2948.000000	72.521004
2947.000000	72.626440
2946.000000	72.832409
2945.000000	73.134254
2944.000000	73.478355
2943.000000	73.790088
2942.000000	74.022349
2941.000000	74.189170
2940.000000	74.358845
2939.000000	74.619033
2938.000000	75.041266
2937.000000	75.657214
2936.000000	76.450504
2935.000000	77.368717
2934.000000	78.347734
2933.000000	79.331035
2932.000000	80.275419
2931.000000	81.152882
2930.000000	81.952263
2929.000000	82.674971
2928.000000	83.326771
2927.000000	83.913902
2926.000000	84.446115
2925.000000	84.934958
2924.000000	85.386763
2923.000000	85.800252
2922.000000	86.171937
2921.000000	86.500014
2920.000000	86.782157
2919.000000	87.015914
2918.000000	87.202394
2917.000000	87.346819
2916.000000	87.454982
2915.000000	87.531938
2914.000000	87.584704
2913.000000	87.621167
2912.000000	87.646528
2911.000000	87.664370
2910.000000	87.679910
2909.000000	87.699421
2908.000000	87.725140
2907.000000	87.755156
2906.000000	87.789005
2905.000000	87.828690
2904.000000	87.873891
2903.000000	87.921286
2902.000000	87.969097
2901.000000	88.017711
2900.000000	88.065674
2899.000000	88.108129
2898.000000	88.140761
2897.000000	88.159979
2896.000000	88.159102
2895.000000	88.129164
2894.000000	88.065092
2893.000000	87.967540
2892.000000	87.837268
2891.000000	87.672299
2890.000000	87.471972
2889.000000	87.240292
2888.000000	86.984038
2887.000000	86.711663
2886.000000	86.435477
2885.000000	86.170426
2884.000000	85.929198
2883.000000	85.720217
2882.000000	85.551105
2881.000000	85.429778
2880.000000	85.360191
2879.000000	85.341251
2878.000000	85.370457
2877.000000	85.445340
2876.000000	85.560621
2875.000000	85.708060
2874.000000	85.879719
2873.000000	86.067835
2872.000000	86.261458
2871.000000	86.448409
2870.000000	86.623141
2869.000000	86.789336
2868.000000	86.954635
2867.000000	87.125856
2866.000000	87.308343
2865.000000	87.504232
2864.000000	87.709228
2863.000000	87.915226
2862.000000	88.117387
2861.000000	88.315597
2860.000000	88.509409
2859.000000	88.696823
2858.000000	88.879243
2857.000000	89.062939
2856.000000	89.253741
2855.000000	89.453590
2854.000000	89.662211
2853.000000	89.876973
2852.000000	90.089347
2851.000000	90.285564
2850.000000	90.453546
2849.000000	90.587537
2848.000000	90.687048
2847.000000	90.756258
2846.000000	90.805452
2845.000000	90.848348
2844.000000	90.895393
2843.000000	90.951103
2842.000000	91.017984
2841.000000	91.099655
2840.000000	91.198480
2839.000000	91.313373
2838.000000	91.441481
2837.000000	91.579787
2836.000000	91.724598
2835.000000	91.871954
2834.000000	92.019277
2833.000000	92.164897
2832.000000	92.306268
2831.000000	92.440899
2830.000000	92.568968
2829.000000	92.692440
2828.000000	92.811698
2827.000000	92.925748
2826.000000	93.035110
2825.000000	93.141336
2824.000000	93.243856
2823.000000	93.340334
2822.000000	93.430302
2821.000000	93.515438
2820.000000	93.596165
2819.000000	93.671208
2818.000000	93.740698
2817.000000	93.806550
2816.000000	93.869318
2815.000000	93.927545
2814.000000	93.980970
2813.000000	94.031896
2812.000000	94.082942
2811.000000	94.135811
2810.000000	94.192189
2809.000000	94.253071
2808.000000	94.316974
2807.000000	94.381337
2806.000000	94.445844
2805.000000	94.511965
2804.000000	94.579325
2803.000000	94.645381
2802.000000	94.708820
2801.000000	94.770615
2800.000000	94.831622
2799.000000	94.891670
2798.000000	94.950901
2797.000000	95.009399
2796.000000	95.065485
2795.000000	95.116911
2794.000000	95.163736
2793.000000	95.207712
2792.000000	95.249346
2791.000000	95.288344
2790.000000	95.326367
2789.000000	95.366066
2788.000000	95.407416
2787.000000	95.448011
2786.000000	95.486995
2785.000000	95.525913
2784.000000	95.565821
2783.000000	95.606789
2782.000000	95.650353
2781.000000	95.699086
2780.000000	95.753250
2779.000000	95.810659
2778.000000	95.870031
2777.000000	95.931588
2776.000000	95.994028
2775.000000	96.053905
2774.000000	96.108836
2773.000000	96.158938
2772.000000	96.204747
2771.000000	96.246365
2770.000000	96.284995
2769.000000	96.322753
2768.000000	96.360300
2767.000000	96.396453
2766.000000	96.430302
2765.000000	96.461596
2764.000000	96.489235
2763.000000	96.512005
2762.000000	96.530955
2761.000000	96.548804
2760.000000	96.566875
2759.000000	96.584579
2758.000000	96.601538
2757.000000	96.617431
2756.000000	96.629834
2755.000000	96.634913
2754.000000	96.630608
2753.000000	96.617356
2752.000000	96.595859
2751.000000	96.566910
2750.000000	96.533609
2749.000000	96.501056
2748.000000	96.473384
2747.000000	96.453196
2746.000000	96.443699
2745.000000	96.448907
2744.000000	96.471253
2743.000000	96.510455
2742.000000	96.564670
2741.000000	96.630715
2740.000000	96.703274
2739.000000	96.776782
2738.000000	96.848155
2737.000000	96.916140
2736.000000	96.979004
2735.000000	97.035147
2734.000000	97.085653
2733.000000	97.133592
2732.000000	97.180547
2731.000000	97.225863
2730.000000	97.268989
2729.000000	97.310049
2728.000000	97.348279
2727.000000	97.382040
2726.000000	97.410478
2725.000000	97.433789
2724.000000	97.452190
2723.000000	97.466597
2722.000000	97.479713
2721.000000	97.494283
2720.000000	97.510756
2719.000000	97.528329
2718.000000	97.547422
2717.000000	97.569123
2716.000000	97.593137
2715.000000	97.618665
2714.000000	97.646586
2713.000000	97.678294
2712.000000	97.712949
2711.000000	97.748326
2710.000000	97.783738
2709.000000	97.819846
2708.000000	97.856176
2707.000000	97.891098
2706.000000	97.923913
2705.000000	97.954968
2704.000000	97.984472
2703.000000	98.013169
2702.000000	98.043196
2701.000000	98.075930
2700.000000	98.109810
2699.000000	98.142253
2698.000000	98.172566
2697.000000	98.200837
2696.000000	98.225351
2695.000000	98.244064
2694.000000	98.257676
2693.000000	98.268668
2692.000000	98.278278
2691.000000	98.286832
2690.000000	98.295929
2689.000000	98.307309
2688.000000	98.320232
2687.000000	98.332731
2686.000000	98.344609
2685.000000	98.356630
2684.000000	98.367794
2683.000000	98.376390
2682.000000	98.382987
2681.000000	98.389405
2680.000000	98.395446
2679.000000	98.399618
2678.000000	98.402545
2677.000000	98.406724
2676.000000	98.413504
2675.000000	98.423201
2674.000000	98.437744
2673.000000	98.460263
2672.000000	98.491887
2671.000000	98.531556
2670.000000	98.578505
2669.000000	98.632169
2668.000000	98.690367
2667.000000	98.750045
2666.000000	98.809775
2665.000000	98.869407
2664.000000	98.927860
2663.000000	98.983970
2662.000000	99.038631
2661.000000	99.093349
2660.000000	99.147241
2659.000000	99.198034
2658.000000	99.245521
2657.000000	99.291557
2656.000000	99.337124
2655.000000	99.381806
2654.000000	99.425659
2653.000000	99.468652
2652.000000	99.508721
2651.000000	99.542614
2650.000000	99.568331
2649.000000	99.585141
2648.000000	99.592039
2647.000000	99.589148
2646.000000	99.580247
2645.000000	99.571312
2644.000000	99.566886
2643.000000	99.569485
2642.000000	99.581215
2641.000000	99.603223
2640.000000	99.634113
2639.000000	99.671287
2638.000000	99.713685
2637.000000	99.761004
2636.000000	99.811114
2635.000000	99.861068
2634.000000	99.909791
2633.000000	99.957550
2632.000000	100.003578
2631.000000	100.046722
2630.000000	100.088025
2629.000000	100.130124
2628.000000	100.174471
2627.000000	100.221051
2626.000000	100.269989
2625.000000	100.321073
2624.000000	100.372437
2623.000000	100.421849
2622.000000	100.468553
2621.000000	100.511937
2620.000000	100.549424
2619.000000	100.578310
2618.000000	100.598612
2617.000000	100.611804
2616.000000	100.618135
2615.000000	100.617516
2614.000000	100.612301
2613.000000	100.606283
2612.000000	100.601158
2611.000000	100.596602
2610.000000	100.592940
2609.000000	100.591322
2608.000000	100.591776
2607.000000	100.593440
2606.000000	100.596291
2605.000000	100.600467
2604.000000	100.604567
2603.000000	100.606870
2602.000000	100.607637
2601.000000	100.608049
2600.000000	100.607741
2599.000000	100.605589
2598.000000	100.602064
2597.000000	100.598253
2596.000000	100.593426
2595.000000	100.586017
2594.000000	100.576532
2593.000000	100.567192
2592.000000	100.559168
2591.000000	100.552278
2590.000000	100.546579
2589.000000	100.541991
2588.000000	100.537013
2587.000000	100.530084
2586.000000	100.521691
2585.000000	100.513258
2584.000000	100.504950
2583.000000	100.496682
2582.000000	100.490447
2581.000000	100.489241
2580.000000	100.494493
2579.000000	100.506627
2578.000000	100.526808
2577.000000	100.556055
2576.000000	100.593176
2575.000000	100.635858
2574.000000	100.683127
2573.000000	100.734323
2572.000000	100.787316
2571.000000	100.839715
2570.000000	100.890801
2569.000000	100.940285
2568.000000	100.986421
2567.000000	101.027882
2566.000000	101.066317
2565.000000	101.104670
2564.000000	101.144147
2563.000000	101.185074
2562.000000	101.229340
2561.000000	101.279235
2560.000000	101.334820
2559.000000	101.395025
2558.000000	101.459997
2557.000000	101.529922
2556.000000	101.602493
2555.000000	101.674001
2554.000000	101.742204
2553.000000	101.805852
2552.000000	101.862827
2551.000000	101.911578
2550.000000	101.953767
2549.000000	101.992835
2548.000000	102.030708
2547.000000	102.067699
2546.000000	102.104348
2545.000000	102.141141
2544.000000	102.177140
2543.000000	102.211540
2542.000000	102.245803
2541.000000	102.282025
2540.000000	102.320068
2539.000000	102.358095
2538.000000	102.394847
2537.000000	102.429285
2536.000000	102.459173
2535.000000	102.482647
2534.000000	102.500244
2533.000000	102.513622
2532.000000	102.523500
2531.000000	102.530821
2530.000000	102.538778
2529.000000	102.550951
2528.000000	102.568235
2527.000000	102.589450
2526.000000	102.613617
2525.000000	102.639379
2524.000000	102.663389
2523.000000	102.681907
2522.000000	102.693480
2521.000000	102.698018
2520.000000	102.694688
2519.000000	102.682631
2518.000000	102.662567
2517.000000	102.635685
2516.000000	102.601405
2515.000000	102.559004
2514.000000	102.510148
2513.000000	102.457873
2512.000000	102.404484
2511.000000	102.352162
2510.000000	102.304443
2509.000000	102.264342
2508.000000	102.231801
2507.000000	102.205010
2506.000000	102.183122
2505.000000	102.165198
2504.000000	102.147926
2503.000000	102.127433
2502.000000	102.102689
2501.000000	102.075452
2500.000000	102.047922
2499.000000	102.022822
2498.000000	102.004884
2497.000000	101.998856
2496.000000	102.006795
2495.000000	102.028575
2494.000000	102.063655
2493.000000	102.110499
2492.000000	102.164869
2491.000000	102.221962
2490.000000	102.279179
2489.000000	102.335151
2488.000000	102.388165
2487.000000	102.437676
2486.000000	102.486192
2485.000000	102.536834
2484.000000	102.589905
2483.000000	102.644159
2482.000000	102.699893
2481.000000	102.758287
2480.000000	102.818998
2479.000000	102.880952
2478.000000	102.944483
2477.000000	103.010016
2476.000000	103.075777
2475.000000	103.139193
2474.000000	103.199608
2473.000000	103.257116
2472.000000	103.309900
2471.000000	103.355064
2470.000000	103.391143
2469.000000	103.418151
2468.000000	103.435903
2467.000000	103.444977
2466.000000	103.448066
2465.000000	103.447835
2464.000000	103.444706
2463.000000	103.438052
2462.000000	103.428677
2461.000000	103.417916
2460.000000	103.405484
2459.000000	103.390843
2458.000000	103.375225
2457.000000	103.360248
2456.000000	103.345671
2455.000000	103.330756
2454.000000	103.316597
2453.000000	103.304686
2452.000000	103.294562
2451.000000	103.285346
2450.000000	103.278609
2449.000000	103.276970
2448.000000	103.281265
2447.000000	103.291587
2446.000000	103.309682
2445.000000	103.337778
2444.000000	103.375272
2443.000000	103.419397
2442.000000	103.468110
2441.000000	103.519730
2440.000000	103.571314
2439.000000	103.619939
2438.000000	103.665296
2437.000000	103.708681
2436.000000	103.750342
2435.000000	103.790163
2434.000000	103.829626
2433.000000	103.870367
2432.000000	103.911554
2431.000000	103.951292
2430.000000	103.989601
2429.000000	104.027438
2428.000000	104.063629
2427.000000	104.095397
2426.000000	104.121604
2425.000000	104.142819
2424.000000	104.159071
2423.000000	104.170031
2422.000000	104.176604
2421.000000	104.180139
2420.000000	104.180169
2419.000000	104.175574
2418.000000	104.167573
2417.000000	104.159323
2416.000000	104.153281
2415.000000	104.150970
2414.000000	104.154416
2413.000000	104.164856
2412.000000	104.180327
2411.000000	104.196928
2410.000000	104.212281
2409.000000	104.225606
2408.000000	104.235214
2407.000000	104.238734
2406.000000	104.235768
2405.000000	104.227840
2404.000000	104.215847
2403.000000	104.200070
2402.000000	104.181892
2401.000000	104.162876
2400.000000	104.141725
2399.000000	104.114425
2398.000000	104.077832
2397.000000	104.030038
2396.000000	103.967996
2395.000000	103.887752
2394.000000	103.787747
2393.000000	103.670583
2392.000000	103.540053
2391.000000	103.399745
2390.000000	103.254585
2389.000000	103.109525
2388.000000	102.967797
2387.000000	102.830357
2386.000000	102.699955
2385.000000	102.584031
2384.000000	102.488948
2383.000000	102.419259
2382.000000	102.377644
2381.000000	102.365561
2380.000000	102.381680
2379.000000	102.416140
2378.000000	102.457151
2377.000000	102.495468
2376.000000	102.522483
2375.000000	102.530074
2374.000000	102.514827
2373.000000	102.483783
2372.000000	102.447125
2371.000000	102.409523
2370.000000	102.369960
2369.000000	102.336371
2368.000000	102.317119
2367.000000	102.307957
2366.000000	102.301591
2365.000000	102.306413
2364.000000	102.332165
2363.000000	102.362500
2362.000000	102.387472
2361.000000	102.408994
2360.000000	102.435104
2359.000000	102.476810
2358.000000	102.514987
2357.000000	102.537445
2356.000000	102.517025
2355.000000	102.424973
2354.000000	102.267706
2353.000000	102.114513
2352.000000	102.094082
2351.000000	102.232541
2350.000000	102.455509
2349.000000	102.667330
2348.000000	102.819578
2347.000000	102.926910
2346.000000	102.971715
2345.000000	102.975156
2344.000000	102.951900
2343.000000	102.928009
2342.000000	102.933953
2341.000000	102.962036
2340.000000	103.006527
2339.000000	103.047986
2338.000000	103.103753
2337.000000	103.181429
2336.000000	103.290895
2335.000000	103.411041
2334.000000	103.534396
2333.000000	103.624558
2332.000000	103.687674
2331.000000	103.716835
2330.000000	103.754891
2329.000000	103.819811
2328.000000	103.896961
2327.000000	103.971240
2326.000000	104.009055
2325.000000	104.015002
2324.000000	103.979926
2323.000000	103.909697
2322.000000	103.817793
2321.000000	103.707551
2320.000000	103.603081
2319.000000	103.505473
2318.000000	103.431709
2317.000000	103.356535
2316.000000	103.267608
2315.000000	103.142833
2314.000000	102.994640
2313.000000	102.826574
2312.000000	102.651301
2311.000000	102.470888
2310.000000	102.291958
2309.000000	102.110332
2308.000000	101.922560
2307.000000	101.729137
2306.000000	101.539410
2305.000000	101.355460
2304.000000	101.179272
2303.000000	101.010704
2302.000000	100.861976
2301.000000	100.737003
2300.000000	100.638631
2299.000000	100.564063
2298.000000	100.514899
2297.000000	100.486572
2296.000000	100.470182
2295.000000	100.460054
2294.000000	100.453735
2293.000000	100.449687
2292.000000	100.439755
2291.000000	100.420634
2290.000000	100.391303
2289.000000	100.352767
2288.000000	100.302216
2287.000000	100.241876
2286.000000	100.177432
2285.000000	100.112917
2284.000000	100.047231
2283.000000	99.981409
2282.000000	99.922160
2281.000000	99.876175
2280.000000	99.847446
2279.000000	99.839552
2278.000000	99.858125
2277.000000	99.903062
2276.000000	99.969064
2275.000000	100.051859
2274.000000	100.152340
2273.000000	100.270381
2272.000000	100.401288
2271.000000	100.541136
2270.000000	100.689698
2269.000000	100.845154
2268.000000	101.002392
2267.000000	101.158407
2266.000000	101.314803
2265.000000	101.471727
2264.000000	101.624035
2263.000000	101.768323
2262.000000	101.904797
2261.000000	102.034589
2260.000000	102.156809
2259.000000	102.273999
2258.000000	102.393370
2257.000000	102.519182
2256.000000	102.651095
2255.000000	102.788348
2254.000000	102.934101
2253.000000	103.089002
2252.000000	103.250034
2251.000000	103.415117
2250.000000	103.585896
2249.000000	103.761975
2248.000000	103.939567
2247.000000	104.116100
2246.000000	104.291564
2245.000000	104.463462
2244.000000	104.625440
2243.000000	104.774013
2242.000000	104.910565
2241.000000	105.036308
2240.000000	105.149916
2239.000000	105.252389
2238.000000	105.347895
2237.000000	105.437894
2236.000000	105.519826
2235.000000	105.592772
2234.000000	105.659272
2233.000000	105.719898
2232.000000	105.771829
2231.000000	105.814485
2230.000000	105.851182
2229.000000	105.883569
2228.000000	105.910151
2227.000000	105.931120
2226.000000	105.949404
2225.000000	105.964920
2224.000000	105.973664
2223.000000	105.974015
2222.000000	105.968750
2221.000000	105.959959
2220.000000	105.947552
2219.000000	105.934378
2218.000000	105.926703
2217.000000	105.927787
2216.000000	105.935923
2215.000000	105.949959
2214.000000	105.971018
2213.000000	105.997523
2212.000000	106.024554
2211.000000	106.049904
2210.000000	106.075600
2209.000000	106.102443
2208.000000	106.128809
2207.000000	106.155748
2206.000000	106.186710
2205.000000	106.220533
2204.000000	106.250771
2203.000000	106.273857
2202.000000	106.292661
2201.000000	106.311246
2200.000000	106.332504
2199.000000	106.362324
2198.000000	106.408823
2197.000000	106.474558
2196.000000	106.554253
2195.000000	106.641555
2194.000000	106.732393
2193.000000	106.821031
2192.000000	106.900173
2191.000000	106.967233
2190.000000	107.025163
2189.000000	107.075645
2188.000000	107.117223
2187.000000	107.151033
2186.000000	107.181510
2185.000000	107.210040
2184.000000	107.233908
2183.000000	107.252986
2182.000000	107.270983
2181.000000	107.288689
2180.000000	107.302462
2179.000000	107.310833
2178.000000	107.316507
2177.000000	107.320304
2176.000000	107.319558
2175.000000	107.313897
2174.000000	107.306444
2173.000000	107.297996
2172.000000	107.286469
2171.000000	107.273403
2170.000000	107.264445
2169.000000	107.262012
2168.000000	107.263591
2167.000000	107.268353
2166.000000	107.278656
2165.000000	107.293595
2164.000000	107.308128
2163.000000	107.320477
2162.000000	107.333828
2161.000000	107.349354
2160.000000	107.364446
2159.000000	107.379221
2158.000000	107.397434
2157.000000	107.419125
2156.000000	107.439421
2155.000000	107.456524
2154.000000	107.474226
2153.000000	107.494896
2152.000000	107.517036
2151.000000	107.541444
2150.000000	107.572700
2149.000000	107.612251
2148.000000	107.656513
2147.000000	107.703529
2146.000000	107.754455
2145.000000	107.806796
2144.000000	107.853934
2143.000000	107.893400
2142.000000	107.928538
2141.000000	107.961223
2140.000000	107.989641
2139.000000	108.014286
2138.000000	108.038385
2137.000000	108.061165
2136.000000	108.078177
2135.000000	108.089867
2134.000000	108.102286
2133.000000	108.117865
2132.000000	108.133077
2131.000000	108.146544
2130.000000	108.161498
2129.000000	108.177952
2128.000000	108.189915
2127.000000	108.192795
2126.000000	108.186671
2125.000000	108.170254
2124.000000	108.139489
2123.000000	108.094550
2122.000000	108.041350
2121.000000	107.984158
2120.000000	107.923715
2119.000000	107.863520
2118.000000	107.810527
2117.000000	107.767520
2116.000000	107.731295
2115.000000	107.699882
2114.000000	107.674281
2113.000000	107.652129
2112.000000	107.627696
2111.000000	107.600320
2110.000000	107.575688
2109.000000	107.557218
2108.000000	107.543014
2107.000000	107.532532
2106.000000	107.528480
2105.000000	107.530335
2104.000000	107.533432
2103.000000	107.536121
2102.000000	107.541361
2101.000000	107.549496
2100.000000	107.557572
2099.000000	107.566691
2098.000000	107.582456
2097.000000	107.607193
2096.000000	107.637989
2095.000000	107.675045
2094.000000	107.722794
2093.000000	107.780736
2092.000000	107.842325
2091.000000	107.904883
2090.000000	107.972133
2089.000000	108.045640
2088.000000	108.122158
2087.000000	108.201303
2086.000000	108.286498
2085.000000	108.376579
2084.000000	108.465409
2083.000000	108.551245
2082.000000	108.637592
2081.000000	108.723894
2080.000000	108.804851
2079.000000	108.880373
2078.000000	108.956303
2077.000000	109.033880
2076.000000	109.107221
2075.000000	109.174165
2074.000000	109.238348
2073.000000	109.299409
2072.000000	109.352824
2071.000000	109.397914
2070.000000	109.439746
2069.000000	109.480345
2068.000000	109.516667
2067.000000	109.548910
2066.000000	109.582368
2065.000000	109.620019
2064.000000	109.660785
2063.000000	109.706067
2062.000000	109.758491
2061.000000	109.813957
2060.000000	109.864201
2059.000000	109.908196
2058.000000	109.951577
2057.000000	109.994367
2056.000000	110.030271
2055.000000	110.058523
2054.000000	110.085179
2053.000000	110.112105
2052.000000	110.136351
2051.000000	110.159012
2050.000000	110.186552
2049.000000	110.222012
2048.000000	110.262197
2047.000000	110.304637
2046.000000	110.351170
2045.000000	110.400664
2044.000000	110.446373
2043.000000	110.484619
2042.000000	110.518953
2041.000000	110.552403
2040.000000	110.583112
2039.000000	110.610641
2038.000000	110.637780
2037.000000	110.663755
2036.000000	110.684025
2035.000000	110.699931
2034.000000	110.719692
2033.000000	110.746747
2032.000000	110.777183
2031.000000	110.811510
2030.000000	110.856739
2029.000000	110.913897
2028.000000	110.973961
2027.000000	111.028915
2026.000000	111.079371
2025.000000	111.124850
2024.000000	111.160428
2023.000000	111.182202
2022.000000	111.193562
2021.000000	111.198843
2020.000000	111.196483
2019.000000	111.184945
2018.000000	111.169911
2017.000000	111.160036
2016.000000	111.160127
2015.000000	111.172407
2014.000000	111.196800
2013.000000	111.226056
2012.000000	111.248251
2011.000000	111.259684
2010.000000	111.268172
2009.000000	111.278697
2008.000000	111.285911
2007.000000	111.285876
2006.000000	111.284188
2005.000000	111.284107
2004.000000	111.281613
2003.000000	111.273726
2002.000000	111.266416
2001.000000	111.264177
2000.000000	111.263346
1999.000000	111.266587
1998.000000	111.279783
1997.000000	111.305099
1996.000000	111.340559
1995.000000	111.382706
1994.000000	111.424059
1993.000000	111.454736
1992.000000	111.472820
1991.000000	111.489691
1990.000000	111.516320
1989.000000	111.548529
1988.000000	111.573726
1987.000000	111.587343
1986.000000	111.596384
1985.000000	111.607224
1984.000000	111.619604
1983.000000	111.632936
1982.000000	111.650369
1981.000000	111.673605
1980.000000	111.701242
1979.000000	111.735441
1978.000000	111.774063
1977.000000	111.812666
1976.000000	111.851620
1975.000000	111.895792
1974.000000	111.944376
1973.000000	111.990929
1972.000000	112.033548
1971.000000	112.074434
1970.000000	112.109462
1969.000000	112.129728
1968.000000	112.134993
1967.000000	112.137100
1966.000000	112.148841
1965.000000	112.174673
1964.000000	112.211539
1963.000000	112.251003
1962.000000	112.283204
1961.000000	112.307109
1960.000000	112.335059
1959.000000	112.375993
1958.000000	112.418705
1957.000000	112.443712
1956.000000	112.446638
1955.000000	112.438343
1954.000000	112.425307
1953.000000	112.404995
1952.000000	112.376932
1951.000000	112.343904
1950.000000	112.310932
1949.000000	112.276029
1948.000000	112.235046
1947.000000	112.194222
1946.000000	112.161873
1945.000000	112.135015
1944.000000	112.104889
1943.000000	112.074104
1942.000000	112.060260
1941.000000	112.078224
1940.000000	112.128870
1939.000000	112.201004
1938.000000	112.275630
1937.000000	112.338127
1936.000000	112.391591
1935.000000	112.448123
1934.000000	112.507712
1933.000000	112.560347
1932.000000	112.601950
1931.000000	112.638107
1930.000000	112.680040
1929.000000	112.721413
1928.000000	112.751939
1927.000000	112.779546
1926.000000	112.814219
1925.000000	112.852316
1924.000000	112.868034
1923.000000	112.861268
1922.000000	112.865315
1921.000000	112.895230
1920.000000	112.929001
1919.000000	112.941501
1918.000000	112.934287
1917.000000	112.927884
1916.000000	112.929145
1915.000000	112.936919
1914.000000	112.947443
1913.000000	112.947239
1912.000000	112.923505
1911.000000	112.885642
1910.000000	112.857420
1909.000000	112.837957
1908.000000	112.813983
1907.000000	112.790994
1906.000000	112.781691
1905.000000	112.780366
1904.000000	112.752322
1903.000000	112.694311
1902.000000	112.638988
1901.000000	112.589447
1900.000000	112.521756
1899.000000	112.440171
1898.000000	112.374202
1897.000000	112.332862
1896.000000	112.288435
1895.000000	112.237009
1894.000000	112.216742
1893.000000	112.242520
1892.000000	112.280874
1891.000000	112.304135
1890.000000	112.321442
1889.000000	112.349754
1888.000000	112.388125
1887.000000	112.438503
1886.000000	112.508229
1885.000000	112.576616
1884.000000	112.608386
1883.000000	112.609595
1882.000000	112.619690
1881.000000	112.639414
1880.000000	112.638602
1879.000000	112.619022
1878.000000	112.610759
1877.000000	112.626053
1876.000000	112.643504
1875.000000	112.650109
1874.000000	112.669692
1873.000000	112.717894
1872.000000	112.770898
1871.000000	112.808544
1870.000000	112.837008
1869.000000	112.862657
1868.000000	112.880328
1867.000000	112.905081
1866.000000	112.968721
1865.000000	113.061969
1864.000000	113.134380
1863.000000	113.167479
1862.000000	113.200238
1861.000000	113.257982
1860.000000	113.317515
1859.000000	113.368783
1858.000000	113.444646
1857.000000	113.557429
1856.000000	113.670144
1855.000000	113.760023
1854.000000	113.849539
1853.000000	113.939692
1852.000000	114.000883
1851.000000	114.038320
1850.000000	114.068177
1849.000000	114.090247
1848.000000	114.094849
1847.000000	114.097412
1846.000000	114.118617
1845.000000	114.136294
1844.000000	114.131226
1843.000000	114.142953
1842.000000	114.210765
1841.000000	114.307261
1840.000000	114.387592
1839.000000	114.435720
1838.000000	114.471038
1837.000000	114.519761
1836.000000	114.572806
1835.000000	114.624587
1834.000000	114.688060
1833.000000	114.762375
1832.000000	114.833333
1831.000000	114.874839
1830.000000	114.864611
1829.000000	114.837293
1828.000000	114.843280
1827.000000	114.889937
1826.000000	114.953004
1825.000000	115.017013
1824.000000	115.087867
1823.000000	115.174814
1822.000000	115.278792
1821.000000	115.389962
1820.000000	115.486074
1819.000000	115.548242
1818.000000	115.597133
1817.000000	115.667262
1816.000000	115.737137
1815.000000	115.772507
1814.000000	115.785147
1813.000000	115.802257
1812.000000	115.813968
1811.000000	115.787651
1810.000000	115.760509
1809.000000	115.788564
1808.000000	115.846492
1807.000000	115.893078
1806.000000	115.946969
1805.000000	116.028035
1804.000000	116.096745
1803.000000	116.128205
1802.000000	116.160510
1801.000000	116.226350
1800.000000	116.300363
1799.000000	116.337956
1798.000000	116.359011
1797.000000	116.388041
1796.000000	116.397249
1795.000000	116.376632
1794.000000	116.359650
1793.000000	116.362285
1792.000000	116.363329
1791.000000	116.356551
1790.000000	116.388297
1789.000000	116.469846
1788.000000	116.546979
1787.000000	116.581076
1786.000000	116.606972
1785.000000	116.667474
1784.000000	116.738106
1783.000000	116.792200
1782.000000	116.829343
1781.000000	116.841470
1780.000000	116.841196
1779.000000	116.843254
1778.000000	116.868390
1777.000000	116.908571
1776.000000	116.946746
1775.000000	117.001598
1774.000000	117.083035
1773.000000	117.169638
1772.000000	117.252889
1771.000000	117.318798
1770.000000	117.359074
1769.000000	117.420076
1768.000000	117.533926
1767.000000	117.660624
1766.000000	117.759298
1765.000000	117.839417
1764.000000	117.921778
1763.000000	117.977815
1762.000000	117.973427
1761.000000	117.958910
1760.000000	117.991381
1759.000000	118.043439
1758.000000	118.082920
1757.000000	118.102371
1756.000000	118.143027
1755.000000	118.205753
1754.000000	118.232176
1753.000000	118.224491
1752.000000	118.246458
1751.000000	118.317186
1750.000000	118.383071
1749.000000	118.409276
1748.000000	118.406826
1747.000000	118.403109
1746.000000	118.378779
1745.000000	118.326579
1744.000000	118.290535
1743.000000	118.277249
1742.000000	118.267842
1741.000000	118.270482
1740.000000	118.290564
1739.000000	118.296817
1738.000000	118.267541
1737.000000	118.220247
1736.000000	118.198387
1735.000000	118.183013
1734.000000	118.170918
1733.000000	118.212845
1732.000000	118.278986
1731.000000	118.294331
1730.000000	118.260090
1729.000000	118.193722
1728.000000	118.124120
1727.000000	118.076296
1726.000000	118.031334
1725.000000	117.979503
1724.000000	117.922751
1723.000000	117.857503
1722.000000	117.822414
1721.000000	117.837442
1720.000000	117.858352
1719.000000	117.808065
1718.000000	117.716244
1717.000000	117.725058
1716.000000	117.795048
1715.000000	117.809519
1714.000000	117.821128
1713.000000	117.891054
1712.000000	117.951052
1711.000000	117.962149
1710.000000	118.001384
1709.000000	118.116290
1708.000000	118.256598
1707.000000	118.372040
1706.000000	118.487798
1705.000000	118.634804
1704.000000	118.747084
1703.000000	118.815801
1702.000000	118.964849
1701.000000	119.208192
1700.000000	119.412196
1699.000000	119.489897
1698.000000	119.536787
1697.000000	119.643095
1696.000000	119.767205
1695.000000	119.850027
1694.000000	119.936766
1693.000000	120.026950
1692.000000	120.087566
1691.000000	120.115043
1690.000000	120.127309
1689.000000	120.136984
1688.000000	120.165443
1687.000000	120.247691
1686.000000	120.387654
1685.000000	120.492208
1684.000000	120.538462
1683.000000	120.632293
1682.000000	120.750755
1681.000000	120.787601
1680.000000	120.785657
1679.000000	120.811804
1678.000000	120.849802
1677.000000	120.857567
1676.000000	120.850313
1675.000000	120.883261
1674.000000	120.920218
1673.000000	120.904566
1672.000000	120.885076
1671.000000	120.900618
1670.000000	120.910281
1669.000000	120.865477
1668.000000	120.811552
1667.000000	120.797616
1666.000000	120.776880
1665.000000	120.699526
1664.000000	120.556265
1663.000000	120.378212
1662.000000	120.191437
1661.000000	119.958121
1660.000000	119.706851
1659.000000	119.494713
1658.000000	119.274048
1657.000000	118.986211
1656.000000	118.676370
1655.000000	118.396599
1654.000000	117.908552
1653.000000	117.162743
1652.000000	116.480768
1651.000000	115.908097
1650.000000	115.228494
1649.000000	114.327877
1648.000000	113.030051
1647.000000	111.245739
1646.000000	109.173253
1645.000000	107.086958
1644.000000	105.035472
1643.000000	102.950353
1642.000000	100.830159
1641.000000	98.772970
1640.000000	96.991339
1639.000000	95.645034
1638.000000	94.780081
1637.000000	94.394227
1636.000000	94.541707
1635.000000	95.242547
1634.000000	96.283595
1633.000000	97.447994
1632.000000	98.667403
1631.000000	99.957107
1630.000000	101.300898
1629.000000	102.632059
1628.000000	103.889005
1627.000000	105.047063
1626.000000	106.091440
1625.000000	107.033389
1624.000000	107.926826
1623.000000	108.805173
1622.000000	109.617826
1621.000000	110.293069
1620.000000	110.881757
1619.000000	111.496462
1618.000000	112.161252
1617.000000	112.806012
1616.000000	113.392876
1615.000000	113.912928
1614.000000	114.306660
1613.000000	114.541654
1612.000000	114.665474
1611.000000	114.725620
1610.000000	114.659282
1609.000000	114.344228
1608.000000	113.740378
1607.000000	112.841417
1606.000000	111.518570
1605.000000	109.574366
1604.000000	106.974184
1603.000000	103.834465
1602.000000	100.306671
1601.000000	96.544853
1600.000000	92.596556
1599.000000	88.237555
1598.000000	82.951340
1597.000000	76.309614
1596.000000	68.478601
1595.000000	60.315858
1594.000000	52.928878
1593.000000	47.091202
1592.000000	43.081395
1591.000000	40.836006
1590.000000	40.040200
1589.000000	40.154725
1588.000000	40.609503
1587.000000	40.991509
1586.000000	41.023539
1585.000000	40.589062
1584.000000	39.847151
1583.000000	39.167477
1582.000000	38.822770
1581.000000	38.841407
1580.000000	39.166369
1579.000000	39.772528
1578.000000	40.562430
1577.000000	41.281827
1576.000000	41.714970
1575.000000	41.925578
1574.000000	42.068094
1573.000000	42.194745
1572.000000	42.428556
1571.000000	43.060821
1570.000000	44.367989
1569.000000	46.315589
1568.000000	48.684771
1567.000000	51.380926
1566.000000	54.326811
1565.000000	57.273016
1564.000000	59.928031
1563.000000	62.221760
1562.000000	64.304080
1561.000000	66.436620
1560.000000	68.917325
1559.000000	71.878946
1558.000000	74.837018
1557.000000	77.257725
1556.000000	79.243215
1555.000000	81.128796
1554.000000	82.969580
1553.000000	84.620284
1552.000000	86.038525
1551.000000	87.306113
1550.000000	88.491234
1549.000000	89.579691
1548.000000	90.556549
1547.000000	91.481942
1546.000000	92.396917
1545.000000	93.262496
1544.000000	94.049780
1543.000000	94.792010
1542.000000	95.537295
1541.000000	96.260816
1540.000000	96.900112
1539.000000	97.492104
1538.000000	98.069665
1537.000000	98.592669
1536.000000	99.067298
1535.000000	99.541530
1534.000000	99.995037
1533.000000	100.392507
1532.000000	100.767775
1531.000000	101.155105
1530.000000	101.564881
1529.000000	101.966066
1528.000000	102.298230
1527.000000	102.575973
1526.000000	102.859671
1525.000000	103.158265
1524.000000	103.445336
1523.000000	103.699708
1522.000000	103.906775
1521.000000	104.081690
1520.000000	104.264276
1519.000000	104.470784
1518.000000	104.668462
1517.000000	104.818427
1516.000000	104.921802
1515.000000	105.031673
1514.000000	105.183075
1513.000000	105.372093
1512.000000	105.550899
1511.000000	105.674002
1510.000000	105.764943
1509.000000	105.884900
1508.000000	106.004009
1507.000000	106.052485
1506.000000	106.143358
1505.000000	106.344555
1504.000000	106.542595
1503.000000	106.679069
1502.000000	106.793003
1501.000000	106.921236
1500.000000	107.063821
1499.000000	107.194938
1498.000000	107.329146
1497.000000	107.552472
1496.000000	107.887177
1495.000000	108.259047
1494.000000	108.627185
1493.000000	108.987857
1492.000000	109.314945
1491.000000	109.570106
1490.000000	109.782568
1489.000000	110.028759
1488.000000	110.297940
1487.000000	110.548412
1486.000000	110.821848
1485.000000	111.106523
1484.000000	111.356989
1483.000000	111.591701
1482.000000	111.834924
1481.000000	112.084556
1480.000000	112.316369
1479.000000	112.542595
1478.000000	112.786039
1477.000000	113.028828
1476.000000	113.221681
1475.000000	113.391582
1474.000000	113.609731
1473.000000	113.865807
1472.000000	114.121642
1471.000000	114.356107
1470.000000	114.551202
1469.000000	114.672439
1468.000000	114.678336
1467.000000	114.531410
1466.000000	114.145297
1465.000000	113.360295
1464.000000	112.089993
1463.000000	110.319086
1462.000000	108.002696
1461.000000	105.108236
1460.000000	101.652405
1459.000000	97.628470
1458.000000	92.972082
1457.000000	88.106542
1456.000000	84.039186
1455.000000	81.163397
1454.000000	78.939995
1453.000000	76.879018
1452.000000	75.003747
1451.000000	73.632089
1450.000000	73.051052
1449.000000	73.387971
1448.000000	74.572149
1447.000000	76.303572
1446.000000	78.240076
1445.000000	80.275200
1444.000000	82.510323
1443.000000	84.941823
1442.000000	87.383811
1441.000000	89.647935
1440.000000	91.649866
1439.000000	93.384190
1438.000000	94.926098
1437.000000	96.433536
1436.000000	97.980793
1435.000000	99.450269
1434.000000	100.746131
1433.000000	101.936515
1432.000000	103.077557
1431.000000	104.098509
1430.000000	104.926507
1429.000000	105.617387
1428.000000	106.239112
1427.000000	106.790239
1426.000000	107.255381
1425.000000	107.662053
1424.000000	108.076297
1423.000000	108.479324
1422.000000	108.818350
1421.000000	109.113486
1420.000000	109.403268
1419.000000	109.656495
1418.000000	109.861222
1417.000000	110.113763
1416.000000	110.453837
1415.000000	110.803753
1414.000000	111.083995
1413.000000	111.310116
1412.000000	111.540484
1411.000000	111.754463
1410.000000	111.900437
1409.000000	111.999486
1408.000000	112.063647
1407.000000	112.022189
1406.000000	111.773079
1405.000000	111.259088
1404.000000	110.510902
1403.000000	109.588598
1402.000000	108.568073
1401.000000	107.554743
1400.000000	106.643726
1399.000000	105.873117
1398.000000	105.245223
1397.000000	104.818266
1396.000000	104.739709
1395.000000	105.161035
1394.000000	106.055934
1393.000000	107.208703
1392.000000	108.385177
1391.000000	109.417865
1390.000000	110.230594
1389.000000	110.864905
1388.000000	111.446076
1387.000000	112.075753
1386.000000	112.745337
1385.000000	113.366137
1384.000000	113.857919
1383.000000	114.172080
1382.000000	114.316605
1381.000000	114.368135
1380.000000	114.408299
1379.000000	114.468447
1378.000000	114.528380
1377.000000	114.540129
1376.000000	114.431324
1375.000000	114.106080
1374.000000	113.462928
1373.000000	112.428286
1372.000000	110.929845
1371.000000	108.846185
1370.000000	106.061281
1369.000000	102.664029
1368.000000	99.126031
1367.000000	96.132277
1366.000000	94.174522
1365.000000	93.331473
1364.000000	93.384737
1363.000000	94.083921
1362.000000	95.323255
1361.000000	97.108083
1360.000000	99.373071
1359.000000	101.882569
1358.000000	104.309206
1357.000000	106.390496
1356.000000	108.030701
1355.000000	109.275476
1354.000000	110.230806
1353.000000	111.008285
1352.000000	111.679151
1351.000000	112.270741
1350.000000	112.788592
1349.000000	113.235397
1348.000000	113.628877
1347.000000	113.981058
1346.000000	114.292100
1345.000000	114.567033
1344.000000	114.818474
1343.000000	115.047171
1342.000000	115.240424
1341.000000	115.397024
1340.000000	115.540024
1339.000000	115.696897
1338.000000	115.874091
1337.000000	116.065686
1336.000000	116.264742
1335.000000	116.458850
1334.000000	116.634807
1333.000000	116.791517
1332.000000	116.935307
1331.000000	117.062595
1330.000000	117.157203
1329.000000	117.206964
1328.000000	117.200789
1327.000000	117.108697
1326.000000	116.866786
1325.000000	116.378179
1324.000000	115.531007
1323.000000	114.203398
1322.000000	112.309722
1321.000000	109.891777
1320.000000	107.168274
1319.000000	104.474773
1318.000000	102.104598
1317.000000	100.187275
1316.000000	98.725297
1315.000000	97.740969
1314.000000	97.338389
1313.000000	97.600355
1312.000000	98.427782
1311.000000	99.515057
1310.000000	100.551366
1309.000000	101.448680
1308.000000	102.364728
1307.000000	103.519315
1306.000000	104.988612
1305.000000	106.659988
1304.000000	108.331024
1303.000000	109.817113
1302.000000	111.014071
1301.000000	111.912660
1300.000000	112.554450
1299.000000	112.974963
1298.000000	113.187221
1297.000000	113.195201
1296.000000	113.000096
1295.000000	112.579130
1294.000000	111.890739
1293.000000	110.907950
1292.000000	109.635589
1291.000000	108.121704
1290.000000	106.444955
1289.000000	104.662850
1288.000000	102.723419
1287.000000	100.432012
1286.000000	97.597512
1285.000000	94.284369
1284.000000	90.928073
1283.000000	88.190267
1282.000000	86.661369
1281.000000	86.600245
1280.000000	87.880390
1279.000000	90.093503
1278.000000	92.710464
1277.000000	95.254589
1276.000000	97.366844
1275.000000	98.806085
1274.000000	99.516226
1273.000000	99.744133
1272.000000	100.015370
1271.000000	100.839911
1270.000000	102.372055
1269.000000	104.353649
1268.000000	106.368013
1267.000000	108.124726
1266.000000	109.549997
1265.000000	110.704759
1264.000000	111.670146
1263.000000	112.493006
1262.000000	113.192366
1261.000000	113.788548
1260.000000	114.308850
1259.000000	114.770838
1258.000000	115.182196
1257.000000	115.552133
1256.000000	115.892883
1255.000000	116.209628
1254.000000	116.500131
1253.000000	116.768761
1252.000000	117.025402
1251.000000	117.272078
1250.000000	117.503186
1249.000000	117.718256
1248.000000	117.923594
1247.000000	118.118146
1246.000000	118.292597
1245.000000	118.445745
1244.000000	118.586119
1243.000000	118.717394
1242.000000	118.836826
1241.000000	118.949014
1240.000000	119.066379
1239.000000	119.193616
1238.000000	119.325767
1237.000000	119.460827
1236.000000	119.598757
1235.000000	119.728140
1234.000000	119.827472
1233.000000	119.882814
1232.000000	119.888860
1231.000000	119.832178
1230.000000	119.692875
1229.000000	119.454071
1228.000000	119.098981
1227.000000	118.588294
1226.000000	117.846842
1225.000000	116.780577
1224.000000	115.273619
1223.000000	113.203627
1222.000000	110.491801
1221.000000	107.158632
1220.000000	103.360442
1219.000000	99.344873
1218.000000	95.367875
1217.000000	91.620891
1216.000000	88.193919
1215.000000	85.082633
1214.000000	82.235620
1213.000000	79.620348
1212.000000	77.258720
1211.000000	75.209509
1210.000000	73.504957
1209.000000	72.149613
1208.000000	71.160542
1207.000000	70.566929
1206.000000	70.389345
1205.000000	70.606906
1204.000000	71.165441
1203.000000	71.989575
1202.000000	72.994347
1201.000000	74.150926
1200.000000	75.514004
1199.000000	77.178738
1198.000000	79.205092
1197.000000	81.576866
1196.000000	84.222303
1195.000000	87.026316
1194.000000	89.849178
1193.000000	92.569900
1192.000000	95.114219
1191.000000	97.439296
1190.000000	99.516033
1189.000000	101.338203
1188.000000	102.923147
1187.000000	104.294935
1186.000000	105.461623
1185.000000	106.430642
1184.000000	107.224560
1183.000000	107.862657
1182.000000	108.355672
1181.000000	108.707380
1180.000000	108.922129
1179.000000	109.005578
1178.000000	108.966296
1177.000000	108.834514
1176.000000	108.657116
1175.000000	108.475253
1174.000000	108.317157
1173.000000	108.210439
1172.000000	108.186436
1171.000000	108.263714
1170.000000	108.440037
1169.000000	108.705245
1168.000000	109.048109
1167.000000	109.438883
1166.000000	109.822592
1165.000000	110.142035
1164.000000	110.361424
1163.000000	110.474531
1162.000000	110.511963
1161.000000	110.546010
1160.000000	110.663624
1159.000000	110.914417
1158.000000	111.290131
1157.000000	111.754886
1156.000000	112.279972
1155.000000	112.844598
1154.000000	113.425266
1153.000000	114.000361
1152.000000	114.549283
1151.000000	115.038310
1150.000000	115.424375
1149.000000	115.686869
1148.000000	115.839965
1147.000000	115.912167
1146.000000	115.927811
1145.000000	115.905261
1144.000000	115.856532
1143.000000	115.764765
1142.000000	115.580409
1141.000000	115.251150
1140.000000	114.732819
1139.000000	113.984443
1138.000000	112.944648
1137.000000	111.534125
1136.000000	109.668180
1135.000000	107.227281
1134.000000	104.068924
1133.000000	100.052192
1132.000000	95.092737
1131.000000	89.241612
1130.000000	82.740263
1129.000000	76.054687
1128.000000	69.826938
1127.000000	64.707371
1126.000000	61.126847
1125.000000	59.196418
1124.000000	58.725631
1123.000000	59.292372
1122.000000	60.327479
1121.000000	61.220944
1120.000000	61.472883
1119.000000	60.749706
1118.000000	58.929678
1117.000000	56.260064
1116.000000	53.482895
1115.000000	51.692276
1114.000000	51.830129
1113.000000	54.204007
1112.000000	58.408836
1111.000000	63.582634
1110.000000	68.770390
1109.000000	73.202801
1108.000000	76.428232
1107.000000	78.294527
1106.000000	78.852104
1105.000000	78.302047
1104.000000	77.063497
1103.000000	75.832245
1102.000000	75.404199
1101.000000	76.306960
1100.000000	78.535746
1099.000000	81.625339
1098.000000	84.978850
1097.000000	88.163371
1096.000000	90.971773
1095.000000	93.343792
1094.000000	95.305021
1093.000000	96.943481
1092.000000	98.367653
1091.000000	99.662722
1090.000000	100.888560
1089.000000	102.101533
1088.000000	103.352447
1087.000000	104.651053
1086.000000	105.966578
1085.000000	107.254547
1084.000000	108.465991
1083.000000	109.550899
1082.000000	110.474386
1081.000000	111.239087
1080.000000	111.869237
1079.000000	112.376250
1078.000000	112.765702
1077.000000	113.049351
1076.000000	113.234431
1075.000000	113.303701
1074.000000	113.215127
1073.000000	112.934015
1072.000000	112.415289
1071.000000	111.580561
1070.000000	110.324949
1069.000000	108.510896
1068.000000	105.981948
1067.000000	102.546197
1066.000000	98.027904
1065.000000	92.385084
1064.000000	85.780806
1063.000000	78.619697
1062.000000	71.453819
1061.000000	64.796298
1060.000000	58.917436
1059.000000	53.742536
1058.000000	48.943991
1057.000000	44.268744
1056.000000	39.897865
1055.000000	36.491119
1054.000000	34.925329
1053.000000	35.804365
1052.000000	39.140378
1051.000000	44.351184
1050.000000	50.492392
1049.000000	56.684492
1048.000000	62.364924
1047.000000	67.311637
1046.000000	71.540862
1045.000000	75.181052
1044.000000	78.372778
1043.000000	81.199825
1042.000000	83.685867
1041.000000	85.833909
1040.000000	87.675442
1039.000000	89.252592
1038.000000	90.607022
1037.000000	91.790069
1036.000000	92.849334
1035.000000	93.818567
1034.000000	94.711796
1033.000000	95.543047
1032.000000	96.331942
1031.000000	97.083609
1030.000000	97.792138
1029.000000	98.457541
1028.000000	99.088234
1027.000000	99.687711
1026.000000	100.254214
1025.000000	100.797280
1024.000000	101.332274
1023.000000	101.859222
1022.000000	102.365985
1021.000000	102.843302
1020.000000	103.283312
1019.000000	103.657660
1018.000000	103.913437
1017.000000	103.993555
1016.000000	103.818026
1015.000000	103.274666
1014.000000	102.230659
1013.000000	100.563588
1012.000000	98.204645
1011.000000	95.156419
1010.000000	91.536810
1009.000000	87.593821
1008.000000	83.664682
1007.000000	80.134867
1006.000000	77.438480
1005.000000	76.003721
1004.000000	76.064290
1003.000000	77.443640
1002.000000	79.533566
1001.000000	81.573390
1000.000000	82.954661
999.000000	83.317954
998.000000	82.521341
997.000000	80.676508
996.000000	78.234895
995.000000	75.907961
994.000000	74.348212
993.000000	73.834312
992.000000	74.235180
991.000000	75.246208
990.000000	76.649881
989.000000	78.398653
988.000000	80.525581
987.000000	82.984049
986.000000	85.601961
985.000000	88.162433
984.000000	90.501852
983.000000	92.546975
982.000000	94.293629
981.000000	95.778455
980.000000	97.049989
979.000000	98.150315
978.000000	99.102832
977.000000	99.927294
976.000000	100.645493
975.000000	101.270418
974.000000	101.812128
973.000000	102.284709
972.000000	102.709308
971.000000	103.102824
970.000000	103.473223
969.000000	103.831457
968.000000	104.190007
967.000000	104.551337
966.000000	104.906361
965.000000	105.246204
964.000000	105.567738
963.000000	105.865052
962.000000	106.129975
961.000000	106.363007
960.000000	106.572381
959.000000	106.762963
958.000000	106.934371
957.000000	107.091094
956.000000	107.242914
955.000000	107.393249
954.000000	107.539305
953.000000	107.682897
952.000000	107.830939
951.000000	107.984909
950.000000	108.139926
949.000000	108.294537
948.000000	108.449970
947.000000	108.600557
946.000000	108.736306
945.000000	108.853917
944.000000	108.955744
943.000000	109.039766
942.000000	109.102827
941.000000	109.152646
940.000000	109.203668
939.000000	109.262847
938.000000	109.330231
937.000000	109.410915
936.000000	109.512900
935.000000	109.634262
934.000000	109.764921
933.000000	109.900291
932.000000	110.041098
931.000000	110.180958
930.000000	110.307301
929.000000	110.414011
928.000000	110.501975
927.000000	110.569413
926.000000	110.614887
925.000000	110.647096
924.000000	110.679615
923.000000	110.717297
922.000000	110.758849
921.000000	110.809521
920.000000	110.878225
919.000000	110.964953
918.000000	111.063215
917.000000	111.171681
916.000000	111.290142
915.000000	111.408085
914.000000	111.511161
913.000000	111.596522
912.000000	111.668957
911.000000	111.726856
910.000000	111.765690
909.000000	111.791292
908.000000	111.815798
907.000000	111.843795
906.000000	111.876153
905.000000	111.921589
904.000000	111.988810
903.000000	112.071496
902.000000	112.153513
901.000000	112.224056
900.000000	112.270338
899.000000	112.258656
898.000000	112.142876
897.000000	111.891309
896.000000	111.509877
895.000000	111.047226
894.000000	110.572101
893.000000	110.115606
892.000000	109.614601
891.000000	108.950767
890.000000	108.090440
889.000000	107.175262
888.000000	106.429787
887.000000	105.987470
886.000000	105.829978
885.000000	105.877176
884.000000	106.078043
883.000000	106.385190
882.000000	106.714304
881.000000	106.987075
880.000000	107.209801
879.000000	107.479114
878.000000	107.895868
877.000000	108.484901
876.000000	109.178571
875.000000	109.863515
874.000000	110.450803
873.000000	110.916463
872.000000	111.286329
871.000000	111.591211
870.000000	111.845784
869.000000	112.053004
868.000000	112.206838
867.000000	112.283508
866.000000	112.249952
865.000000	112.093293
864.000000	111.834205
863.000000	111.521988
862.000000	111.225677
861.000000	111.019899
860.000000	110.954009
859.000000	111.025725
858.000000	111.191825
857.000000	111.406612
856.000000	111.644877
855.000000	111.893611
854.000000	112.145723
853.000000	112.401728
852.000000	112.662358
851.000000	112.916137
850.000000	113.144237
849.000000	113.336108
848.000000	113.489232
847.000000	113.598394
846.000000	113.658782
845.000000	113.678713
844.000000	113.674383
843.000000	113.656193
842.000000	113.632559
841.000000	113.621100
840.000000	113.640935
839.000000	113.695702
838.000000	113.777509
837.000000	113.883095
836.000000	114.011098
835.000000	114.147519
834.000000	114.270687
833.000000	114.369019
832.000000	114.440522
831.000000	114.479175
830.000000	114.478924
829.000000	114.448419
828.000000	114.406756
827.000000	114.367080
826.000000	114.337424
825.000000	114.331625
824.000000	114.360970
823.000000	114.418909
822.000000	114.491369
821.000000	114.577222
820.000000	114.680840
819.000000	114.791508
818.000000	114.887799
817.000000	114.957305
816.000000	114.994121
815.000000	114.983863
814.000000	114.908128
813.000000	114.756467
812.000000	114.517428
811.000000	114.165250
810.000000	113.687805
809.000000	113.136472
808.000000	112.630480
807.000000	112.297079
806.000000	112.203501
805.000000	112.331351
804.000000	112.597368
803.000000	112.898279
802.000000	113.152595
801.000000	113.316190
800.000000	113.364927
799.000000	113.276172
798.000000	113.030411
797.000000	112.619109
796.000000	112.033380
795.000000	111.256560
794.000000	110.285396
793.000000	109.151587
792.000000	107.922134
791.000000	106.686018
790.000000	105.548062
789.000000	104.614520
788.000000	103.960771
787.000000	103.606075
786.000000	103.522814
785.000000	103.659779
784.000000	103.943612
783.000000	104.278904
782.000000	104.569723
781.000000	104.751841
780.000000	104.804940
779.000000	104.750627
778.000000	104.658443
777.000000	104.635300
776.000000	104.779611
775.000000	105.135538
774.000000	105.689611
773.000000	106.398233
772.000000	107.203683
771.000000	108.041204
770.000000	108.857179
769.000000	109.620633
768.000000	110.308871
767.000000	110.892272
766.000000	111.348723
765.000000	111.680447
764.000000	111.904101
763.000000	112.035029
762.000000	112.095885
761.000000	112.125889
760.000000	112.161961
759.000000	112.220443
758.000000	112.307477
757.000000	112.433315
756.000000	112.600112
755.000000	112.789175
754.000000	112.977045
753.000000	113.152131
752.000000	113.302114
751.000000	113.401622
750.000000	113.429769
749.000000	113.387304
748.000000	113.280957
747.000000	113.106827
746.000000	112.866623
745.000000	112.583496
744.000000	112.284462
743.000000	111.981577
742.000000	111.686406
741.000000	111.424708
740.000000	111.217788
739.000000	111.064775
738.000000	110.957490
737.000000	110.890660
736.000000	110.837747
735.000000	110.738267
734.000000	110.533360
733.000000	110.200643
732.000000	109.743823
731.000000	109.179848
730.000000	108.559944
729.000000	107.976616
728.000000	107.521885
727.000000	107.246653
726.000000	107.170188
725.000000	107.302745
724.000000	107.628335
723.000000	108.088278
722.000000	108.617411
721.000000	109.183516
720.000000	109.767239
719.000000	110.325414
718.000000	110.806713
717.000000	111.184873
716.000000	111.450116
715.000000	111.590136
714.000000	111.607568
713.000000	111.537513
712.000000	111.422955
711.000000	111.290308
710.000000	111.169134
709.000000	111.106570
708.000000	111.135607
707.000000	111.249930
706.000000	111.428930
705.000000	111.666279
704.000000	111.946585
703.000000	112.219376
702.000000	112.437251
701.000000	112.591076
700.000000	112.678597
699.000000	112.680301
698.000000	112.591502
697.000000	112.450603
696.000000	112.296618
695.000000	112.127586
694.000000	111.949014
693.000000	111.810275
692.000000	111.748190
691.000000	111.746109
690.000000	111.784335
689.000000	111.889797
688.000000	112.074376
687.000000	112.271836
686.000000	112.414893
685.000000	112.509072
684.000000	112.568066
683.000000	112.552871
682.000000	112.442953
681.000000	112.296425
680.000000	112.165794
679.000000	112.031336
678.000000	111.895459
677.000000	111.819389
676.000000	111.835051
675.000000	111.929554
674.000000	112.098075
673.000000	112.387910
672.000000	112.861404
671.000000	113.529622
670.000000	114.339221
669.000000	114.989796
668.000000	114.972908
667.000000	114.440473
666.000000	113.958862
665.000000	113.591566
664.000000	113.278814
663.000000	113.042905
662.000000	112.898961
661.000000	112.814561
660.000000	112.755488
659.000000	112.731224
658.000000	112.761090
657.000000	112.815136
656.000000	112.861176
655.000000	112.942534
654.000000	113.075614
653.000000	113.192540
652.000000	113.254584
651.000000	113.295968
650.000000	113.318916
649.000000	113.257569
648.000000	113.096120
647.000000	112.907246
646.000000	112.737229
645.000000	112.564653
644.000000	112.392540
643.000000	112.283202
642.000000	112.270716
641.000000	112.314477
640.000000	112.380288
639.000000	112.485162
638.000000	112.624872
637.000000	112.744651
636.000000	112.815398
635.000000	112.860587
634.000000	112.888603
633.000000	112.868226
632.000000	112.790133
631.000000	112.691280
630.000000	112.592542
629.000000	112.470918
628.000000	112.320717
627.000000	112.182102
626.000000	112.085151
625.000000	112.025130
624.000000	112.004805
623.000000	112.049298
622.000000	112.157765
621.000000	112.286841
620.000000	112.399637
619.000000	112.486655
618.000000	112.534686
617.000000	112.519842
616.000000	112.442501
615.000000	112.327856
614.000000	112.184002
613.000000	112.003803
612.000000	111.809118
611.000000	111.647117
610.000000	111.538747
609.000000	111.466577
608.000000	111.419430
607.000000	111.404208
606.000000	111.408003
605.000000	111.401527
604.000000	111.376315
603.000000	111.339782
602.000000	111.275050
601.000000	111.143560
600.000000	110.926710
599.000000	110.628338
598.000000	110.237102
597.000000	109.727787
596.000000	109.106281
595.000000	108.412341
594.000000	107.661124
593.000000	106.801849
592.000000	105.732694
591.000000	104.367124
590.000000	102.746123
589.000000	101.139083
588.000000	99.975718
587.000000	99.562769
586.000000	99.833953
585.000000	100.441523
584.000000	101.116343
583.000000	101.837424
582.000000	102.666795
581.000000	103.570446
580.000000	104.440991
579.000000	105.195888
578.000000	105.787090
577.000000	106.190158
576.000000	106.436284
575.000000	106.606177
574.000000	106.750696
573.000000	106.862550
572.000000	106.938084
571.000000	107.004021
570.000000	107.065373
569.000000	107.076417
568.000000	106.994098
567.000000	106.797144
566.000000	106.430630
565.000000	105.792376
564.000000	104.809877
563.000000	103.517519
562.000000	102.044501
561.000000	100.562165
560.000000	99.237740
559.000000	98.163647
558.000000	97.294809
557.000000	96.524605
556.000000	95.879162
555.000000	95.572831
554.000000	95.829727
553.000000	96.685856
552.000000	97.980866
551.000000	99.457260
550.000000	100.835307
549.000000	101.907903
548.000000	102.625208
547.000000	103.062369
546.000000	103.302873
545.000000	103.391948
544.000000	103.381292
543.000000	103.339168
542.000000	103.296132
541.000000	103.228181
540.000000	103.121188
539.000000	102.997101
538.000000	102.866683
537.000000	102.712743
536.000000	102.538588
535.000000	102.377673
534.000000	102.238899
533.000000	102.095360
532.000000	101.933851
531.000000	101.776676
530.000000	101.630989
529.000000	101.460861
528.000000	101.229120
527.000000	100.929605
526.000000	100.551052
525.000000	100.064212
524.000000	99.465136
523.000000	98.780144
522.000000	98.026538
521.000000	97.210181
520.000000	96.370847
519.000000	95.574352
518.000000	94.836632
517.000000	94.110744
516.000000	93.376238
515.000000	92.678562
514.000000	92.066351
513.000000	91.562253
512.000000	91.214638
511.000000	91.115228
510.000000	91.313181
509.000000	91.759884
508.000000	92.382686
507.000000	93.154218
506.000000	94.054769
505.000000	95.039660
504.000000	96.082444
503.000000	97.189840
502.000000	98.329717
501.000000	99.403522
500.000000	100.329975
499.000000	101.102923
498.000000	101.736806
497.000000	102.227828
496.000000	102.587183
495.000000	102.858027
494.000000	103.078582
493.000000	103.249275
492.000000	103.375346
491.000000	103.491346
490.000000	103.610946
489.000000	103.707318
488.000000	103.757249
487.000000	103.771222
486.000000	103.738721
485.000000	103.578393
484.000000	103.186936
483.000000	102.506899
482.000000	101.535984
481.000000	100.327866
480.000000	99.029651
479.000000	97.847631
478.000000	96.908538
477.000000	96.192888
476.000000	95.623975
475.000000	95.168288
474.000000	94.817143
473.000000	94.576218
472.000000	94.535557
471.000000	94.848388
470.000000	95.570932
469.000000	96.602644
468.000000	97.810907
467.000000	99.098992
466.000000	100.356472
465.000000	101.459934
464.000000	102.342644
463.000000	103.030960
462.000000	103.578150
461.000000	103.997576
460.000000	104.284458
459.000000	104.458748
458.000000	104.561908
457.000000	104.643210
456.000000	104.752173
455.000000	104.915209
454.000000	105.118064
453.000000	105.322902
452.000000	105.516038
451.000000	105.709011
450.000000	105.882526
449.000000	105.990617
448.000000	106.026297
447.000000	106.029660
446.000000	106.016245
445.000000	105.956051
444.000000	105.835508
443.000000	105.701927
442.000000	105.605053
441.000000	105.538613
440.000000	105.480881
439.000000	105.435739
438.000000	105.405437
437.000000	105.372137
436.000000	105.339579
435.000000	105.333916
434.000000	105.325276
433.000000	105.214848
432.000000	104.938475
431.000000	104.536268
430.000000	104.088967
429.000000	103.628653
428.000000	103.180699
427.000000	102.819490
426.000000	102.580779
425.000000	102.399350
424.000000	102.238698
423.000000	102.186644
422.000000	102.301209
421.000000	102.478910
420.000000	102.597504
419.000000	102.740838
418.000000	103.081634
417.000000	103.559515
416.000000	104.006441
415.000000	104.367643
414.000000	104.628604
413.000000	104.725952
412.000000	104.621230
411.000000	104.389761
410.000000	104.148039
409.000000	103.923085
408.000000	103.713722
407.000000	103.593311
406.000000	103.612399
405.000000	103.686046
404.000000	103.739132
403.000000	103.817661
402.000000	103.982340
401.000000	104.132846
400.000000	104.165968
