PE IR       SUBTECH     SPECTRUM    ASCII       PEDS        4.00        
   -1
23ms195-cis.asc
24/10/17
15:17:03.00
24/10/17
15:17:03.00
Administrator
Sample 1287 By Administrator Date Thursday, October 17 2024
400.000000
#HDR
-1
-1
#GR
cm-1
%T
1.0
0.0
4000.000000
-1.000000
3601
8
89.379891
27.982665
#DATA
4000.000000	72.969048
3999.000000	72.956468
3998.000000	72.947361
3997.000000	72.940429
3996.000000	72.933814
3995.000000	72.927097
3994.000000	72.921335
3993.000000	72.917211
3992.000000	72.913806
3991.000000	72.909778
3990.000000	72.905206
3989.000000	72.901673
3988.000000	72.900863
3987.000000	72.903638
3986.000000	72.910251
3985.000000	72.920449
3984.000000	72.933136
3983.000000	72.946588
3982.000000	72.959562
3981.000000	72.972212
3980.000000	72.985764
3979.000000	73.001251
3978.000000	73.018732
3977.000000	73.037610
3976.000000	73.057506
3975.000000	73.078105
3974.000000	73.099147
3973.000000	73.120960
3972.000000	73.144308
3971.000000	73.169727
3970.000000	73.196972
3969.000000	73.225692
3968.000000	73.255464
3967.000000	73.285861
3966.000000	73.316385
3965.000000	73.346563
3964.000000	73.376304
3963.000000	73.405826
3962.000000	73.436199
3961.000000	73.468719
3960.000000	73.503312
3959.000000	73.538415
3958.000000	73.572376
3957.000000	73.605713
3956.000000	73.639702
3955.000000	73.674849
3954.000000	73.710383
3953.000000	73.744057
3952.000000	73.773214
3951.000000	73.796287
3950.000000	73.815240
3949.000000	73.834788
3948.000000	73.859477
3947.000000	73.891777
3946.000000	73.930042
3945.000000	73.967401
3944.000000	73.996220
3943.000000	74.015465
3942.000000	74.032501
3941.000000	74.054777
3940.000000	74.083604
3939.000000	74.116608
3938.000000	74.150262
3937.000000	74.182709
3936.000000	74.213116
3935.000000	74.240226
3934.000000	74.263435
3933.000000	74.283289
3932.000000	74.302424
3931.000000	74.321566
3930.000000	74.339029
3929.000000	74.356439
3928.000000	74.377822
3927.000000	74.401887
3926.000000	74.418512
3925.000000	74.422109
3924.000000	74.420756
3923.000000	74.423596
3922.000000	74.429446
3921.000000	74.433723
3920.000000	74.438004
3919.000000	74.447155
3918.000000	74.460432
3917.000000	74.474645
3916.000000	74.491095
3915.000000	74.511276
3914.000000	74.533086
3913.000000	74.555170
3912.000000	74.579389
3911.000000	74.608503
3910.000000	74.638598
3909.000000	74.666527
3908.000000	74.692652
3907.000000	74.714841
3906.000000	74.721733
3905.000000	74.702813
3904.000000	74.670074
3903.000000	74.649417
3902.000000	74.653608
3901.000000	74.676565
3900.000000	74.708308
3899.000000	74.745715
3898.000000	74.787292
3897.000000	74.827269
3896.000000	74.863837
3895.000000	74.903412
3894.000000	74.948675
3893.000000	74.992620
3892.000000	75.022141
3891.000000	75.034969
3890.000000	75.038640
3889.000000	75.049075
3888.000000	75.079249
3887.000000	75.122255
3886.000000	75.162896
3885.000000	75.196164
3884.000000	75.218859
3883.000000	75.229410
3882.000000	75.230361
3881.000000	75.228369
3880.000000	75.234614
3879.000000	75.251201
3878.000000	75.273082
3877.000000	75.301022
3876.000000	75.328248
3875.000000	75.338207
3874.000000	75.330163
3873.000000	75.325387
3872.000000	75.336223
3871.000000	75.348758
3870.000000	75.356091
3869.000000	75.372381
3868.000000	75.399955
3867.000000	75.427404
3866.000000	75.444170
3865.000000	75.452983
3864.000000	75.465668
3863.000000	75.481616
3862.000000	75.495591
3861.000000	75.517174
3860.000000	75.549755
3859.000000	75.589862
3858.000000	75.643620
3857.000000	75.728049
3856.000000	75.828854
3855.000000	75.874229
3854.000000	75.850180
3853.000000	75.840646
3852.000000	75.856105
3851.000000	75.841850
3850.000000	75.798813
3849.000000	75.767003
3848.000000	75.770362
3847.000000	75.802480
3846.000000	75.843926
3845.000000	75.881450
3844.000000	75.906141
3843.000000	75.914463
3842.000000	75.916564
3841.000000	75.926974
3840.000000	75.943090
3839.000000	75.962188
3838.000000	75.988687
3837.000000	76.017183
3836.000000	76.032525
3835.000000	76.033728
3834.000000	76.038094
3833.000000	76.057013
3832.000000	76.086436
3831.000000	76.119032
3830.000000	76.152067
3829.000000	76.186357
3828.000000	76.216978
3827.000000	76.234612
3826.000000	76.239271
3825.000000	76.247958
3824.000000	76.274736
3823.000000	76.308351
3822.000000	76.324512
3821.000000	76.326953
3820.000000	76.333055
3819.000000	76.351307
3818.000000	76.387875
3817.000000	76.434124
3816.000000	76.482866
3815.000000	76.531897
3814.000000	76.566265
3813.000000	76.572454
3812.000000	76.559666
3811.000000	76.554083
3810.000000	76.577319
3809.000000	76.623247
3808.000000	76.664766
3807.000000	76.687659
3806.000000	76.697607
3805.000000	76.708647
3804.000000	76.733736
3803.000000	76.768047
3802.000000	76.795168
3801.000000	76.818898
3800.000000	76.834092
3799.000000	76.828474
3798.000000	76.814006
3797.000000	76.810174
3796.000000	76.829346
3795.000000	76.867548
3794.000000	76.911367
3793.000000	76.950156
3792.000000	76.984446
3791.000000	77.018712
3790.000000	77.051423
3789.000000	77.077333
3788.000000	77.096118
3787.000000	77.111839
3786.000000	77.126179
3785.000000	77.136605
3784.000000	77.143977
3783.000000	77.154957
3782.000000	77.172640
3781.000000	77.190921
3780.000000	77.203699
3779.000000	77.217157
3778.000000	77.238868
3777.000000	77.266562
3776.000000	77.290340
3775.000000	77.306265
3774.000000	77.321092
3773.000000	77.341390
3772.000000	77.361295
3771.000000	77.373087
3770.000000	77.383582
3769.000000	77.401845
3768.000000	77.424426
3767.000000	77.447393
3766.000000	77.471933
3765.000000	77.497529
3764.000000	77.523441
3763.000000	77.551422
3762.000000	77.579871
3761.000000	77.603018
3760.000000	77.621301
3759.000000	77.642208
3758.000000	77.662313
3757.000000	77.677945
3756.000000	77.698530
3755.000000	77.734954
3754.000000	77.781874
3753.000000	77.819283
3752.000000	77.843806
3751.000000	77.874579
3750.000000	77.908206
3749.000000	77.917443
3748.000000	77.909890
3747.000000	77.928435
3746.000000	77.974864
3745.000000	78.031055
3744.000000	78.109182
3743.000000	78.178750
3742.000000	78.189439
3741.000000	78.158424
3740.000000	78.139242
3739.000000	78.166958
3738.000000	78.223380
3737.000000	78.263188
3736.000000	78.274027
3735.000000	78.280996
3734.000000	78.308356
3733.000000	78.358314
3732.000000	78.419320
3731.000000	78.471391
3730.000000	78.502079
3729.000000	78.520708
3728.000000	78.539834
3727.000000	78.560105
3726.000000	78.580144
3725.000000	78.597793
3724.000000	78.609956
3723.000000	78.617672
3722.000000	78.628045
3721.000000	78.646829
3720.000000	78.673591
3719.000000	78.706147
3718.000000	78.736756
3717.000000	78.763384
3716.000000	78.791702
3715.000000	78.823377
3714.000000	78.852817
3713.000000	78.873375
3712.000000	78.890655
3711.000000	78.915520
3710.000000	78.952016
3709.000000	79.000314
3708.000000	79.053939
3707.000000	79.103238
3706.000000	79.146887
3705.000000	79.189291
3704.000000	79.230739
3703.000000	79.265455
3702.000000	79.293962
3701.000000	79.323297
3700.000000	79.354144
3699.000000	79.383387
3698.000000	79.408551
3697.000000	79.430612
3696.000000	79.453665
3695.000000	79.476379
3694.000000	79.493124
3693.000000	79.505293
3692.000000	79.518140
3691.000000	79.532330
3690.000000	79.553771
3689.000000	79.601170
3688.000000	79.669258
3687.000000	79.717914
3686.000000	79.727347
3685.000000	79.715471
3684.000000	79.707813
3683.000000	79.719417
3682.000000	79.747704
3681.000000	79.772994
3680.000000	79.782421
3679.000000	79.786078
3678.000000	79.800921
3677.000000	79.812929
3676.000000	79.817000
3675.000000	79.838805
3674.000000	79.865880
3673.000000	79.878560
3672.000000	79.888015
3671.000000	79.902797
3670.000000	79.933668
3669.000000	79.984035
3668.000000	80.030568
3667.000000	80.058241
3666.000000	80.074581
3665.000000	80.091371
3664.000000	80.114463
3663.000000	80.143518
3662.000000	80.169297
3661.000000	80.182310
3660.000000	80.186634
3659.000000	80.192821
3658.000000	80.204139
3657.000000	80.215978
3656.000000	80.228938
3655.000000	80.238571
3654.000000	80.236398
3653.000000	80.226241
3652.000000	80.212976
3651.000000	80.190885
3650.000000	80.166591
3649.000000	80.163086
3648.000000	80.189292
3647.000000	80.231885
3646.000000	80.271876
3645.000000	80.301939
3644.000000	80.327765
3643.000000	80.356461
3642.000000	80.386186
3641.000000	80.413095
3640.000000	80.435087
3639.000000	80.449959
3638.000000	80.457021
3637.000000	80.458594
3636.000000	80.458425
3635.000000	80.453381
3634.000000	80.439055
3633.000000	80.419962
3632.000000	80.406211
3631.000000	80.392382
3630.000000	80.362307
3629.000000	80.342097
3628.000000	80.361566
3627.000000	80.385965
3626.000000	80.377412
3625.000000	80.343723
3624.000000	80.308321
3623.000000	80.283439
3622.000000	80.262753
3621.000000	80.228718
3620.000000	80.172784
3619.000000	80.105323
3618.000000	80.036710
3617.000000	79.967918
3616.000000	79.899663
3615.000000	79.829176
3614.000000	79.752626
3613.000000	79.675581
3612.000000	79.608062
3611.000000	79.551852
3610.000000	79.501900
3609.000000	79.454900
3608.000000	79.410599
3607.000000	79.367152
3606.000000	79.320833
3605.000000	79.271516
3604.000000	79.220593
3603.000000	79.165430
3602.000000	79.102584
3601.000000	79.035222
3600.000000	78.970791
3599.000000	78.909169
3598.000000	78.843144
3597.000000	78.770120
3596.000000	78.694312
3595.000000	78.618015
3594.000000	78.543997
3593.000000	78.475276
3592.000000	78.412853
3591.000000	78.355796
3590.000000	78.299273
3589.000000	78.237153
3588.000000	78.174244
3587.000000	78.125385
3586.000000	78.094432
3585.000000	78.071544
3584.000000	78.046725
3583.000000	78.015590
3582.000000	77.977852
3581.000000	77.935420
3580.000000	77.890197
3579.000000	77.841670
3578.000000	77.789632
3577.000000	77.736553
3576.000000	77.685062
3575.000000	77.634996
3574.000000	77.584398
3573.000000	77.532458
3572.000000	77.477817
3571.000000	77.418404
3570.000000	77.350358
3569.000000	77.268082
3568.000000	77.172352
3567.000000	77.077576
3566.000000	76.997928
3565.000000	76.933506
3564.000000	76.877426
3563.000000	76.823337
3562.000000	76.765866
3561.000000	76.701183
3560.000000	76.628132
3559.000000	76.547939
3558.000000	76.462811
3557.000000	76.375024
3556.000000	76.284971
3555.000000	76.190107
3554.000000	76.086933
3553.000000	75.976444
3552.000000	75.864194
3551.000000	75.752953
3550.000000	75.639597
3549.000000	75.520051
3548.000000	75.392956
3547.000000	75.259081
3546.000000	75.119270
3545.000000	74.975134
3544.000000	74.829090
3543.000000	74.682114
3542.000000	74.532778
3541.000000	74.379471
3540.000000	74.220550
3539.000000	74.052519
3538.000000	73.870960
3537.000000	73.675200
3536.000000	73.469104
3535.000000	73.255467
3534.000000	73.034295
3533.000000	72.804813
3532.000000	72.566613
3531.000000	72.316650
3530.000000	72.049539
3529.000000	71.763458
3528.000000	71.463059
3527.000000	71.154229
3526.000000	70.837959
3525.000000	70.511367
3524.000000	70.171660
3523.000000	69.817348
3522.000000	69.448071
3521.000000	69.065620
3520.000000	68.672179
3519.000000	68.266634
3518.000000	67.845719
3517.000000	67.409243
3516.000000	66.960679
3515.000000	66.501996
3514.000000	66.032000
3513.000000	65.548021
3512.000000	65.046567
3511.000000	64.523875
3510.000000	63.980638
3509.000000	63.425996
3508.000000	62.871430
3507.000000	62.319382
3506.000000	61.760947
3505.000000	61.185420
3504.000000	60.589918
3503.000000	59.979674
3502.000000	59.362879
3501.000000	58.747289
3500.000000	58.137230
3499.000000	57.530031
3498.000000	56.918036
3497.000000	56.296589
3496.000000	55.668210
3495.000000	55.038651
3494.000000	54.412888
3493.000000	53.795238
3492.000000	53.188070
3491.000000	52.589186
3490.000000	51.994520
3489.000000	51.404900
3488.000000	50.827560
3487.000000	50.270107
3486.000000	49.735547
3485.000000	49.222499
3484.000000	48.725748
3483.000000	48.237825
3482.000000	47.755857
3481.000000	47.286868
3480.000000	46.841260
3479.000000	46.420308
3478.000000	46.014720
3477.000000	45.614575
3476.000000	45.215309
3475.000000	44.815407
3474.000000	44.414665
3473.000000	44.016846
3472.000000	43.629351
3471.000000	43.258651
3470.000000	42.909992
3469.000000	42.590314
3468.000000	42.306997
3467.000000	42.064065
3466.000000	41.862989
3465.000000	41.706947
3464.000000	41.599301
3463.000000	41.539813
3462.000000	41.527840
3461.000000	41.566689
3460.000000	41.659862
3459.000000	41.802897
3458.000000	41.983649
3457.000000	42.190436
3456.000000	42.414187
3455.000000	42.644387
3454.000000	42.868845
3453.000000	43.076871
3452.000000	43.259737
3451.000000	43.407636
3450.000000	43.508370
3449.000000	43.550356
3448.000000	43.525465
3447.000000	43.431050
3446.000000	43.273178
3445.000000	43.063672
3444.000000	42.811651
3443.000000	42.520059
3442.000000	42.191814
3441.000000	41.838554
3440.000000	41.478014
3439.000000	41.125195
3438.000000	40.791256
3437.000000	40.487866
3436.000000	40.226399
3435.000000	40.012628
3434.000000	39.846499
3433.000000	39.727407
3432.000000	39.658722
3431.000000	39.645624
3430.000000	39.693188
3429.000000	39.806937
3428.000000	39.989624
3427.000000	40.240482
3426.000000	40.557351
3425.000000	40.939687
3424.000000	41.387563
3423.000000	41.896072
3422.000000	42.457534
3421.000000	43.065884
3420.000000	43.715939
3419.000000	44.400778
3418.000000	45.111092
3417.000000	45.838683
3416.000000	46.576762
3415.000000	47.317931
3414.000000	48.055611
3413.000000	48.785532
3412.000000	49.503740
3411.000000	50.204698
3410.000000	50.883614
3409.000000	51.539091
3408.000000	52.170898
3407.000000	52.776004
3406.000000	53.350638
3405.000000	53.895314
3404.000000	54.414378
3403.000000	54.912603
3402.000000	55.394136
3401.000000	55.862222
3400.000000	56.316390
3399.000000	56.750607
3398.000000	57.159365
3397.000000	57.544563
3396.000000	57.912724
3395.000000	58.268223
3394.000000	58.612310
3393.000000	58.947365
3392.000000	59.276729
3391.000000	59.600218
3390.000000	59.914973
3389.000000	60.220102
3388.000000	60.517479
3387.000000	60.808351
3386.000000	61.092512
3385.000000	61.371052
3384.000000	61.646190
3383.000000	61.918742
3382.000000	62.188562
3381.000000	62.456524
3380.000000	62.723555
3379.000000	62.988502
3378.000000	63.250065
3377.000000	63.509601
3376.000000	63.768692
3375.000000	64.025539
3374.000000	64.277232
3373.000000	64.524833
3372.000000	64.772630
3371.000000	65.022777
3370.000000	65.273755
3369.000000	65.523199
3368.000000	65.769204
3367.000000	66.009736
3366.000000	66.243779
3365.000000	66.473062
3364.000000	66.700543
3363.000000	66.927687
3362.000000	67.154892
3361.000000	67.382879
3360.000000	67.611317
3359.000000	67.837333
3358.000000	68.058154
3357.000000	68.274313
3356.000000	68.487868
3355.000000	68.699186
3354.000000	68.908266
3353.000000	69.117646
3352.000000	69.330276
3351.000000	69.544780
3350.000000	69.755839
3349.000000	69.959326
3348.000000	70.154893
3347.000000	70.344546
3346.000000	70.531279
3345.000000	70.718384
3344.000000	70.907067
3343.000000	71.094491
3342.000000	71.277011
3341.000000	71.454794
3340.000000	71.630821
3339.000000	71.805768
3338.000000	71.976387
3337.000000	72.139333
3336.000000	72.293953
3335.000000	72.441221
3334.000000	72.582232
3333.000000	72.717744
3332.000000	72.847542
3331.000000	72.969318
3330.000000	73.079791
3329.000000	73.177571
3328.000000	73.263093
3327.000000	73.336079
3326.000000	73.393901
3325.000000	73.432620
3324.000000	73.449240
3323.000000	73.441865
3322.000000	73.410051
3321.000000	73.353870
3320.000000	73.271210
3319.000000	73.157420
3318.000000	73.006280
3317.000000	72.812264
3316.000000	72.569579
3315.000000	72.269816
3314.000000	71.904877
3313.000000	71.468517
3312.000000	70.955900
3311.000000	70.362156
3310.000000	69.681405
3309.000000	68.911517
3308.000000	68.052165
3307.000000	67.102158
3306.000000	66.060172
3305.000000	64.924082
3304.000000	63.693807
3303.000000	62.369368
3302.000000	60.952658
3301.000000	59.450161
3300.000000	57.869314
3299.000000	56.219570
3298.000000	54.517073
3297.000000	52.788592
3296.000000	51.067774
3295.000000	49.387512
3294.000000	47.778689
3293.000000	46.272045
3292.000000	44.892225
3291.000000	43.647730
3290.000000	42.533241
3289.000000	41.534495
3288.000000	40.631287
3287.000000	39.799189
3286.000000	39.013239
3285.000000	38.257297
3284.000000	37.522785
3283.000000	36.806407
3282.000000	36.114267
3281.000000	35.463074
3280.000000	34.876313
3279.000000	34.376470
3278.000000	33.985344
3277.000000	33.726908
3276.000000	33.618041
3275.000000	33.661420
3274.000000	33.846350
3273.000000	34.152745
3272.000000	34.551833
3271.000000	35.001728
3270.000000	35.453864
3269.000000	35.863300
3268.000000	36.191675
3267.000000	36.407388
3266.000000	36.490423
3265.000000	36.436215
3264.000000	36.253430
3263.000000	35.961004
3262.000000	35.587037
3261.000000	35.170633
3260.000000	34.754669
3259.000000	34.376735
3258.000000	34.068572
3257.000000	33.855804
3256.000000	33.751586
3255.000000	33.751821
3254.000000	33.839770
3253.000000	33.991869
3252.000000	34.178549
3251.000000	34.362541
3250.000000	34.506175
3249.000000	34.582316
3248.000000	34.577238
3247.000000	34.491302
3246.000000	34.344228
3245.000000	34.178421
3244.000000	34.048403
3243.000000	34.000563
3242.000000	34.058310
3241.000000	34.216126
3240.000000	34.441141
3239.000000	34.685652
3238.000000	34.907002
3237.000000	35.081674
3236.000000	35.204323
3235.000000	35.279386
3234.000000	35.315494
3233.000000	35.321946
3232.000000	35.302955
3231.000000	35.256506
3230.000000	35.181527
3229.000000	35.081529
3228.000000	34.960954
3227.000000	34.820630
3226.000000	34.660681
3225.000000	34.484667
3224.000000	34.295484
3223.000000	34.092128
3222.000000	33.873114
3221.000000	33.640339
3220.000000	33.396619
3219.000000	33.142184
3218.000000	32.877798
3217.000000	32.606403
3216.000000	32.328421
3215.000000	32.039872
3214.000000	31.738192
3213.000000	31.426671
3212.000000	31.108982
3211.000000	30.784171
3210.000000	30.451639
3209.000000	30.116742
3208.000000	29.787458
3207.000000	29.469048
3206.000000	29.166388
3205.000000	28.887084
3204.000000	28.638486
3203.000000	28.424105
3202.000000	28.246842
3201.000000	28.112561
3200.000000	28.024929
3199.000000	27.982665
3198.000000	27.983894
3197.000000	28.029897
3196.000000	28.122055
3195.000000	28.256500
3194.000000	28.428537
3193.000000	28.635912
3192.000000	28.874724
3191.000000	29.138361
3190.000000	29.421422
3189.000000	29.723211
3188.000000	30.042811
3187.000000	30.374658
3186.000000	30.713677
3185.000000	31.059116
3184.000000	31.411015
3183.000000	31.766644
3182.000000	32.123566
3181.000000	32.482212
3180.000000	32.841381
3179.000000	33.195694
3178.000000	33.540877
3177.000000	33.877984
3176.000000	34.209230
3175.000000	34.533720
3174.000000	34.850415
3173.000000	35.161209
3172.000000	35.467766
3171.000000	35.768489
3170.000000	36.062288
3169.000000	36.351661
3168.000000	36.638844
3167.000000	36.922582
3166.000000	37.200980
3165.000000	37.474343
3164.000000	37.742312
3163.000000	38.001594
3162.000000	38.249634
3161.000000	38.486438
3160.000000	38.710868
3159.000000	38.918610
3158.000000	39.105865
3157.000000	39.272807
3156.000000	39.420351
3155.000000	39.547721
3154.000000	39.655447
3153.000000	39.746542
3152.000000	39.823624
3151.000000	39.887887
3150.000000	39.943826
3149.000000	40.000952
3148.000000	40.067181
3147.000000	40.143944
3146.000000	40.229133
3145.000000	40.320575
3144.000000	40.414094
3143.000000	40.502398
3142.000000	40.579730
3141.000000	40.644570
3140.000000	40.695299
3139.000000	40.727687
3138.000000	40.739482
3137.000000	40.734264
3136.000000	40.717042
3135.000000	40.689104
3134.000000	40.650749
3133.000000	40.604336
3132.000000	40.551781
3131.000000	40.491005
3130.000000	40.417246
3129.000000	40.325983
3128.000000	40.211933
3127.000000	40.070232
3126.000000	39.901006
3125.000000	39.710202
3124.000000	39.505327
3123.000000	39.292860
3122.000000	39.081221
3121.000000	38.880859
3120.000000	38.698070
3119.000000	38.532129
3118.000000	38.380440
3117.000000	38.242236
3116.000000	38.114981
3115.000000	37.992278
3114.000000	37.868459
3113.000000	37.741897
3112.000000	37.611531
3111.000000	37.474461
3110.000000	37.329490
3109.000000	37.179015
3108.000000	37.025395
3107.000000	36.869772
3106.000000	36.716247
3105.000000	36.573217
3104.000000	36.447856
3103.000000	36.343963
3102.000000	36.267827
3101.000000	36.230488
3100.000000	36.242915
3099.000000	36.310846
3098.000000	36.437717
3097.000000	36.627871
3096.000000	36.881371
3095.000000	37.193024
3094.000000	37.556695
3093.000000	37.968083
3092.000000	38.421197
3091.000000	38.904528
3090.000000	39.406463
3089.000000	39.919090
3088.000000	40.436071
3087.000000	40.951399
3086.000000	41.461573
3085.000000	41.966053
3084.000000	42.462426
3083.000000	42.945346
3082.000000	43.411926
3081.000000	43.864322
3080.000000	44.304577
3079.000000	44.730858
3078.000000	45.141068
3077.000000	45.535479
3076.000000	45.914493
3075.000000	46.277023
3074.000000	46.623704
3073.000000	46.958263
3072.000000	47.283032
3071.000000	47.597297
3070.000000	47.901078
3069.000000	48.196917
3068.000000	48.485719
3067.000000	48.763932
3066.000000	49.028399
3065.000000	49.280603
3064.000000	49.523863
3063.000000	49.759527
3062.000000	49.987821
3061.000000	50.210202
3060.000000	50.427889
3059.000000	50.640392
3058.000000	50.847763
3057.000000	51.051527
3056.000000	51.252093
3055.000000	51.447672
3054.000000	51.637629
3053.000000	51.824291
3052.000000	52.009170
3051.000000	52.190185
3050.000000	52.364654
3049.000000	52.532900
3048.000000	52.697202
3047.000000	52.859297
3046.000000	53.020752
3045.000000	53.183228
3044.000000	53.346291
3043.000000	53.507229
3042.000000	53.664325
3041.000000	53.818187
3040.000000	53.968835
3039.000000	54.114612
3038.000000	54.255909
3037.000000	54.396883
3036.000000	54.541291
3035.000000	54.688732
3034.000000	54.836675
3033.000000	54.983855
3032.000000	55.129864
3031.000000	55.274155
3030.000000	55.417362
3029.000000	55.561304
3028.000000	55.706256
3027.000000	55.850370
3026.000000	55.992788
3025.000000	56.134706
3024.000000	56.276094
3023.000000	56.414337
3022.000000	56.547541
3021.000000	56.676220
3020.000000	56.800010
3019.000000	56.914577
3018.000000	57.013789
3017.000000	57.092932
3016.000000	57.148753
3015.000000	57.179874
3014.000000	57.189770
3013.000000	57.188760
3012.000000	57.191183
3011.000000	57.211494
3010.000000	57.262341
3009.000000	57.351769
3008.000000	57.478870
3007.000000	57.632962
3006.000000	57.798209
3005.000000	57.958114
3004.000000	58.095610
3003.000000	58.192035
3002.000000	58.228618
3001.000000	58.187611
3000.000000	58.054392
2999.000000	57.823861
2998.000000	57.512412
2997.000000	57.165877
2996.000000	56.854246
2995.000000	56.653393
2994.000000	56.618510
2993.000000	56.761819
2992.000000	57.046485
2991.000000	57.407044
2990.000000	57.781442
2989.000000	58.130680
2988.000000	58.438077
2987.000000	58.699664
2986.000000	58.919294
2985.000000	59.104820
2984.000000	59.263096
2983.000000	59.396755
2982.000000	59.506552
2981.000000	59.592549
2980.000000	59.651350
2979.000000	59.675201
2978.000000	59.657085
2977.000000	59.597640
2976.000000	59.506280
2975.000000	59.399682
2974.000000	59.299448
2973.000000	59.227188
2972.000000	59.197023
2971.000000	59.210396
2970.000000	59.256344
2969.000000	59.312587
2968.000000	59.345818
2967.000000	59.318293
2966.000000	59.202534
2965.000000	58.994065
2964.000000	58.712636
2963.000000	58.393432
2962.000000	58.076421
2961.000000	57.795621
2960.000000	57.571065
2959.000000	57.406908
2958.000000	57.298018
2957.000000	57.238910
2956.000000	57.230475
2955.000000	57.283294
2954.000000	57.410847
2953.000000	57.612135
2952.000000	57.856506
2951.000000	58.092552
2950.000000	58.276184
2949.000000	58.392478
2948.000000	58.454887
2947.000000	58.488333
2946.000000	58.509584
2945.000000	58.507579
2944.000000	58.435473
2943.000000	58.230678
2942.000000	57.863784
2941.000000	57.381831
2940.000000	56.908742
2939.000000	56.596502
2938.000000	56.555842
2937.000000	56.809652
2936.000000	57.291516
2935.000000	57.888660
2934.000000	58.496991
2933.000000	59.053350
2932.000000	59.534395
2931.000000	59.940808
2930.000000	60.284732
2929.000000	60.581241
2928.000000	60.843272
2927.000000	61.079503
2926.000000	61.297030
2925.000000	61.502025
2924.000000	61.696962
2923.000000	61.880430
2922.000000	62.051411
2921.000000	62.211154
2920.000000	62.359586
2919.000000	62.493832
2918.000000	62.611543
2917.000000	62.713465
2916.000000	62.801349
2915.000000	62.875792
2914.000000	62.937582
2913.000000	62.988810
2912.000000	63.031555
2911.000000	63.067363
2910.000000	63.098283
2909.000000	63.125803
2908.000000	63.147709
2907.000000	63.157569
2906.000000	63.147649
2905.000000	63.109470
2904.000000	63.030864
2903.000000	62.897970
2902.000000	62.701918
2901.000000	62.443780
2900.000000	62.136409
2899.000000	61.805007
2898.000000	61.487027
2897.000000	61.225265
2896.000000	61.053329
2895.000000	60.985217
2894.000000	61.016436
2893.000000	61.129446
2892.000000	61.298687
2891.000000	61.496350
2890.000000	61.700368
2889.000000	61.897579
2888.000000	62.080694
2887.000000	62.245429
2886.000000	62.391133
2885.000000	62.520818
2884.000000	62.637107
2883.000000	62.740395
2882.000000	62.831428
2881.000000	62.912985
2880.000000	62.987535
2879.000000	63.055610
2878.000000	63.118026
2877.000000	63.177427
2876.000000	63.236168
2875.000000	63.294266
2874.000000	63.350643
2873.000000	63.404489
2872.000000	63.455114
2871.000000	63.503371
2870.000000	63.554127
2869.000000	63.614794
2868.000000	63.689804
2867.000000	63.778099
2866.000000	63.876200
2865.000000	63.980697
2864.000000	64.087170
2863.000000	64.190423
2862.000000	64.287731
2861.000000	64.379677
2860.000000	64.466890
2859.000000	64.548543
2858.000000	64.625225
2857.000000	64.700368
2856.000000	64.777231
2855.000000	64.856614
2854.000000	64.938200
2853.000000	65.021162
2852.000000	65.102328
2851.000000	65.176675
2850.000000	65.241233
2849.000000	65.296515
2848.000000	65.343716
2847.000000	65.383649
2846.000000	65.419471
2845.000000	65.456955
2844.000000	65.500094
2843.000000	65.548560
2842.000000	65.600698
2841.000000	65.656351
2840.000000	65.715053
2839.000000	65.774209
2838.000000	65.831490
2837.000000	65.887607
2836.000000	65.945288
2835.000000	66.006905
2834.000000	66.073956
2833.000000	66.146881
2832.000000	66.224013
2831.000000	66.302118
2830.000000	66.379000
2829.000000	66.454270
2828.000000	66.527185
2827.000000	66.595878
2826.000000	66.659561
2825.000000	66.719612
2824.000000	66.777688
2823.000000	66.834519
2822.000000	66.891180
2821.000000	66.949360
2820.000000	67.009266
2819.000000	67.069073
2818.000000	67.127217
2817.000000	67.183379
2816.000000	67.236600
2815.000000	67.284660
2814.000000	67.326547
2813.000000	67.363818
2812.000000	67.398628
2811.000000	67.432146
2810.000000	67.465562
2809.000000	67.500621
2808.000000	67.538092
2807.000000	67.577272
2806.000000	67.617683
2805.000000	67.659405
2804.000000	67.701140
2803.000000	67.740109
2802.000000	67.774928
2801.000000	67.806872
2800.000000	67.837547
2799.000000	67.867179
2798.000000	67.895993
2797.000000	67.925281
2796.000000	67.956098
2795.000000	67.988507
2794.000000	68.022768
2793.000000	68.059438
2792.000000	68.097508
2791.000000	68.134174
2790.000000	68.167190
2789.000000	68.195883
2788.000000	68.219661
2787.000000	68.237832
2786.000000	68.251757
2785.000000	68.265163
2784.000000	68.281356
2783.000000	68.301829
2782.000000	68.327933
2781.000000	68.361434
2780.000000	68.402336
2779.000000	68.448093
2778.000000	68.495955
2777.000000	68.544370
2776.000000	68.591490
2775.000000	68.634649
2774.000000	68.672771
2773.000000	68.707638
2772.000000	68.741733
2771.000000	68.776325
2770.000000	68.812238
2769.000000	68.850449
2768.000000	68.890720
2767.000000	68.931081
2766.000000	68.969575
2765.000000	69.005159
2764.000000	69.036548
2763.000000	69.062209
2762.000000	69.082345
2761.000000	69.099309
2760.000000	69.115310
2759.000000	69.131180
2758.000000	69.147757
2757.000000	69.166279
2756.000000	69.186475
2755.000000	69.206124
2754.000000	69.223402
2753.000000	69.238403
2752.000000	69.252024
2751.000000	69.265278
2750.000000	69.280195
2749.000000	69.299116
2748.000000	69.321952
2747.000000	69.345898
2746.000000	69.368716
2745.000000	69.390645
2744.000000	69.412524
2743.000000	69.434057
2742.000000	69.454751
2741.000000	69.474575
2740.000000	69.492497
2739.000000	69.506121
2738.000000	69.514155
2737.000000	69.518401
2736.000000	69.522970
2735.000000	69.533040
2734.000000	69.554312
2733.000000	69.590716
2732.000000	69.641164
2731.000000	69.699848
2730.000000	69.760502
2729.000000	69.819303
2728.000000	69.873650
2727.000000	69.920935
2726.000000	69.960170
2725.000000	69.993132
2724.000000	70.022484
2723.000000	70.049855
2722.000000	70.076162
2721.000000	70.101984
2720.000000	70.126735
2719.000000	70.148731
2718.000000	70.167104
2717.000000	70.182691
2716.000000	70.196543
2715.000000	70.209137
2714.000000	70.221513
2713.000000	70.235659
2712.000000	70.253137
2711.000000	70.274582
2710.000000	70.300685
2709.000000	70.331986
2708.000000	70.367174
2707.000000	70.403224
2706.000000	70.437752
2705.000000	70.469643
2704.000000	70.497144
2703.000000	70.517507
2702.000000	70.529412
2701.000000	70.534024
2700.000000	70.533229
2699.000000	70.528363
2698.000000	70.521215
2697.000000	70.514525
2696.000000	70.510336
2695.000000	70.509187
2694.000000	70.511207
2693.000000	70.516226
2692.000000	70.522374
2691.000000	70.526491
2690.000000	70.526871
2689.000000	70.524386
2688.000000	70.520687
2687.000000	70.517061
2686.000000	70.515495
2685.000000	70.518704
2684.000000	70.528089
2683.000000	70.543088
2682.000000	70.562923
2681.000000	70.587433
2680.000000	70.615623
2679.000000	70.645078
2678.000000	70.673571
2677.000000	70.699719
2676.000000	70.721919
2675.000000	70.738633
2674.000000	70.750335
2673.000000	70.759488
2672.000000	70.768085
2671.000000	70.776762
2670.000000	70.786577
2669.000000	70.799665
2668.000000	70.817375
2667.000000	70.839400
2666.000000	70.865240
2665.000000	70.894640
2664.000000	70.926002
2663.000000	70.956359
2662.000000	70.983672
2661.000000	71.007619
2660.000000	71.027850
2659.000000	71.043400
2658.000000	71.054408
2657.000000	71.062676
2656.000000	71.069787
2655.000000	71.076302
2654.000000	71.083376
2653.000000	71.093195
2652.000000	71.107058
2651.000000	71.124640
2650.000000	71.145666
2649.000000	71.170453
2648.000000	71.198328
2647.000000	71.227291
2646.000000	71.256046
2645.000000	71.284871
2644.000000	71.313841
2643.000000	71.342146
2642.000000	71.369817
2641.000000	71.398449
2640.000000	71.429423
2639.000000	71.462655
2638.000000	71.497439
2637.000000	71.532810
2636.000000	71.566627
2635.000000	71.596159
2634.000000	71.620455
2633.000000	71.640806
2632.000000	71.658572
2631.000000	71.674240
2630.000000	71.688822
2629.000000	71.704241
2628.000000	71.721408
2627.000000	71.739312
2626.000000	71.756571
2625.000000	71.772211
2624.000000	71.784780
2623.000000	71.792651
2622.000000	71.795967
2621.000000	71.796919
2620.000000	71.797434
2619.000000	71.798081
2618.000000	71.799315
2617.000000	71.801663
2616.000000	71.804097
2615.000000	71.803846
2614.000000	71.798660
2613.000000	71.787922
2612.000000	71.771370
2611.000000	71.749047
2610.000000	71.723176
2609.000000	71.698299
2608.000000	71.678619
2607.000000	71.666482
2606.000000	71.663444
2605.000000	71.670749
2604.000000	71.687772
2603.000000	71.711689
2602.000000	71.739863
2601.000000	71.770785
2600.000000	71.802631
2599.000000	71.832732
2598.000000	71.859195
2597.000000	71.881869
2596.000000	71.901194
2595.000000	71.917824
2594.000000	71.933677
2593.000000	71.951439
2592.000000	71.972245
2591.000000	71.995254
2590.000000	72.019615
2589.000000	72.044925
2588.000000	72.069445
2587.000000	72.089983
2586.000000	72.104541
2585.000000	72.113667
2584.000000	72.118951
2583.000000	72.122236
2582.000000	72.126790
2581.000000	72.137063
2580.000000	72.156131
2579.000000	72.184517
2578.000000	72.221491
2577.000000	72.265736
2576.000000	72.314167
2575.000000	72.362460
2574.000000	72.408029
2573.000000	72.450946
2572.000000	72.491794
2571.000000	72.530346
2570.000000	72.566838
2569.000000	72.602572
2568.000000	72.638296
2567.000000	72.673498
2566.000000	72.707904
2565.000000	72.742033
2564.000000	72.775530
2563.000000	72.806801
2562.000000	72.835031
2561.000000	72.861124
2560.000000	72.886128
2559.000000	72.910247
2558.000000	72.934088
2557.000000	72.959065
2556.000000	72.985820
2555.000000	73.013703
2554.000000	73.042390
2553.000000	73.072404
2552.000000	73.103453
2551.000000	73.133945
2550.000000	73.162929
2549.000000	73.191092
2548.000000	73.219183
2547.000000	73.247013
2546.000000	73.274618
2545.000000	73.302855
2544.000000	73.331951
2543.000000	73.360718
2542.000000	73.387774
2541.000000	73.412154
2540.000000	73.432471
2539.000000	73.446840
2538.000000	73.454483
2537.000000	73.456235
2536.000000	73.452950
2535.000000	73.445172
2534.000000	73.434342
2533.000000	73.422791
2532.000000	73.411817
2531.000000	73.400948
2530.000000	73.389726
2529.000000	73.378432
2528.000000	73.366792
2527.000000	73.353774
2526.000000	73.339380
2525.000000	73.325183
2524.000000	73.312382
2523.000000	73.300683
2522.000000	73.289464
2521.000000	73.278360
2520.000000	73.266207
2519.000000	73.251046
2518.000000	73.231821
2517.000000	73.208724
2516.000000	73.181296
2515.000000	73.148206
2514.000000	73.109467
2513.000000	73.067412
2512.000000	73.025134
2511.000000	72.985487
2510.000000	72.951966
2509.000000	72.928324
2508.000000	72.916350
2507.000000	72.915159
2506.000000	72.923582
2505.000000	72.941060
2504.000000	72.965895
2503.000000	72.994881
2502.000000	73.025156
2501.000000	73.055424
2500.000000	73.084494
2499.000000	73.110639
2498.000000	73.133333
2497.000000	73.153682
2496.000000	73.172481
2495.000000	73.189314
2494.000000	73.204178
2493.000000	73.218087
2492.000000	73.231381
2491.000000	73.242986
2490.000000	73.252310
2489.000000	73.260446
2488.000000	73.268689
2487.000000	73.277480
2486.000000	73.287397
2485.000000	73.299543
2484.000000	73.314021
2483.000000	73.329460
2482.000000	73.344784
2481.000000	73.360133
2480.000000	73.375570
2479.000000	73.390481
2478.000000	73.405067
2477.000000	73.420878
2476.000000	73.439217
2475.000000	73.460406
2474.000000	73.485027
2473.000000	73.514411
2472.000000	73.548918
2471.000000	73.587069
2470.000000	73.626969
2469.000000	73.667239
2468.000000	73.706433
2467.000000	73.743095
2466.000000	73.777020
2465.000000	73.809079
2464.000000	73.839472
2463.000000	73.867552
2462.000000	73.893574
2461.000000	73.918812
2460.000000	73.943261
2459.000000	73.965119
2458.000000	73.982846
2457.000000	73.996258
2456.000000	74.005194
2455.000000	74.008997
2454.000000	74.008543
2453.000000	74.007082
2452.000000	74.008273
2451.000000	74.014378
2450.000000	74.026644
2449.000000	74.045457
2448.000000	74.069352
2447.000000	74.095477
2446.000000	74.121895
2445.000000	74.148507
2444.000000	74.175292
2443.000000	74.201535
2442.000000	74.227242
2441.000000	74.253510
2440.000000	74.280872
2439.000000	74.308723
2438.000000	74.337012
2437.000000	74.366738
2436.000000	74.398011
2435.000000	74.429094
2434.000000	74.457978
2433.000000	74.483314
2432.000000	74.503223
2431.000000	74.515379
2430.000000	74.519093
2429.000000	74.516096
2428.000000	74.508410
2427.000000	74.496760
2426.000000	74.482093
2425.000000	74.466376
2424.000000	74.451072
2423.000000	74.436140
2422.000000	74.421552
2421.000000	74.408482
2420.000000	74.397990
2419.000000	74.390029
2418.000000	74.384554
2417.000000	74.382258
2416.000000	74.383172
2415.000000	74.386168
2414.000000	74.390547
2413.000000	74.396526
2412.000000	74.403211
2411.000000	74.407630
2410.000000	74.406798
2409.000000	74.399360
2408.000000	74.384659
2407.000000	74.361793
2406.000000	74.331202
2405.000000	74.295626
2404.000000	74.258474
2403.000000	74.222518
2402.000000	74.190754
2401.000000	74.166736
2400.000000	74.152457
2399.000000	74.147114
2398.000000	74.148520
2397.000000	74.154255
2396.000000	74.160517
2395.000000	74.162074
2394.000000	74.154949
2393.000000	74.138290
2392.000000	74.112638
2391.000000	74.078804
2390.000000	74.039941
2389.000000	74.002125
2388.000000	73.972318
2387.000000	73.955216
2386.000000	73.953996
2385.000000	73.972321
2384.000000	74.011277
2383.000000	74.068833
2382.000000	74.140496
2381.000000	74.221165
2380.000000	74.305006
2379.000000	74.382456
2378.000000	74.444081
2377.000000	74.484927
2376.000000	74.504004
2375.000000	74.501893
2374.000000	74.483286
2373.000000	74.457576
2372.000000	74.434999
2371.000000	74.419730
2370.000000	74.409037
2369.000000	74.402929
2368.000000	74.405565
2367.000000	74.416980
2366.000000	74.432371
2365.000000	74.453784
2364.000000	74.493944
2363.000000	74.546695
2362.000000	74.604812
2361.000000	74.673408
2360.000000	74.744583
2359.000000	74.813420
2358.000000	74.864892
2357.000000	74.889241
2356.000000	74.890744
2355.000000	74.858244
2354.000000	74.808065
2353.000000	74.766862
2352.000000	74.787118
2351.000000	74.871589
2350.000000	74.949661
2349.000000	74.970244
2348.000000	74.936482
2347.000000	74.925932
2346.000000	74.980203
2345.000000	75.060670
2344.000000	75.117117
2343.000000	75.110970
2342.000000	75.083831
2341.000000	75.055416
2340.000000	75.031614
2339.000000	75.007151
2338.000000	74.982357
2337.000000	74.968150
2336.000000	74.964071
2335.000000	74.975106
2334.000000	74.994806
2333.000000	75.018817
2332.000000	75.022953
2331.000000	75.006570
2330.000000	74.949007
2329.000000	74.888604
2328.000000	74.815878
2327.000000	74.759625
2326.000000	74.713498
2325.000000	74.687723
2324.000000	74.680028
2323.000000	74.672709
2322.000000	74.660363
2321.000000	74.632696
2320.000000	74.595054
2319.000000	74.554971
2318.000000	74.516584
2317.000000	74.490704
2316.000000	74.465327
2315.000000	74.445295
2314.000000	74.411851
2313.000000	74.372146
2312.000000	74.309059
2311.000000	74.237515
2310.000000	74.153003
2309.000000	74.073484
2308.000000	73.989914
2307.000000	73.908767
2306.000000	73.821381
2305.000000	73.733848
2304.000000	73.639603
2303.000000	73.543565
2302.000000	73.443076
2301.000000	73.348355
2300.000000	73.258124
2299.000000	73.181653
2298.000000	73.116856
2297.000000	73.070300
2296.000000	73.034536
2295.000000	73.009818
2294.000000	72.990031
2293.000000	72.976035
2292.000000	72.963315
2291.000000	72.951393
2290.000000	72.940929
2289.000000	72.935128
2288.000000	72.937090
2287.000000	72.949708
2286.000000	72.977861
2285.000000	73.022871
2284.000000	73.082079
2283.000000	73.147671
2282.000000	73.213588
2281.000000	73.273855
2280.000000	73.324130
2279.000000	73.361352
2278.000000	73.387328
2277.000000	73.406680
2276.000000	73.424317
2275.000000	73.446275
2274.000000	73.478883
2273.000000	73.527543
2272.000000	73.592098
2271.000000	73.669228
2270.000000	73.754976
2269.000000	73.845605
2268.000000	73.936221
2267.000000	74.022555
2266.000000	74.102952
2265.000000	74.178726
2264.000000	74.251200
2263.000000	74.322810
2262.000000	74.397369
2261.000000	74.477686
2260.000000	74.563796
2259.000000	74.652398
2258.000000	74.740911
2257.000000	74.826036
2256.000000	74.903965
2255.000000	74.971343
2254.000000	75.027734
2253.000000	75.075483
2252.000000	75.116968
2251.000000	75.155999
2250.000000	75.197459
2249.000000	75.246112
2248.000000	75.303552
2247.000000	75.368873
2246.000000	75.439824
2245.000000	75.512887
2244.000000	75.582206
2243.000000	75.641982
2242.000000	75.689322
2241.000000	75.724207
2240.000000	75.747658
2239.000000	75.761699
2238.000000	75.770359
2237.000000	75.778083
2236.000000	75.787767
2235.000000	75.800812
2234.000000	75.818626
2233.000000	75.841552
2232.000000	75.867343
2231.000000	75.892289
2230.000000	75.913742
2229.000000	75.930262
2228.000000	75.940536
2227.000000	75.944312
2226.000000	75.943964
2225.000000	75.943399
2224.000000	75.945308
2223.000000	75.950793
2222.000000	75.960498
2221.000000	75.974467
2220.000000	75.991021
2219.000000	76.007708
2218.000000	76.023029
2217.000000	76.036407
2216.000000	76.047289
2215.000000	76.055947
2214.000000	76.064536
2213.000000	76.075811
2212.000000	76.091227
2211.000000	76.111277
2210.000000	76.136586
2209.000000	76.166960
2208.000000	76.200090
2207.000000	76.232785
2206.000000	76.262789
2205.000000	76.288261
2204.000000	76.306621
2203.000000	76.315936
2202.000000	76.316806
2201.000000	76.311550
2200.000000	76.302446
2199.000000	76.292261
2198.000000	76.285271
2197.000000	76.285395
2196.000000	76.293654
2195.000000	76.308837
2194.000000	76.329979
2193.000000	76.356389
2192.000000	76.386165
2191.000000	76.416759
2190.000000	76.446753
2189.000000	76.475700
2188.000000	76.502950
2187.000000	76.528434
2186.000000	76.553881
2185.000000	76.581530
2184.000000	76.611974
2183.000000	76.644453
2182.000000	76.678422
2181.000000	76.713059
2180.000000	76.746095
2179.000000	76.774848
2178.000000	76.798101
2177.000000	76.815758
2176.000000	76.827584
2175.000000	76.833983
2174.000000	76.837247
2173.000000	76.840402
2172.000000	76.845107
2171.000000	76.851790
2170.000000	76.860774
2169.000000	76.871628
2168.000000	76.882171
2167.000000	76.889893
2166.000000	76.893949
2165.000000	76.894609
2164.000000	76.891809
2163.000000	76.886017
2162.000000	76.879700
2161.000000	76.876227
2160.000000	76.877758
2159.000000	76.885370
2158.000000	76.900099
2157.000000	76.921899
2156.000000	76.948286
2155.000000	76.975619
2154.000000	77.001236
2153.000000	77.023171
2152.000000	77.039297
2151.000000	77.048813
2150.000000	77.053983
2149.000000	77.058627
2148.000000	77.065341
2147.000000	77.075476
2146.000000	77.090339
2145.000000	77.110269
2144.000000	77.133171
2143.000000	77.155637
2142.000000	77.175099
2141.000000	77.189901
2140.000000	77.198363
2139.000000	77.199674
2138.000000	77.195208
2137.000000	77.187749
2136.000000	77.180002
2135.000000	77.174723
2134.000000	77.174744
2133.000000	77.180952
2132.000000	77.190892
2131.000000	77.200750
2130.000000	77.207915
2129.000000	77.210463
2128.000000	77.205986
2127.000000	77.193263
2126.000000	77.174375
2125.000000	77.153438
2124.000000	77.133996
2123.000000	77.119210
2122.000000	77.113004
2121.000000	77.118570
2120.000000	77.136053
2119.000000	77.162965
2118.000000	77.195868
2117.000000	77.230211
2116.000000	77.260173
2115.000000	77.281232
2114.000000	77.292852
2113.000000	77.297380
2112.000000	77.297434
2111.000000	77.295885
2110.000000	77.296714
2109.000000	77.303277
2108.000000	77.315908
2107.000000	77.332699
2106.000000	77.351840
2105.000000	77.371552
2104.000000	77.388851
2103.000000	77.400755
2102.000000	77.406314
2101.000000	77.405993
2100.000000	77.399976
2099.000000	77.388623
2098.000000	77.374111
2097.000000	77.359443
2096.000000	77.346390
2095.000000	77.336167
2094.000000	77.330641
2093.000000	77.330772
2092.000000	77.334937
2091.000000	77.340862
2090.000000	77.348680
2089.000000	77.360449
2088.000000	77.377501
2087.000000	77.400213
2086.000000	77.429114
2085.000000	77.463945
2084.000000	77.502353
2083.000000	77.541273
2082.000000	77.578598
2081.000000	77.612181
2080.000000	77.638589
2079.000000	77.654765
2078.000000	77.660420
2077.000000	77.656944
2076.000000	77.645442
2075.000000	77.627781
2074.000000	77.607283
2073.000000	77.586833
2072.000000	77.566644
2071.000000	77.545510
2070.000000	77.523688
2069.000000	77.501840
2068.000000	77.477806
2067.000000	77.446988
2066.000000	77.406405
2065.000000	77.357237
2064.000000	77.303106
2063.000000	77.247547
2062.000000	77.192789
2061.000000	77.139227
2060.000000	77.086073
2059.000000	77.033370
2058.000000	76.982650
2057.000000	76.934619
2056.000000	76.887679
2055.000000	76.840290
2054.000000	76.793345
2053.000000	76.748923
2052.000000	76.707789
2051.000000	76.669799
2050.000000	76.636032
2049.000000	76.608288
2048.000000	76.586396
2047.000000	76.568824
2046.000000	76.556017
2045.000000	76.549616
2044.000000	76.548452
2043.000000	76.548612
2042.000000	76.547918
2041.000000	76.548009
2040.000000	76.551531
2039.000000	76.560101
2038.000000	76.574998
2037.000000	76.596863
2036.000000	76.624618
2035.000000	76.656768
2034.000000	76.693577
2033.000000	76.735872
2032.000000	76.782545
2031.000000	76.831589
2030.000000	76.882334
2029.000000	76.934670
2028.000000	76.986621
2027.000000	77.035750
2026.000000	77.081536
2025.000000	77.124711
2024.000000	77.164776
2023.000000	77.200925
2022.000000	77.235646
2021.000000	77.273161
2020.000000	77.313644
2019.000000	77.352472
2018.000000	77.386302
2017.000000	77.417449
2016.000000	77.451249
2015.000000	77.491535
2014.000000	77.538999
2013.000000	77.591183
2012.000000	77.643116
2011.000000	77.690756
2010.000000	77.734181
2009.000000	77.775836
2008.000000	77.816779
2007.000000	77.857554
2006.000000	77.900295
2005.000000	77.947228
2004.000000	77.997586
2003.000000	78.048438
2002.000000	78.098600
2001.000000	78.146987
2000.000000	78.191021
1999.000000	78.228200
1998.000000	78.258830
1997.000000	78.287597
1996.000000	78.320271
1995.000000	78.357580
1994.000000	78.393878
1993.000000	78.423653
1992.000000	78.449430
1991.000000	78.480197
1990.000000	78.521042
1989.000000	78.568324
1988.000000	78.615021
1987.000000	78.657339
1986.000000	78.695835
1985.000000	78.732139
1984.000000	78.767087
1983.000000	78.801814
1982.000000	78.838842
1981.000000	78.880094
1980.000000	78.926813
1979.000000	78.978830
1978.000000	79.033149
1977.000000	79.085776
1976.000000	79.134892
1975.000000	79.180531
1974.000000	79.222138
1973.000000	79.259822
1972.000000	79.297452
1971.000000	79.340285
1970.000000	79.388245
1969.000000	79.434359
1968.000000	79.470962
1967.000000	79.497167
1966.000000	79.519033
1965.000000	79.542174
1964.000000	79.566041
1963.000000	79.584533
1962.000000	79.590978
1961.000000	79.584465
1960.000000	79.571017
1959.000000	79.557683
1958.000000	79.547050
1957.000000	79.538425
1956.000000	79.532316
1955.000000	79.531028
1954.000000	79.535408
1953.000000	79.544819
1952.000000	79.557833
1951.000000	79.573371
1950.000000	79.590911
1949.000000	79.608661
1948.000000	79.625791
1947.000000	79.645506
1946.000000	79.671129
1945.000000	79.698862
1944.000000	79.717431
1943.000000	79.719396
1942.000000	79.712181
1941.000000	79.710334
1940.000000	79.720271
1939.000000	79.738137
1938.000000	79.756012
1937.000000	79.768828
1936.000000	79.777268
1935.000000	79.784210
1934.000000	79.790326
1933.000000	79.795214
1932.000000	79.797681
1931.000000	79.798236
1930.000000	79.798991
1929.000000	79.798534
1928.000000	79.797185
1927.000000	79.800165
1926.000000	79.813635
1925.000000	79.832267
1924.000000	79.839676
1923.000000	79.831881
1922.000000	79.826437
1921.000000	79.837771
1920.000000	79.859530
1919.000000	79.874649
1918.000000	79.877708
1917.000000	79.877538
1916.000000	79.878027
1915.000000	79.877163
1914.000000	79.876074
1913.000000	79.876266
1912.000000	79.874353
1911.000000	79.867332
1910.000000	79.858060
1909.000000	79.850281
1908.000000	79.846184
1907.000000	79.846638
1906.000000	79.854856
1905.000000	79.869376
1904.000000	79.880578
1903.000000	79.885297
1902.000000	79.891206
1901.000000	79.903453
1900.000000	79.921639
1899.000000	79.947389
1898.000000	79.986239
1897.000000	80.035295
1896.000000	80.079735
1895.000000	80.113723
1894.000000	80.149877
1893.000000	80.197305
1892.000000	80.244824
1891.000000	80.273450
1890.000000	80.278219
1889.000000	80.274053
1888.000000	80.277044
1887.000000	80.292865
1886.000000	80.321748
1885.000000	80.358367
1884.000000	80.393660
1883.000000	80.426363
1882.000000	80.462571
1881.000000	80.501031
1880.000000	80.532633
1879.000000	80.552931
1878.000000	80.567470
1877.000000	80.583422
1876.000000	80.600045
1875.000000	80.617098
1874.000000	80.643919
1873.000000	80.688424
1872.000000	80.744801
1871.000000	80.798317
1870.000000	80.834180
1869.000000	80.846503
1868.000000	80.843410
1867.000000	80.839818
1866.000000	80.849583
1865.000000	80.875583
1864.000000	80.907260
1863.000000	80.935437
1862.000000	80.963839
1861.000000	80.998172
1860.000000	81.034193
1859.000000	81.067010
1858.000000	81.101370
1857.000000	81.141117
1856.000000	81.179298
1855.000000	81.208916
1854.000000	81.233942
1853.000000	81.258208
1852.000000	81.283886
1851.000000	81.314360
1850.000000	81.351353
1849.000000	81.390798
1848.000000	81.425866
1847.000000	81.456565
1846.000000	81.484392
1845.000000	81.501694
1844.000000	81.509243
1843.000000	81.522179
1842.000000	81.544456
1841.000000	81.571986
1840.000000	81.602979
1839.000000	81.631530
1838.000000	81.653859
1837.000000	81.672154
1836.000000	81.690918
1835.000000	81.717044
1834.000000	81.755808
1833.000000	81.804955
1832.000000	81.854914
1831.000000	81.884275
1830.000000	81.884743
1829.000000	81.884579
1828.000000	81.906991
1827.000000	81.943928
1826.000000	81.975261
1825.000000	81.996268
1824.000000	82.019500
1823.000000	82.051805
1822.000000	82.090566
1821.000000	82.134740
1820.000000	82.180826
1819.000000	82.217780
1818.000000	82.242445
1817.000000	82.264495
1816.000000	82.290966
1815.000000	82.320135
1814.000000	82.347442
1813.000000	82.370972
1812.000000	82.383511
1811.000000	82.377872
1810.000000	82.367595
1809.000000	82.370510
1808.000000	82.381969
1807.000000	82.390135
1806.000000	82.400224
1805.000000	82.422856
1804.000000	82.449344
1803.000000	82.460798
1802.000000	82.449597
1801.000000	82.432181
1800.000000	82.427825
1799.000000	82.440902
1798.000000	82.469184
1797.000000	82.505332
1796.000000	82.537240
1795.000000	82.562101
1794.000000	82.581864
1793.000000	82.592316
1792.000000	82.588590
1791.000000	82.577839
1790.000000	82.575073
1789.000000	82.590272
1788.000000	82.617485
1787.000000	82.641004
1786.000000	82.654998
1785.000000	82.668787
1784.000000	82.689887
1783.000000	82.717195
1782.000000	82.737999
1781.000000	82.745217
1780.000000	82.747183
1779.000000	82.756966
1778.000000	82.778114
1777.000000	82.801943
1776.000000	82.825926
1775.000000	82.856802
1774.000000	82.889220
1773.000000	82.906788
1772.000000	82.922407
1771.000000	82.953781
1770.000000	82.991471
1769.000000	83.030989
1768.000000	83.077760
1767.000000	83.130221
1766.000000	83.178439
1765.000000	83.222088
1764.000000	83.263335
1763.000000	83.286937
1762.000000	83.280020
1761.000000	83.270709
1760.000000	83.282974
1759.000000	83.308450
1758.000000	83.327668
1757.000000	83.334542
1756.000000	83.354343
1755.000000	83.397420
1754.000000	83.445186
1753.000000	83.485603
1752.000000	83.518388
1751.000000	83.540589
1750.000000	83.545834
1749.000000	83.533273
1748.000000	83.527206
1747.000000	83.555012
1746.000000	83.605589
1745.000000	83.653624
1744.000000	83.691114
1743.000000	83.720120
1742.000000	83.741079
1741.000000	83.754640
1740.000000	83.764440
1739.000000	83.776259
1738.000000	83.785567
1737.000000	83.796355
1736.000000	83.818765
1735.000000	83.826836
1734.000000	83.823610
1733.000000	83.855242
1732.000000	83.888530
1731.000000	83.892820
1730.000000	83.886406
1729.000000	83.884178
1728.000000	83.891357
1727.000000	83.906034
1726.000000	83.915131
1725.000000	83.909927
1724.000000	83.890424
1723.000000	83.870185
1722.000000	83.869821
1721.000000	83.900600
1720.000000	83.957176
1719.000000	84.004432
1718.000000	84.015373
1717.000000	84.023118
1716.000000	84.028337
1715.000000	84.004607
1714.000000	83.982414
1713.000000	83.991968
1712.000000	84.013496
1711.000000	84.026652
1710.000000	84.043757
1709.000000	84.080264
1708.000000	84.129407
1707.000000	84.170376
1706.000000	84.200815
1705.000000	84.238816
1704.000000	84.279320
1703.000000	84.312780
1702.000000	84.347921
1701.000000	84.370558
1700.000000	84.398475
1699.000000	84.439733
1698.000000	84.462878
1697.000000	84.479010
1696.000000	84.505586
1695.000000	84.560499
1694.000000	84.620040
1693.000000	84.656624
1692.000000	84.689549
1691.000000	84.728288
1690.000000	84.755786
1689.000000	84.760436
1688.000000	84.765801
1687.000000	84.801920
1686.000000	84.860734
1685.000000	84.856930
1684.000000	84.789570
1683.000000	84.779608
1682.000000	84.805488
1681.000000	84.803593
1680.000000	84.785734
1679.000000	84.777668
1678.000000	84.778853
1677.000000	84.767128
1676.000000	84.728942
1675.000000	84.696208
1674.000000	84.687023
1673.000000	84.672362
1672.000000	84.642409
1671.000000	84.606075
1670.000000	84.559327
1669.000000	84.509955
1668.000000	84.477897
1667.000000	84.465170
1666.000000	84.457544
1665.000000	84.438308
1664.000000	84.388206
1663.000000	84.314676
1662.000000	84.247065
1661.000000	84.183801
1660.000000	84.113748
1659.000000	84.051350
1658.000000	83.998202
1657.000000	83.942114
1656.000000	83.887553
1655.000000	83.818337
1654.000000	83.587007
1653.000000	83.216538
1652.000000	82.942179
1651.000000	82.686931
1650.000000	82.352037
1649.000000	81.920917
1648.000000	81.267141
1647.000000	80.284269
1646.000000	79.075625
1645.000000	77.760769
1644.000000	76.293789
1643.000000	74.581131
1642.000000	72.577023
1641.000000	70.324434
1640.000000	67.998156
1639.000000	65.812183
1638.000000	63.876520
1637.000000	62.195993
1636.000000	60.883542
1635.000000	60.232732
1634.000000	60.312440
1633.000000	60.896397
1632.000000	61.774439
1631.000000	62.837397
1630.000000	64.024275
1629.000000	65.293149
1628.000000	66.605807
1627.000000	67.906536
1626.000000	69.154073
1625.000000	70.372862
1624.000000	71.602889
1623.000000	72.811281
1622.000000	73.898717
1621.000000	74.809529
1620.000000	75.592977
1619.000000	76.328624
1618.000000	77.047383
1617.000000	77.734710
1616.000000	78.369270
1615.000000	78.904180
1614.000000	79.316179
1613.000000	79.650771
1612.000000	79.957955
1611.000000	80.235783
1610.000000	80.443205
1609.000000	80.558793
1608.000000	80.593353
1607.000000	80.545553
1606.000000	80.376769
1605.000000	80.044481
1604.000000	79.532961
1603.000000	78.828551
1602.000000	77.922815
1601.000000	76.852524
1600.000000	75.684695
1599.000000	74.451559
1598.000000	73.115869
1597.000000	71.633323
1596.000000	70.047668
1595.000000	68.517549
1594.000000	67.239127
1593.000000	66.330297
1592.000000	65.788259
1591.000000	65.523971
1590.000000	65.416572
1589.000000	65.352247
1588.000000	65.243455
1587.000000	65.020001
1586.000000	64.629580
1585.000000	64.072201
1584.000000	63.418121
1583.000000	62.748530
1582.000000	62.091896
1581.000000	61.451502
1580.000000	60.851286
1579.000000	60.281357
1578.000000	59.602810
1577.000000	58.584515
1576.000000	57.205471
1575.000000	55.796443
1574.000000	54.615861
1573.000000	53.630680
1572.000000	52.723455
1571.000000	51.826097
1570.000000	50.961719
1569.000000	50.255640
1568.000000	49.842204
1567.000000	49.751422
1566.000000	49.903149
1565.000000	50.184064
1564.000000	50.554431
1563.000000	51.048885
1562.000000	51.705013
1561.000000	52.514114
1560.000000	53.458499
1559.000000	54.526688
1558.000000	55.672118
1557.000000	56.693614
1556.000000	57.540702
1555.000000	58.322738
1554.000000	59.061199
1553.000000	59.702900
1552.000000	60.231567
1551.000000	60.695698
1550.000000	61.150205
1549.000000	61.625707
1548.000000	62.149045
1547.000000	62.755918
1546.000000	63.454108
1545.000000	64.191099
1544.000000	64.909246
1543.000000	65.608045
1542.000000	66.318688
1541.000000	67.024665
1540.000000	67.691887
1539.000000	68.351344
1538.000000	68.967273
1537.000000	69.487162
1536.000000	69.961654
1535.000000	70.460845
1534.000000	70.982147
1533.000000	71.489200
1532.000000	71.969339
1531.000000	72.431015
1530.000000	72.890124
1529.000000	73.339758
1528.000000	73.755922
1527.000000	74.135591
1526.000000	74.489863
1525.000000	74.823774
1524.000000	75.145028
1523.000000	75.464357
1522.000000	75.761709
1521.000000	76.021364
1520.000000	76.258558
1519.000000	76.481111
1518.000000	76.683998
1517.000000	76.850721
1516.000000	76.992860
1515.000000	77.149699
1514.000000	77.333210
1513.000000	77.538307
1512.000000	77.757797
1511.000000	77.984644
1510.000000	78.216961
1509.000000	78.441163
1508.000000	78.596284
1507.000000	78.638166
1506.000000	78.732618
1505.000000	78.936310
1504.000000	79.124455
1503.000000	79.276092
1502.000000	79.425003
1501.000000	79.574989
1500.000000	79.723323
1499.000000	79.873507
1498.000000	80.021136
1497.000000	80.165303
1496.000000	80.319006
1495.000000	80.483966
1494.000000	80.642582
1493.000000	80.789283
1492.000000	80.929545
1491.000000	81.052063
1490.000000	81.137140
1489.000000	81.198978
1488.000000	81.265649
1487.000000	81.351332
1486.000000	81.453353
1485.000000	81.538157
1484.000000	81.581701
1483.000000	81.575791
1482.000000	81.497071
1481.000000	81.323931
1480.000000	81.062129
1479.000000	80.706498
1478.000000	80.187261
1477.000000	79.421593
1476.000000	78.408576
1475.000000	77.206264
1474.000000	75.805894
1473.000000	74.206931
1472.000000	72.640849
1471.000000	71.407485
1470.000000	70.565337
1469.000000	70.022268
1468.000000	69.727089
1467.000000	69.695313
1466.000000	69.961857
1465.000000	70.515655
1464.000000	71.252762
1463.000000	71.985369
1462.000000	72.551878
1461.000000	72.882621
1460.000000	72.952362
1459.000000	72.699104
1458.000000	71.996083
1457.000000	70.916919
1456.000000	69.893161
1455.000000	69.197602
1454.000000	68.746117
1453.000000	68.413509
1452.000000	68.154083
1451.000000	67.969310
1450.000000	67.867205
1449.000000	67.852442
1448.000000	67.920611
1447.000000	68.059249
1446.000000	68.262380
1445.000000	68.559751
1444.000000	69.001300
1443.000000	69.597264
1442.000000	70.311552
1441.000000	71.101656
1440.000000	71.947838
1439.000000	72.845746
1438.000000	73.796911
1437.000000	74.777366
1436.000000	75.708680
1435.000000	76.488457
1434.000000	77.100025
1433.000000	77.615394
1432.000000	78.081050
1431.000000	78.483693
1430.000000	78.808667
1429.000000	79.083010
1428.000000	79.335864
1427.000000	79.572776
1426.000000	79.786294
1425.000000	79.970755
1424.000000	80.136683
1423.000000	80.300390
1422.000000	80.476358
1421.000000	80.667508
1420.000000	80.846766
1419.000000	80.971350
1418.000000	81.048865
1417.000000	81.126379
1416.000000	81.228429
1415.000000	81.349052
1414.000000	81.473071
1413.000000	81.595822
1412.000000	81.720220
1411.000000	81.841940
1410.000000	81.957909
1409.000000	82.079575
1408.000000	82.209362
1407.000000	82.328979
1406.000000	82.413010
1405.000000	82.451675
1404.000000	82.460924
1403.000000	82.453988
1402.000000	82.423780
1401.000000	82.344240
1400.000000	82.180276
1399.000000	81.932765
1398.000000	81.673031
1397.000000	81.496730
1396.000000	81.461214
1395.000000	81.568649
1394.000000	81.762943
1393.000000	81.966902
1392.000000	82.142846
1391.000000	82.306025
1390.000000	82.491218
1389.000000	82.718202
1388.000000	82.980435
1387.000000	83.260567
1386.000000	83.544794
1385.000000	83.818386
1384.000000	84.066022
1383.000000	84.273184
1382.000000	84.436255
1381.000000	84.562239
1380.000000	84.653503
1379.000000	84.705917
1378.000000	84.716649
1377.000000	84.670893
1376.000000	84.502610
1375.000000	84.071370
1374.000000	83.186057
1373.000000	81.684016
1372.000000	79.515343
1371.000000	76.827451
1370.000000	74.027992
1369.000000	71.732658
1368.000000	70.494653
1367.000000	70.444586
1366.000000	71.237926
1365.000000	72.331321
1364.000000	73.227305
1363.000000	73.591932
1362.000000	73.371650
1361.000000	72.854950
1360.000000	72.526506
1359.000000	72.800602
1358.000000	73.812188
1357.000000	75.360580
1356.000000	77.056723
1355.000000	78.562069
1354.000000	79.732352
1353.000000	80.597782
1352.000000	81.247648
1351.000000	81.759839
1350.000000	82.189696
1349.000000	82.571817
1348.000000	82.923037
1347.000000	83.248797
1346.000000	83.549654
1345.000000	83.821189
1344.000000	84.056793
1343.000000	84.252203
1342.000000	84.406772
1341.000000	84.517526
1340.000000	84.583665
1339.000000	84.624599
1338.000000	84.676150
1337.000000	84.764567
1336.000000	84.892146
1335.000000	85.043276
1334.000000	85.191826
1333.000000	85.294617
1332.000000	85.286448
1331.000000	85.093899
1330.000000	84.661805
1329.000000	83.974343
1328.000000	83.040105
1327.000000	81.861628
1326.000000	80.434393
1325.000000	78.812961
1324.000000	77.203394
1323.000000	75.933033
1322.000000	75.253827
1321.000000	75.161171
1320.000000	75.420500
1319.000000	75.761158
1318.000000	76.043308
1317.000000	76.263657
1316.000000	76.466362
1315.000000	76.693940
1314.000000	76.991465
1313.000000	77.412823
1312.000000	77.997289
1311.000000	78.737256
1310.000000	79.570828
1309.000000	80.403044
1308.000000	81.137525
1307.000000	81.706249
1306.000000	82.080027
1305.000000	82.250843
1304.000000	82.214327
1303.000000	81.966750
1302.000000	81.512714
1301.000000	80.881222
1300.000000	80.145261
1299.000000	79.432283
1298.000000	78.889666
1297.000000	78.607491
1296.000000	78.562684
1295.000000	78.628224
1294.000000	78.633250
1293.000000	78.424311
1292.000000	77.902774
1291.000000	77.040095
1290.000000	75.861722
1289.000000	74.422340
1288.000000	72.817266
1287.000000	71.225101
1286.000000	69.902344
1285.000000	69.088035
1284.000000	68.887901
1283.000000	69.244109
1282.000000	70.019006
1281.000000	71.089640
1280.000000	72.356541
1279.000000	73.679922
1278.000000	74.856965
1277.000000	75.696251
1276.000000	76.101737
1275.000000	76.090299
1274.000000	75.771735
1273.000000	75.341569
1272.000000	75.061560
1271.000000	75.172377
1270.000000	75.767902
1269.000000	76.744679
1268.000000	77.880789
1267.000000	78.970442
1266.000000	79.904635
1265.000000	80.668200
1264.000000	81.295353
1263.000000	81.829841
1262.000000	82.305893
1261.000000	82.742743
1260.000000	83.144540
1259.000000	83.505010
1258.000000	83.817514
1257.000000	84.077209
1256.000000	84.280612
1255.000000	84.429968
1254.000000	84.537072
1253.000000	84.621570
1252.000000	84.702762
1251.000000	84.796080
1250.000000	84.913328
1249.000000	85.059289
1248.000000	85.228588
1247.000000	85.407806
1246.000000	85.581285
1245.000000	85.734457
1244.000000	85.854251
1243.000000	85.933067
1242.000000	85.973413
1241.000000	85.986142
1240.000000	85.984656
1239.000000	85.982062
1238.000000	85.991227
1237.000000	86.020476
1236.000000	86.068025
1235.000000	86.123786
1234.000000	86.175105
1233.000000	86.209158
1232.000000	86.211666
1231.000000	86.169398
1230.000000	86.077151
1229.000000	85.937101
1228.000000	85.753450
1227.000000	85.528769
1226.000000	85.261447
1225.000000	84.943273
1224.000000	84.550911
1223.000000	84.047959
1222.000000	83.393397
1221.000000	82.547030
1220.000000	81.483660
1219.000000	80.202756
1218.000000	78.733502
1217.000000	77.129778
1216.000000	75.461670
1215.000000	73.814913
1214.000000	72.290087
1213.000000	70.995018
1212.000000	70.028803
1211.000000	69.456161
1210.000000	69.269651
1209.000000	69.388499
1208.000000	69.691603
1207.000000	70.048561
1206.000000	70.344194
1205.000000	70.490353
1204.000000	70.437038
1203.000000	70.178263
1202.000000	69.751387
1201.000000	69.239178
1200.000000	68.765351
1199.000000	68.471773
1198.000000	68.474664
1197.000000	68.823780
1196.000000	69.497358
1195.000000	70.417785
1194.000000	71.482698
1193.000000	72.600554
1192.000000	73.706696
1191.000000	74.765193
1190.000000	75.759642
1189.000000	76.687215
1188.000000	77.553958
1187.000000	78.367000
1186.000000	79.128256
1185.000000	79.835994
1184.000000	80.486830
1183.000000	81.071660
1182.000000	81.578452
1181.000000	81.994312
1180.000000	82.311069
1179.000000	82.532200
1178.000000	82.672414
1177.000000	82.755274
1176.000000	82.802759
1175.000000	82.829679
1174.000000	82.844224
1173.000000	82.842009
1172.000000	82.803341
1171.000000	82.689904
1170.000000	82.449662
1169.000000	82.028956
1168.000000	81.383338
1167.000000	80.501048
1166.000000	79.426343
1165.000000	78.269185
1164.000000	77.191031
1163.000000	76.366009
1162.000000	75.923988
1161.000000	75.911866
1160.000000	76.291040
1159.000000	76.955085
1158.000000	77.770114
1157.000000	78.609763
1156.000000	79.377764
1155.000000	80.015493
1154.000000	80.497601
1153.000000	80.826242
1152.000000	81.021014
1151.000000	81.107323
1150.000000	81.105370
1149.000000	81.029392
1148.000000	80.877380
1147.000000	80.626408
1146.000000	80.234135
1145.000000	79.636658
1144.000000	78.763145
1143.000000	77.543767
1142.000000	75.934663
1141.000000	73.957141
1140.000000	71.719351
1139.000000	69.406341
1138.000000	67.208404
1137.000000	65.236129
1136.000000	63.481090
1135.000000	61.848198
1134.000000	60.240036
1133.000000	58.672870
1132.000000	57.340620
1131.000000	56.546371
1130.000000	56.553395
1129.000000	57.430796
1128.000000	59.022124
1127.000000	61.017362
1126.000000	63.055734
1125.000000	64.820261
1124.000000	66.075188
1123.000000	66.654149
1122.000000	66.449295
1121.000000	65.423984
1120.000000	63.595327
1119.000000	61.035692
1118.000000	57.933414
1117.000000	54.701039
1116.000000	52.006784
1115.000000	50.585827
1114.000000	50.877802
1113.000000	52.775953
1112.000000	55.687233
1111.000000	58.793120
1110.000000	61.380625
1109.000000	63.090893
1108.000000	63.990644
1107.000000	64.435035
1106.000000	64.796157
1105.000000	65.254351
1104.000000	65.793887
1103.000000	66.324850
1102.000000	66.736396
1101.000000	66.878750
1100.000000	66.588220
1099.000000	65.839072
1098.000000	64.897342
1097.000000	64.266482
1096.000000	64.411845
1095.000000	65.483590
1094.000000	67.254094
1093.000000	69.294629
1092.000000	71.227971
1091.000000	72.857716
1090.000000	74.159226
1089.000000	75.200324
1088.000000	76.064720
1087.000000	76.816098
1086.000000	77.497603
1085.000000	78.135184
1084.000000	78.733606
1083.000000	79.284775
1082.000000	79.777055
1081.000000	80.203756
1080.000000	80.561088
1079.000000	80.844214
1078.000000	81.057194
1077.000000	81.207740
1076.000000	81.294123
1075.000000	81.299122
1074.000000	81.187996
1073.000000	80.917456
1072.000000	80.412435
1071.000000	79.557445
1070.000000	78.204129
1069.000000	76.162276
1068.000000	73.240845
1067.000000	69.337657
1066.000000	64.601570
1065.000000	59.554066
1064.000000	54.997435
1063.000000	51.668089
1062.000000	49.800035
1061.000000	48.934813
1060.000000	48.184918
1059.000000	46.823094
1058.000000	44.751929
1057.000000	42.573083
1056.000000	41.198430
1055.000000	41.262282
1054.000000	42.820762
1053.000000	45.449032
1052.000000	48.586346
1051.000000	51.800650
1050.000000	54.827579
1049.000000	57.541335
1048.000000	59.914625
1047.000000	61.981515
1046.000000	63.792228
1045.000000	65.386383
1044.000000	66.786967
1043.000000	68.009228
1042.000000	69.066609
1041.000000	69.968186
1040.000000	70.731945
1039.000000	71.380209
1038.000000	71.934317
1037.000000	72.412370
1036.000000	72.827471
1035.000000	73.193564
1034.000000	73.520643
1033.000000	73.813280
1032.000000	74.074910
1031.000000	74.309565
1030.000000	74.523282
1029.000000	74.720563
1028.000000	74.902862
1027.000000	75.069595
1026.000000	75.216577
1025.000000	75.337035
1024.000000	75.422185
1023.000000	75.462898
1022.000000	75.452834
1021.000000	75.384011
1020.000000	75.246182
1019.000000	75.023142
1018.000000	74.688281
1017.000000	74.205620
1016.000000	73.527411
1015.000000	72.613139
1014.000000	71.457770
1013.000000	70.118681
1012.000000	68.725202
1011.000000	67.438834
1010.000000	66.370549
1009.000000	65.501757
1008.000000	64.693311
1007.000000	63.812916
1006.000000	62.912351
1005.000000	62.280677
1004.000000	62.289009
1003.000000	63.125020
1002.000000	64.632769
1001.000000	66.411601
1000.000000	68.040191
999.000000	69.232794
998.000000	69.869133
997.000000	69.967963
996.000000	69.671723
995.000000	69.218403
994.000000	68.868865
993.000000	68.816988
992.000000	69.142938
991.000000	69.816858
990.000000	70.731090
989.000000	71.749896
988.000000	72.760635
987.000000	73.696173
986.000000	74.531420
985.000000	75.267442
984.000000	75.916216
983.000000	76.491213
982.000000	77.002575
981.000000	77.454319
980.000000	77.845827
979.000000	78.179396
978.000000	78.460096
977.000000	78.695574
976.000000	78.895783
975.000000	79.073493
974.000000	79.244570
973.000000	79.421796
972.000000	79.611388
971.000000	79.813431
970.000000	80.023138
969.000000	80.231478
968.000000	80.425993
967.000000	80.595881
966.000000	80.736937
965.000000	80.851099
964.000000	80.944088
963.000000	81.024971
962.000000	81.106439
961.000000	81.200831
960.000000	81.314192
959.000000	81.445401
958.000000	81.588760
957.000000	81.735420
956.000000	81.874171
955.000000	81.995268
954.000000	82.095314
953.000000	82.176856
952.000000	82.244491
951.000000	82.304153
950.000000	82.364669
949.000000	82.435774
948.000000	82.522927
947.000000	82.625613
946.000000	82.739798
945.000000	82.858967
944.000000	82.973932
943.000000	83.076165
942.000000	83.162879
941.000000	83.236757
940.000000	83.301297
939.000000	83.359944
938.000000	83.418382
937.000000	83.482765
936.000000	83.555046
935.000000	83.632950
934.000000	83.714238
933.000000	83.797147
932.000000	83.877285
931.000000	83.949239
930.000000	84.012069
929.000000	84.069841
928.000000	84.126851
927.000000	84.185974
926.000000	84.250757
925.000000	84.323336
924.000000	84.399764
923.000000	84.472036
922.000000	84.535194
921.000000	84.588578
920.000000	84.631338
919.000000	84.663332
918.000000	84.691008
917.000000	84.725879
916.000000	84.775693
915.000000	84.841444
914.000000	84.921873
913.000000	85.014210
912.000000	85.108086
911.000000	85.186435
910.000000	85.232714
909.000000	85.232119
908.000000	85.166491
907.000000	85.013455
906.000000	84.755938
905.000000	84.383561
904.000000	83.890237
903.000000	83.293288
902.000000	82.668355
901.000000	82.155279
900.000000	81.904299
899.000000	81.990112
898.000000	82.361318
897.000000	82.873779
896.000000	83.372455
895.000000	83.763973
894.000000	84.036775
893.000000	84.223699
892.000000	84.356967
891.000000	84.454884
890.000000	84.538994
889.000000	84.642548
888.000000	84.790305
887.000000	84.968597
886.000000	85.120006
885.000000	85.168715
884.000000	85.057689
883.000000	84.784144
882.000000	84.409500
881.000000	84.028854
880.000000	83.711380
879.000000	83.464065
878.000000	83.257801
877.000000	83.089637
876.000000	83.015194
875.000000	83.110542
874.000000	83.402222
873.000000	83.830671
872.000000	84.281234
871.000000	84.652032
870.000000	84.901892
869.000000	85.049557
868.000000	85.140582
867.000000	85.219795
866.000000	85.319814
865.000000	85.456877
864.000000	85.627213
863.000000	85.811538
862.000000	85.986035
861.000000	86.129009
860.000000	86.222310
859.000000	86.254978
858.000000	86.231428
857.000000	86.171739
856.000000	86.102385
855.000000	86.049749
854.000000	86.038598
853.000000	86.086493
852.000000	86.194029
851.000000	86.343407
850.000000	86.507874
849.000000	86.659901
848.000000	86.773348
847.000000	86.828688
846.000000	86.822074
845.000000	86.766674
844.000000	86.684374
843.000000	86.600257
842.000000	86.541926
841.000000	86.533416
840.000000	86.584360
839.000000	86.687031
838.000000	86.823349
837.000000	86.970036
836.000000	87.099081
835.000000	87.184143
834.000000	87.212843
833.000000	87.189827
832.000000	87.128464
831.000000	87.046815
830.000000	86.971217
829.000000	86.931857
828.000000	86.947814
827.000000	87.019821
826.000000	87.137668
825.000000	87.285754
824.000000	87.439613
823.000000	87.568502
822.000000	87.649802
821.000000	87.677075
820.000000	87.654227
819.000000	87.591548
818.000000	87.509203
817.000000	87.434403
816.000000	87.388050
815.000000	87.377435
814.000000	87.399928
813.000000	87.443203
812.000000	87.479567
811.000000	87.469726
810.000000	87.382179
809.000000	87.208645
808.000000	86.959922
807.000000	86.655867
806.000000	86.316932
805.000000	85.953924
804.000000	85.559258
803.000000	85.107498
802.000000	84.568194
801.000000	83.908054
800.000000	83.086234
799.000000	82.062954
798.000000	80.816477
797.000000	79.356561
796.000000	77.720642
795.000000	75.970533
794.000000	74.192646
793.000000	72.491675
792.000000	70.976765
791.000000	69.747878
790.000000	68.885778
789.000000	68.435296
788.000000	68.394373
787.000000	68.708913
786.000000	69.288486
785.000000	70.030953
784.000000	70.834389
783.000000	71.608625
782.000000	72.285290
781.000000	72.824556
780.000000	73.209244
779.000000	73.440147
778.000000	73.539087
777.000000	73.543442
776.000000	73.483517
775.000000	73.364416
774.000000	73.178637
773.000000	72.935520
772.000000	72.682051
771.000000	72.499970
770.000000	72.484018
769.000000	72.705752
768.000000	73.182379
767.000000	73.874153
766.000000	74.714001
765.000000	75.641324
764.000000	76.608828
763.000000	77.576310
762.000000	78.508845
761.000000	79.377081
760.000000	80.152163
759.000000	80.808180
758.000000	81.337281
757.000000	81.756182
756.000000	82.095108
755.000000	82.386814
754.000000	82.668112
753.000000	82.974960
752.000000	83.325284
751.000000	83.711233
750.000000	84.109531
749.000000	84.490817
748.000000	84.817289
747.000000	85.049742
746.000000	85.171106
745.000000	85.197407
744.000000	85.162823
743.000000	85.104351
742.000000	85.062696
741.000000	85.078955
740.000000	85.175135
739.000000	85.342910
738.000000	85.554310
737.000000	85.771603
736.000000	85.944284
735.000000	86.017174
734.000000	85.958705
733.000000	85.776727
732.000000	85.505232
731.000000	85.190557
730.000000	84.891914
729.000000	84.670172
728.000000	84.559722
727.000000	84.553258
726.000000	84.613830
725.000000	84.692431
724.000000	84.729370
723.000000	84.654385
722.000000	84.399612
721.000000	83.914129
720.000000	83.174142
719.000000	82.201740
718.000000	81.082277
717.000000	79.952663
716.000000	78.960910
715.000000	78.228223
714.000000	77.833715
713.000000	77.801793
712.000000	78.084790
711.000000	78.573031
710.000000	79.147433
709.000000	79.724298
708.000000	80.257520
707.000000	80.730080
706.000000	81.158488
705.000000	81.588157
704.000000	82.060355
703.000000	82.585494
702.000000	83.156709
701.000000	83.763734
700.000000	84.373713
699.000000	84.926546
698.000000	85.368753
697.000000	85.682769
696.000000	85.874009
695.000000	85.951647
694.000000	85.949349
693.000000	85.934724
692.000000	85.967880
691.000000	86.069915
690.000000	86.241567
689.000000	86.486614
688.000000	86.787298
687.000000	87.082494
686.000000	87.312728
685.000000	87.459853
684.000000	87.519491
683.000000	87.480244
682.000000	87.360755
681.000000	87.228076
680.000000	87.138599
679.000000	87.099291
678.000000	87.112376
677.000000	87.194858
676.000000	87.342605
675.000000	87.514721
674.000000	87.681131
673.000000	87.866586
672.000000	88.134631
671.000000	88.527554
670.000000	89.013257
669.000000	89.379891
668.000000	89.202924
667.000000	88.526391
666.000000	87.927134
665.000000	87.614419
664.000000	87.511725
663.000000	87.560705
662.000000	87.698577
661.000000	87.846968
660.000000	87.937700
659.000000	87.957239
658.000000	87.923293
657.000000	87.840120
656.000000	87.718118
655.000000	87.607170
654.000000	87.548561
653.000000	87.534139
652.000000	87.552608
651.000000	87.618104
650.000000	87.721327
649.000000	87.803741
648.000000	87.820309
647.000000	87.781481
646.000000	87.706224
645.000000	87.588885
644.000000	87.433392
643.000000	87.276377
642.000000	87.151734
641.000000	87.058924
640.000000	86.992454
639.000000	86.967766
638.000000	86.986869
637.000000	87.013966
636.000000	87.012969
635.000000	86.976816
634.000000	86.905407
633.000000	86.788539
632.000000	86.629387
631.000000	86.459124
630.000000	86.306855
629.000000	86.175594
628.000000	86.065558
627.000000	85.990042
626.000000	85.945853
625.000000	85.901812
624.000000	85.831183
623.000000	85.732617
622.000000	85.607944
621.000000	85.446224
620.000000	85.244131
619.000000	85.014512
618.000000	84.762837
617.000000	84.480368
616.000000	84.176512
615.000000	83.886052
614.000000	83.622818
613.000000	83.355220
612.000000	83.044114
611.000000	82.677619
610.000000	82.252473
609.000000	81.749101
608.000000	81.153760
607.000000	80.480246
606.000000	79.744474
605.000000	78.945036
604.000000	78.084812
603.000000	77.184784
602.000000	76.250160
601.000000	75.252319
600.000000	74.170026
599.000000	73.022851
598.000000	71.834746
597.000000	70.598406
596.000000	69.312466
595.000000	68.016644
594.000000	66.748860
593.000000	65.499061
592.000000	64.250349
591.000000	63.032722
590.000000	61.900518
589.000000	60.897082
588.000000	60.067398
587.000000	59.441849
586.000000	58.956586
585.000000	58.450345
584.000000	57.800641
583.000000	57.018048
582.000000	56.180209
581.000000	55.353029
580.000000	54.623184
579.000000	54.133232
578.000000	53.993058
577.000000	54.207417
576.000000	54.721741
575.000000	55.462344
574.000000	56.305408
573.000000	57.085427
572.000000	57.705442
571.000000	58.207671
570.000000	58.711314
569.000000	59.314036
568.000000	60.064103
567.000000	60.958251
566.000000	61.918574
565.000000	62.823159
564.000000	63.596448
563.000000	64.240958
562.000000	64.776522
561.000000	65.202213
560.000000	65.534214
559.000000	65.822255
558.000000	66.099550
557.000000	66.361274
556.000000	66.616709
555.000000	66.920259
554.000000	67.316404
553.000000	67.794848
552.000000	68.325831
551.000000	68.895157
550.000000	69.477534
549.000000	70.020935
548.000000	70.490433
547.000000	70.895740
546.000000	71.256179
545.000000	71.572618
544.000000	71.854890
543.000000	72.139590
542.000000	72.455520
541.000000	72.797154
540.000000	73.151813
539.000000	73.519017
538.000000	73.884413
537.000000	74.209624
536.000000	74.471888
535.000000	74.689206
534.000000	74.885373
533.000000	75.061367
532.000000	75.211621
531.000000	75.347483
530.000000	75.481861
529.000000	75.604409
528.000000	75.687603
527.000000	75.709173
526.000000	75.646139
525.000000	75.471924
524.000000	75.183145
523.000000	74.810428
522.000000	74.401614
521.000000	73.999130
520.000000	73.629327
519.000000	73.275098
518.000000	72.829184
517.000000	72.115856
516.000000	71.002199
515.000000	69.498542
514.000000	67.757144
513.000000	66.013345
512.000000	64.533835
511.000000	63.559731
510.000000	63.214804
509.000000	63.469596
508.000000	64.219023
507.000000	65.338321
506.000000	66.669567
505.000000	68.044900
504.000000	69.358378
503.000000	70.578808
502.000000	71.682648
501.000000	72.636638
500.000000	73.447304
499.000000	74.173739
498.000000	74.867675
497.000000	75.537448
496.000000	76.171680
495.000000	76.764628
494.000000	77.310868
493.000000	77.787356
492.000000	78.172000
491.000000	78.471173
490.000000	78.707869
489.000000	78.906422
488.000000	79.090232
487.000000	79.287421
486.000000	79.518139
485.000000	79.778989
484.000000	80.052032
483.000000	80.318151
482.000000	80.550562
481.000000	80.709438
480.000000	80.766474
479.000000	80.724505
478.000000	80.596657
477.000000	80.398091
476.000000	80.167068
475.000000	79.959013
474.000000	79.793894
473.000000	79.626097
472.000000	79.395413
471.000000	79.101480
470.000000	78.787729
469.000000	78.502307
468.000000	78.300306
467.000000	78.210889
466.000000	78.156083
465.000000	77.959295
464.000000	77.472844
463.000000	76.709643
462.000000	75.874679
461.000000	75.262632
460.000000	75.138993
459.000000	75.658043
458.000000	76.751674
457.000000	78.091155
456.000000	79.316471
455.000000	80.283934
454.000000	81.004618
453.000000	81.493242
452.000000	81.765736
451.000000	81.897556
450.000000	81.965926
449.000000	81.975209
448.000000	81.877725
447.000000	81.636052
446.000000	81.250265
445.000000	80.761667
444.000000	80.265709
443.000000	79.900124
442.000000	79.761463
441.000000	79.836940
440.000000	80.060483
439.000000	80.382792
438.000000	80.765064
437.000000	81.159018
436.000000	81.528518
435.000000	81.870144
434.000000	82.182411
433.000000	82.436946
432.000000	82.593821
431.000000	82.629406
430.000000	82.547301
429.000000	82.366945
428.000000	82.128408
427.000000	81.896569
426.000000	81.719576
425.000000	81.589402
424.000000	81.485390
423.000000	81.438056
422.000000	81.481532
421.000000	81.580358
420.000000	81.652286
419.000000	81.651717
418.000000	81.599341
417.000000	81.501148
416.000000	81.342783
415.000000	81.164034
414.000000	81.037581
413.000000	81.008697
412.000000	81.086254
411.000000	81.266405
410.000000	81.528925
409.000000	81.804706
408.000000	82.024848
407.000000	82.179051
406.000000	82.276569
405.000000	82.294868
404.000000	82.237725
403.000000	82.182679
402.000000	82.218909
401.000000	82.340621
400.000000	82.466179
