PE IR       SUBTECH     SPECTRUM    ASCII       PEDS        4.00        
   -1
23ms030-trans.asc
24/10/14
15:51:38.00
24/10/14
15:51:38.00
Administrator
Sample 1264 By Administrator Date Monday, October 14 2024
400.000000
#HDR
-1
-1
#GR
cm-1
%T
1.0
0.0
4000.000000
-1.000000
3601
8
77.804284
2.303691
#DATA
4000.000000	27.554666
3999.000000	27.533278
3998.000000	27.510120
3997.000000	27.484960
3996.000000	27.456861
3995.000000	27.425098
3994.000000	27.390171
3993.000000	27.353298
3992.000000	27.315246
3991.000000	27.275938
3990.000000	27.235633
3989.000000	27.196548
3988.000000	27.162383
3987.000000	27.136210
3986.000000	27.119439
3985.000000	27.112122
3984.000000	27.113114
3983.000000	27.119597
3982.000000	27.127372
3981.000000	27.132481
3980.000000	27.132446
3979.000000	27.126821
3978.000000	27.116682
3977.000000	27.103445
3976.000000	27.088716
3975.000000	27.074315
3974.000000	27.062561
3973.000000	27.056710
3972.000000	27.060373
3971.000000	27.076369
3970.000000	27.105070
3969.000000	27.144719
3968.000000	27.193184
3967.000000	27.248636
3966.000000	27.309972
3965.000000	27.376880
3964.000000	27.448686
3963.000000	27.522822
3962.000000	27.595213
3961.000000	27.661961
3960.000000	27.721424
3959.000000	27.774645
3958.000000	27.822287
3957.000000	27.864364
3956.000000	27.901694
3955.000000	27.935055
3954.000000	27.964917
3953.000000	27.990763
3952.000000	28.012644
3951.000000	28.032124
3950.000000	28.051422
3949.000000	28.072744
3948.000000	28.096227
3947.000000	28.121178
3946.000000	28.148803
3945.000000	28.181061
3944.000000	28.216019
3943.000000	28.245788
3942.000000	28.265620
3941.000000	28.279974
3940.000000	28.295555
3939.000000	28.314323
3938.000000	28.330690
3937.000000	28.338760
3936.000000	28.341700
3935.000000	28.348229
3934.000000	28.365325
3933.000000	28.391428
3932.000000	28.420958
3931.000000	28.449390
3930.000000	28.471974
3929.000000	28.488413
3928.000000	28.502030
3927.000000	28.517945
3926.000000	28.537135
3925.000000	28.551718
3924.000000	28.557430
3923.000000	28.560897
3922.000000	28.568594
3921.000000	28.579531
3920.000000	28.590149
3919.000000	28.603465
3918.000000	28.624956
3917.000000	28.651822
3916.000000	28.675921
3915.000000	28.692225
3914.000000	28.703746
3913.000000	28.715425
3912.000000	28.726916
3911.000000	28.738781
3910.000000	28.751764
3909.000000	28.767252
3908.000000	28.789564
3907.000000	28.816612
3906.000000	28.840925
3905.000000	28.851835
3904.000000	28.850227
3903.000000	28.856551
3902.000000	28.887571
3901.000000	28.939517
3900.000000	28.990547
3899.000000	29.017790
3898.000000	29.020968
3897.000000	29.016225
3896.000000	29.014821
3895.000000	29.022822
3894.000000	29.040983
3893.000000	29.066773
3892.000000	29.090062
3891.000000	29.097981
3890.000000	29.091840
3889.000000	29.087758
3888.000000	29.106229
3887.000000	29.146866
3886.000000	29.180974
3885.000000	29.190602
3884.000000	29.192623
3883.000000	29.211340
3882.000000	29.246249
3881.000000	29.273653
3880.000000	29.276279
3879.000000	29.263566
3878.000000	29.257810
3877.000000	29.271839
3876.000000	29.300287
3875.000000	29.321732
3874.000000	29.320451
3873.000000	29.309732
3872.000000	29.321150
3871.000000	29.359307
3870.000000	29.390371
3869.000000	29.396563
3868.000000	29.397558
3867.000000	29.415142
3866.000000	29.445016
3865.000000	29.458941
3864.000000	29.449141
3863.000000	29.440887
3862.000000	29.445878
3861.000000	29.459061
3860.000000	29.479406
3859.000000	29.514023
3858.000000	29.577589
3857.000000	29.673504
3856.000000	29.783636
3855.000000	29.846664
3854.000000	29.820751
3853.000000	29.774987
3852.000000	29.784388
3851.000000	29.814354
3850.000000	29.811333
3849.000000	29.773039
3848.000000	29.719972
3847.000000	29.678304
3846.000000	29.660933
3845.000000	29.661410
3844.000000	29.668927
3843.000000	29.675885
3842.000000	29.682527
3841.000000	29.704689
3840.000000	29.742625
3839.000000	29.774135
3838.000000	29.792293
3837.000000	29.807632
3836.000000	29.828228
3835.000000	29.848775
3834.000000	29.864683
3833.000000	29.877702
3832.000000	29.883114
3831.000000	29.878675
3830.000000	29.877237
3829.000000	29.891013
3828.000000	29.917789
3827.000000	29.944596
3826.000000	29.956864
3825.000000	29.962250
3824.000000	29.984822
3823.000000	30.031642
3822.000000	30.076992
3821.000000	30.090497
3820.000000	30.083655
3819.000000	30.092330
3818.000000	30.134140
3817.000000	30.187647
3816.000000	30.212069
3815.000000	30.205011
3814.000000	30.203678
3813.000000	30.220621
3812.000000	30.232512
3811.000000	30.227993
3810.000000	30.225386
3809.000000	30.243428
3808.000000	30.274430
3807.000000	30.292186
3806.000000	30.290905
3805.000000	30.299009
3804.000000	30.336825
3803.000000	30.397592
3802.000000	30.436997
3801.000000	30.425738
3800.000000	30.399598
3799.000000	30.396247
3798.000000	30.412779
3797.000000	30.424049
3796.000000	30.415444
3795.000000	30.399023
3794.000000	30.396264
3793.000000	30.409714
3792.000000	30.424710
3791.000000	30.434852
3790.000000	30.445278
3789.000000	30.458652
3788.000000	30.473562
3787.000000	30.489900
3786.000000	30.508840
3785.000000	30.527210
3784.000000	30.538131
3783.000000	30.544068
3782.000000	30.555893
3781.000000	30.576298
3780.000000	30.594212
3779.000000	30.602955
3778.000000	30.610335
3777.000000	30.626090
3776.000000	30.647008
3775.000000	30.661601
3774.000000	30.666243
3773.000000	30.669093
3772.000000	30.679307
3771.000000	30.693036
3770.000000	30.697536
3769.000000	30.693308
3768.000000	30.693721
3767.000000	30.705314
3766.000000	30.721619
3765.000000	30.725226
3764.000000	30.711069
3763.000000	30.696641
3762.000000	30.697055
3761.000000	30.706651
3760.000000	30.706794
3759.000000	30.701774
3758.000000	30.709572
3757.000000	30.728115
3756.000000	30.750409
3755.000000	30.778695
3754.000000	30.818298
3753.000000	30.860469
3752.000000	30.887808
3751.000000	30.910781
3750.000000	30.948795
3749.000000	30.990087
3748.000000	31.018957
3747.000000	31.054230
3746.000000	31.110491
3745.000000	31.142412
3744.000000	31.112680
3743.000000	31.065786
3742.000000	31.034303
3741.000000	31.003982
3740.000000	30.959743
3739.000000	30.912907
3738.000000	30.894835
3737.000000	30.914154
3736.000000	30.954556
3735.000000	30.992008
3734.000000	31.022150
3733.000000	31.051464
3732.000000	31.066198
3731.000000	31.053690
3730.000000	31.022334
3729.000000	30.994326
3728.000000	30.984322
3727.000000	30.980411
3726.000000	30.968360
3725.000000	30.955517
3724.000000	30.954667
3723.000000	30.958732
3722.000000	30.952657
3721.000000	30.942775
3720.000000	30.938538
3719.000000	30.940124
3718.000000	30.940951
3717.000000	30.934263
3716.000000	30.929150
3715.000000	30.936399
3714.000000	30.953410
3713.000000	30.965751
3712.000000	30.964870
3711.000000	30.961289
3710.000000	30.964972
3709.000000	30.971771
3708.000000	30.970681
3707.000000	30.954045
3706.000000	30.927400
3705.000000	30.903850
3704.000000	30.889832
3703.000000	30.878400
3702.000000	30.859934
3701.000000	30.836305
3700.000000	30.812425
3699.000000	30.788841
3698.000000	30.767150
3697.000000	30.745019
3696.000000	30.718523
3695.000000	30.691738
3694.000000	30.671212
3693.000000	30.658039
3692.000000	30.643987
3691.000000	30.618185
3690.000000	30.578666
3689.000000	30.540577
3688.000000	30.518985
3687.000000	30.503312
3686.000000	30.474657
3685.000000	30.428629
3684.000000	30.366712
3683.000000	30.294823
3682.000000	30.228995
3681.000000	30.178327
3680.000000	30.137923
3679.000000	30.093730
3678.000000	30.047965
3677.000000	30.008847
3676.000000	29.960273
3675.000000	29.893047
3674.000000	29.820250
3673.000000	29.751583
3672.000000	29.689376
3671.000000	29.620708
3670.000000	29.524350
3669.000000	29.412089
3668.000000	29.311967
3667.000000	29.219069
3666.000000	29.113553
3665.000000	28.994392
3664.000000	28.871088
3663.000000	28.752741
3662.000000	28.640084
3661.000000	28.525831
3660.000000	28.411605
3659.000000	28.302162
3658.000000	28.196342
3657.000000	28.084058
3656.000000	27.957617
3655.000000	27.823808
3654.000000	27.688255
3653.000000	27.550035
3652.000000	27.404471
3651.000000	27.240071
3650.000000	27.058510
3649.000000	26.891670
3648.000000	26.762401
3647.000000	26.646410
3646.000000	26.505468
3645.000000	26.332750
3644.000000	26.145406
3643.000000	25.958978
3642.000000	25.774120
3641.000000	25.587043
3640.000000	25.401294
3639.000000	25.218351
3638.000000	25.033545
3637.000000	24.843297
3636.000000	24.653543
3635.000000	24.471289
3634.000000	24.293678
3633.000000	24.117648
3632.000000	23.945084
3631.000000	23.774721
3630.000000	23.591395
3629.000000	23.387717
3628.000000	23.185205
3627.000000	23.000726
3626.000000	22.818076
3625.000000	22.620819
3624.000000	22.412933
3623.000000	22.206497
3622.000000	22.010251
3621.000000	21.822293
3620.000000	21.631722
3619.000000	21.432969
3618.000000	21.232024
3617.000000	21.034196
3616.000000	20.840669
3615.000000	20.650473
3614.000000	20.459745
3613.000000	20.267454
3612.000000	20.077980
3611.000000	19.894043
3610.000000	19.714265
3609.000000	19.537600
3608.000000	19.361661
3607.000000	19.183268
3606.000000	19.000817
3605.000000	18.815479
3604.000000	18.630870
3603.000000	18.447609
3602.000000	18.265321
3601.000000	18.086398
3600.000000	17.913060
3599.000000	17.744684
3598.000000	17.579986
3597.000000	17.417828
3596.000000	17.258634
3595.000000	17.100204
3594.000000	16.938305
3593.000000	16.774121
3592.000000	16.610665
3591.000000	16.448756
3590.000000	16.289471
3589.000000	16.135446
3588.000000	15.986988
3587.000000	15.840598
3586.000000	15.693162
3585.000000	15.545180
3584.000000	15.397766
3583.000000	15.250281
3582.000000	15.103567
3581.000000	14.961215
3580.000000	14.825217
3579.000000	14.691832
3578.000000	14.556283
3577.000000	14.419039
3576.000000	14.283310
3575.000000	14.150187
3574.000000	14.017628
3573.000000	13.884311
3572.000000	13.750026
3571.000000	13.614394
3570.000000	13.481030
3569.000000	13.359218
3568.000000	13.255212
3567.000000	13.162685
3566.000000	13.067800
3565.000000	12.961933
3564.000000	12.845624
3563.000000	12.724022
3562.000000	12.603095
3561.000000	12.488375
3560.000000	12.381546
3559.000000	12.278646
3558.000000	12.174853
3557.000000	12.069820
3556.000000	11.965666
3555.000000	11.862791
3554.000000	11.760701
3553.000000	11.660436
3552.000000	11.562989
3551.000000	11.465768
3550.000000	11.364782
3549.000000	11.259747
3548.000000	11.153560
3547.000000	11.049217
3546.000000	10.949405
3545.000000	10.857246
3544.000000	10.773610
3543.000000	10.695055
3542.000000	10.616955
3541.000000	10.537301
3540.000000	10.455038
3539.000000	10.368107
3538.000000	10.277173
3537.000000	10.188172
3536.000000	10.107305
3535.000000	10.033853
3534.000000	9.962442
3533.000000	9.889958
3532.000000	9.816274
3531.000000	9.741217
3530.000000	9.664523
3529.000000	9.587626
3528.000000	9.511030
3527.000000	9.431830
3526.000000	9.348493
3525.000000	9.266150
3524.000000	9.192230
3523.000000	9.128101
3522.000000	9.068802
3521.000000	9.009634
3520.000000	8.948836
3519.000000	8.885070
3518.000000	8.817464
3517.000000	8.747472
3516.000000	8.677654
3515.000000	8.609247
3514.000000	8.543618
3513.000000	8.484106
3512.000000	8.432504
3511.000000	8.385343
3510.000000	8.337282
3509.000000	8.286323
3508.000000	8.232438
3507.000000	8.173877
3506.000000	8.109331
3505.000000	8.042448
3504.000000	7.980038
3503.000000	7.926111
3502.000000	7.879719
3501.000000	7.837234
3500.000000	7.794213
3499.000000	7.747154
3498.000000	7.696921
3497.000000	7.648694
3496.000000	7.606045
3495.000000	7.566873
3494.000000	7.527535
3493.000000	7.487950
3492.000000	7.449262
3491.000000	7.409661
3490.000000	7.366717
3489.000000	7.321719
3488.000000	7.277856
3487.000000	7.236112
3486.000000	7.196061
3485.000000	7.157930
3484.000000	7.120621
3483.000000	7.080390
3482.000000	7.035488
3481.000000	6.990156
3480.000000	6.950242
3479.000000	6.916767
3478.000000	6.886842
3477.000000	6.858255
3476.000000	6.829545
3475.000000	6.797982
3474.000000	6.761108
3473.000000	6.718691
3472.000000	6.671138
3471.000000	6.618758
3470.000000	6.565161
3469.000000	6.518332
3468.000000	6.484461
3467.000000	6.462452
3466.000000	6.446752
3465.000000	6.432366
3464.000000	6.414930
3463.000000	6.390284
3462.000000	6.358374
3461.000000	6.325003
3460.000000	6.295968
3459.000000	6.271573
3458.000000	6.249087
3457.000000	6.227292
3456.000000	6.205775
3455.000000	6.182876
3454.000000	6.158008
3453.000000	6.133177
3452.000000	6.109353
3451.000000	6.084297
3450.000000	6.056528
3449.000000	6.028610
3448.000000	6.003706
3447.000000	5.981521
3446.000000	5.960461
3445.000000	5.940780
3444.000000	5.922619
3443.000000	5.903734
3442.000000	5.881808
3441.000000	5.856578
3440.000000	5.827767
3439.000000	5.794263
3438.000000	5.757924
3437.000000	5.725046
3436.000000	5.701299
3435.000000	5.687047
3434.000000	5.679128
3433.000000	5.673947
3432.000000	5.667619
3431.000000	5.657293
3430.000000	5.644710
3429.000000	5.635412
3428.000000	5.632043
3427.000000	5.631430
3426.000000	5.629521
3425.000000	5.625425
3424.000000	5.619182
3423.000000	5.609862
3422.000000	5.598422
3421.000000	5.588591
3420.000000	5.582125
3419.000000	5.576303
3418.000000	5.568211
3417.000000	5.557859
3416.000000	5.545518
3415.000000	5.530336
3414.000000	5.513774
3413.000000	5.500319
3412.000000	5.492288
3411.000000	5.487609
3410.000000	5.484748
3409.000000	5.485611
3408.000000	5.490832
3407.000000	5.496161
3406.000000	5.496206
3405.000000	5.488521
3404.000000	5.472650
3403.000000	5.449923
3402.000000	5.427101
3401.000000	5.415259
3400.000000	5.420650
3399.000000	5.438907
3398.000000	5.460345
3397.000000	5.477663
3396.000000	5.486722
3395.000000	5.485350
3394.000000	5.476200
3393.000000	5.467783
3392.000000	5.468327
3391.000000	5.479686
3390.000000	5.498732
3389.000000	5.521342
3388.000000	5.543068
3387.000000	5.560013
3386.000000	5.572075
3385.000000	5.582510
3384.000000	5.592560
3383.000000	5.599982
3382.000000	5.604427
3381.000000	5.609889
3380.000000	5.619409
3379.000000	5.631413
3378.000000	5.643721
3377.000000	5.657180
3376.000000	5.672410
3375.000000	5.686624
3374.000000	5.696593
3373.000000	5.701927
3372.000000	5.703593
3371.000000	5.703036
3370.000000	5.704809
3369.000000	5.715911
3368.000000	5.739419
3367.000000	5.771502
3366.000000	5.806494
3365.000000	5.841157
3364.000000	5.872880
3363.000000	5.898845
3362.000000	5.919822
3361.000000	5.940919
3360.000000	5.965750
3359.000000	5.992972
3358.000000	6.020408
3357.000000	6.048273
3356.000000	6.075865
3355.000000	6.099549
3354.000000	6.117163
3353.000000	6.131529
3352.000000	6.147576
3351.000000	6.168834
3350.000000	6.197628
3349.000000	6.234406
3348.000000	6.274846
3347.000000	6.311636
3346.000000	6.341741
3345.000000	6.368722
3344.000000	6.396679
3343.000000	6.425683
3342.000000	6.454408
3341.000000	6.483182
3340.000000	6.512759
3339.000000	6.543954
3338.000000	6.579796
3337.000000	6.623535
3336.000000	6.672870
3335.000000	6.720649
3334.000000	6.763022
3333.000000	6.802619
3332.000000	6.842422
3331.000000	6.881373
3330.000000	6.917842
3329.000000	6.952855
3328.000000	6.987726
3327.000000	7.022732
3326.000000	7.059952
3325.000000	7.102846
3324.000000	7.150996
3323.000000	7.199446
3322.000000	7.244945
3321.000000	7.288887
3320.000000	7.332675
3319.000000	7.374866
3318.000000	7.414827
3317.000000	7.454369
3316.000000	7.493685
3315.000000	7.529972
3314.000000	7.561914
3313.000000	7.591307
3312.000000	7.618593
3311.000000	7.641322
3310.000000	7.658951
3309.000000	7.674787
3308.000000	7.691592
3307.000000	7.709768
3306.000000	7.731268
3305.000000	7.759983
3304.000000	7.795623
3303.000000	7.831987
3302.000000	7.863699
3301.000000	7.890562
3300.000000	7.913814
3299.000000	7.932895
3298.000000	7.948291
3297.000000	7.962932
3296.000000	7.978042
3295.000000	7.991446
3294.000000	8.002004
3293.000000	8.011540
3292.000000	8.020288
3291.000000	8.024596
3290.000000	8.020964
3289.000000	8.008546
3288.000000	7.985780
3287.000000	7.949126
3286.000000	7.897394
3285.000000	7.832580
3284.000000	7.755091
3283.000000	7.661663
3282.000000	7.549563
3281.000000	7.419136
3280.000000	7.269622
3279.000000	7.098000
3278.000000	6.903910
3277.000000	6.691127
3276.000000	6.462887
3275.000000	6.219249
3274.000000	5.962230
3273.000000	5.699712
3272.000000	5.441988
3271.000000	5.198510
3270.000000	4.979635
3269.000000	4.796600
3268.000000	4.657014
3267.000000	4.564866
3266.000000	4.524057
3265.000000	4.538748
3264.000000	4.607283
3263.000000	4.719459
3262.000000	4.863326
3261.000000	5.027318
3260.000000	5.196650
3259.000000	5.353395
3258.000000	5.483074
3257.000000	5.577619
3256.000000	5.630087
3255.000000	5.630604
3254.000000	5.569943
3253.000000	5.443869
3252.000000	5.249544
3251.000000	4.986150
3250.000000	4.660224
3249.000000	4.287662
3248.000000	3.890271
3247.000000	3.490953
3246.000000	3.114843
3245.000000	2.788434
3244.000000	2.534317
3243.000000	2.368467
3242.000000	2.303691
3241.000000	2.346522
3240.000000	2.488997
3239.000000	2.710291
3238.000000	2.984857
3237.000000	3.290475
3236.000000	3.607541
3235.000000	3.919712
3234.000000	4.220293
3233.000000	4.509533
3232.000000	4.785769
3231.000000	5.042487
3230.000000	5.274921
3229.000000	5.483806
3228.000000	5.671093
3227.000000	5.837231
3226.000000	5.984381
3225.000000	6.117254
3224.000000	6.237439
3223.000000	6.342516
3222.000000	6.431434
3221.000000	6.506448
3220.000000	6.568647
3219.000000	6.615531
3218.000000	6.645716
3217.000000	6.660558
3216.000000	6.660280
3215.000000	6.643807
3214.000000	6.613041
3213.000000	6.573476
3212.000000	6.528529
3211.000000	6.478137
3210.000000	6.424214
3209.000000	6.371610
3208.000000	6.322930
3207.000000	6.277067
3206.000000	6.234083
3205.000000	6.196532
3204.000000	6.164651
3203.000000	6.135498
3202.000000	6.108111
3201.000000	6.084640
3200.000000	6.065180
3199.000000	6.046904
3198.000000	6.029282
3197.000000	6.014851
3196.000000	6.003770
3195.000000	5.992903
3194.000000	5.981675
3193.000000	5.973125
3192.000000	5.967965
3191.000000	5.963305
3190.000000	5.958612
3189.000000	5.957750
3188.000000	5.963489
3187.000000	5.975281
3186.000000	5.993929
3185.000000	6.022499
3184.000000	6.060932
3183.000000	6.104667
3182.000000	6.150099
3181.000000	6.196591
3180.000000	6.241830
3179.000000	6.280900
3178.000000	6.311467
3177.000000	6.334963
3176.000000	6.351727
3175.000000	6.360500
3174.000000	6.363940
3173.000000	6.369192
3172.000000	6.381449
3171.000000	6.402078
3170.000000	6.433900
3169.000000	6.482648
3168.000000	6.551777
3167.000000	6.640323
3166.000000	6.747814
3165.000000	6.875671
3164.000000	7.023406
3163.000000	7.189716
3162.000000	7.377287
3161.000000	7.592096
3160.000000	7.835241
3159.000000	8.100318
3158.000000	8.379570
3157.000000	8.665680
3156.000000	8.948789
3155.000000	9.218500
3154.000000	9.471319
3153.000000	9.710757
3152.000000	9.938422
3151.000000	10.149996
3150.000000	10.340731
3149.000000	10.509709
3148.000000	10.656196
3147.000000	10.778221
3146.000000	10.874925
3145.000000	10.945429
3144.000000	10.984642
3143.000000	10.982996
3142.000000	10.934480
3141.000000	10.839466
3140.000000	10.699623
3139.000000	10.516413
3138.000000	10.293354
3137.000000	10.037344
3136.000000	9.754790
3135.000000	9.451518
3134.000000	9.138778
3133.000000	8.832886
3132.000000	8.548663
3131.000000	8.296714
3130.000000	8.086823
3129.000000	7.926583
3128.000000	7.815382
3127.000000	7.744649
3126.000000	7.705776
3125.000000	7.693642
3124.000000	7.701133
3123.000000	7.719527
3122.000000	7.745481
3121.000000	7.782248
3120.000000	7.832740
3119.000000	7.895157
3118.000000	7.967622
3117.000000	8.050150
3116.000000	8.140027
3115.000000	8.229945
3114.000000	8.311893
3113.000000	8.378219
3112.000000	8.418723
3111.000000	8.423725
3110.000000	8.390712
3109.000000	8.324099
3108.000000	8.226262
3107.000000	8.094500
3106.000000	7.928162
3105.000000	7.731976
3104.000000	7.512959
3103.000000	7.279034
3102.000000	7.043089
3101.000000	6.822519
3100.000000	6.631986
3099.000000	6.479833
3098.000000	6.371663
3097.000000	6.312177
3096.000000	6.300643
3095.000000	6.331620
3094.000000	6.400480
3093.000000	6.504975
3092.000000	6.641758
3091.000000	6.805006
3090.000000	6.990958
3089.000000	7.196751
3088.000000	7.415323
3087.000000	7.637768
3086.000000	7.860464
3085.000000	8.085613
3084.000000	8.313125
3083.000000	8.537907
3082.000000	8.755988
3081.000000	8.967588
3080.000000	9.173609
3079.000000	9.374223
3078.000000	9.571715
3077.000000	9.768946
3076.000000	9.964198
3075.000000	10.152343
3074.000000	10.331840
3073.000000	10.505601
3072.000000	10.674528
3071.000000	10.836140
3070.000000	10.990341
3069.000000	11.141550
3068.000000	11.293878
3067.000000	11.448234
3066.000000	11.604783
3065.000000	11.763444
3064.000000	11.921426
3063.000000	12.074825
3062.000000	12.223017
3061.000000	12.367744
3060.000000	12.508328
3059.000000	12.642460
3058.000000	12.771520
3057.000000	12.899781
3056.000000	13.028313
3055.000000	13.154079
3054.000000	13.275192
3053.000000	13.392822
3052.000000	13.507856
3051.000000	13.620375
3050.000000	13.731779
3049.000000	13.842729
3048.000000	13.949582
3047.000000	14.047460
3046.000000	14.136826
3045.000000	14.222406
3044.000000	14.306430
3043.000000	14.388277
3042.000000	14.469689
3041.000000	14.554286
3040.000000	14.641209
3039.000000	14.724677
3038.000000	14.801145
3037.000000	14.872508
3036.000000	14.942604
3035.000000	15.015096
3034.000000	15.094372
3033.000000	15.183039
3032.000000	15.277530
3031.000000	15.370965
3030.000000	15.460595
3029.000000	15.548124
3028.000000	15.633746
3027.000000	15.715770
3026.000000	15.796271
3025.000000	15.881046
3024.000000	15.972795
3023.000000	16.069083
3022.000000	16.167554
3021.000000	16.268484
3020.000000	16.371618
3019.000000	16.475248
3018.000000	16.579156
3017.000000	16.684424
3016.000000	16.790239
3015.000000	16.894964
3014.000000	17.000752
3013.000000	17.112772
3012.000000	17.233325
3011.000000	17.360344
3010.000000	17.491280
3009.000000	17.624772
3008.000000	17.758590
3007.000000	17.890348
3006.000000	18.020252
3005.000000	18.149577
3004.000000	18.276031
3003.000000	18.393149
3002.000000	18.493517
3001.000000	18.565759
3000.000000	18.586501
2999.000000	18.516861
2998.000000	18.315038
2997.000000	17.966629
2996.000000	17.518767
2995.000000	17.088201
2994.000000	16.816449
2993.000000	16.793326
2992.000000	17.007189
2991.000000	17.366821
2990.000000	17.766489
2989.000000	18.134709
2988.000000	18.442889
2987.000000	18.691867
2986.000000	18.898705
2985.000000	19.082379
2984.000000	19.252542
2983.000000	19.408100
2982.000000	19.544403
2981.000000	19.654569
2980.000000	19.723214
2979.000000	19.725593
2978.000000	19.639180
2977.000000	19.462509
2976.000000	19.229522
2975.000000	19.010625
2974.000000	18.888546
2973.000000	18.916996
2972.000000	19.092663
2971.000000	19.366026
2970.000000	19.677548
2969.000000	19.983573
2968.000000	20.260457
2967.000000	20.499893
2966.000000	20.705553
2965.000000	20.885326
2964.000000	21.042609
2963.000000	21.172964
2962.000000	21.266356
2961.000000	21.303751
2960.000000	21.246735
2959.000000	21.035127
2958.000000	20.602277
2957.000000	19.916436
2956.000000	19.034062
2955.000000	18.127256
2954.000000	17.432531
2953.000000	17.128711
2952.000000	17.232623
2951.000000	17.601872
2950.000000	18.037443
2949.000000	18.390271
2948.000000	18.608875
2947.000000	18.726686
2946.000000	18.820851
2945.000000	18.963148
2944.000000	19.184429
2943.000000	19.472587
2942.000000	19.795389
2941.000000	20.122361
2940.000000	20.431816
2939.000000	20.713011
2938.000000	20.968261
2937.000000	21.207292
2936.000000	21.436477
2935.000000	21.655697
2934.000000	21.863985
2933.000000	22.061573
2932.000000	22.247016
2931.000000	22.419496
2930.000000	22.583753
2929.000000	22.746447
2928.000000	22.907552
2927.000000	23.062022
2926.000000	23.209122
2925.000000	23.352812
2924.000000	23.493717
2923.000000	23.628064
2922.000000	23.754584
2921.000000	23.875261
2920.000000	23.989389
2919.000000	24.093945
2918.000000	24.189374
2917.000000	24.278619
2916.000000	24.361372
2915.000000	24.435826
2914.000000	24.505179
2913.000000	24.575307
2912.000000	24.646503
2911.000000	24.713867
2910.000000	24.775249
2909.000000	24.832511
2908.000000	24.885498
2907.000000	24.931727
2906.000000	24.972133
2905.000000	25.011422
2904.000000	25.051619
2903.000000	25.091912
2902.000000	25.133471
2901.000000	25.178398
2900.000000	25.225168
2899.000000	25.268844
2898.000000	25.307189
2897.000000	25.340491
2896.000000	25.366448
2895.000000	25.381072
2894.000000	25.385124
2893.000000	25.384482
2892.000000	25.384453
2891.000000	25.388695
2890.000000	25.402480
2889.000000	25.430940
2888.000000	25.473669
2887.000000	25.526345
2886.000000	25.587331
2885.000000	25.657613
2884.000000	25.735102
2883.000000	25.814864
2882.000000	25.894573
2881.000000	25.974043
2880.000000	26.049612
2879.000000	26.113914
2878.000000	26.161129
2877.000000	26.187510
2876.000000	26.188467
2875.000000	26.162248
2874.000000	26.116627
2873.000000	26.065372
2872.000000	26.016481
2871.000000	25.968905
2870.000000	25.921747
2869.000000	25.882700
2868.000000	25.867163
2867.000000	25.893437
2866.000000	25.977573
2865.000000	26.124838
2864.000000	26.323769
2863.000000	26.552549
2862.000000	26.791902
2861.000000	27.029418
2860.000000	27.255302
2859.000000	27.461256
2858.000000	27.644422
2857.000000	27.806928
2856.000000	27.950475
2855.000000	28.075975
2854.000000	28.187246
2853.000000	28.289988
2852.000000	28.387637
2851.000000	28.483012
2850.000000	28.582623
2849.000000	28.693701
2848.000000	28.817011
2847.000000	28.947018
2846.000000	29.078615
2845.000000	29.208924
2844.000000	29.333774
2843.000000	29.448161
2842.000000	29.550777
2841.000000	29.644171
2840.000000	29.730853
2839.000000	29.812595
2838.000000	29.892175
2837.000000	29.971623
2836.000000	30.049563
2835.000000	30.124010
2834.000000	30.196632
2833.000000	30.270456
2832.000000	30.345012
2831.000000	30.418098
2830.000000	30.490549
2829.000000	30.564661
2828.000000	30.639284
2827.000000	30.711328
2826.000000	30.780969
2825.000000	30.850613
2824.000000	30.919895
2823.000000	30.986453
2822.000000	31.050738
2821.000000	31.115211
2820.000000	31.179474
2819.000000	31.240866
2818.000000	31.299294
2817.000000	31.357058
2816.000000	31.414418
2815.000000	31.469509
2814.000000	31.522113
2813.000000	31.573626
2812.000000	31.624168
2811.000000	31.673526
2810.000000	31.723762
2809.000000	31.776755
2808.000000	31.830325
2807.000000	31.880808
2806.000000	31.928174
2805.000000	31.974582
2804.000000	32.019389
2803.000000	32.060245
2802.000000	32.097977
2801.000000	32.135988
2800.000000	32.175851
2799.000000	32.217599
2798.000000	32.263145
2797.000000	32.314855
2796.000000	32.371646
2795.000000	32.430716
2794.000000	32.491948
2793.000000	32.556628
2792.000000	32.623506
2791.000000	32.690535
2790.000000	32.759110
2789.000000	32.831821
2788.000000	32.907195
2787.000000	32.981408
2786.000000	33.054030
2785.000000	33.127450
2784.000000	33.201661
2783.000000	33.274209
2782.000000	33.344570
2781.000000	33.414028
2780.000000	33.481838
2779.000000	33.545794
2778.000000	33.606032
2777.000000	33.664466
2776.000000	33.721403
2775.000000	33.776278
2774.000000	33.830434
2773.000000	33.885310
2772.000000	33.939221
2771.000000	33.989997
2770.000000	34.039276
2769.000000	34.090015
2768.000000	34.141261
2767.000000	34.189493
2766.000000	34.233757
2765.000000	34.275092
2764.000000	34.312328
2763.000000	34.343148
2762.000000	34.368128
2761.000000	34.389541
2760.000000	34.407365
2759.000000	34.420730
2758.000000	34.432176
2757.000000	34.445987
2756.000000	34.463238
2755.000000	34.482757
2754.000000	34.505715
2753.000000	34.534854
2752.000000	34.570279
2751.000000	34.610306
2750.000000	34.655571
2749.000000	34.708124
2748.000000	34.767011
2747.000000	34.828828
2746.000000	34.891621
2745.000000	34.954229
2744.000000	35.013137
2743.000000	35.064179
2742.000000	35.106384
2741.000000	35.140555
2740.000000	35.165409
2739.000000	35.179036
2738.000000	35.183197
2737.000000	35.182491
2736.000000	35.180726
2735.000000	35.182195
2734.000000	35.194638
2733.000000	35.225665
2732.000000	35.276594
2731.000000	35.342937
2730.000000	35.419451
2729.000000	35.501456
2728.000000	35.583193
2727.000000	35.659988
2726.000000	35.731678
2725.000000	35.800167
2724.000000	35.865011
2723.000000	35.924899
2722.000000	35.981225
2721.000000	36.035752
2720.000000	36.086341
2719.000000	36.129351
2718.000000	36.165373
2717.000000	36.198922
2716.000000	36.233728
2715.000000	36.272135
2714.000000	36.316999
2713.000000	36.369474
2712.000000	36.425883
2711.000000	36.480788
2710.000000	36.532140
2709.000000	36.580031
2708.000000	36.622544
2707.000000	36.657252
2706.000000	36.685311
2705.000000	36.709955
2704.000000	36.732090
2703.000000	36.751103
2702.000000	36.768377
2701.000000	36.785694
2700.000000	36.801923
2699.000000	36.815395
2698.000000	36.827981
2697.000000	36.842897
2696.000000	36.860293
2695.000000	36.879341
2694.000000	36.903126
2693.000000	36.936849
2692.000000	36.982065
2691.000000	37.036718
2690.000000	37.098905
2689.000000	37.166244
2688.000000	37.233301
2687.000000	37.294364
2686.000000	37.348214
2685.000000	37.396572
2684.000000	37.439425
2683.000000	37.475985
2682.000000	37.508434
2681.000000	37.539749
2680.000000	37.568905
2679.000000	37.592498
2678.000000	37.610137
2677.000000	37.624750
2676.000000	37.639030
2675.000000	37.655613
2674.000000	37.679335
2673.000000	37.714858
2672.000000	37.762557
2671.000000	37.820101
2670.000000	37.886308
2669.000000	37.959510
2668.000000	38.034401
2667.000000	38.104864
2666.000000	38.168909
2665.000000	38.227298
2664.000000	38.279228
2663.000000	38.323728
2662.000000	38.363528
2661.000000	38.402873
2660.000000	38.442622
2659.000000	38.481595
2658.000000	38.521063
2657.000000	38.563641
2656.000000	38.608990
2655.000000	38.654800
2654.000000	38.700900
2653.000000	38.748126
2652.000000	38.794349
2651.000000	38.835686
2650.000000	38.870731
2649.000000	38.900094
2648.000000	38.923062
2647.000000	38.938822
2646.000000	38.950051
2645.000000	38.961543
2644.000000	38.976418
2643.000000	38.996771
2642.000000	39.026006
2641.000000	39.066431
2640.000000	39.115629
2639.000000	39.168650
2638.000000	39.222572
2637.000000	39.275714
2636.000000	39.324608
2635.000000	39.365896
2634.000000	39.399662
2633.000000	39.427056
2632.000000	39.446361
2631.000000	39.455535
2630.000000	39.457038
2629.000000	39.456749
2628.000000	39.459662
2627.000000	39.469812
2626.000000	39.491927
2625.000000	39.528273
2624.000000	39.575093
2623.000000	39.626357
2622.000000	39.679756
2621.000000	39.735301
2620.000000	39.790427
2619.000000	39.840946
2618.000000	39.885572
2617.000000	39.925438
2616.000000	39.960406
2615.000000	39.989774
2614.000000	40.015355
2613.000000	40.039755
2612.000000	40.062495
2611.000000	40.081656
2610.000000	40.097835
2609.000000	40.112990
2608.000000	40.126723
2607.000000	40.137082
2606.000000	40.143920
2605.000000	40.147879
2604.000000	40.147862
2603.000000	40.143209
2602.000000	40.136756
2601.000000	40.132388
2600.000000	40.131165
2599.000000	40.133164
2598.000000	40.141022
2597.000000	40.157666
2596.000000	40.182090
2595.000000	40.211272
2594.000000	40.244581
2593.000000	40.282345
2592.000000	40.322260
2591.000000	40.361104
2590.000000	40.398701
2589.000000	40.436559
2588.000000	40.474118
2587.000000	40.510205
2586.000000	40.546190
2585.000000	40.583763
2584.000000	40.621204
2583.000000	40.655739
2582.000000	40.688049
2581.000000	40.720866
2580.000000	40.754857
2579.000000	40.789574
2578.000000	40.826527
2577.000000	40.867261
2576.000000	40.909927
2575.000000	40.951543
2574.000000	40.992289
2573.000000	41.034027
2572.000000	41.076377
2571.000000	41.117758
2570.000000	41.158534
2569.000000	41.199488
2568.000000	41.238936
2567.000000	41.274861
2566.000000	41.308177
2565.000000	41.340525
2564.000000	41.370752
2563.000000	41.397240
2562.000000	41.421508
2561.000000	41.445860
2560.000000	41.469536
2559.000000	41.490872
2558.000000	41.511468
2557.000000	41.534416
2556.000000	41.560294
2555.000000	41.588365
2554.000000	41.619632
2553.000000	41.654793
2552.000000	41.691312
2551.000000	41.726539
2550.000000	41.761875
2549.000000	41.800266
2548.000000	41.841382
2547.000000	41.882944
2546.000000	41.924599
2545.000000	41.966487
2544.000000	42.006063
2543.000000	42.040488
2542.000000	42.070556
2541.000000	42.098328
2540.000000	42.122780
2539.000000	42.141269
2538.000000	42.153677
2537.000000	42.161433
2536.000000	42.164214
2535.000000	42.161883
2534.000000	42.157765
2533.000000	42.156448
2532.000000	42.159809
2531.000000	42.168555
2530.000000	42.185465
2529.000000	42.213128
2528.000000	42.249919
2527.000000	42.291674
2526.000000	42.335958
2525.000000	42.381170
2524.000000	42.424024
2523.000000	42.461826
2522.000000	42.495595
2521.000000	42.527336
2520.000000	42.555983
2519.000000	42.579233
2518.000000	42.597287
2517.000000	42.611405
2516.000000	42.620444
2515.000000	42.622862
2514.000000	42.619980
2513.000000	42.613762
2512.000000	42.603673
2511.000000	42.588953
2510.000000	42.572327
2509.000000	42.557803
2508.000000	42.546650
2507.000000	42.538903
2506.000000	42.536438
2505.000000	42.540753
2504.000000	42.549858
2503.000000	42.561254
2502.000000	42.575774
2501.000000	42.595304
2500.000000	42.618829
2499.000000	42.644428
2498.000000	42.673044
2497.000000	42.705884
2496.000000	42.740529
2495.000000	42.773374
2494.000000	42.804119
2493.000000	42.834349
2492.000000	42.863831
2491.000000	42.891960
2490.000000	42.920483
2489.000000	42.950840
2488.000000	42.980838
2487.000000	43.007872
2486.000000	43.033429
2485.000000	43.060913
2484.000000	43.091091
2483.000000	43.123474
2482.000000	43.159637
2481.000000	43.201172
2480.000000	43.246290
2479.000000	43.292093
2478.000000	43.338154
2477.000000	43.384175
2476.000000	43.426711
2475.000000	43.462440
2474.000000	43.492959
2473.000000	43.522773
2472.000000	43.554610
2471.000000	43.589867
2470.000000	43.630871
2469.000000	43.678380
2468.000000	43.728720
2467.000000	43.777127
2466.000000	43.821965
2465.000000	43.862429
2464.000000	43.895075
2463.000000	43.916612
2462.000000	43.928066
2461.000000	43.932483
2460.000000	43.930521
2459.000000	43.922570
2458.000000	43.912343
2457.000000	43.904519
2456.000000	43.900630
2455.000000	43.900876
2454.000000	43.907751
2453.000000	43.923845
2452.000000	43.948197
2451.000000	43.978486
2450.000000	44.015109
2449.000000	44.058832
2448.000000	44.106990
2447.000000	44.155588
2446.000000	44.203068
2445.000000	44.248724
2444.000000	44.289860
2443.000000	44.324625
2442.000000	44.355285
2441.000000	44.384893
2440.000000	44.412883
2439.000000	44.437683
2438.000000	44.460933
2437.000000	44.485106
2436.000000	44.509484
2435.000000	44.532426
2434.000000	44.555261
2433.000000	44.579614
2432.000000	44.602858
2431.000000	44.620484
2430.000000	44.630693
2429.000000	44.633174
2428.000000	44.625943
2427.000000	44.607754
2426.000000	44.582167
2425.000000	44.554797
2424.000000	44.528644
2423.000000	44.505391
2422.000000	44.488584
2421.000000	44.480961
2420.000000	44.480495
2419.000000	44.483476
2418.000000	44.489696
2417.000000	44.500991
2416.000000	44.516530
2415.000000	44.534268
2414.000000	44.554841
2413.000000	44.579580
2412.000000	44.606499
2411.000000	44.632266
2410.000000	44.656731
2409.000000	44.681489
2408.000000	44.705797
2407.000000	44.728113
2406.000000	44.749881
2405.000000	44.773661
2404.000000	44.798832
2403.000000	44.822984
2402.000000	44.845765
2401.000000	44.867534
2400.000000	44.885911
2399.000000	44.897464
2398.000000	44.901586
2397.000000	44.898617
2396.000000	44.886174
2395.000000	44.860985
2394.000000	44.822379
2393.000000	44.771226
2392.000000	44.706426
2391.000000	44.627010
2390.000000	44.535815
2389.000000	44.436610
2388.000000	44.330320
2387.000000	44.216558
2386.000000	44.098101
2385.000000	43.979804
2384.000000	43.863823
2383.000000	43.751379
2382.000000	43.646257
2381.000000	43.553131
2380.000000	43.473204
2379.000000	43.405169
2378.000000	43.350075
2377.000000	43.309864
2376.000000	43.283782
2375.000000	43.270352
2374.000000	43.273474
2373.000000	43.298695
2372.000000	43.343926
2371.000000	43.400787
2370.000000	43.463027
2369.000000	43.526738
2368.000000	43.583514
2367.000000	43.625164
2366.000000	43.652093
2365.000000	43.665538
2364.000000	43.664448
2363.000000	43.647491
2362.000000	43.616341
2361.000000	43.583438
2360.000000	43.557779
2359.000000	43.542401
2358.000000	43.541616
2357.000000	43.550661
2356.000000	43.564553
2355.000000	43.580852
2354.000000	43.603457
2353.000000	43.627635
2352.000000	43.640069
2351.000000	43.644181
2350.000000	43.651130
2349.000000	43.667830
2348.000000	43.690810
2347.000000	43.707619
2346.000000	43.721458
2345.000000	43.744596
2344.000000	43.792319
2343.000000	43.851119
2342.000000	43.890933
2341.000000	43.895598
2340.000000	43.859602
2339.000000	43.794766
2338.000000	43.722647
2337.000000	43.667643
2336.000000	43.640560
2335.000000	43.647423
2334.000000	43.687521
2333.000000	43.756218
2332.000000	43.831541
2331.000000	43.908417
2330.000000	43.985902
2329.000000	44.068474
2328.000000	44.150135
2327.000000	44.222137
2326.000000	44.288443
2325.000000	44.350209
2324.000000	44.410219
2323.000000	44.467872
2322.000000	44.524012
2321.000000	44.579123
2320.000000	44.626012
2319.000000	44.664686
2318.000000	44.693349
2317.000000	44.712736
2316.000000	44.712140
2315.000000	44.688576
2314.000000	44.642703
2313.000000	44.581970
2312.000000	44.506617
2311.000000	44.419217
2310.000000	44.322267
2309.000000	44.219586
2308.000000	44.109739
2307.000000	43.994954
2306.000000	43.881846
2305.000000	43.780100
2304.000000	43.696037
2303.000000	43.640264
2302.000000	43.625815
2301.000000	43.664308
2300.000000	43.755333
2299.000000	43.891267
2298.000000	44.059799
2297.000000	44.245068
2296.000000	44.427006
2295.000000	44.589827
2294.000000	44.727303
2293.000000	44.838532
2292.000000	44.923388
2291.000000	44.983601
2290.000000	45.024048
2289.000000	45.046773
2288.000000	45.047869
2287.000000	45.021695
2286.000000	44.965605
2285.000000	44.876198
2284.000000	44.749552
2283.000000	44.587719
2282.000000	44.405345
2281.000000	44.225004
2280.000000	44.068840
2279.000000	43.954597
2278.000000	43.892282
2277.000000	43.880514
2276.000000	43.908241
2275.000000	43.967947
2274.000000	44.061614
2273.000000	44.193492
2272.000000	44.359930
2271.000000	44.550585
2270.000000	44.754647
2269.000000	44.960481
2268.000000	45.155964
2267.000000	45.334150
2266.000000	45.495808
2265.000000	45.642917
2264.000000	45.773800
2263.000000	45.887456
2262.000000	45.987712
2261.000000	46.078085
2260.000000	46.157587
2259.000000	46.225464
2258.000000	46.285873
2257.000000	46.344467
2256.000000	46.404098
2255.000000	46.468121
2254.000000	46.542523
2253.000000	46.631003
2252.000000	46.730653
2251.000000	46.836442
2250.000000	46.945729
2249.000000	47.054804
2248.000000	47.158211
2247.000000	47.253062
2246.000000	47.342265
2245.000000	47.429113
2244.000000	47.513051
2243.000000	47.593557
2242.000000	47.673188
2241.000000	47.753306
2240.000000	47.831110
2239.000000	47.904376
2238.000000	47.974756
2237.000000	48.043232
2236.000000	48.107032
2235.000000	48.164049
2234.000000	48.215888
2233.000000	48.263524
2232.000000	48.304571
2231.000000	48.337981
2230.000000	48.366571
2229.000000	48.391904
2228.000000	48.411524
2227.000000	48.423947
2226.000000	48.431611
2225.000000	48.435745
2224.000000	48.433862
2223.000000	48.425820
2222.000000	48.417352
2221.000000	48.414190
2220.000000	48.417079
2219.000000	48.425740
2218.000000	48.442159
2217.000000	48.466128
2216.000000	48.492028
2215.000000	48.513801
2214.000000	48.528604
2213.000000	48.533057
2212.000000	48.521215
2211.000000	48.490636
2210.000000	48.446562
2209.000000	48.397448
2208.000000	48.350749
2207.000000	48.314578
2206.000000	48.296631
2205.000000	48.296385
2204.000000	48.302765
2203.000000	48.303258
2202.000000	48.291906
2201.000000	48.267878
2200.000000	48.234163
2199.000000	48.202849
2198.000000	48.194542
2197.000000	48.225740
2196.000000	48.298159
2195.000000	48.402405
2194.000000	48.526324
2193.000000	48.656659
2192.000000	48.780063
2191.000000	48.888780
2190.000000	48.982464
2189.000000	49.061322
2188.000000	49.122169
2187.000000	49.164387
2186.000000	49.193594
2185.000000	49.215891
2184.000000	49.233050
2183.000000	49.246600
2182.000000	49.260704
2181.000000	49.277112
2180.000000	49.292472
2179.000000	49.304430
2178.000000	49.315605
2177.000000	49.328082
2176.000000	49.339457
2175.000000	49.347892
2174.000000	49.355783
2173.000000	49.365037
2172.000000	49.374244
2171.000000	49.384000
2170.000000	49.399425
2169.000000	49.423632
2168.000000	49.453803
2167.000000	49.487208
2166.000000	49.525260
2165.000000	49.568043
2164.000000	49.611057
2163.000000	49.651917
2162.000000	49.694687
2161.000000	49.743483
2160.000000	49.796995
2159.000000	49.853001
2158.000000	49.912414
2157.000000	49.974832
2156.000000	50.035715
2155.000000	50.092063
2154.000000	50.145845
2153.000000	50.198035
2152.000000	50.244865
2151.000000	50.283402
2150.000000	50.315454
2149.000000	50.342158
2148.000000	50.360237
2147.000000	50.367584
2146.000000	50.366783
2145.000000	50.359442
2144.000000	50.343104
2143.000000	50.317142
2142.000000	50.286090
2141.000000	50.253958
2140.000000	50.219784
2139.000000	50.181620
2138.000000	50.139664
2137.000000	50.093250
2136.000000	50.041521
2135.000000	49.991027
2134.000000	49.956341
2133.000000	49.949526
2132.000000	49.973222
2131.000000	50.025549
2130.000000	50.104570
2129.000000	50.203754
2128.000000	50.310325
2127.000000	50.413531
2126.000000	50.509653
2125.000000	50.595657
2124.000000	50.665207
2123.000000	50.714430
2122.000000	50.745298
2121.000000	50.759956
2120.000000	50.757913
2119.000000	50.742059
2118.000000	50.720787
2117.000000	50.700195
2116.000000	50.679861
2115.000000	50.659530
2114.000000	50.643074
2113.000000	50.632538
2112.000000	50.624667
2111.000000	50.617154
2110.000000	50.611991
2109.000000	50.609166
2108.000000	50.603596
2107.000000	50.592492
2106.000000	50.580077
2105.000000	50.572143
2104.000000	50.571814
2103.000000	50.583833
2102.000000	50.615571
2101.000000	50.668879
2100.000000	50.737330
2099.000000	50.813774
2098.000000	50.895556
2097.000000	50.978282
2096.000000	51.052501
2095.000000	51.111817
2094.000000	51.156220
2093.000000	51.183546
2092.000000	51.185423
2091.000000	51.157106
2090.000000	51.105162
2089.000000	51.041613
2088.000000	50.977432
2087.000000	50.925773
2086.000000	50.902409
2085.000000	50.916749
2084.000000	50.967028
2083.000000	51.047104
2082.000000	51.151586
2081.000000	51.270735
2080.000000	51.389937
2079.000000	51.499770
2078.000000	51.601197
2077.000000	51.696037
2076.000000	51.780764
2075.000000	51.854663
2074.000000	51.922340
2073.000000	51.986251
2072.000000	52.042270
2071.000000	52.087064
2070.000000	52.125110
2069.000000	52.161906
2068.000000	52.196277
2067.000000	52.224182
2066.000000	52.245523
2065.000000	52.263823
2064.000000	52.282684
2063.000000	52.305880
2062.000000	52.335889
2061.000000	52.369322
2060.000000	52.399380
2059.000000	52.424985
2058.000000	52.451370
2057.000000	52.480633
2056.000000	52.509531
2055.000000	52.538401
2054.000000	52.572462
2053.000000	52.613643
2052.000000	52.658043
2051.000000	52.702788
2050.000000	52.749800
2049.000000	52.800256
2048.000000	52.849903
2047.000000	52.895124
2046.000000	52.938973
2045.000000	52.984660
2044.000000	53.028389
2043.000000	53.064582
2042.000000	53.094032
2041.000000	53.121507
2040.000000	53.149372
2039.000000	53.178425
2038.000000	53.209591
2037.000000	53.240615
2036.000000	53.266070
2035.000000	53.285174
2034.000000	53.304360
2033.000000	53.328424
2032.000000	53.356522
2031.000000	53.389997
2030.000000	53.433924
2029.000000	53.489262
2028.000000	53.547152
2027.000000	53.599842
2026.000000	53.646493
2025.000000	53.687714
2024.000000	53.720063
2023.000000	53.740565
2022.000000	53.754967
2021.000000	53.770635
2020.000000	53.784813
2019.000000	53.787873
2018.000000	53.777260
2017.000000	53.762333
2016.000000	53.756029
2015.000000	53.767078
2014.000000	53.797261
2013.000000	53.840631
2012.000000	53.886557
2011.000000	53.929398
2010.000000	53.971371
2009.000000	54.014351
2008.000000	54.054357
2007.000000	54.091295
2006.000000	54.131784
2005.000000	54.180181
2004.000000	54.233446
2003.000000	54.286241
2002.000000	54.341220
2001.000000	54.397188
2000.000000	54.448893
1999.000000	54.494412
1998.000000	54.534884
1997.000000	54.575414
1996.000000	54.623773
1995.000000	54.680868
1994.000000	54.732004
1993.000000	54.757668
1992.000000	54.757636
1991.000000	54.752715
1990.000000	54.755575
1989.000000	54.755415
1988.000000	54.736646
1987.000000	54.701150
1986.000000	54.664230
1985.000000	54.635168
1984.000000	54.615411
1983.000000	54.608507
1982.000000	54.621624
1981.000000	54.649911
1980.000000	54.682594
1979.000000	54.712911
1978.000000	54.735060
1977.000000	54.744378
1976.000000	54.745331
1975.000000	54.752631
1974.000000	54.777061
1973.000000	54.819836
1972.000000	54.883043
1971.000000	54.971928
1970.000000	55.079899
1969.000000	55.183224
1968.000000	55.260353
1967.000000	55.313157
1966.000000	55.359511
1965.000000	55.409303
1964.000000	55.457021
1963.000000	55.492527
1962.000000	55.509153
1961.000000	55.507444
1960.000000	55.496039
1959.000000	55.483614
1958.000000	55.467595
1957.000000	55.435339
1956.000000	55.379513
1955.000000	55.308021
1954.000000	55.231316
1953.000000	55.155958
1952.000000	55.084594
1951.000000	55.025816
1950.000000	54.994696
1949.000000	54.992905
1948.000000	55.013028
1947.000000	55.060714
1946.000000	55.147782
1945.000000	55.264963
1944.000000	55.378839
1943.000000	55.469128
1942.000000	55.554590
1941.000000	55.661984
1940.000000	55.792634
1939.000000	55.931480
1938.000000	56.064845
1937.000000	56.187938
1936.000000	56.302834
1935.000000	56.410924
1934.000000	56.505936
1933.000000	56.583412
1932.000000	56.638586
1931.000000	56.674041
1930.000000	56.701418
1929.000000	56.713350
1928.000000	56.706124
1927.000000	56.691221
1926.000000	56.691282
1925.000000	56.698814
1924.000000	56.669377
1923.000000	56.597250
1922.000000	56.537666
1921.000000	56.527060
1920.000000	56.537268
1919.000000	56.518152
1918.000000	56.473936
1917.000000	56.449393
1916.000000	56.451851
1915.000000	56.459442
1914.000000	56.464638
1913.000000	56.473534
1912.000000	56.482751
1911.000000	56.486210
1910.000000	56.491105
1909.000000	56.502241
1908.000000	56.525657
1907.000000	56.563855
1906.000000	56.628175
1905.000000	56.716936
1904.000000	56.798644
1903.000000	56.860278
1902.000000	56.916568
1901.000000	56.965201
1900.000000	56.992996
1899.000000	57.004925
1898.000000	57.029427
1897.000000	57.076023
1896.000000	57.116240
1895.000000	57.143877
1894.000000	57.199642
1893.000000	57.307533
1892.000000	57.433777
1891.000000	57.529523
1890.000000	57.588413
1889.000000	57.645136
1888.000000	57.719184
1887.000000	57.804568
1886.000000	57.894722
1885.000000	57.979353
1884.000000	58.044862
1883.000000	58.102101
1882.000000	58.176122
1881.000000	58.260598
1880.000000	58.331556
1879.000000	58.384316
1878.000000	58.435179
1877.000000	58.495926
1876.000000	58.549572
1875.000000	58.581164
1874.000000	58.612535
1873.000000	58.669449
1872.000000	58.741182
1871.000000	58.792769
1870.000000	58.797101
1869.000000	58.762393
1868.000000	58.720222
1867.000000	58.691030
1866.000000	58.681496
1865.000000	58.677123
1864.000000	58.645031
1863.000000	58.574089
1862.000000	58.492642
1861.000000	58.427034
1860.000000	58.377008
1859.000000	58.348023
1858.000000	58.369174
1857.000000	58.450422
1856.000000	58.561123
1855.000000	58.668943
1854.000000	58.777815
1853.000000	58.881702
1852.000000	58.977126
1851.000000	59.073671
1850.000000	59.171090
1849.000000	59.259833
1848.000000	59.337662
1847.000000	59.422500
1846.000000	59.510027
1845.000000	59.554344
1844.000000	59.556650
1843.000000	59.574725
1842.000000	59.617824
1841.000000	59.649676
1840.000000	59.653422
1839.000000	59.632120
1838.000000	59.615243
1837.000000	59.621930
1836.000000	59.637875
1835.000000	59.662168
1834.000000	59.717151
1833.000000	59.805387
1832.000000	59.903444
1831.000000	59.954836
1830.000000	59.948960
1829.000000	59.966462
1828.000000	60.047848
1827.000000	60.143643
1826.000000	60.181798
1825.000000	60.160382
1824.000000	60.144464
1823.000000	60.169920
1822.000000	60.226144
1821.000000	60.304027
1820.000000	60.402936
1819.000000	60.502912
1818.000000	60.595926
1817.000000	60.693521
1816.000000	60.791079
1815.000000	60.881964
1814.000000	60.963647
1813.000000	61.041220
1812.000000	61.098605
1811.000000	61.114264
1810.000000	61.128639
1809.000000	61.182846
1808.000000	61.246177
1807.000000	61.282297
1806.000000	61.314543
1805.000000	61.378226
1804.000000	61.445421
1803.000000	61.475528
1802.000000	61.457273
1801.000000	61.432325
1800.000000	61.433738
1799.000000	61.452784
1798.000000	61.481841
1797.000000	61.509042
1796.000000	61.512260
1795.000000	61.501557
1794.000000	61.487178
1793.000000	61.462685
1792.000000	61.432210
1791.000000	61.413811
1790.000000	61.421964
1789.000000	61.459253
1788.000000	61.507427
1787.000000	61.544909
1786.000000	61.577506
1785.000000	61.627875
1784.000000	61.690587
1783.000000	61.765992
1782.000000	61.820437
1781.000000	61.827772
1780.000000	61.811620
1779.000000	61.807202
1778.000000	61.823527
1777.000000	61.828845
1776.000000	61.829235
1775.000000	61.870722
1774.000000	61.934986
1773.000000	61.960324
1772.000000	62.001932
1771.000000	62.112590
1770.000000	62.231423
1769.000000	62.307833
1768.000000	62.335965
1767.000000	62.345087
1766.000000	62.363216
1765.000000	62.411244
1764.000000	62.476067
1763.000000	62.501969
1762.000000	62.456368
1761.000000	62.417072
1760.000000	62.425683
1759.000000	62.443529
1758.000000	62.409352
1757.000000	62.289318
1756.000000	62.173128
1755.000000	62.130315
1754.000000	62.127656
1753.000000	62.114195
1752.000000	62.083510
1751.000000	62.060354
1750.000000	62.056763
1749.000000	62.030465
1748.000000	61.978317
1747.000000	61.957504
1746.000000	61.945933
1745.000000	61.888159
1744.000000	61.776173
1743.000000	61.640160
1742.000000	61.510250
1741.000000	61.391918
1740.000000	61.272408
1739.000000	61.181909
1738.000000	61.152021
1737.000000	61.196520
1736.000000	61.286749
1735.000000	61.289299
1734.000000	61.261083
1733.000000	61.367209
1732.000000	61.470691
1731.000000	61.453069
1730.000000	61.366104
1729.000000	61.266945
1728.000000	61.202304
1727.000000	61.190347
1726.000000	61.186004
1725.000000	61.158397
1724.000000	61.093002
1723.000000	61.002807
1722.000000	60.944143
1721.000000	60.949648
1720.000000	60.983774
1719.000000	60.927014
1718.000000	60.774791
1717.000000	60.716517
1716.000000	60.733194
1715.000000	60.673629
1714.000000	60.577143
1713.000000	60.517246
1712.000000	60.451080
1711.000000	60.339030
1710.000000	60.217051
1709.000000	60.116695
1708.000000	60.024333
1707.000000	59.881479
1706.000000	59.673616
1705.000000	59.468538
1704.000000	59.307054
1703.000000	59.207614
1702.000000	59.141038
1701.000000	58.937959
1700.000000	58.676150
1699.000000	58.509768
1698.000000	58.382045
1697.000000	58.221704
1696.000000	57.966691
1695.000000	57.711152
1694.000000	57.513637
1693.000000	57.305555
1692.000000	57.063502
1691.000000	56.784357
1690.000000	56.473670
1689.000000	56.141458
1688.000000	55.853584
1687.000000	55.661827
1686.000000	55.502383
1685.000000	55.146950
1684.000000	54.682553
1683.000000	54.423376
1682.000000	54.242215
1681.000000	53.934348
1680.000000	53.531090
1679.000000	53.152420
1678.000000	52.848361
1677.000000	52.548501
1676.000000	52.163657
1675.000000	51.768711
1674.000000	51.438551
1673.000000	51.124113
1672.000000	50.783948
1671.000000	50.407110
1670.000000	49.993571
1669.000000	49.578987
1668.000000	49.199568
1667.000000	48.855155
1666.000000	48.521008
1665.000000	48.169653
1664.000000	47.758257
1663.000000	47.324476
1662.000000	46.949885
1661.000000	46.613260
1660.000000	46.273733
1659.000000	45.948251
1658.000000	45.638047
1657.000000	45.344165
1656.000000	45.111797
1655.000000	44.920328
1654.000000	44.529691
1653.000000	44.120819
1652.000000	43.981056
1651.000000	43.791596
1650.000000	43.449392
1649.000000	43.079791
1648.000000	42.661983
1647.000000	42.219559
1646.000000	41.908537
1645.000000	41.716422
1644.000000	41.485321
1643.000000	41.195912
1642.000000	40.905087
1641.000000	40.627012
1640.000000	40.367061
1639.000000	40.135511
1638.000000	39.945805
1637.000000	39.744460
1636.000000	39.529998
1635.000000	39.432850
1634.000000	39.437894
1633.000000	39.405176
1632.000000	39.304354
1631.000000	39.205863
1630.000000	39.165933
1629.000000	39.177385
1628.000000	39.211437
1627.000000	39.284385
1626.000000	39.410672
1625.000000	39.571538
1624.000000	39.745215
1623.000000	39.964375
1622.000000	40.240332
1621.000000	40.493387
1620.000000	40.701875
1619.000000	40.940562
1618.000000	41.279171
1617.000000	41.725246
1616.000000	42.239718
1615.000000	42.726001
1614.000000	43.120281
1613.000000	43.445326
1612.000000	43.741342
1611.000000	44.043957
1610.000000	44.347019
1609.000000	44.593310
1608.000000	44.742011
1607.000000	44.815290
1606.000000	44.817395
1605.000000	44.691568
1604.000000	44.384508
1603.000000	43.843131
1602.000000	42.971403
1601.000000	41.624523
1600.000000	39.633524
1599.000000	36.867477
1598.000000	33.291940
1597.000000	29.079127
1596.000000	24.722634
1595.000000	21.006797
1594.000000	18.644573
1593.000000	17.816289
1592.000000	18.174926
1591.000000	19.256920
1590.000000	20.773137
1589.000000	22.539705
1588.000000	24.353611
1587.000000	26.037993
1586.000000	27.564207
1585.000000	29.074469
1584.000000	30.754359
1583.000000	32.630583
1582.000000	34.491408
1581.000000	36.092241
1580.000000	37.437985
1579.000000	38.774497
1578.000000	40.339300
1577.000000	42.165128
1576.000000	44.045306
1575.000000	45.654603
1574.000000	46.788746
1573.000000	47.553177
1572.000000	48.184723
1571.000000	48.811298
1570.000000	49.444745
1569.000000	50.035983
1568.000000	50.563412
1567.000000	51.037595
1566.000000	51.468894
1565.000000	51.836365
1564.000000	52.160935
1563.000000	52.502447
1562.000000	52.911333
1561.000000	53.342965
1560.000000	53.595131
1559.000000	53.777787
1558.000000	54.287848
1557.000000	54.815312
1556.000000	55.113989
1555.000000	55.358607
1554.000000	55.629445
1553.000000	55.929639
1552.000000	56.244762
1551.000000	56.520410
1550.000000	56.729213
1549.000000	56.899719
1548.000000	57.081411
1547.000000	57.290341
1546.000000	57.480940
1545.000000	57.587468
1544.000000	57.629350
1543.000000	57.656898
1542.000000	57.700102
1541.000000	57.742201
1540.000000	57.839308
1539.000000	58.107399
1538.000000	58.384102
1537.000000	58.523817
1536.000000	58.620450
1535.000000	58.755713
1534.000000	58.894864
1533.000000	59.070141
1532.000000	59.304510
1531.000000	59.514617
1530.000000	59.689432
1529.000000	59.861628
1528.000000	60.010059
1527.000000	60.110530
1526.000000	60.174958
1525.000000	60.249798
1524.000000	60.369226
1523.000000	60.498429
1522.000000	60.561205
1521.000000	60.595328
1520.000000	60.648451
1519.000000	60.642353
1518.000000	60.509996
1517.000000	60.260434
1516.000000	59.982994
1515.000000	59.768860
1514.000000	59.625150
1513.000000	59.564702
1512.000000	59.578574
1511.000000	59.629656
1510.000000	59.713302
1509.000000	59.858680
1508.000000	59.990194
1507.000000	60.084332
1506.000000	60.436505
1505.000000	60.940144
1504.000000	61.240391
1503.000000	61.350004
1502.000000	61.409850
1501.000000	61.490482
1500.000000	61.606798
1499.000000	61.731437
1498.000000	61.849333
1497.000000	62.031218
1496.000000	62.300079
1495.000000	62.560597
1494.000000	62.760285
1493.000000	62.958521
1492.000000	63.179814
1491.000000	63.352165
1490.000000	63.454519
1489.000000	63.582455
1488.000000	63.746840
1487.000000	63.891889
1486.000000	64.059629
1485.000000	64.255229
1484.000000	64.451955
1483.000000	64.632369
1482.000000	64.788016
1481.000000	64.935081
1480.000000	65.080432
1479.000000	65.223854
1478.000000	65.356417
1477.000000	65.470329
1476.000000	65.545939
1475.000000	65.611753
1474.000000	65.694439
1473.000000	65.794156
1472.000000	65.939322
1471.000000	66.095124
1470.000000	66.192756
1469.000000	66.243303
1468.000000	66.270908
1467.000000	66.269866
1466.000000	66.210511
1465.000000	66.063031
1464.000000	65.864330
1463.000000	65.620168
1462.000000	65.330585
1461.000000	65.053372
1460.000000	64.875234
1459.000000	64.826642
1458.000000	64.827082
1457.000000	64.880790
1456.000000	64.999159
1455.000000	64.921487
1454.000000	64.421941
1453.000000	63.483153
1452.000000	62.148125
1451.000000	60.466169
1450.000000	58.374241
1449.000000	55.652516
1448.000000	52.171247
1447.000000	48.327723
1446.000000	44.937588
1445.000000	42.808014
1444.000000	42.471107
1443.000000	43.947542
1442.000000	46.671176
1441.000000	49.787762
1440.000000	52.637825
1439.000000	54.902678
1438.000000	56.479314
1437.000000	57.424120
1436.000000	58.030592
1435.000000	58.582379
1434.000000	59.189151
1433.000000	59.925592
1432.000000	60.804904
1431.000000	61.711195
1430.000000	62.499691
1429.000000	63.150021
1428.000000	63.704852
1427.000000	64.194954
1426.000000	64.607097
1425.000000	64.926151
1424.000000	65.206846
1423.000000	65.487725
1422.000000	65.774206
1421.000000	66.074320
1420.000000	66.373390
1419.000000	66.614149
1418.000000	66.776723
1417.000000	66.912924
1416.000000	67.080618
1415.000000	67.282222
1414.000000	67.473602
1413.000000	67.644383
1412.000000	67.820059
1411.000000	67.981018
1410.000000	68.086263
1409.000000	68.170645
1408.000000	68.280793
1407.000000	68.413306
1406.000000	68.521766
1405.000000	68.586264
1404.000000	68.659965
1403.000000	68.765593
1402.000000	68.878624
1401.000000	68.981825
1400.000000	69.070718
1399.000000	69.145910
1398.000000	69.214998
1397.000000	69.278572
1396.000000	69.302562
1395.000000	69.240498
1394.000000	69.042032
1393.000000	68.684330
1392.000000	68.193445
1391.000000	67.623567
1390.000000	67.039972
1389.000000	66.503934
1388.000000	66.066519
1387.000000	65.794439
1386.000000	65.743121
1385.000000	65.902206
1384.000000	66.230059
1383.000000	66.673026
1382.000000	67.185058
1381.000000	67.734121
1380.000000	68.282291
1379.000000	68.791941
1378.000000	69.241298
1377.000000	69.617257
1376.000000	69.886005
1375.000000	69.999504
1374.000000	69.920293
1373.000000	69.633724
1372.000000	69.072721
1371.000000	68.044626
1370.000000	66.190554
1369.000000	63.121490
1368.000000	58.835800
1367.000000	54.013665
1366.000000	49.799494
1365.000000	47.263660
1364.000000	46.987580
1363.000000	48.817577
1362.000000	51.878912
1361.000000	55.122094
1360.000000	57.923428
1359.000000	60.142481
1358.000000	61.866740
1357.000000	63.232643
1356.000000	64.352778
1355.000000	65.284922
1354.000000	66.049724
1353.000000	66.688093
1352.000000	67.240063
1351.000000	67.724469
1350.000000	68.140850
1349.000000	68.495419
1348.000000	68.814199
1347.000000	69.107134
1346.000000	69.365255
1345.000000	69.593358
1344.000000	69.820165
1343.000000	70.061992
1342.000000	70.302685
1341.000000	70.510555
1340.000000	70.666346
1339.000000	70.772296
1338.000000	70.839738
1337.000000	70.888377
1336.000000	70.941536
1335.000000	71.009812
1334.000000	71.093079
1333.000000	71.196126
1332.000000	71.322325
1331.000000	71.457266
1330.000000	71.572479
1329.000000	71.654057
1328.000000	71.705295
1327.000000	71.728309
1326.000000	71.709894
1325.000000	71.635134
1324.000000	71.504756
1323.000000	71.302732
1322.000000	70.972165
1321.000000	70.420083
1320.000000	69.501682
1319.000000	68.006371
1318.000000	65.765807
1317.000000	62.895064
1316.000000	59.939301
1315.000000	57.701354
1314.000000	56.787901
1313.000000	57.250589
1312.000000	58.652945
1311.000000	60.463095
1310.000000	62.369514
1309.000000	64.254494
1308.000000	66.015363
1307.000000	67.527010
1306.000000	68.723966
1305.000000	69.639493
1304.000000	70.344276
1303.000000	70.886617
1302.000000	71.305537
1301.000000	71.649111
1300.000000	71.945819
1299.000000	72.191445
1298.000000	72.379314
1297.000000	72.507173
1296.000000	72.550428
1295.000000	72.444376
1294.000000	72.084615
1293.000000	71.303702
1292.000000	69.904075
1291.000000	67.897927
1290.000000	65.789924
1289.000000	64.449953
1288.000000	64.507146
1287.000000	65.825583
1286.000000	67.643356
1285.000000	69.239909
1284.000000	70.360689
1283.000000	71.090858
1282.000000	71.567327
1281.000000	71.869530
1280.000000	72.032434
1279.000000	72.024820
1278.000000	71.720336
1277.000000	70.894392
1276.000000	69.214512
1275.000000	66.280040
1274.000000	61.932344
1273.000000	56.772659
1272.000000	52.307667
1271.000000	50.218003
1270.000000	51.222932
1269.000000	54.622046
1268.000000	58.906738
1267.000000	62.784801
1266.000000	65.701530
1265.000000	67.703712
1264.000000	69.067829
1263.000000	70.038959
1262.000000	70.766651
1261.000000	71.335501
1260.000000	71.796955
1259.000000	72.180486
1258.000000	72.506858
1257.000000	72.789567
1256.000000	73.034972
1255.000000	73.246929
1254.000000	73.429749
1253.000000	73.593082
1252.000000	73.746998
1251.000000	73.896875
1250.000000	74.044976
1249.000000	74.194729
1248.000000	74.350823
1247.000000	74.512515
1246.000000	74.672717
1245.000000	74.826590
1244.000000	74.973766
1243.000000	75.112776
1242.000000	75.241272
1241.000000	75.362269
1240.000000	75.482074
1239.000000	75.600739
1238.000000	75.712061
1237.000000	75.811177
1236.000000	75.893846
1235.000000	75.950810
1234.000000	75.971270
1233.000000	75.953615
1232.000000	75.902366
1231.000000	75.814949
1230.000000	75.683150
1229.000000	75.502001
1228.000000	75.268177
1227.000000	74.967915
1226.000000	74.577082
1225.000000	74.078391
1224.000000	73.465654
1223.000000	72.740660
1222.000000	71.917413
1221.000000	71.025949
1220.000000	70.104463
1219.000000	69.171098
1218.000000	68.209786
1217.000000	67.178574
1216.000000	66.017122
1215.000000	64.657171
1214.000000	63.037850
1213.000000	61.137099
1212.000000	58.996734
1211.000000	56.722225
1210.000000	54.473124
1209.000000	52.451100
1208.000000	50.857174
1207.000000	49.795776
1206.000000	49.198625
1205.000000	48.857434
1204.000000	48.595273
1203.000000	48.425950
1202.000000	48.550766
1201.000000	49.216986
1200.000000	50.516874
1199.000000	52.300943
1198.000000	54.265643
1197.000000	56.128327
1196.000000	57.758756
1195.000000	59.170595
1194.000000	60.445770
1193.000000	61.674819
1192.000000	62.920778
1191.000000	64.193950
1190.000000	65.457442
1189.000000	66.662274
1188.000000	67.771230
1187.000000	68.761303
1186.000000	69.620000
1185.000000	70.356055
1184.000000	70.998057
1183.000000	71.571327
1182.000000	72.089521
1181.000000	72.557975
1180.000000	72.977241
1179.000000	73.342851
1178.000000	73.652136
1177.000000	73.918856
1176.000000	74.163974
1175.000000	74.396758
1174.000000	74.615932
1173.000000	74.822758
1172.000000	75.022429
1171.000000	75.211536
1170.000000	75.380487
1169.000000	75.529354
1168.000000	75.666900
1167.000000	75.795523
1166.000000	75.908744
1165.000000	76.004157
1164.000000	76.087243
1163.000000	76.163304
1162.000000	76.238985
1161.000000	76.327642
1160.000000	76.439284
1159.000000	76.567759
1158.000000	76.700853
1157.000000	76.839802
1156.000000	76.992702
1155.000000	77.150666
1154.000000	77.287873
1153.000000	77.385814
1152.000000	77.444514
1151.000000	77.472484
1150.000000	77.482613
1149.000000	77.497265
1148.000000	77.537536
1147.000000	77.603326
1146.000000	77.675601
1145.000000	77.737600
1144.000000	77.782702
1143.000000	77.804284
1142.000000	77.796069
1141.000000	77.764103
1140.000000	77.721221
1139.000000	77.668366
1138.000000	77.590912
1137.000000	77.474054
1136.000000	77.308960
1135.000000	77.082145
1134.000000	76.780106
1133.000000	76.401489
1132.000000	75.951702
1131.000000	75.427274
1130.000000	74.808904
1129.000000	74.078439
1128.000000	73.216556
1127.000000	72.180821
1126.000000	70.911812
1125.000000	69.335561
1124.000000	67.375352
1123.000000	64.920404
1122.000000	61.784935
1121.000000	57.718100
1120.000000	52.448700
1119.000000	45.852755
1118.000000	38.210028
1117.000000	30.389456
1116.000000	23.726514
1115.000000	19.584315
1114.000000	18.763087
1113.000000	21.170041
1112.000000	25.932915
1111.000000	31.721354
1110.000000	37.215594
1109.000000	41.526959
1108.000000	44.308406
1107.000000	45.461349
1106.000000	44.789429
1105.000000	42.106755
1104.000000	37.803782
1103.000000	33.218638
1102.000000	30.185731
1101.000000	30.010638
1100.000000	32.765990
1099.000000	37.437316
1098.000000	42.675159
1097.000000	47.511654
1096.000000	51.560389
1095.000000	54.829039
1094.000000	57.468923
1093.000000	59.635995
1092.000000	61.448460
1091.000000	62.985382
1090.000000	64.297880
1089.000000	65.423983
1088.000000	66.404649
1087.000000	67.269073
1086.000000	68.043252
1085.000000	68.758520
1084.000000	69.438177
1083.000000	70.088138
1082.000000	70.697753
1081.000000	71.257262
1080.000000	71.761046
1079.000000	72.202156
1078.000000	72.582641
1077.000000	72.919023
1076.000000	73.229867
1075.000000	73.519340
1074.000000	73.779247
1073.000000	74.004260
1072.000000	74.186557
1071.000000	74.306179
1070.000000	74.340468
1069.000000	74.271934
1068.000000	74.086435
1067.000000	73.752680
1066.000000	73.220198
1065.000000	72.433309
1064.000000	71.315842
1063.000000	69.780121
1062.000000	67.731283
1061.000000	65.083737
1060.000000	61.780776
1059.000000	57.784185
1058.000000	53.103559
1057.000000	47.835646
1056.000000	42.221624
1055.000000	36.688092
1054.000000	31.832086
1053.000000	28.289669
1052.000000	26.556296
1051.000000	26.813981
1050.000000	28.816971
1049.000000	32.021548
1048.000000	35.789452
1047.000000	39.576240
1046.000000	43.046976
1045.000000	46.070203
1044.000000	48.662983
1043.000000	50.885680
1042.000000	52.772284
1041.000000	54.328601
1040.000000	55.569993
1039.000000	56.529384
1038.000000	57.257269
1037.000000	57.826157
1036.000000	58.315066
1035.000000	58.795304
1034.000000	59.312871
1033.000000	59.891914
1032.000000	60.542042
1031.000000	61.254527
1030.000000	62.004110
1029.000000	62.762948
1028.000000	63.513904
1027.000000	64.252959
1026.000000	64.991499
1025.000000	65.755593
1024.000000	66.572446
1023.000000	67.447177
1022.000000	68.355657
1021.000000	69.255148
1020.000000	70.096791
1019.000000	70.826032
1018.000000	71.381593
1017.000000	71.708972
1016.000000	71.745677
1015.000000	71.422083
1014.000000	70.658184
1013.000000	69.359833
1012.000000	67.432816
1011.000000	64.741913
1010.000000	61.098770
1009.000000	56.306303
1008.000000	50.340658
1007.000000	43.654801
1006.000000	37.326973
1005.000000	32.774179
1004.000000	31.087175
1003.000000	32.436342
1002.000000	35.980364
1001.000000	40.356570
1000.000000	44.248319
999.000000	46.657640
998.000000	47.006993
997.000000	45.318551
996.000000	42.432380
995.000000	39.837466
994.000000	38.946958
993.000000	40.311086
992.000000	43.438762
991.000000	47.305694
990.000000	51.029652
989.000000	54.200389
988.000000	56.782273
987.000000	58.872698
986.000000	60.575859
985.000000	61.979998
984.000000	63.150564
983.000000	64.118391
982.000000	64.906883
981.000000	65.552542
980.000000	66.089877
979.000000	66.545317
978.000000	66.941921
977.000000	67.312046
976.000000	67.680805
975.000000	68.049301
974.000000	68.409658
973.000000	68.759730
972.000000	69.097117
971.000000	69.411096
970.000000	69.696399
969.000000	69.966241
968.000000	70.236604
967.000000	70.508517
966.000000	70.775249
965.000000	71.034346
964.000000	71.280678
963.000000	71.498359
962.000000	71.676551
961.000000	71.824984
960.000000	71.960432
959.000000	72.089248
958.000000	72.213252
957.000000	72.340818
956.000000	72.476916
955.000000	72.611196
954.000000	72.731717
953.000000	72.841410
952.000000	72.949550
951.000000	73.057031
950.000000	73.162293
949.000000	73.270724
948.000000	73.382610
947.000000	73.481812
946.000000	73.551827
945.000000	73.594081
944.000000	73.619454
943.000000	73.633133
942.000000	73.641463
941.000000	73.661683
940.000000	73.707027
939.000000	73.770310
938.000000	73.834873
937.000000	73.893111
936.000000	73.942465
935.000000	73.975851
934.000000	73.992406
933.000000	74.007686
932.000000	74.037601
931.000000	74.080416
930.000000	74.125727
929.000000	74.169045
928.000000	74.204652
927.000000	74.218040
926.000000	74.202802
925.000000	74.174023
924.000000	74.151242
923.000000	74.139035
922.000000	74.136532
921.000000	74.150139
920.000000	74.180487
919.000000	74.211533
918.000000	74.230094
917.000000	74.243423
916.000000	74.262025
915.000000	74.281071
914.000000	74.294651
913.000000	74.311178
912.000000	74.335379
911.000000	74.352342
910.000000	74.349027
909.000000	74.335580
908.000000	74.326241
907.000000	74.316145
906.000000	74.296412
905.000000	74.268714
904.000000	74.220846
903.000000	74.112133
902.000000	73.911564
901.000000	73.640459
900.000000	73.355211
899.000000	73.097179
898.000000	72.868285
897.000000	72.619273
896.000000	72.262234
895.000000	71.737782
894.000000	71.076302
893.000000	70.308002
892.000000	69.281626
891.000000	67.723821
890.000000	65.651972
889.000000	63.686868
888.000000	62.722052
887.000000	63.198312
886.000000	64.738415
885.000000	66.527217
884.000000	67.977778
883.000000	68.967559
882.000000	69.628145
881.000000	70.094456
880.000000	70.440762
879.000000	70.712301
878.000000	70.932859
877.000000	71.107383
876.000000	71.244643
875.000000	71.360769
874.000000	71.456266
873.000000	71.521906
872.000000	71.562395
871.000000	71.593210
870.000000	71.618143
869.000000	71.628962
868.000000	71.623973
867.000000	71.605610
866.000000	71.566588
865.000000	71.498757
864.000000	71.410991
863.000000	71.323288
862.000000	71.246723
861.000000	71.181917
860.000000	71.130170
859.000000	71.089849
858.000000	71.047595
857.000000	70.987882
856.000000	70.908724
855.000000	70.818395
854.000000	70.723419
853.000000	70.630002
852.000000	70.548849
851.000000	70.485702
850.000000	70.431944
849.000000	70.373680
848.000000	70.304691
847.000000	70.223775
846.000000	70.128494
845.000000	70.021575
844.000000	69.915354
843.000000	69.819851
842.000000	69.732218
841.000000	69.645413
840.000000	69.559358
839.000000	69.475743
838.000000	69.390671
837.000000	69.301193
836.000000	69.211583
835.000000	69.125520
834.000000	69.039493
833.000000	68.949876
832.000000	68.857237
831.000000	68.757322
830.000000	68.639123
829.000000	68.501390
828.000000	68.362273
827.000000	68.243584
826.000000	68.153621
825.000000	68.090566
824.000000	68.048899
823.000000	68.012323
822.000000	67.954147
821.000000	67.856658
820.000000	67.721657
819.000000	67.557511
818.000000	67.365985
817.000000	67.148291
816.000000	66.900280
815.000000	66.592242
814.000000	66.155156
813.000000	65.476788
812.000000	64.400874
811.000000	62.748677
810.000000	60.442292
809.000000	57.684948
808.000000	55.003993
807.000000	53.024122
806.000000	52.124956
805.000000	52.274298
804.000000	53.149950
803.000000	54.385443
802.000000	55.707732
801.000000	56.955766
800.000000	58.050795
799.000000	58.966210
798.000000	59.705945
797.000000	60.285242
796.000000	60.723414
795.000000	61.039791
794.000000	61.251599
793.000000	61.373828
792.000000	61.426136
791.000000	61.433123
790.000000	61.416202
789.000000	61.389074
788.000000	61.356966
787.000000	61.318764
786.000000	61.269107
785.000000	61.204719
784.000000	61.130865
783.000000	61.058817
782.000000	60.997917
781.000000	60.952260
780.000000	60.922490
779.000000	60.905798
778.000000	60.895652
777.000000	60.886469
776.000000	60.878516
775.000000	60.875356
774.000000	60.877643
773.000000	60.882648
772.000000	60.887988
771.000000	60.892038
770.000000	60.891626
769.000000	60.882685
768.000000	60.862458
767.000000	60.829650
766.000000	60.784525
765.000000	60.730645
764.000000	60.674351
763.000000	60.619687
762.000000	60.565574
761.000000	60.508782
760.000000	60.447084
759.000000	60.378758
758.000000	60.302460
757.000000	60.220178
756.000000	60.137667
755.000000	60.060343
754.000000	59.990253
753.000000	59.927054
752.000000	59.868242
751.000000	59.806837
750.000000	59.733611
749.000000	59.644820
748.000000	59.545556
747.000000	59.444550
746.000000	59.349055
745.000000	59.264599
744.000000	59.193463
743.000000	59.130552
742.000000	59.064816
741.000000	58.987514
740.000000	58.897298
739.000000	58.797500
738.000000	58.692401
737.000000	58.585728
736.000000	58.477715
735.000000	58.360609
734.000000	58.218411
733.000000	58.030460
732.000000	57.772062
731.000000	57.414843
730.000000	56.932962
729.000000	56.313224
728.000000	55.564281
727.000000	54.725278
726.000000	53.875420
725.000000	53.132296
724.000000	52.620335
723.000000	52.419863
722.000000	52.537315
721.000000	52.912440
720.000000	53.443642
719.000000	54.017418
718.000000	54.540734
717.000000	54.962518
716.000000	55.270135
715.000000	55.472957
714.000000	55.591421
713.000000	55.652985
712.000000	55.683745
711.000000	55.699074
710.000000	55.705952
709.000000	55.709609
708.000000	55.712746
707.000000	55.711497
706.000000	55.698476
705.000000	55.671323
704.000000	55.632182
703.000000	55.581310
702.000000	55.521999
701.000000	55.465764
700.000000	55.421130
699.000000	55.384496
698.000000	55.346702
697.000000	55.305545
696.000000	55.262470
695.000000	55.212857
694.000000	55.156370
693.000000	55.104505
692.000000	55.064814
691.000000	55.029390
690.000000	54.988917
689.000000	54.950722
688.000000	54.924903
687.000000	54.903204
686.000000	54.876121
685.000000	54.852252
684.000000	54.839938
683.000000	54.828814
682.000000	54.809312
681.000000	54.789770
680.000000	54.773311
679.000000	54.740323
678.000000	54.684752
677.000000	54.625632
676.000000	54.574389
675.000000	54.538323
674.000000	54.524970
673.000000	54.529868
672.000000	54.512408
671.000000	54.407203
670.000000	54.189816
669.000000	53.925730
668.000000	53.779622
667.000000	53.931537
666.000000	54.260862
665.000000	54.473463
664.000000	54.532661
663.000000	54.536750
662.000000	54.549082
661.000000	54.568316
660.000000	54.578625
659.000000	54.582073
658.000000	54.582055
657.000000	54.567288
656.000000	54.534730
655.000000	54.516609
654.000000	54.528295
653.000000	54.547109
652.000000	54.562518
651.000000	54.592608
650.000000	54.641269
649.000000	54.684881
648.000000	54.716687
647.000000	54.756688
646.000000	54.806103
645.000000	54.839923
644.000000	54.849780
643.000000	54.856314
642.000000	54.871415
641.000000	54.882909
640.000000	54.891035
639.000000	54.919839
638.000000	54.977742
637.000000	55.041438
636.000000	55.091349
635.000000	55.129569
634.000000	55.155733
633.000000	55.158809
632.000000	55.142493
631.000000	55.130751
630.000000	55.140038
629.000000	55.167610
628.000000	55.212385
627.000000	55.279597
626.000000	55.358504
625.000000	55.424930
624.000000	55.468476
623.000000	55.498712
622.000000	55.519789
621.000000	55.524402
620.000000	55.517621
619.000000	55.519365
618.000000	55.540710
617.000000	55.577265
616.000000	55.626817
615.000000	55.692287
614.000000	55.766661
613.000000	55.836968
612.000000	55.903135
611.000000	55.972128
610.000000	56.041068
609.000000	56.100538
608.000000	56.152157
607.000000	56.205543
606.000000	56.259917
605.000000	56.311446
604.000000	56.366267
603.000000	56.428278
602.000000	56.481074
601.000000	56.498696
600.000000	56.467350
599.000000	56.383548
598.000000	56.231118
597.000000	55.973774
596.000000	55.567278
595.000000	54.941515
594.000000	53.930997
593.000000	52.224726
592.000000	49.439651
591.000000	45.422117
590.000000	40.631458
589.000000	36.224167
588.000000	33.594139
587.000000	33.590015
586.000000	35.955505
585.000000	39.521623
584.000000	43.059443
583.000000	45.923417
582.000000	48.029127
581.000000	49.531777
580.000000	50.624525
579.000000	51.478268
578.000000	52.192072
577.000000	52.783624
576.000000	53.254645
575.000000	53.639342
574.000000	53.963795
573.000000	54.222415
572.000000	54.421408
571.000000	54.597861
570.000000	54.777252
569.000000	54.946326
568.000000	55.098026
567.000000	55.251740
566.000000	55.411307
565.000000	55.546910
564.000000	55.638406
563.000000	55.700007
562.000000	55.741442
561.000000	55.754417
560.000000	55.750528
559.000000	55.767563
558.000000	55.820258
557.000000	55.886710
556.000000	55.951740
555.000000	56.027048
554.000000	56.116274
553.000000	56.199864
552.000000	56.269048
551.000000	56.339158
550.000000	56.416691
549.000000	56.486918
548.000000	56.545980
547.000000	56.609867
546.000000	56.684145
545.000000	56.758134
544.000000	56.835993
543.000000	56.933391
542.000000	57.038427
541.000000	57.114776
540.000000	57.151039
539.000000	57.167467
538.000000	57.172666
537.000000	57.155953
536.000000	57.128116
535.000000	57.124521
534.000000	57.155054
533.000000	57.199159
532.000000	57.235806
531.000000	57.258145
530.000000	57.252909
529.000000	57.197891
528.000000	57.084400
527.000000	56.928952
526.000000	56.743075
525.000000	56.522916
524.000000	56.274164
523.000000	55.993841
522.000000	55.635115
521.000000	55.114933
520.000000	54.362509
519.000000	53.335970
518.000000	52.009450
517.000000	50.421397
516.000000	48.755452
515.000000	47.305670
514.000000	46.332120
513.000000	45.972518
512.000000	46.241440
511.000000	47.047828
510.000000	48.202008
509.000000	49.481710
508.000000	50.723647
507.000000	51.841175
506.000000	52.785016
505.000000	53.538707
504.000000	54.138981
503.000000	54.641846
502.000000	55.071128
501.000000	55.422210
500.000000	55.706414
499.000000	55.960393
498.000000	56.198308
497.000000	56.403828
496.000000	56.568423
495.000000	56.701559
494.000000	56.805866
493.000000	56.861710
492.000000	56.863876
491.000000	56.847780
490.000000	56.845377
489.000000	56.859431
488.000000	56.874479
487.000000	56.871879
486.000000	56.808102
485.000000	56.606093
484.000000	56.206009
483.000000	55.591198
482.000000	54.740698
481.000000	53.585835
480.000000	52.044169
479.000000	50.066401
478.000000	47.648928
477.000000	44.929184
476.000000	42.294413
475.000000	40.310864
474.000000	39.443758
473.000000	39.832867
472.000000	41.249246
471.000000	43.245989
470.000000	45.406578
469.000000	47.460503
468.000000	49.269146
467.000000	50.782647
466.000000	52.009072
465.000000	53.002158
464.000000	53.829357
463.000000	54.547280
462.000000	55.178976
461.000000	55.714931
460.000000	56.153094
459.000000	56.512699
458.000000	56.805013
457.000000	57.042905
456.000000	57.267594
455.000000	57.518815
454.000000	57.796756
453.000000	58.057281
452.000000	58.264501
451.000000	58.435663
450.000000	58.590739
449.000000	58.722004
448.000000	58.824062
447.000000	58.919558
446.000000	59.029486
445.000000	59.157769
444.000000	59.295398
443.000000	59.430378
442.000000	59.546484
441.000000	59.634038
440.000000	59.713251
439.000000	59.810041
438.000000	59.920508
437.000000	60.017703
436.000000	60.098339
435.000000	60.188189
434.000000	60.297244
433.000000	60.406845
432.000000	60.502540
431.000000	60.585858
430.000000	60.665791
429.000000	60.734515
428.000000	60.783776
427.000000	60.837497
426.000000	60.925529
425.000000	61.031984
424.000000	61.115170
423.000000	61.186794
422.000000	61.296194
421.000000	61.452918
420.000000	61.602804
419.000000	61.719744
418.000000	61.845112
417.000000	61.949314
416.000000	61.986780
415.000000	61.993682
414.000000	62.007734
413.000000	62.032066
412.000000	62.072632
411.000000	62.153505
410.000000	62.280766
409.000000	62.345487
408.000000	62.183190
407.000000	61.756821
406.000000	61.245101
405.000000	60.912149
404.000000	60.946570
403.000000	61.349727
402.000000	61.976683
401.000000	62.593147
400.000000	63.045224
