PE IR       SUBTECH     SPECTRUM    ASCII       PEDS        4.00        
   -1
23MS101-trans.asc
24/10/15
16:07:32.00
24/10/15
16:07:32.00
Administrator
Sample 1276 By Administrator Date Tuesday, October 15 2024
400.000000
#HDR
-1
-1
#GR
cm-1
%T
1.0
0.0
4000.000000
-1.000000
3601
8
114.021514
15.836669
#DATA
4000.000000	85.640249
3999.000000	85.581005
3998.000000	85.533700
3997.000000	85.500951
3996.000000	85.468888
3995.000000	85.422229
3994.000000	85.365279
3993.000000	85.318335
3992.000000	85.290598
3991.000000	85.267118
3990.000000	85.228186
3989.000000	85.172056
3988.000000	85.110980
3987.000000	85.052389
3986.000000	84.993538
3985.000000	84.930455
3984.000000	84.862086
3983.000000	84.786359
3982.000000	84.698107
3981.000000	84.595838
3980.000000	84.490203
3979.000000	84.400674
3978.000000	84.341718
3977.000000	84.316399
3976.000000	84.320066
3975.000000	84.344265
3974.000000	84.380339
3973.000000	84.427064
3972.000000	84.493983
3971.000000	84.587153
3970.000000	84.698985
3969.000000	84.810524
3968.000000	84.902631
3967.000000	84.969101
3966.000000	85.020526
3965.000000	85.074925
3964.000000	85.138397
3963.000000	85.192518
3962.000000	85.209307
3961.000000	85.184905
3960.000000	85.151341
3959.000000	85.137150
3958.000000	85.142962
3957.000000	85.154140
3956.000000	85.161727
3955.000000	85.169808
3954.000000	85.186481
3953.000000	85.225660
3952.000000	85.302001
3951.000000	85.421593
3950.000000	85.568812
3949.000000	85.692861
3948.000000	85.744100
3947.000000	85.754940
3946.000000	85.841706
3945.000000	86.079909
3944.000000	86.397671
3943.000000	86.630316
3942.000000	86.694715
3941.000000	86.679760
3940.000000	86.733696
3939.000000	86.874423
3938.000000	86.996054
3937.000000	87.033087
3936.000000	87.044802
3935.000000	87.130898
3934.000000	87.300323
3933.000000	87.470950
3932.000000	87.555190
3931.000000	87.526113
3930.000000	87.423872
3929.000000	87.326540
3928.000000	87.335921
3927.000000	87.501413
3926.000000	87.717829
3925.000000	87.796533
3924.000000	87.682072
3923.000000	87.520973
3922.000000	87.468295
3921.000000	87.528602
3920.000000	87.647642
3919.000000	87.811331
3918.000000	87.982497
3917.000000	88.058877
3916.000000	88.002268
3915.000000	87.928312
3914.000000	87.983530
3913.000000	88.160021
3912.000000	88.349875
3911.000000	88.442464
3910.000000	88.403984
3909.000000	88.291107
3908.000000	88.216475
3907.000000	88.285876
3906.000000	88.484224
3905.000000	88.643520
3904.000000	88.592015
3903.000000	88.388589
3902.000000	88.317434
3901.000000	88.530110
3900.000000	88.813894
3899.000000	88.879253
3898.000000	88.718623
3897.000000	88.542222
3896.000000	88.522879
3895.000000	88.693733
3894.000000	89.075475
3893.000000	89.603984
3892.000000	89.948837
3891.000000	89.676137
3890.000000	88.919264
3889.000000	88.441719
3888.000000	88.725440
3887.000000	89.454974
3886.000000	89.863168
3885.000000	89.505471
3884.000000	88.852317
3883.000000	88.713873
3882.000000	89.227441
3881.000000	89.817921
3880.000000	89.856030
3879.000000	89.325688
3878.000000	88.867400
3877.000000	88.969284
3876.000000	89.435415
3875.000000	89.685316
3874.000000	89.420483
3873.000000	89.054753
3872.000000	89.202583
3871.000000	89.761658
3870.000000	89.932857
3869.000000	89.317714
3868.000000	88.637561
3867.000000	88.696390
3866.000000	89.305240
3865.000000	89.807552
3864.000000	89.918185
3863.000000	89.766271
3862.000000	89.604989
3861.000000	89.494119
3860.000000	89.355511
3859.000000	89.131852
3858.000000	88.887926
3857.000000	88.834478
3856.000000	89.245507
3855.000000	90.183160
3854.000000	91.017566
3853.000000	90.519341
3852.000000	88.812272
3851.000000	87.663958
3850.000000	87.818896
3849.000000	88.574753
3848.000000	89.286411
3847.000000	89.789386
3846.000000	90.132092
3845.000000	90.345620
3844.000000	90.362263
3843.000000	90.113843
3842.000000	89.800116
3841.000000	89.727230
3840.000000	89.969785
3839.000000	90.293465
3838.000000	90.343810
3837.000000	89.981438
3836.000000	89.488664
3835.000000	89.311334
3834.000000	89.606412
3833.000000	90.107293
3832.000000	90.407151
3831.000000	90.357874
3830.000000	90.205644
3829.000000	90.283720
3828.000000	90.591447
3827.000000	90.723458
3826.000000	90.403686
3825.000000	89.948758
3824.000000	89.967847
3823.000000	90.632554
3822.000000	91.358162
3821.000000	91.189349
3820.000000	90.094183
3819.000000	89.358921
3818.000000	89.799874
3817.000000	90.822146
3816.000000	91.289741
3815.000000	90.803098
3814.000000	90.130645
3813.000000	90.005064
3812.000000	90.250061
3811.000000	90.477659
3810.000000	90.739068
3809.000000	91.257582
3808.000000	91.819046
3807.000000	91.739107
3806.000000	90.840587
3805.000000	90.026694
3804.000000	90.204944
3803.000000	91.200978
3802.000000	92.000006
3801.000000	91.704131
3800.000000	90.697573
3799.000000	90.236138
3798.000000	90.696092
3797.000000	91.417295
3796.000000	91.745637
3795.000000	91.659934
3794.000000	91.560701
3793.000000	91.670531
3792.000000	91.885122
3791.000000	92.049523
3790.000000	92.113970
3789.000000	92.117247
3788.000000	92.133616
3787.000000	92.225871
3786.000000	92.352542
3785.000000	92.350119
3784.000000	92.152415
3783.000000	91.960187
3782.000000	92.041788
3781.000000	92.387036
3780.000000	92.690793
3779.000000	92.653418
3778.000000	92.350976
3777.000000	92.130096
3776.000000	92.123989
3775.000000	92.150038
3774.000000	92.101696
3773.000000	92.140422
3772.000000	92.406413
3771.000000	92.703188
3770.000000	92.675548
3769.000000	92.293589
3768.000000	91.980332
3767.000000	92.057923
3766.000000	92.296179
3765.000000	92.262304
3764.000000	91.954494
3763.000000	91.792705
3762.000000	92.013455
3761.000000	92.384419
3760.000000	92.598685
3759.000000	92.533665
3758.000000	92.204640
3757.000000	91.736285
3756.000000	91.358785
3755.000000	91.272941
3754.000000	91.470670
3753.000000	91.804935
3752.000000	92.155118
3751.000000	92.281666
3750.000000	91.750488
3749.000000	90.619022
3748.000000	89.829107
3747.000000	90.246022
3746.000000	91.697856
3745.000000	93.071799
3744.000000	92.946671
3743.000000	91.490253
3742.000000	90.530266
3741.000000	90.715966
3740.000000	91.311797
3739.000000	91.834733
3738.000000	92.298136
3737.000000	92.722839
3736.000000	92.910370
3735.000000	92.838103
3734.000000	92.824445
3733.000000	92.982041
3732.000000	92.991450
3731.000000	92.691282
3730.000000	92.445636
3729.000000	92.645931
3728.000000	93.173618
3727.000000	93.597775
3726.000000	93.680184
3725.000000	93.603760
3724.000000	93.633524
3723.000000	93.759838
3722.000000	93.839369
3721.000000	93.819104
3720.000000	93.808069
3719.000000	93.858942
3718.000000	93.835902
3717.000000	93.661072
3716.000000	93.498252
3715.000000	93.574805
3714.000000	93.924796
3713.000000	94.358212
3712.000000	94.598455
3711.000000	94.455066
3710.000000	94.065627
3709.000000	93.773650
3708.000000	93.712789
3707.000000	93.787535
3706.000000	93.932536
3705.000000	94.193654
3704.000000	94.596184
3703.000000	95.011747
3702.000000	95.199953
3701.000000	95.014181
3700.000000	94.647882
3699.000000	94.483227
3698.000000	94.601656
3697.000000	94.740981
3696.000000	94.702736
3695.000000	94.551314
3694.000000	94.435462
3693.000000	94.401108
3692.000000	94.472114
3691.000000	94.714413
3690.000000	95.074305
3689.000000	95.189727
3688.000000	94.716894
3687.000000	93.984916
3686.000000	93.693749
3685.000000	93.982733
3684.000000	94.442539
3683.000000	94.761716
3682.000000	94.903052
3681.000000	94.861321
3680.000000	94.549255
3679.000000	94.166995
3678.000000	94.228411
3677.000000	94.892618
3676.000000	95.432712
3675.000000	94.798002
3674.000000	93.401403
3673.000000	92.828423
3672.000000	93.532619
3671.000000	94.638167
3670.000000	95.142810
3669.000000	94.744291
3668.000000	94.114520
3667.000000	93.970024
3666.000000	94.289128
3665.000000	94.695954
3664.000000	94.983901
3663.000000	95.130065
3662.000000	95.101128
3661.000000	94.888423
3660.000000	94.633481
3659.000000	94.610789
3658.000000	94.896579
3657.000000	95.141219
3656.000000	94.812605
3655.000000	93.929319
3654.000000	93.178460
3653.000000	93.034821
3652.000000	93.352594
3651.000000	93.768640
3650.000000	93.994870
3649.000000	93.843574
3648.000000	93.336852
3647.000000	92.750288
3646.000000	92.425653
3645.000000	92.500586
3644.000000	92.860983
3643.000000	93.248256
3642.000000	93.454855
3641.000000	93.473758
3640.000000	93.411980
3639.000000	93.310601
3638.000000	93.132687
3637.000000	92.941901
3636.000000	92.837391
3635.000000	92.705631
3634.000000	92.304835
3633.000000	91.693187
3632.000000	91.323564
3631.000000	91.543088
3630.000000	92.139732
3629.000000	92.299625
3628.000000	91.458413
3627.000000	90.324834
3626.000000	89.860414
3625.000000	89.986817
3624.000000	90.166136
3623.000000	90.212494
3622.000000	90.264731
3621.000000	90.404419
3620.000000	90.462115
3619.000000	90.157960
3618.000000	89.472508
3617.000000	88.812533
3616.000000	88.562861
3615.000000	88.664974
3614.000000	88.767284
3613.000000	88.618915
3612.000000	88.302681
3611.000000	88.098476
3610.000000	88.121328
3609.000000	88.190312
3608.000000	88.067171
3607.000000	87.740843
3606.000000	87.416885
3605.000000	87.251980
3604.000000	87.217738
3603.000000	87.218403
3602.000000	87.168210
3601.000000	86.999353
3600.000000	86.704055
3599.000000	86.373503
3598.000000	86.099404
3597.000000	85.925505
3596.000000	85.813099
3595.000000	85.647220
3594.000000	85.325936
3593.000000	84.867921
3592.000000	84.420889
3591.000000	84.146566
3590.000000	84.098630
3589.000000	84.176853
3588.000000	84.156278
3587.000000	83.847574
3586.000000	83.344582
3585.000000	82.946851
3584.000000	82.794513
3583.000000	82.793618
3582.000000	82.801653
3581.000000	82.753194
3580.000000	82.645939
3579.000000	82.501376
3578.000000	82.343565
3577.000000	82.192034
3576.000000	82.059763
3575.000000	81.927647
3574.000000	81.758819
3573.000000	81.528043
3572.000000	81.255126
3571.000000	81.022592
3570.000000	80.933608
3569.000000	81.012808
3568.000000	81.140687
3567.000000	81.123430
3566.000000	80.909396
3565.000000	80.685271
3564.000000	80.643044
3563.000000	80.778795
3562.000000	80.978770
3561.000000	81.155789
3560.000000	81.282613
3559.000000	81.362342
3558.000000	81.409582
3557.000000	81.443386
3556.000000	81.495406
3555.000000	81.597024
3554.000000	81.740332
3553.000000	81.861398
3552.000000	81.888665
3551.000000	81.832523
3550.000000	81.793102
3549.000000	81.852613
3548.000000	81.999109
3547.000000	82.160713
3546.000000	82.275875
3545.000000	82.336835
3544.000000	82.382757
3543.000000	82.449994
3542.000000	82.542763
3541.000000	82.642831
3540.000000	82.737626
3539.000000	82.830945
3538.000000	82.921485
3537.000000	82.993370
3536.000000	83.021406
3535.000000	83.005058
3534.000000	82.974473
3533.000000	82.959323
3532.000000	82.961353
3531.000000	82.964128
3530.000000	82.952167
3529.000000	82.907609
3528.000000	82.812698
3527.000000	82.679585
3526.000000	82.561692
3525.000000	82.500283
3524.000000	82.472195
3523.000000	82.413284
3522.000000	82.295869
3521.000000	82.157252
3520.000000	82.037534
3519.000000	81.923783
3518.000000	81.772864
3517.000000	81.574674
3516.000000	81.351769
3515.000000	81.113542
3514.000000	80.851473
3513.000000	80.574225
3512.000000	80.305740
3511.000000	80.045685
3510.000000	79.756627
3509.000000	79.404420
3508.000000	79.004931
3507.000000	78.614800
3506.000000	78.272942
3505.000000	77.966309
3504.000000	77.649977
3503.000000	77.290013
3502.000000	76.893838
3501.000000	76.503417
3500.000000	76.156849
3499.000000	75.858088
3498.000000	75.583459
3497.000000	75.308081
3496.000000	75.023685
3495.000000	74.737396
3494.000000	74.463121
3493.000000	74.215248
3492.000000	73.999901
3491.000000	73.814609
3490.000000	73.657152
3489.000000	73.525374
3488.000000	73.410467
3487.000000	73.304713
3486.000000	73.219496
3485.000000	73.182356
3484.000000	73.203687
3483.000000	73.258971
3482.000000	73.314910
3481.000000	73.367395
3480.000000	73.443104
3479.000000	73.566479
3478.000000	73.738950
3477.000000	73.944403
3476.000000	74.162497
3475.000000	74.376449
3474.000000	74.579876
3473.000000	74.780324
3472.000000	74.988505
3471.000000	75.206161
3470.000000	75.433794
3469.000000	75.678008
3468.000000	75.939183
3467.000000	76.203373
3466.000000	76.459386
3465.000000	76.714592
3464.000000	76.977879
3463.000000	77.238941
3462.000000	77.481155
3461.000000	77.708155
3460.000000	77.940790
3459.000000	78.190135
3458.000000	78.447857
3457.000000	78.703128
3456.000000	78.951167
3455.000000	79.193982
3454.000000	79.434685
3453.000000	79.668939
3452.000000	79.887524
3451.000000	80.094859
3450.000000	80.318053
3449.000000	80.575666
3448.000000	80.843260
3447.000000	81.074182
3446.000000	81.263585
3445.000000	81.462560
3444.000000	81.711439
3443.000000	81.989052
3442.000000	82.246866
3441.000000	82.470432
3440.000000	82.682694
3439.000000	82.902149
3438.000000	83.125236
3437.000000	83.346629
3436.000000	83.568976
3435.000000	83.795666
3434.000000	84.023007
3433.000000	84.243186
3432.000000	84.452843
3431.000000	84.655041
3430.000000	84.856754
3429.000000	85.061929
3428.000000	85.267989
3427.000000	85.467421
3426.000000	85.654885
3425.000000	85.834940
3424.000000	86.020172
3423.000000	86.218906
3422.000000	86.424514
3421.000000	86.621305
3420.000000	86.801288
3419.000000	86.973488
3418.000000	87.154324
3417.000000	87.349863
3416.000000	87.552328
3415.000000	87.751877
3414.000000	87.946616
3413.000000	88.140288
3412.000000	88.335184
3411.000000	88.530815
3410.000000	88.726972
3409.000000	88.924013
3408.000000	89.121536
3407.000000	89.317546
3406.000000	89.508891
3405.000000	89.694721
3404.000000	89.876499
3403.000000	90.056440
3402.000000	90.239020
3401.000000	90.434821
3400.000000	90.653601
3399.000000	90.887289
3398.000000	91.110158
3397.000000	91.304580
3396.000000	91.481691
3395.000000	91.667006
3394.000000	91.870772
3393.000000	92.081876
3392.000000	92.287865
3391.000000	92.489985
3390.000000	92.695514
3389.000000	92.904674
3388.000000	93.111600
3387.000000	93.312929
3386.000000	93.508311
3385.000000	93.697334
3384.000000	93.879923
3383.000000	94.059807
3382.000000	94.243097
3381.000000	94.432715
3380.000000	94.625678
3379.000000	94.815776
3378.000000	95.001084
3377.000000	95.186227
3376.000000	95.375668
3375.000000	95.566087
3374.000000	95.750142
3373.000000	95.926495
3372.000000	96.101685
3371.000000	96.283068
3370.000000	96.475190
3369.000000	96.681216
3368.000000	96.900341
3367.000000	97.124596
3366.000000	97.344142
3365.000000	97.556723
3364.000000	97.768413
3363.000000	97.985121
3362.000000	98.207261
3361.000000	98.433284
3360.000000	98.663708
3359.000000	98.899818
3358.000000	99.140706
3357.000000	99.382212
3356.000000	99.618625
3355.000000	99.846100
3354.000000	100.067123
3353.000000	100.291014
3352.000000	100.526968
3351.000000	100.775586
3350.000000	101.029090
3349.000000	101.278163
3348.000000	101.515841
3347.000000	101.739283
3346.000000	101.950621
3345.000000	102.156839
3344.000000	102.363338
3343.000000	102.565388
3342.000000	102.751743
3341.000000	102.917457
3340.000000	103.069401
3339.000000	103.216103
3338.000000	103.354610
3337.000000	103.470733
3336.000000	103.549465
3335.000000	103.584194
3334.000000	103.576852
3333.000000	103.528914
3332.000000	103.435344
3331.000000	103.285019
3330.000000	103.066793
3329.000000	102.775038
3328.000000	102.406959
3327.000000	101.960956
3326.000000	101.434371
3325.000000	100.821773
3324.000000	100.116145
3323.000000	99.305965
3322.000000	98.380715
3321.000000	97.333437
3320.000000	96.152565
3319.000000	94.818762
3318.000000	93.304480
3317.000000	91.585038
3316.000000	89.639341
3315.000000	87.439372
3314.000000	84.958363
3313.000000	82.182540
3312.000000	79.122040
3311.000000	75.809112
3310.000000	72.287595
3309.000000	68.618737
3308.000000	64.880161
3307.000000	61.155585
3306.000000	57.525597
3305.000000	54.058713
3304.000000	50.805936
3303.000000	47.802881
3302.000000	45.077902
3301.000000	42.657073
3300.000000	40.562516
3299.000000	38.801964
3298.000000	37.376220
3297.000000	36.286247
3296.000000	35.515581
3295.000000	35.021306
3294.000000	34.732684
3293.000000	34.567376
3292.000000	34.448336
3291.000000	34.308979
3290.000000	34.112353
3289.000000	33.857893
3288.000000	33.572993
3287.000000	33.297964
3286.000000	33.071177
3285.000000	32.920409
3284.000000	32.851386
3283.000000	32.845818
3282.000000	32.874439
3281.000000	32.910117
3280.000000	32.928600
3279.000000	32.906711
3278.000000	32.830753
3277.000000	32.704348
3276.000000	32.542379
3275.000000	32.361527
3274.000000	32.182221
3273.000000	32.034224
3272.000000	31.951929
3271.000000	31.963300
3270.000000	32.088540
3269.000000	32.341798
3268.000000	32.726996
3267.000000	33.237172
3266.000000	33.856281
3265.000000	34.561544
3264.000000	35.317925
3263.000000	36.072851
3262.000000	36.764933
3261.000000	37.335694
3260.000000	37.730703
3259.000000	37.901671
3258.000000	37.820823
3257.000000	37.484554
3256.000000	36.909079
3255.000000	36.117930
3254.000000	35.138848
3253.000000	34.011313
3252.000000	32.771117
3251.000000	31.441600
3250.000000	30.038234
3249.000000	28.580185
3248.000000	27.098066
3247.000000	25.629417
3246.000000	24.221950
3245.000000	22.936777
3244.000000	21.836787
3243.000000	20.962584
3242.000000	20.320746
3241.000000	19.879919
3240.000000	19.574056
3239.000000	19.323890
3238.000000	19.063529
3237.000000	18.760474
3236.000000	18.411541
3235.000000	18.030197
3234.000000	17.641371
3233.000000	17.270841
3232.000000	16.931286
3231.000000	16.620181
3230.000000	16.336674
3229.000000	16.096198
3228.000000	15.922352
3227.000000	15.836669
3226.000000	15.860238
3225.000000	16.014545
3224.000000	16.314095
3223.000000	16.756262
3222.000000	17.326882
3221.000000	18.006208
3220.000000	18.761299
3219.000000	19.544781
3218.000000	20.307526
3217.000000	21.012513
3216.000000	21.633455
3215.000000	22.151805
3214.000000	22.565488
3213.000000	22.895182
3212.000000	23.173063
3211.000000	23.428578
3210.000000	23.689230
3209.000000	23.984290
3208.000000	24.339126
3207.000000	24.768127
3206.000000	25.278341
3205.000000	25.873263
3204.000000	26.549842
3203.000000	27.296205
3202.000000	28.099079
3201.000000	28.950280
3200.000000	29.839198
3199.000000	30.748337
3198.000000	31.659660
3197.000000	32.561434
3196.000000	33.444813
3195.000000	34.298777
3194.000000	35.113078
3193.000000	35.880792
3192.000000	36.593881
3191.000000	37.239318
3190.000000	37.807359
3189.000000	38.296847
3188.000000	38.710497
3187.000000	39.050893
3186.000000	39.323472
3185.000000	39.541372
3184.000000	39.718085
3183.000000	39.862254
3182.000000	39.983513
3181.000000	40.094585
3180.000000	40.205371
3179.000000	40.318625
3178.000000	40.437833
3177.000000	40.574683
3176.000000	40.743538
3175.000000	40.953123
3174.000000	41.207506
3173.000000	41.509978
3172.000000	41.859587
3171.000000	42.250509
3170.000000	42.677605
3169.000000	43.139910
3168.000000	43.635977
3167.000000	44.158326
3166.000000	44.699272
3165.000000	45.254964
3164.000000	45.820772
3163.000000	46.388837
3162.000000	46.952436
3161.000000	47.506887
3160.000000	48.041757
3159.000000	48.537511
3158.000000	48.969904
3157.000000	49.314538
3156.000000	49.541191
3155.000000	49.612626
3154.000000	49.494662
3153.000000	49.164483
3152.000000	48.621347
3151.000000	47.895171
3150.000000	47.053080
3149.000000	46.187843
3148.000000	45.382539
3147.000000	44.683128
3146.000000	44.092074
3145.000000	43.575339
3144.000000	43.073440
3143.000000	42.519053
3142.000000	41.862423
3141.000000	41.085819
3140.000000	40.197229
3139.000000	39.220197
3138.000000	38.192113
3137.000000	37.162891
3136.000000	36.182701
3135.000000	35.291669
3134.000000	34.522229
3133.000000	33.904380
3132.000000	33.459566
3131.000000	33.196426
3130.000000	33.118518
3129.000000	33.222986
3128.000000	33.496551
3127.000000	33.915751
3126.000000	34.459153
3125.000000	35.114580
3124.000000	35.864863
3123.000000	36.685710
3122.000000	37.555595
3121.000000	38.461678
3120.000000	39.393467
3119.000000	40.334468
3118.000000	41.269708
3117.000000	42.190977
3116.000000	43.090263
3115.000000	43.955061
3114.000000	44.775419
3113.000000	45.548651
3112.000000	46.272752
3111.000000	46.943977
3110.000000	47.562077
3109.000000	48.132262
3108.000000	48.655450
3107.000000	49.125422
3106.000000	49.540512
3105.000000	49.907154
3104.000000	50.233689
3103.000000	50.525979
3102.000000	50.792715
3101.000000	51.050220
3100.000000	51.318124
3099.000000	51.614899
3098.000000	51.956968
3097.000000	52.355735
3096.000000	52.810967
3095.000000	53.313339
3094.000000	53.853940
3093.000000	54.426816
3092.000000	55.022416
3091.000000	55.625870
3090.000000	56.225296
3089.000000	56.814610
3088.000000	57.387884
3087.000000	57.937922
3086.000000	58.462858
3085.000000	58.966509
3084.000000	59.450250
3083.000000	59.910450
3082.000000	60.345058
3081.000000	60.758120
3080.000000	61.154111
3079.000000	61.534101
3078.000000	61.900078
3077.000000	62.256451
3076.000000	62.604687
3075.000000	62.941604
3074.000000	63.265528
3073.000000	63.578414
3072.000000	63.881032
3071.000000	64.172115
3070.000000	64.453812
3069.000000	64.732825
3068.000000	65.013645
3067.000000	65.294352
3066.000000	65.570655
3065.000000	65.840372
3064.000000	66.103431
3063.000000	66.360795
3062.000000	66.613975
3061.000000	66.863634
3060.000000	67.108193
3059.000000	67.346274
3058.000000	67.579395
3057.000000	67.809260
3056.000000	68.033374
3055.000000	68.247791
3054.000000	68.453889
3053.000000	68.657260
3052.000000	68.860504
3051.000000	69.060616
3050.000000	69.252981
3049.000000	69.434918
3048.000000	69.605818
3047.000000	69.767792
3046.000000	69.926375
3045.000000	70.086731
3044.000000	70.249162
3043.000000	70.410877
3042.000000	70.571702
3041.000000	70.733756
3040.000000	70.895446
3039.000000	71.052014
3038.000000	71.201747
3037.000000	71.347468
3036.000000	71.492309
3035.000000	71.638045
3034.000000	71.787900
3033.000000	71.944750
3032.000000	72.104623
3031.000000	72.258963
3030.000000	72.406097
3029.000000	72.553948
3028.000000	72.708552
3027.000000	72.866631
3026.000000	73.023037
3025.000000	73.178446
3024.000000	73.335285
3023.000000	73.491567
3022.000000	73.643534
3021.000000	73.790927
3020.000000	73.936354
3019.000000	74.081312
3018.000000	74.224963
3017.000000	74.365189
3016.000000	74.498965
3015.000000	74.623588
3014.000000	74.738054
3013.000000	74.841822
3012.000000	74.931662
3011.000000	75.001042
3010.000000	75.043853
3009.000000	75.054989
3008.000000	75.027076
3007.000000	74.949831
3006.000000	74.812604
3005.000000	74.607886
3004.000000	74.331619
3003.000000	73.985580
3002.000000	73.579974
3001.000000	73.129135
3000.000000	72.645001
2999.000000	72.132533
2998.000000	71.595024
2997.000000	71.044609
2996.000000	70.511727
2995.000000	70.047242
2994.000000	69.707464
2993.000000	69.526177
2992.000000	69.492636
2991.000000	69.559941
2990.000000	69.673372
2989.000000	69.791485
2988.000000	69.888563
2987.000000	69.950344
2986.000000	69.976250
2985.000000	69.979105
2984.000000	69.978248
2983.000000	69.994088
2982.000000	70.047650
2981.000000	70.157385
2980.000000	70.329129
2979.000000	70.551761
2978.000000	70.806685
2977.000000	71.080288
2976.000000	71.369219
2975.000000	71.677428
2974.000000	72.009854
2973.000000	72.362513
2972.000000	72.714724
2971.000000	73.032735
2970.000000	73.280960
2969.000000	73.430749
2968.000000	73.458711
2967.000000	73.346243
2966.000000	73.083160
2965.000000	72.669660
2964.000000	72.114054
2963.000000	71.429426
2962.000000	70.637588
2961.000000	69.767752
2960.000000	68.848436
2959.000000	67.899965
2958.000000	66.936501
2957.000000	65.977504
2956.000000	65.057921
2955.000000	64.233340
2954.000000	63.565544
2953.000000	63.089609
2952.000000	62.786722
2951.000000	62.596941
2950.000000	62.466602
2949.000000	62.381710
2948.000000	62.363711
2947.000000	62.439730
2946.000000	62.616721
2945.000000	62.867412
2944.000000	63.132086
2943.000000	63.346745
2942.000000	63.483815
2941.000000	63.575188
2940.000000	63.698433
2939.000000	63.940265
2938.000000	64.363409
2937.000000	64.987331
2936.000000	65.785341
2935.000000	66.700590
2934.000000	67.670449
2933.000000	68.642425
2932.000000	69.576289
2931.000000	70.445107
2930.000000	71.237832
2929.000000	71.955390
2928.000000	72.602207
2927.000000	73.182743
2926.000000	73.705769
2925.000000	74.183170
2924.000000	74.622440
2923.000000	75.023936
2922.000000	75.386503
2921.000000	75.710929
2920.000000	75.996587
2919.000000	76.241351
2918.000000	76.446070
2917.000000	76.615880
2916.000000	76.756164
2915.000000	76.870548
2914.000000	76.963645
2913.000000	77.040645
2912.000000	77.104073
2911.000000	77.155311
2910.000000	77.198486
2909.000000	77.239972
2908.000000	77.283137
2907.000000	77.327298
2906.000000	77.372760
2905.000000	77.421913
2904.000000	77.474729
2903.000000	77.528305
2902.000000	77.581064
2901.000000	77.632979
2900.000000	77.681608
2899.000000	77.721426
2898.000000	77.748587
2897.000000	77.760864
2896.000000	77.752791
2895.000000	77.715661
2894.000000	77.643406
2893.000000	77.534464
2892.000000	77.386697
2891.000000	77.195950
2890.000000	76.961431
2889.000000	76.688954
2888.000000	76.387780
2887.000000	76.068816
2886.000000	75.746980
2885.000000	75.439896
2884.000000	75.162362
2883.000000	74.924066
2882.000000	74.733587
2881.000000	74.599774
2880.000000	74.527019
2879.000000	74.514067
2878.000000	74.558159
2877.000000	74.656573
2876.000000	74.803145
2875.000000	74.987857
2874.000000	75.200529
2873.000000	75.431029
2872.000000	75.665901
2871.000000	75.890629
2870.000000	76.098071
2869.000000	76.290313
2868.000000	76.472018
2867.000000	76.645996
2866.000000	76.815129
2865.000000	76.982834
2864.000000	77.149180
2863.000000	77.311078
2862.000000	77.467845
2861.000000	77.622499
2860.000000	77.776529
2859.000000	77.928428
2858.000000	78.078942
2857.000000	78.233268
2856.000000	78.396458
2855.000000	78.570400
2854.000000	78.755918
2853.000000	78.952532
2852.000000	79.153988
2851.000000	79.348127
2850.000000	79.523717
2849.000000	79.674990
2848.000000	79.800073
2847.000000	79.900307
2846.000000	79.982754
2845.000000	80.058933
2844.000000	80.138322
2843.000000	80.224892
2842.000000	80.320511
2841.000000	80.428433
2840.000000	80.551590
2839.000000	80.690179
2838.000000	80.842113
2837.000000	81.003697
2836.000000	81.169727
2835.000000	81.335600
2834.000000	81.499791
2833.000000	81.662258
2832.000000	81.820994
2831.000000	81.972755
2830.000000	82.116778
2829.000000	82.254662
2828.000000	82.386741
2827.000000	82.511923
2826.000000	82.630736
2825.000000	82.744986
2824.000000	82.854464
2823.000000	82.957151
2822.000000	83.052852
2821.000000	83.143375
2820.000000	83.229021
2819.000000	83.308317
2818.000000	83.381273
2817.000000	83.449636
2816.000000	83.513811
2815.000000	83.572833
2814.000000	83.627763
2813.000000	83.682090
2812.000000	83.738442
2811.000000	83.797742
2810.000000	83.861270
2809.000000	83.930052
2808.000000	84.002181
2807.000000	84.074075
2806.000000	84.144634
2805.000000	84.215212
2804.000000	84.285675
2803.000000	84.354027
2802.000000	84.419998
2801.000000	84.485394
2800.000000	84.550636
2799.000000	84.614216
2798.000000	84.675657
2797.000000	84.735613
2796.000000	84.792800
2795.000000	84.844244
2794.000000	84.889085
2793.000000	84.929149
2792.000000	84.965689
2791.000000	84.998787
2790.000000	85.029876
2789.000000	85.061199
2788.000000	85.092426
2787.000000	85.121214
2786.000000	85.147651
2785.000000	85.175058
2784.000000	85.206066
2783.000000	85.241238
2782.000000	85.281772
2781.000000	85.329759
2780.000000	85.385010
2779.000000	85.444763
2778.000000	85.507101
2777.000000	85.571737
2776.000000	85.636921
2775.000000	85.698776
2774.000000	85.754602
2773.000000	85.804166
2772.000000	85.847384
2771.000000	85.883860
2770.000000	85.915206
2769.000000	85.944905
2768.000000	85.975059
2767.000000	86.005341
2766.000000	86.035266
2765.000000	86.064863
2764.000000	86.092992
2763.000000	86.118051
2762.000000	86.140675
2761.000000	86.163175
2760.000000	86.186054
2759.000000	86.207508
2758.000000	86.226151
2757.000000	86.241080
2756.000000	86.249291
2755.000000	86.246185
2754.000000	86.229307
2753.000000	86.199617
2752.000000	86.159057
2751.000000	86.109910
2750.000000	86.056784
2749.000000	86.006035
2748.000000	85.962585
2747.000000	85.929666
2746.000000	85.911411
2745.000000	85.912728
2744.000000	85.936097
2743.000000	85.980290
2742.000000	86.042403
2741.000000	86.118653
2740.000000	86.203103
2739.000000	86.289020
2738.000000	86.371779
2737.000000	86.448742
2736.000000	86.517429
2735.000000	86.576369
2734.000000	86.627349
2733.000000	86.673905
2732.000000	86.717404
2731.000000	86.756985
2730.000000	86.792837
2729.000000	86.826420
2728.000000	86.857795
2727.000000	86.885315
2726.000000	86.907728
2725.000000	86.924567
2724.000000	86.935091
2723.000000	86.939768
2722.000000	86.942271
2721.000000	86.947077
2720.000000	86.955534
2719.000000	86.966724
2718.000000	86.981194
2717.000000	87.000715
2716.000000	87.025093
2715.000000	87.052527
2714.000000	87.082938
2713.000000	87.117720
2712.000000	87.156371
2711.000000	87.196545
2710.000000	87.237092
2709.000000	87.278202
2708.000000	87.318800
2707.000000	87.356613
2706.000000	87.390744
2705.000000	87.421777
2704.000000	87.450023
2703.000000	87.476386
2702.000000	87.504136
2701.000000	87.536663
2700.000000	87.573777
2699.000000	87.612619
2698.000000	87.651178
2697.000000	87.688054
2696.000000	87.719914
2695.000000	87.743068
2694.000000	87.757189
2693.000000	87.764612
2692.000000	87.766798
2691.000000	87.764407
2690.000000	87.760034
2689.000000	87.757165
2688.000000	87.756519
2687.000000	87.756653
2686.000000	87.757468
2685.000000	87.759957
2684.000000	87.763276
2683.000000	87.765669
2682.000000	87.767967
2681.000000	87.772759
2680.000000	87.780396
2679.000000	87.789175
2678.000000	87.799108
2677.000000	87.811778
2676.000000	87.826800
2675.000000	87.842019
2674.000000	87.857375
2673.000000	87.875484
2672.000000	87.898276
2671.000000	87.926368
2670.000000	87.961456
2669.000000	88.005680
2668.000000	88.058501
2667.000000	88.116870
2666.000000	88.178725
2665.000000	88.243600
2664.000000	88.309937
2663.000000	88.375228
2662.000000	88.438603
2661.000000	88.500537
2660.000000	88.560244
2659.000000	88.616053
2658.000000	88.668080
2657.000000	88.717809
2656.000000	88.765246
2655.000000	88.809057
2654.000000	88.849150
2653.000000	88.886067
2652.000000	88.918588
2651.000000	88.944650
2650.000000	88.964069
2649.000000	88.977984
2648.000000	88.986215
2647.000000	88.988383
2646.000000	88.987055
2645.000000	88.986495
2644.000000	88.988840
2643.000000	88.994197
2642.000000	89.003719
2641.000000	89.019478
2640.000000	89.041867
2639.000000	89.070151
2638.000000	89.105251
2637.000000	89.148683
2636.000000	89.199040
2635.000000	89.252877
2634.000000	89.308359
2633.000000	89.365315
2632.000000	89.422334
2631.000000	89.477161
2630.000000	89.530069
2629.000000	89.583596
2628.000000	89.639004
2627.000000	89.695458
2626.000000	89.752096
2625.000000	89.807903
2624.000000	89.860123
2623.000000	89.905571
2622.000000	89.943334
2621.000000	89.974005
2620.000000	89.996978
2619.000000	90.011681
2618.000000	90.020523
2617.000000	90.027280
2616.000000	90.033162
2615.000000	90.036890
2614.000000	90.038208
2613.000000	90.038222
2612.000000	90.036634
2611.000000	90.032089
2610.000000	90.024964
2609.000000	90.017214
2608.000000	90.009775
2607.000000	90.002700
2606.000000	89.997283
2605.000000	89.995161
2604.000000	89.995681
2603.000000	89.996782
2602.000000	89.997911
2601.000000	89.999434
2600.000000	90.000155
2599.000000	89.998392
2598.000000	89.994858
2597.000000	89.991413
2596.000000	89.987615
2595.000000	89.981317
2594.000000	89.971983
2593.000000	89.960421
2592.000000	89.945747
2591.000000	89.925983
2590.000000	89.901304
2589.000000	89.873941
2588.000000	89.845563
2587.000000	89.817509
2586.000000	89.792860
2585.000000	89.775073
2584.000000	89.764748
2583.000000	89.760298
2582.000000	89.761329
2581.000000	89.768413
2580.000000	89.780662
2579.000000	89.796887
2578.000000	89.818252
2577.000000	89.847144
2576.000000	89.883573
2575.000000	89.925513
2574.000000	89.972048
2573.000000	90.022755
2572.000000	90.075258
2571.000000	90.126446
2570.000000	90.175605
2569.000000	90.223735
2568.000000	90.270610
2567.000000	90.315836
2566.000000	90.361756
2565.000000	90.411875
2564.000000	90.466976
2563.000000	90.525614
2562.000000	90.587547
2561.000000	90.653370
2560.000000	90.721510
2559.000000	90.789204
2558.000000	90.855975
2557.000000	90.923277
2556.000000	90.991317
2555.000000	91.059051
2554.000000	91.126569
2553.000000	91.194159
2552.000000	91.259593
2551.000000	91.319482
2550.000000	91.373109
2549.000000	91.422148
2548.000000	91.467542
2547.000000	91.509416
2546.000000	91.549079
2545.000000	91.588192
2544.000000	91.626256
2543.000000	91.661995
2542.000000	91.696448
2541.000000	91.731660
2540.000000	91.767204
2539.000000	91.800905
2538.000000	91.832429
2537.000000	91.863212
2536.000000	91.893388
2535.000000	91.921874
2534.000000	91.948767
2533.000000	91.974853
2532.000000	91.999332
2531.000000	92.020798
2530.000000	92.039976
2529.000000	92.058500
2528.000000	92.075812
2527.000000	92.090106
2526.000000	92.101394
2525.000000	92.110823
2524.000000	92.117488
2523.000000	92.119113
2522.000000	92.115503
2521.000000	92.108054
2520.000000	92.096606
2519.000000	92.079311
2518.000000	92.055241
2517.000000	92.024651
2516.000000	91.986801
2515.000000	91.940928
2514.000000	91.888724
2513.000000	91.833272
2512.000000	91.776299
2511.000000	91.718618
2510.000000	91.662618
2509.000000	91.611171
2508.000000	91.564581
2507.000000	91.521390
2506.000000	91.481591
2505.000000	91.446094
2504.000000	91.413843
2503.000000	91.382692
2502.000000	91.352479
2501.000000	91.324882
2500.000000	91.300800
2499.000000	91.280912
2498.000000	91.268540
2497.000000	91.267947
2496.000000	91.280701
2495.000000	91.305721
2494.000000	91.341926
2493.000000	91.388224
2492.000000	91.440985
2491.000000	91.495506
2490.000000	91.549473
2489.000000	91.602656
2488.000000	91.654801
2487.000000	91.706426
2486.000000	91.760959
2485.000000	91.822440
2484.000000	91.891166
2483.000000	91.964353
2482.000000	92.039855
2481.000000	92.116461
2480.000000	92.191727
2479.000000	92.263023
2478.000000	92.330373
2477.000000	92.395332
2476.000000	92.457745
2475.000000	92.516265
2474.000000	92.571238
2473.000000	92.623649
2472.000000	92.672188
2471.000000	92.714239
2470.000000	92.749079
2469.000000	92.777638
2468.000000	92.799479
2467.000000	92.813527
2466.000000	92.821021
2465.000000	92.824527
2464.000000	92.824819
2463.000000	92.820817
2462.000000	92.812184
2461.000000	92.799103
2460.000000	92.780105
2459.000000	92.753806
2458.000000	92.722045
2457.000000	92.688953
2456.000000	92.657381
2455.000000	92.628817
2454.000000	92.605785
2453.000000	92.590764
2452.000000	92.583174
2451.000000	92.580347
2450.000000	92.581441
2449.000000	92.587266
2448.000000	92.597441
2447.000000	92.610954
2446.000000	92.629009
2445.000000	92.654520
2444.000000	92.688335
2443.000000	92.728903
2442.000000	92.774888
2441.000000	92.824996
2440.000000	92.876174
2439.000000	92.924934
2438.000000	92.970721
2437.000000	93.015622
2436.000000	93.061280
2435.000000	93.108815
2434.000000	93.160356
2433.000000	93.217304
2432.000000	93.277276
2431.000000	93.335694
2430.000000	93.389848
2429.000000	93.438765
2428.000000	93.480216
2427.000000	93.511332
2426.000000	93.532334
2425.000000	93.546342
2424.000000	93.555989
2423.000000	93.562769
2422.000000	93.568702
2421.000000	93.575551
2420.000000	93.582018
2419.000000	93.585064
2418.000000	93.584005
2417.000000	93.580859
2416.000000	93.577537
2415.000000	93.575745
2414.000000	93.578856
2413.000000	93.589875
2412.000000	93.607058
2411.000000	93.624573
2410.000000	93.637533
2409.000000	93.643697
2408.000000	93.641120
2407.000000	93.628159
2406.000000	93.606722
2405.000000	93.582083
2404.000000	93.558598
2403.000000	93.538154
2402.000000	93.522087
2401.000000	93.510764
2400.000000	93.500080
2399.000000	93.481498
2398.000000	93.447213
2397.000000	93.392429
2396.000000	93.313577
2395.000000	93.208406
2394.000000	93.079068
2393.000000	92.932894
2392.000000	92.777325
2391.000000	92.617691
2390.000000	92.459978
2389.000000	92.310234
2388.000000	92.172065
2387.000000	92.045267
2386.000000	91.931522
2385.000000	91.839374
2384.000000	91.777111
2383.000000	91.750080
2382.000000	91.759411
2381.000000	91.803298
2380.000000	91.875978
2379.000000	91.960827
2378.000000	92.039291
2377.000000	92.098598
2376.000000	92.129927
2375.000000	92.127459
2374.000000	92.091975
2373.000000	92.037844
2372.000000	91.983380
2371.000000	91.936611
2370.000000	91.893252
2369.000000	91.859958
2368.000000	91.846275
2367.000000	91.843849
2366.000000	91.837698
2365.000000	91.839272
2364.000000	91.863894
2363.000000	91.889619
2362.000000	91.906037
2361.000000	91.915927
2360.000000	91.930637
2359.000000	91.966277
2358.000000	91.993283
2357.000000	91.998531
2356.000000	91.948984
2355.000000	91.810946
2354.000000	91.598899
2353.000000	91.418517
2352.000000	91.458050
2351.000000	91.736983
2350.000000	92.117577
2349.000000	92.438409
2348.000000	92.628980
2347.000000	92.735416
2346.000000	92.751327
2345.000000	92.712705
2344.000000	92.630765
2343.000000	92.539714
2342.000000	92.492068
2341.000000	92.485674
2340.000000	92.521351
2339.000000	92.568851
2338.000000	92.643997
2337.000000	92.747155
2336.000000	92.888532
2335.000000	93.034841
2334.000000	93.175891
2333.000000	93.260207
2332.000000	93.305293
2331.000000	93.299836
2330.000000	93.308470
2329.000000	93.361336
2328.000000	93.441883
2327.000000	93.529318
2326.000000	93.567133
2325.000000	93.561055
2324.000000	93.497892
2323.000000	93.387868
2322.000000	93.251415
2321.000000	93.093144
2320.000000	92.951618
2319.000000	92.828358
2318.000000	92.750539
2317.000000	92.680095
2316.000000	92.597889
2315.000000	92.464989
2314.000000	92.295330
2313.000000	92.092321
2312.000000	91.876898
2311.000000	91.653750
2310.000000	91.436061
2309.000000	91.222669
2308.000000	91.012192
2307.000000	90.802565
2306.000000	90.600900
2305.000000	90.404502
2304.000000	90.212653
2303.000000	90.020081
2302.000000	89.840690
2301.000000	89.679697
2300.000000	89.545114
2299.000000	89.436009
2298.000000	89.357046
2297.000000	89.304024
2296.000000	89.266451
2295.000000	89.236115
2294.000000	89.208057
2293.000000	89.181325
2292.000000	89.148079
2291.000000	89.107775
2290.000000	89.061772
2289.000000	89.014539
2288.000000	88.964164
2287.000000	88.913306
2286.000000	88.866876
2285.000000	88.827223
2284.000000	88.788769
2283.000000	88.747609
2282.000000	88.707966
2281.000000	88.676860
2280.000000	88.659762
2279.000000	88.661276
2278.000000	88.689032
2277.000000	88.743970
2276.000000	88.820431
2275.000000	88.911540
2274.000000	89.015932
2273.000000	89.132210
2272.000000	89.255198
2271.000000	89.382135
2270.000000	89.516640
2269.000000	89.662266
2268.000000	89.817657
2267.000000	89.979931
2266.000000	90.148208
2265.000000	90.318678
2264.000000	90.481181
2263.000000	90.628957
2262.000000	90.762047
2261.000000	90.885395
2260.000000	91.002704
2259.000000	91.120315
2258.000000	91.248441
2257.000000	91.392444
2256.000000	91.550595
2255.000000	91.717758
2254.000000	91.892671
2253.000000	92.072169
2252.000000	92.250824
2251.000000	92.425900
2250.000000	92.601343
2249.000000	92.780932
2248.000000	92.964806
2247.000000	93.152636
2246.000000	93.344898
2245.000000	93.537616
2244.000000	93.720725
2243.000000	93.886821
2242.000000	94.035728
2241.000000	94.169818
2240.000000	94.289755
2239.000000	94.398699
2238.000000	94.503659
2237.000000	94.608708
2236.000000	94.711270
2235.000000	94.807135
2234.000000	94.894112
2233.000000	94.968490
2232.000000	95.024595
2231.000000	95.061635
2230.000000	95.086222
2229.000000	95.105314
2228.000000	95.122026
2227.000000	95.139414
2226.000000	95.162139
2225.000000	95.190024
2224.000000	95.215710
2223.000000	95.231986
2222.000000	95.237114
2221.000000	95.231576
2220.000000	95.215837
2219.000000	95.194858
2218.000000	95.178776
2217.000000	95.175357
2216.000000	95.185454
2215.000000	95.207533
2214.000000	95.240641
2213.000000	95.280490
2212.000000	95.319042
2211.000000	95.351809
2210.000000	95.381215
2209.000000	95.410862
2208.000000	95.442009
2207.000000	95.477495
2206.000000	95.522003
2205.000000	95.574859
2204.000000	95.627945
2203.000000	95.673935
2202.000000	95.711795
2201.000000	95.742782
2200.000000	95.768090
2199.000000	95.793645
2198.000000	95.830390
2197.000000	95.885572
2196.000000	95.957866
2195.000000	96.042866
2194.000000	96.136865
2193.000000	96.232739
2192.000000	96.319483
2191.000000	96.390323
2190.000000	96.446806
2189.000000	96.492786
2188.000000	96.530170
2187.000000	96.562817
2186.000000	96.597230
2185.000000	96.635636
2184.000000	96.673314
2183.000000	96.705537
2182.000000	96.731482
2181.000000	96.749286
2180.000000	96.754486
2179.000000	96.746871
2178.000000	96.733280
2177.000000	96.720312
2176.000000	96.709652
2175.000000	96.702466
2174.000000	96.701600
2173.000000	96.706064
2172.000000	96.709501
2171.000000	96.707659
2170.000000	96.702163
2169.000000	96.695074
2168.000000	96.686039
2167.000000	96.677450
2166.000000	96.675489
2165.000000	96.682441
2164.000000	96.693697
2163.000000	96.705155
2162.000000	96.717275
2161.000000	96.729443
2160.000000	96.737609
2159.000000	96.741145
2158.000000	96.745701
2157.000000	96.755838
2156.000000	96.771000
2155.000000	96.791236
2154.000000	96.819919
2153.000000	96.857080
2152.000000	96.896716
2151.000000	96.934337
2150.000000	96.971457
2149.000000	97.009809
2148.000000	97.047857
2147.000000	97.086536
2146.000000	97.131333
2145.000000	97.184608
2144.000000	97.242124
2143.000000	97.300027
2142.000000	97.358242
2141.000000	97.414880
2140.000000	97.464192
2139.000000	97.503625
2138.000000	97.536574
2137.000000	97.565699
2136.000000	97.590104
2135.000000	97.611306
2134.000000	97.634445
2133.000000	97.659948
2132.000000	97.680780
2131.000000	97.690996
2130.000000	97.690744
2129.000000	97.680357
2128.000000	97.657204
2127.000000	97.622042
2126.000000	97.581654
2125.000000	97.540963
2124.000000	97.498533
2123.000000	97.452670
2122.000000	97.405063
2121.000000	97.355443
2120.000000	97.300037
2119.000000	97.238725
2118.000000	97.177725
2117.000000	97.122230
2116.000000	97.072374
2115.000000	97.028838
2114.000000	96.995033
2113.000000	96.970346
2112.000000	96.947939
2111.000000	96.922729
2110.000000	96.895862
2109.000000	96.869361
2108.000000	96.843359
2107.000000	96.821188
2106.000000	96.809931
2105.000000	96.812499
2104.000000	96.824964
2103.000000	96.843287
2102.000000	96.866195
2101.000000	96.888903
2100.000000	96.903051
2099.000000	96.905804
2098.000000	96.903060
2097.000000	96.902153
2096.000000	96.907400
2095.000000	96.926304
2094.000000	96.969716
2093.000000	97.040872
2092.000000	97.131907
2091.000000	97.233981
2090.000000	97.343041
2089.000000	97.454136
2088.000000	97.559697
2087.000000	97.657943
2086.000000	97.754609
2085.000000	97.853090
2084.000000	97.951049
2083.000000	98.048232
2082.000000	98.147665
2081.000000	98.246221
2080.000000	98.333919
2079.000000	98.406170
2078.000000	98.468234
2077.000000	98.525476
2076.000000	98.578010
2075.000000	98.629869
2074.000000	98.690541
2073.000000	98.763498
2072.000000	98.842972
2071.000000	98.921773
2070.000000	98.996990
2069.000000	99.064425
2068.000000	99.117172
2067.000000	99.154005
2066.000000	99.182345
2065.000000	99.210623
2064.000000	99.243939
2063.000000	99.288268
2062.000000	99.348255
2061.000000	99.418222
2060.000000	99.484290
2059.000000	99.538562
2058.000000	99.583068
2057.000000	99.619065
2056.000000	99.644224
2055.000000	99.662904
2054.000000	99.687124
2053.000000	99.723785
2052.000000	99.770520
2051.000000	99.823180
2050.000000	99.879916
2049.000000	99.935955
2048.000000	99.982387
2047.000000	100.014612
2046.000000	100.037994
2045.000000	100.060043
2044.000000	100.083628
2043.000000	100.111771
2042.000000	100.150749
2041.000000	100.202119
2040.000000	100.257912
2039.000000	100.309088
2038.000000	100.351875
2037.000000	100.383444
2036.000000	100.400646
2035.000000	100.408398
2034.000000	100.420939
2033.000000	100.448757
2032.000000	100.491777
2031.000000	100.548619
2030.000000	100.620066
2029.000000	100.699668
2028.000000	100.770972
2027.000000	100.821101
2026.000000	100.851483
2025.000000	100.868880
2024.000000	100.878879
2023.000000	100.887087
2022.000000	100.903595
2021.000000	100.934770
2020.000000	100.973994
2019.000000	101.008070
2018.000000	101.029349
2017.000000	101.036971
2016.000000	101.032385
2015.000000	101.021008
2014.000000	101.012093
2013.000000	101.010846
2012.000000	101.015005
2011.000000	101.023690
2010.000000	101.041541
2009.000000	101.067217
2008.000000	101.086860
2007.000000	101.088350
2006.000000	101.073762
2005.000000	101.049744
2004.000000	101.020538
2003.000000	100.991928
2002.000000	100.978066
2001.000000	100.988180
2000.000000	101.016923
1999.000000	101.058062
1998.000000	101.104638
1997.000000	101.148145
1996.000000	101.181789
1995.000000	101.203846
1994.000000	101.213938
1993.000000	101.212816
1992.000000	101.209723
1991.000000	101.223938
1990.000000	101.268205
1989.000000	101.333645
1988.000000	101.398252
1987.000000	101.446515
1986.000000	101.477185
1985.000000	101.493597
1984.000000	101.497948
1983.000000	101.496399
1982.000000	101.502200
1981.000000	101.526140
1980.000000	101.570747
1979.000000	101.634974
1978.000000	101.707458
1977.000000	101.772387
1976.000000	101.820617
1975.000000	101.853105
1974.000000	101.872528
1973.000000	101.882682
1972.000000	101.895446
1971.000000	101.925603
1970.000000	101.975453
1969.000000	102.033508
1968.000000	102.088394
1967.000000	102.136475
1966.000000	102.177045
1965.000000	102.208142
1964.000000	102.228620
1963.000000	102.238878
1962.000000	102.241512
1961.000000	102.246917
1960.000000	102.274142
1959.000000	102.332999
1958.000000	102.407787
1957.000000	102.469824
1956.000000	102.502724
1955.000000	102.507767
1954.000000	102.488516
1953.000000	102.447776
1952.000000	102.395232
1951.000000	102.344461
1950.000000	102.309252
1949.000000	102.290037
1948.000000	102.276659
1947.000000	102.263496
1946.000000	102.246868
1945.000000	102.215420
1944.000000	102.155938
1943.000000	102.072496
1942.000000	101.993343
1941.000000	101.950112
1940.000000	101.958469
1939.000000	102.015807
1938.000000	102.104512
1937.000000	102.202934
1936.000000	102.299601
1935.000000	102.391320
1934.000000	102.468915
1933.000000	102.522332
1932.000000	102.553333
1931.000000	102.576504
1930.000000	102.615329
1929.000000	102.671540
1928.000000	102.735233
1927.000000	102.806294
1926.000000	102.884984
1925.000000	102.958411
1924.000000	102.989138
1923.000000	102.969234
1922.000000	102.936955
1921.000000	102.923944
1920.000000	102.926506
1919.000000	102.932388
1918.000000	102.949821
1917.000000	102.994109
1916.000000	103.051972
1915.000000	103.101623
1914.000000	103.130825
1913.000000	103.128111
1912.000000	103.084830
1911.000000	103.014484
1910.000000	102.950045
1909.000000	102.901971
1908.000000	102.863817
1907.000000	102.837843
1906.000000	102.830414
1905.000000	102.830573
1904.000000	102.795115
1903.000000	102.712885
1902.000000	102.617359
1901.000000	102.521708
1900.000000	102.415108
1899.000000	102.311051
1898.000000	102.245097
1897.000000	102.227916
1896.000000	102.222124
1895.000000	102.205421
1894.000000	102.200796
1893.000000	102.218332
1892.000000	102.226487
1891.000000	102.202671
1890.000000	102.167100
1889.000000	102.153142
1888.000000	102.170092
1887.000000	102.219403
1886.000000	102.305229
1885.000000	102.403284
1884.000000	102.467943
1883.000000	102.490489
1882.000000	102.502931
1881.000000	102.509735
1880.000000	102.489569
1879.000000	102.452113
1878.000000	102.435091
1877.000000	102.458042
1876.000000	102.498222
1875.000000	102.530783
1874.000000	102.566745
1873.000000	102.615183
1872.000000	102.650782
1871.000000	102.655539
1870.000000	102.645655
1869.000000	102.646385
1868.000000	102.665666
1867.000000	102.715282
1866.000000	102.820556
1865.000000	102.970774
1864.000000	103.110451
1863.000000	103.207584
1862.000000	103.287144
1861.000000	103.368501
1860.000000	103.429697
1859.000000	103.466200
1858.000000	103.522034
1857.000000	103.623377
1856.000000	103.740103
1855.000000	103.844180
1854.000000	103.949572
1853.000000	104.049126
1852.000000	104.108386
1851.000000	104.131654
1850.000000	104.140151
1849.000000	104.144762
1848.000000	104.143983
1847.000000	104.157241
1846.000000	104.210679
1845.000000	104.287952
1844.000000	104.363584
1843.000000	104.446509
1842.000000	104.542871
1841.000000	104.621873
1840.000000	104.658881
1839.000000	104.657002
1838.000000	104.649562
1837.000000	104.672516
1836.000000	104.721223
1835.000000	104.789063
1834.000000	104.882974
1833.000000	104.992498
1832.000000	105.096575
1831.000000	105.164021
1830.000000	105.171515
1829.000000	105.158276
1828.000000	105.177400
1827.000000	105.239459
1826.000000	105.326261
1825.000000	105.427263
1824.000000	105.541997
1823.000000	105.659918
1822.000000	105.766377
1821.000000	105.852300
1820.000000	105.907019
1819.000000	105.921455
1818.000000	105.925528
1817.000000	105.968313
1816.000000	106.040478
1815.000000	106.109149
1814.000000	106.175810
1813.000000	106.256112
1812.000000	106.327975
1811.000000	106.341860
1810.000000	106.325546
1809.000000	106.340215
1808.000000	106.371784
1807.000000	106.388830
1806.000000	106.420802
1805.000000	106.500877
1804.000000	106.591323
1803.000000	106.653326
1802.000000	106.704727
1801.000000	106.772093
1800.000000	106.837767
1799.000000	106.864405
1798.000000	106.878556
1797.000000	106.912817
1796.000000	106.943739
1795.000000	106.961610
1794.000000	106.998761
1793.000000	107.070980
1792.000000	107.145660
1791.000000	107.183957
1790.000000	107.207070
1789.000000	107.236100
1788.000000	107.245163
1787.000000	107.217383
1786.000000	107.200082
1785.000000	107.246824
1784.000000	107.334651
1783.000000	107.429814
1782.000000	107.517846
1781.000000	107.579395
1780.000000	107.618752
1779.000000	107.642474
1778.000000	107.672168
1777.000000	107.708587
1776.000000	107.747730
1775.000000	107.817444
1774.000000	107.926950
1773.000000	108.049719
1772.000000	108.176004
1771.000000	108.276300
1770.000000	108.319195
1769.000000	108.350008
1768.000000	108.417397
1767.000000	108.503521
1766.000000	108.581911
1765.000000	108.671339
1764.000000	108.801139
1763.000000	108.943670
1762.000000	109.047213
1761.000000	109.133880
1760.000000	109.234294
1759.000000	109.312201
1758.000000	109.343498
1757.000000	109.331576
1756.000000	109.337423
1755.000000	109.377952
1754.000000	109.399288
1753.000000	109.402908
1752.000000	109.450940
1751.000000	109.557094
1750.000000	109.654306
1749.000000	109.690211
1748.000000	109.674604
1747.000000	109.655552
1746.000000	109.629895
1745.000000	109.596381
1744.000000	109.598416
1743.000000	109.635321
1742.000000	109.677474
1741.000000	109.724777
1740.000000	109.773909
1739.000000	109.782768
1738.000000	109.722472
1737.000000	109.617955
1736.000000	109.530136
1735.000000	109.452023
1734.000000	109.422440
1733.000000	109.512571
1732.000000	109.638309
1731.000000	109.690420
1730.000000	109.680526
1729.000000	109.629640
1728.000000	109.561165
1727.000000	109.498452
1726.000000	109.427127
1725.000000	109.351593
1724.000000	109.285072
1723.000000	109.222569
1722.000000	109.195957
1721.000000	109.221390
1720.000000	109.254980
1719.000000	109.207819
1718.000000	109.098004
1717.000000	109.080725
1716.000000	109.122871
1715.000000	109.101964
1714.000000	109.090961
1713.000000	109.180778
1712.000000	109.306207
1711.000000	109.406130
1710.000000	109.533190
1709.000000	109.720080
1708.000000	109.911734
1707.000000	110.055651
1706.000000	110.181160
1705.000000	110.335778
1704.000000	110.462834
1703.000000	110.551923
1702.000000	110.728859
1701.000000	111.021377
1700.000000	111.336223
1699.000000	111.548856
1698.000000	111.677666
1697.000000	111.820717
1696.000000	111.969290
1695.000000	112.085225
1694.000000	112.205945
1693.000000	112.321496
1692.000000	112.424854
1691.000000	112.525954
1690.000000	112.628202
1689.000000	112.712264
1688.000000	112.781930
1687.000000	112.872228
1686.000000	112.991142
1685.000000	113.053768
1684.000000	113.084076
1683.000000	113.217612
1682.000000	113.393848
1681.000000	113.483591
1680.000000	113.535415
1679.000000	113.613532
1678.000000	113.695276
1677.000000	113.733080
1676.000000	113.739605
1675.000000	113.786647
1674.000000	113.845897
1673.000000	113.848349
1672.000000	113.845383
1671.000000	113.894794
1670.000000	113.969013
1669.000000	114.007385
1668.000000	114.017382
1667.000000	114.021514
1666.000000	113.980764
1665.000000	113.873361
1664.000000	113.712984
1663.000000	113.552556
1662.000000	113.427863
1661.000000	113.276940
1660.000000	113.096545
1659.000000	112.930917
1658.000000	112.725276
1657.000000	112.421368
1656.000000	112.065109
1655.000000	111.701881
1654.000000	111.056654
1653.000000	110.148468
1652.000000	109.369899
1651.000000	108.662077
1650.000000	107.765356
1649.000000	106.612630
1648.000000	105.018017
1647.000000	102.871720
1646.000000	100.404168
1645.000000	97.926802
1644.000000	95.483452
1643.000000	93.004266
1642.000000	90.505054
1641.000000	88.102933
1640.000000	86.026263
1639.000000	84.436186
1638.000000	83.380553
1637.000000	82.876987
1636.000000	83.023391
1635.000000	83.847971
1634.000000	85.063369
1633.000000	86.391204
1632.000000	87.777731
1631.000000	89.274498
1630.000000	90.883336
1629.000000	92.534610
1628.000000	94.137102
1627.000000	95.618877
1626.000000	96.934860
1625.000000	98.109644
1624.000000	99.232406
1623.000000	100.353238
1622.000000	101.402804
1621.000000	102.282068
1620.000000	103.046762
1619.000000	103.841813
1618.000000	104.723732
1617.000000	105.634310
1616.000000	106.501263
1615.000000	107.248203
1614.000000	107.794532
1613.000000	108.150355
1612.000000	108.403061
1611.000000	108.605643
1610.000000	108.671105
1609.000000	108.439119
1608.000000	107.825224
1607.000000	106.780164
1606.000000	105.145097
1605.000000	102.715772
1604.000000	99.489619
1603.000000	95.658070
1602.000000	91.479992
1601.000000	87.207891
1600.000000	82.940772
1599.000000	78.459890
1598.000000	73.230563
1597.000000	66.793483
1596.000000	59.255100
1595.000000	51.376386
1594.000000	44.168254
1593.000000	38.378796
1592.000000	34.350008
1591.000000	32.098154
1590.000000	31.321531
1589.000000	31.426117
1588.000000	31.790630
1587.000000	32.005160
1586.000000	31.834232
1585.000000	31.198222
1584.000000	30.273065
1583.000000	29.437134
1582.000000	28.970450
1581.000000	28.892608
1580.000000	29.121464
1579.000000	29.621693
1578.000000	30.325689
1577.000000	31.035259
1576.000000	31.551877
1575.000000	31.869425
1574.000000	32.055946
1573.000000	32.144243
1572.000000	32.276530
1571.000000	32.753573
1570.000000	33.838276
1569.000000	35.470703
1568.000000	37.427310
1567.000000	39.648188
1566.000000	42.117416
1565.000000	44.638682
1564.000000	46.938301
1563.000000	48.924116
1562.000000	50.716911
1561.000000	52.572341
1560.000000	54.856971
1559.000000	57.800293
1558.000000	60.833716
1557.000000	63.259604
1556.000000	65.173382
1555.000000	66.999107
1554.000000	68.833938
1553.000000	70.504807
1552.000000	71.936026
1551.000000	73.216987
1550.000000	74.434641
1549.000000	75.564704
1548.000000	76.573736
1547.000000	77.528858
1546.000000	78.497106
1545.000000	79.444574
1544.000000	80.315766
1543.000000	81.120930
1542.000000	81.924473
1541.000000	82.747170
1540.000000	83.549389
1539.000000	84.320923
1538.000000	85.009887
1537.000000	85.552756
1536.000000	86.009695
1535.000000	86.492310
1534.000000	87.010166
1533.000000	87.503960
1532.000000	87.949845
1531.000000	88.355627
1530.000000	88.755656
1529.000000	89.156280
1528.000000	89.518956
1527.000000	89.858157
1526.000000	90.215981
1525.000000	90.581338
1524.000000	90.925724
1523.000000	91.248655
1522.000000	91.553665
1521.000000	91.836595
1520.000000	92.091679
1519.000000	92.324220
1518.000000	92.541004
1517.000000	92.737109
1516.000000	92.904599
1515.000000	93.070945
1514.000000	93.261287
1513.000000	93.482636
1512.000000	93.697586
1511.000000	93.857209
1510.000000	93.977148
1509.000000	94.121754
1508.000000	94.280084
1507.000000	94.399510
1506.000000	94.598955
1505.000000	94.904487
1504.000000	95.148065
1503.000000	95.290515
1502.000000	95.410378
1501.000000	95.554499
1500.000000	95.722840
1499.000000	95.893533
1498.000000	96.082821
1497.000000	96.371951
1496.000000	96.772186
1495.000000	97.192337
1494.000000	97.582822
1493.000000	97.955712
1492.000000	98.313169
1491.000000	98.633663
1490.000000	98.934120
1489.000000	99.263072
1488.000000	99.597259
1487.000000	99.898473
1486.000000	100.216537
1485.000000	100.539274
1484.000000	100.820089
1483.000000	101.082751
1482.000000	101.354056
1481.000000	101.627619
1480.000000	101.874883
1479.000000	102.113652
1478.000000	102.376807
1477.000000	102.653115
1476.000000	102.890275
1475.000000	103.110504
1474.000000	103.386961
1473.000000	103.713548
1472.000000	104.048248
1471.000000	104.352254
1470.000000	104.590618
1469.000000	104.732462
1468.000000	104.748613
1467.000000	104.602708
1466.000000	104.192233
1465.000000	103.325256
1464.000000	101.889003
1463.000000	99.855211
1462.000000	97.175136
1461.000000	93.830988
1460.000000	89.879370
1459.000000	85.366031
1458.000000	80.277695
1457.000000	75.101913
1456.000000	70.883658
1455.000000	67.964115
1454.000000	65.746258
1453.000000	63.737284
1452.000000	61.954366
1451.000000	60.680531
1450.000000	60.175745
1449.000000	60.595452
1448.000000	61.928150
1447.000000	63.876583
1446.000000	66.015365
1445.000000	68.137425
1444.000000	70.295544
1443.000000	72.503074
1442.000000	74.635768
1441.000000	76.578665
1440.000000	78.313713
1439.000000	79.884639
1438.000000	81.395840
1437.000000	83.002855
1436.000000	84.717678
1435.000000	86.326487
1434.000000	87.688954
1433.000000	88.898869
1432.000000	90.056927
1431.000000	91.120522
1430.000000	92.016615
1429.000000	92.785877
1428.000000	93.485738
1427.000000	94.116094
1426.000000	94.668248
1425.000000	95.168832
1424.000000	95.672763
1423.000000	96.148945
1422.000000	96.545415
1421.000000	96.899582
1420.000000	97.278086
1419.000000	97.659701
1418.000000	97.995448
1417.000000	98.342420
1416.000000	98.746325
1415.000000	99.153998
1414.000000	99.493512
1413.000000	99.772104
1412.000000	100.043507
1411.000000	100.293398
1410.000000	100.476653
1409.000000	100.618496
1408.000000	100.734273
1407.000000	100.750795
1406.000000	100.546807
1405.000000	100.025623
1404.000000	99.182198
1403.000000	98.073420
1402.000000	96.805758
1401.000000	95.530311
1400.000000	94.388716
1399.000000	93.447423
1398.000000	92.700677
1397.000000	92.187217
1396.000000	92.065259
1395.000000	92.522578
1394.000000	93.540566
1393.000000	94.860213
1392.000000	96.198288
1391.000000	97.365569
1390.000000	98.276760
1389.000000	98.961614
1388.000000	99.537132
1387.000000	100.116002
1386.000000	100.728003
1385.000000	101.337004
1384.000000	101.903973
1383.000000	102.382346
1382.000000	102.735770
1381.000000	102.983448
1380.000000	103.177804
1379.000000	103.355004
1378.000000	103.513612
1377.000000	103.623085
1376.000000	103.617910
1375.000000	103.387340
1374.000000	102.788447
1373.000000	101.707385
1372.000000	100.065473
1371.000000	97.773325
1370.000000	94.777119
1369.000000	91.247351
1368.000000	87.724664
1367.000000	84.889101
1366.000000	83.128352
1365.000000	82.377112
1364.000000	82.321078
1363.000000	82.720307
1362.000000	83.580395
1361.000000	85.039797
1360.000000	87.110842
1359.000000	89.571453
1358.000000	92.069730
1357.000000	94.300628
1356.000000	96.125753
1355.000000	97.561817
1354.000000	98.696946
1353.000000	99.629934
1352.000000	100.422136
1351.000000	101.098791
1350.000000	101.673405
1349.000000	102.161836
1348.000000	102.599749
1347.000000	103.020230
1346.000000	103.436768
1345.000000	103.849131
1344.000000	104.250466
1343.000000	104.622132
1342.000000	104.938177
1341.000000	105.184843
1340.000000	105.373490
1339.000000	105.534236
1338.000000	105.696386
1337.000000	105.883296
1336.000000	106.107984
1335.000000	106.364076
1334.000000	106.630752
1333.000000	106.887643
1332.000000	107.117720
1331.000000	107.301944
1330.000000	107.422569
1329.000000	107.477039
1328.000000	107.468784
1327.000000	107.382002
1326.000000	107.155481
1325.000000	106.669318
1324.000000	105.766986
1323.000000	104.281761
1322.000000	102.107160
1321.000000	99.305903
1320.000000	96.167945
1319.000000	93.136034
1318.000000	90.592748
1317.000000	88.677289
1316.000000	87.312997
1315.000000	86.410856
1314.000000	86.004664
1313.000000	86.178584
1312.000000	86.877575
1311.000000	87.831093
1310.000000	88.732657
1309.000000	89.491630
1308.000000	90.289005
1307.000000	91.393426
1306.000000	92.922177
1305.000000	94.767470
1304.000000	96.696754
1303.000000	98.477801
1302.000000	99.956503
1301.000000	101.083667
1300.000000	101.882026
1299.000000	102.390731
1298.000000	102.639261
1297.000000	102.651167
1296.000000	102.446655
1295.000000	102.016479
1294.000000	101.321735
1293.000000	100.329703
1292.000000	99.036783
1291.000000	97.473713
1290.000000	95.674865
1289.000000	93.635305
1288.000000	91.271483
1287.000000	88.430985
1286.000000	85.023893
1285.000000	81.211202
1284.000000	77.475670
1283.000000	74.478693
1282.000000	72.784885
1281.000000	72.621744
1280.000000	73.845513
1279.000000	76.053598
1278.000000	78.734083
1277.000000	81.428643
1276.000000	83.803802
1275.000000	85.657982
1274.000000	86.953881
1273.000000	87.868872
1272.000000	88.752013
1271.000000	89.918820
1270.000000	91.446649
1269.000000	93.169207
1268.000000	94.852520
1267.000000	96.354798
1266.000000	97.658397
1265.000000	98.814721
1264.000000	99.877948
1263.000000	100.869749
1262.000000	101.780127
1261.000000	102.594170
1260.000000	103.306601
1259.000000	103.913791
1258.000000	104.416609
1257.000000	104.833449
1256.000000	105.199317
1255.000000	105.545500
1254.000000	105.886860
1253.000000	106.230672
1252.000000	106.577890
1251.000000	106.914274
1250.000000	107.216019
1249.000000	107.470788
1248.000000	107.687517
1247.000000	107.882726
1246.000000	108.071410
1245.000000	108.273836
1244.000000	108.510548
1243.000000	108.782405
1242.000000	109.067021
1241.000000	109.338448
1240.000000	109.579228
1239.000000	109.774962
1238.000000	109.918023
1237.000000	110.021574
1236.000000	110.114893
1235.000000	110.220243
1234.000000	110.340857
1233.000000	110.469998
1232.000000	110.591616
1231.000000	110.667281
1230.000000	110.644870
1229.000000	110.478314
1228.000000	110.134969
1227.000000	109.573461
1226.000000	108.720277
1225.000000	107.476761
1224.000000	105.709578
1223.000000	103.272492
1222.000000	100.072703
1221.000000	96.144452
1220.000000	91.696304
1219.000000	87.053510
1218.000000	82.542732
1217.000000	78.393550
1216.000000	74.701516
1215.000000	71.448605
1214.000000	68.563519
1213.000000	65.993038
1212.000000	63.738241
1211.000000	61.835867
1210.000000	60.288782
1209.000000	59.068233
1208.000000	58.166247
1207.000000	57.604002
1206.000000	57.410273
1205.000000	57.580722
1204.000000	58.075797
1203.000000	58.823799
1202.000000	59.730975
1201.000000	60.755904
1200.000000	61.951513
1199.000000	63.425647
1198.000000	65.255831
1197.000000	67.440757
1196.000000	69.923375
1195.000000	72.605722
1194.000000	75.362865
1193.000000	78.080878
1192.000000	80.683333
1191.000000	83.115801
1190.000000	85.325160
1189.000000	87.272442
1188.000000	88.946807
1187.000000	90.359907
1186.000000	91.525975
1185.000000	92.473339
1184.000000	93.252489
1183.000000	93.905067
1182.000000	94.446424
1181.000000	94.866045
1180.000000	95.146294
1179.000000	95.273443
1178.000000	95.241241
1177.000000	95.072476
1176.000000	94.820841
1175.000000	94.549944
1174.000000	94.315699
1173.000000	94.165079
1172.000000	94.135320
1171.000000	94.237774
1170.000000	94.450442
1169.000000	94.735709
1168.000000	95.058787
1167.000000	95.380567
1166.000000	95.652339
1165.000000	95.835370
1164.000000	95.922018
1163.000000	95.939459
1162.000000	95.946017
1161.000000	96.025815
1160.000000	96.258715
1159.000000	96.669299
1158.000000	97.212451
1157.000000	97.816938
1156.000000	98.437813
1155.000000	99.065039
1154.000000	99.702931
1153.000000	100.357110
1152.000000	101.020503
1151.000000	101.653198
1150.000000	102.185849
1149.000000	102.560852
1148.000000	102.760975
1147.000000	102.803909
1146.000000	102.728310
1145.000000	102.584030
1144.000000	102.419380
1143.000000	102.242865
1142.000000	102.006765
1141.000000	101.633669
1140.000000	101.034658
1139.000000	100.121882
1138.000000	98.800433
1137.000000	96.983209
1136.000000	94.611343
1135.000000	91.622356
1134.000000	87.946399
1133.000000	83.511715
1132.000000	78.288846
1131.000000	72.365673
1130.000000	66.000091
1129.000000	59.642545
1128.000000	53.879199
1127.000000	49.267736
1126.000000	46.129409
1125.000000	44.488575
1124.000000	44.123424
1123.000000	44.645950
1122.000000	45.572019
1121.000000	46.405358
1120.000000	46.780155
1119.000000	46.505011
1118.000000	45.549817
1117.000000	44.090585
1116.000000	42.560438
1115.000000	41.585767
1114.000000	41.733715
1113.000000	43.268329
1112.000000	46.084710
1111.000000	49.762154
1110.000000	53.690657
1109.000000	57.248676
1108.000000	59.984319
1107.000000	61.701613
1106.000000	62.433316
1105.000000	62.379647
1104.000000	61.880049
1103.000000	61.382391
1102.000000	61.333172
1101.000000	62.032423
1100.000000	63.541865
1099.000000	65.698405
1098.000000	68.215421
1097.000000	70.807707
1096.000000	73.259784
1095.000000	75.439204
1094.000000	77.300201
1093.000000	78.885529
1092.000000	80.299050
1091.000000	81.649047
1090.000000	83.011520
1089.000000	84.433182
1088.000000	85.939817
1087.000000	87.516725
1086.000000	89.104756
1085.000000	90.628482
1084.000000	92.024415
1083.000000	93.254999
1082.000000	94.314484
1081.000000	95.237763
1080.000000	96.080026
1079.000000	96.870904
1078.000000	97.601661
1077.000000	98.234587
1076.000000	98.716870
1075.000000	98.986347
1074.000000	98.979195
1073.000000	98.665726
1072.000000	98.031344
1071.000000	97.039254
1070.000000	95.610250
1069.000000	93.602851
1068.000000	90.845946
1067.000000	87.150487
1066.000000	82.376717
1065.000000	76.552031
1064.000000	69.929539
1063.000000	62.983170
1062.000000	56.271439
1061.000000	50.245821
1060.000000	45.089338
1059.000000	40.670882
1058.000000	36.655063
1057.000000	32.806289
1056.000000	29.295178
1055.000000	26.691535
1054.000000	25.693370
1053.000000	26.710363
1052.000000	29.652663
1051.000000	33.992168
1050.000000	38.973972
1049.000000	43.947517
1048.000000	48.536463
1047.000000	52.619854
1046.000000	56.224207
1045.000000	59.427690
1044.000000	62.307315
1043.000000	64.900514
1042.000000	67.205229
1041.000000	69.217769
1040.000000	70.978540
1039.000000	72.548515
1038.000000	73.977714
1037.000000	75.302372
1036.000000	76.541044
1035.000000	77.693035
1034.000000	78.736295
1033.000000	79.656187
1032.000000	80.468393
1031.000000	81.203629
1030.000000	81.894554
1029.000000	82.576170
1028.000000	83.283165
1027.000000	84.030114
1026.000000	84.799451
1025.000000	85.560177
1024.000000	86.284632
1023.000000	86.947060
1022.000000	87.529992
1021.000000	88.038256
1020.000000	88.498923
1019.000000	88.929308
1018.000000	89.307560
1017.000000	89.574753
1016.000000	89.620068
1015.000000	89.283933
1014.000000	88.381870
1013.000000	86.756524
1012.000000	84.346831
1011.000000	81.216035
1010.000000	77.581681
1009.000000	73.807845
1008.000000	70.326976
1007.000000	67.524491
1006.000000	65.668857
1005.000000	64.889819
1004.000000	65.154248
1003.000000	66.226186
1002.000000	67.672727
1001.000000	69.006993
1000.000000	69.839207
999.000000	69.918954
998.000000	69.126671
997.000000	67.526235
996.000000	65.437718
995.000000	63.376985
994.000000	61.825007
993.000000	61.009983
992.000000	60.886144
991.000000	61.293297
990.000000	62.126977
989.000000	63.391221
988.000000	65.139369
987.000000	67.342601
986.000000	69.839258
985.000000	72.398780
984.000000	74.818568
983.000000	76.976544
982.000000	78.822431
981.000000	80.364487
980.000000	81.654888
979.000000	82.767288
978.000000	83.765234
977.000000	84.696672
976.000000	85.592100
975.000000	86.451342
974.000000	87.247728
973.000000	87.944982
972.000000	88.522847
971.000000	88.983998
970.000000	89.349957
969.000000	89.664333
968.000000	89.982669
967.000000	90.348959
966.000000	90.776016
965.000000	91.246485
964.000000	91.725848
963.000000	92.168601
962.000000	92.531008
961.000000	92.794506
960.000000	92.976566
959.000000	93.118788
958.000000	93.268109
957.000000	93.466504
956.000000	93.739531
955.000000	94.079505
954.000000	94.444711
953.000000	94.780597
952.000000	95.043582
951.000000	95.212107
950.000000	95.291848
949.000000	95.320286
948.000000	95.355632
947.000000	95.449185
946.000000	95.624554
945.000000	95.876309
944.000000	96.174887
943.000000	96.469731
942.000000	96.705372
941.000000	96.850229
940.000000	96.910564
939.000000	96.920389
938.000000	96.926478
937.000000	96.978511
936.000000	97.113731
935.000000	97.336660
934.000000	97.615230
933.000000	97.899185
932.000000	98.140214
931.000000	98.302213
930.000000	98.372577
929.000000	98.374598
928.000000	98.361071
927.000000	98.387226
926.000000	98.488682
925.000000	98.675726
924.000000	98.930918
923.000000	99.207575
922.000000	99.445023
921.000000	99.598192
920.000000	99.655144
919.000000	99.635218
918.000000	99.582506
917.000000	99.556902
916.000000	99.611867
915.000000	99.766881
914.000000	100.000348
913.000000	100.266790
912.000000	100.514344
911.000000	100.694476
910.000000	100.779161
909.000000	100.780422
908.000000	100.746409
907.000000	100.734667
906.000000	100.790509
905.000000	100.938393
904.000000	101.171717
903.000000	101.445645
902.000000	101.690589
901.000000	101.843161
900.000000	101.862961
899.000000	101.728654
898.000000	101.440051
897.000000	101.027738
896.000000	100.560319
895.000000	100.129626
894.000000	99.805966
893.000000	99.578743
892.000000	99.323208
891.000000	98.859604
890.000000	98.092339
889.000000	97.103744
888.000000	96.097121
887.000000	95.261360
886.000000	94.700973
885.000000	94.460453
884.000000	94.547005
883.000000	94.886435
882.000000	95.310861
881.000000	95.651561
880.000000	95.864607
879.000000	96.058471
878.000000	96.391157
877.000000	96.953927
876.000000	97.724432
875.000000	98.600662
874.000000	99.471802
873.000000	100.264765
872.000000	100.942325
871.000000	101.475938
870.000000	101.840607
869.000000	102.029266
868.000000	102.060466
867.000000	101.964594
866.000000	101.773362
865.000000	101.526059
864.000000	101.269099
863.000000	101.048800
862.000000	100.904548
861.000000	100.863200
860.000000	100.926255
859.000000	101.062941
858.000000	101.229651
857.000000	101.405246
856.000000	101.604241
855.000000	101.854036
854.000000	102.170792
853.000000	102.548332
852.000000	102.952783
851.000000	103.325700
850.000000	103.608526
849.000000	103.774841
848.000000	103.839745
847.000000	103.845031
846.000000	103.842987
845.000000	103.886301
844.000000	104.009179
843.000000	104.208020
842.000000	104.445103
841.000000	104.671259
840.000000	104.842716
839.000000	104.928394
838.000000	104.923964
837.000000	104.863310
836.000000	104.803925
835.000000	104.796470
834.000000	104.867642
833.000000	105.019347
832.000000	105.226884
831.000000	105.439120
830.000000	105.598928
829.000000	105.673969
828.000000	105.668588
827.000000	105.614566
826.000000	105.561167
825.000000	105.563340
824.000000	105.655500
823.000000	105.829176
822.000000	106.043119
821.000000	106.250250
820.000000	106.408108
819.000000	106.480438
818.000000	106.454232
817.000000	106.357283
816.000000	106.244990
815.000000	106.168631
814.000000	106.157052
813.000000	106.211662
812.000000	106.297706
811.000000	106.343708
810.000000	106.277417
809.000000	106.078679
808.000000	105.796111
807.000000	105.515598
806.000000	105.316823
805.000000	105.243860
804.000000	105.293093
803.000000	105.419112
802.000000	105.557496
801.000000	105.644476
800.000000	105.619197
799.000000	105.426847
798.000000	105.033327
797.000000	104.436934
796.000000	103.652205
795.000000	102.690007
794.000000	101.562700
793.000000	100.295791
792.000000	98.932035
791.000000	97.530389
790.000000	96.172559
789.000000	94.957730
788.000000	93.975215
787.000000	93.278043
786.000000	92.883923
785.000000	92.787605
784.000000	92.951488
783.000000	93.295416
782.000000	93.709051
781.000000	94.086305
780.000000	94.354053
779.000000	94.488557
778.000000	94.533153
777.000000	94.591396
776.000000	94.781235
775.000000	95.182428
774.000000	95.816673
773.000000	96.657549
772.000000	97.639022
771.000000	98.667383
770.000000	99.650790
769.000000	100.525132
768.000000	101.254521
767.000000	101.825257
766.000000	102.256684
765.000000	102.603646
764.000000	102.929183
763.000000	103.272967
762.000000	103.647115
761.000000	104.042619
760.000000	104.423831
759.000000	104.735552
758.000000	104.937399
757.000000	105.031067
756.000000	105.049577
755.000000	105.035417
754.000000	105.037224
753.000000	105.101382
752.000000	105.241749
751.000000	105.424143
750.000000	105.592056
749.000000	105.698209
748.000000	105.706756
747.000000	105.593652
746.000000	105.369777
745.000000	105.088528
744.000000	104.809819
743.000000	104.563595
742.000000	104.354112
741.000000	104.175313
740.000000	104.003884
739.000000	103.800650
738.000000	103.542398
737.000000	103.239328
736.000000	102.908120
735.000000	102.548572
734.000000	102.161358
733.000000	101.761957
732.000000	101.357333
731.000000	100.935269
730.000000	100.499078
729.000000	100.090529
728.000000	99.762702
727.000000	99.549056
726.000000	99.473345
725.000000	99.565121
724.000000	99.833008
723.000000	100.241275
722.000000	100.741482
721.000000	101.308341
720.000000	101.917334
719.000000	102.509767
718.000000	103.015170
717.000000	103.394677
716.000000	103.643020
715.000000	103.774449
714.000000	103.832041
713.000000	103.884526
712.000000	103.981571
711.000000	104.122692
710.000000	104.284730
709.000000	104.449675
708.000000	104.591452
707.000000	104.673136
706.000000	104.685066
705.000000	104.670264
704.000000	104.685313
703.000000	104.753289
702.000000	104.883498
701.000000	105.090529
700.000000	105.352813
699.000000	105.597326
698.000000	105.756088
697.000000	105.818812
696.000000	105.800662
695.000000	105.700234
694.000000	105.546826
693.000000	105.425368
692.000000	105.398266
691.000000	105.450898
690.000000	105.543868
689.000000	105.672957
688.000000	105.815673
687.000000	105.882128
686.000000	105.815562
685.000000	105.671337
684.000000	105.528792
683.000000	105.405759
682.000000	105.320533
681.000000	105.344598
680.000000	105.497794
679.000000	105.687724
678.000000	105.837564
677.000000	105.949245
676.000000	106.028295
675.000000	106.062016
674.000000	106.091394
673.000000	106.253961
672.000000	106.699888
671.000000	107.467330
670.000000	108.478904
669.000000	109.302927
668.000000	109.208164
667.000000	108.442252
666.000000	107.829211
665.000000	107.415223
664.000000	107.083976
663.000000	106.881590
662.000000	106.857195
661.000000	106.961753
660.000000	107.111646
659.000000	107.275358
658.000000	107.430539
657.000000	107.499857
656.000000	107.441159
655.000000	107.334409
654.000000	107.246854
653.000000	107.151453
652.000000	107.055103
651.000000	107.043390
650.000000	107.136299
649.000000	107.232544
648.000000	107.265676
647.000000	107.273500
646.000000	107.270805
645.000000	107.205709
644.000000	107.074824
643.000000	106.963617
642.000000	106.932811
641.000000	106.951349
640.000000	106.988361
639.000000	107.066054
638.000000	107.170521
637.000000	107.221520
636.000000	107.181065
635.000000	107.097298
634.000000	107.014980
633.000000	106.929582
632.000000	106.854149
631.000000	106.845154
630.000000	106.918232
629.000000	107.011199
628.000000	107.070717
627.000000	107.101301
626.000000	107.102376
625.000000	107.045082
624.000000	106.934928
623.000000	106.833175
622.000000	106.783834
621.000000	106.772950
620.000000	106.779953
619.000000	106.805730
618.000000	106.835260
617.000000	106.830486
616.000000	106.781998
615.000000	106.716360
614.000000	106.639607
613.000000	106.534313
612.000000	106.419390
611.000000	106.347949
610.000000	106.335565
609.000000	106.340640
608.000000	106.329756
607.000000	106.303491
606.000000	106.246775
605.000000	106.128245
604.000000	105.952056
603.000000	105.756493
602.000000	105.552046
601.000000	105.310068
600.000000	105.016700
599.000000	104.684904
598.000000	104.300690
597.000000	103.818049
596.000000	103.226355
595.000000	102.568402
594.000000	101.871642
593.000000	101.105081
592.000000	100.214851
591.000000	99.168238
590.000000	97.975254
589.000000	96.729135
588.000000	95.620589
587.000000	94.826391
586.000000	94.365222
585.000000	94.138320
584.000000	94.130151
583.000000	94.451299
582.000000	95.155618
581.000000	96.124700
580.000000	97.165255
579.000000	98.140025
578.000000	98.961357
577.000000	99.569335
576.000000	99.977263
575.000000	100.270019
574.000000	100.504725
573.000000	100.667977
572.000000	100.750622
571.000000	100.785742
570.000000	100.786518
569.000000	100.705289
568.000000	100.498535
567.000000	100.154392
566.000000	99.622118
565.000000	98.788352
564.000000	97.569547
563.000000	96.008780
562.000000	94.257356
561.000000	92.507831
560.000000	90.943873
559.000000	89.660828
558.000000	88.590720
557.000000	87.599771
556.000000	86.731723
555.000000	86.268403
554.000000	86.492079
553.000000	87.439536
552.000000	88.911668
551.000000	90.607691
550.000000	92.202211
549.000000	93.446434
548.000000	94.283222
547.000000	94.821585
546.000000	95.182136
545.000000	95.418757
544.000000	95.575907
543.000000	95.713087
542.000000	95.837029
541.000000	95.881085
540.000000	95.802040
539.000000	95.626692
538.000000	95.384340
537.000000	95.071736
536.000000	94.715641
535.000000	94.394151
534.000000	94.152513
533.000000	93.965449
532.000000	93.799582
531.000000	93.659793
530.000000	93.536423
529.000000	93.370638
528.000000	93.111043
527.000000	92.761562
526.000000	92.330634
525.000000	91.794510
524.000000	91.144225
523.000000	90.399732
522.000000	89.566569
521.000000	88.635977
520.000000	87.649668
519.000000	86.697347
518.000000	85.815893
517.000000	84.958877
516.000000	84.104204
515.000000	83.308032
514.000000	82.624889
513.000000	82.065607
512.000000	81.662607
511.000000	81.502540
510.000000	81.635520
509.000000	82.016575
508.000000	82.586230
507.000000	83.337610
506.000000	84.261620
505.000000	85.313247
504.000000	86.474173
503.000000	87.760657
502.000000	89.113470
501.000000	90.371505
500.000000	91.409177
499.000000	92.221248
498.000000	92.841167
497.000000	93.287488
496.000000	93.616330
495.000000	93.933398
494.000000	94.309824
493.000000	94.718061
492.000000	95.100607
491.000000	95.435187
490.000000	95.688237
489.000000	95.796272
488.000000	95.732475
487.000000	95.549698
486.000000	95.299789
485.000000	94.947834
484.000000	94.414050
483.000000	93.642101
482.000000	92.597412
481.000000	91.284074
480.000000	89.843108
479.000000	88.545292
478.000000	87.588134
477.000000	86.950896
476.000000	86.490556
475.000000	86.107789
474.000000	85.759995
473.000000	85.445945
472.000000	85.279051
471.000000	85.459468
470.000000	86.064913
469.000000	86.975067
468.000000	88.046782
467.000000	89.217560
466.000000	90.424396
465.000000	91.574514
464.000000	92.626501
463.000000	93.622582
462.000000	94.575827
461.000000	95.400444
460.000000	96.011992
459.000000	96.408731
458.000000	96.629734
457.000000	96.733030
456.000000	96.828045
455.000000	97.028425
454.000000	97.360619
453.000000	97.759776
452.000000	98.160180
451.000000	98.535888
450.000000	98.823578
449.000000	98.922438
448.000000	98.819664
447.000000	98.640848
446.000000	98.520471
445.000000	98.502569
444.000000	98.594170
443.000000	98.817060
442.000000	99.127504
441.000000	99.388127
440.000000	99.500945
439.000000	99.472670
438.000000	99.330547
437.000000	99.081887
436.000000	98.805146
435.000000	98.648217
434.000000	98.643037
433.000000	98.638817
432.000000	98.480137
431.000000	98.145337
430.000000	97.673321
429.000000	97.065698
428.000000	96.377081
427.000000	95.793478
426.000000	95.464070
425.000000	95.357600
424.000000	95.415203
423.000000	95.686909
422.000000	96.149160
421.000000	96.570783
420.000000	96.722657
419.000000	96.686707
418.000000	96.750125
417.000000	96.971519
416.000000	97.266962
415.000000	97.674996
414.000000	98.223485
413.000000	98.768557
412.000000	99.134642
411.000000	99.292705
410.000000	99.275485
409.000000	99.038531
408.000000	98.613218
407.000000	98.231555
406.000000	98.088419
405.000000	98.112391
404.000000	98.218945
403.000000	98.485337
402.000000	98.958161
401.000000	99.352553
400.000000	99.429109
