PE IR       SUBTECH     SPECTRUM    ASCII       PEDS        4.00        
   -1
23ms007 cis.asc
24/10/21
15:16:01.00
24/10/21
15:16:01.00
Administrator
Sample 1313 By Administrator Date Monday, October 21 2024
400.000000
#HDR
-1
-1
#GR
cm-1
%T
1.0
0.0
4000.000000
-1.000000
3601
8
82.946056
5.111266
#DATA
4000.000000	50.098775
3999.000000	50.085596
3998.000000	50.074845
3997.000000	50.066803
3996.000000	50.061775
3995.000000	50.059727
3994.000000	50.060030
3993.000000	50.061764
3992.000000	50.064286
3991.000000	50.067661
3990.000000	50.072609
3989.000000	50.080135
3988.000000	50.091366
3987.000000	50.107332
3986.000000	50.128461
3985.000000	50.154218
3984.000000	50.183416
3983.000000	50.215158
3982.000000	50.249273
3981.000000	50.285971
3980.000000	50.325264
3979.000000	50.366626
3978.000000	50.409186
3977.000000	50.452074
3976.000000	50.494638
3975.000000	50.536521
3974.000000	50.577456
3973.000000	50.617007
3972.000000	50.654581
3971.000000	50.689938
3970.000000	50.723660
3969.000000	50.756922
3968.000000	50.791037
3967.000000	50.827209
3966.000000	50.866477
3965.000000	50.909491
3964.000000	50.956349
3963.000000	51.006719
3962.000000	51.059992
3961.000000	51.115316
3960.000000	51.171656
3959.000000	51.228117
3958.000000	51.284345
3957.000000	51.340267
3956.000000	51.395851
3955.000000	51.451253
3954.000000	51.506816
3953.000000	51.562408
3952.000000	51.616949
3951.000000	51.668752
3950.000000	51.716369
3949.000000	51.759667
3948.000000	51.800304
3947.000000	51.840567
3946.000000	51.881010
3945.000000	51.919865
3944.000000	51.955438
3943.000000	51.988469
3942.000000	52.021481
3941.000000	52.056473
3940.000000	52.094210
3939.000000	52.135299
3938.000000	52.180487
3937.000000	52.229303
3936.000000	52.279378
3935.000000	52.327639
3934.000000	52.371979
3933.000000	52.411444
3932.000000	52.445597
3931.000000	52.474901
3930.000000	52.501277
3929.000000	52.526987
3928.000000	52.552407
3927.000000	52.575481
3926.000000	52.594359
3925.000000	52.609901
3924.000000	52.624511
3923.000000	52.639611
3922.000000	52.655836
3921.000000	52.673785
3920.000000	52.692528
3919.000000	52.708883
3918.000000	52.720297
3917.000000	52.727812
3916.000000	52.735031
3915.000000	52.744525
3914.000000	52.756896
3913.000000	52.772470
3912.000000	52.791938
3911.000000	52.815408
3910.000000	52.843030
3909.000000	52.875016
3908.000000	52.910741
3907.000000	52.947783
3906.000000	52.983570
3905.000000	53.017547
3904.000000	53.051525
3903.000000	53.086363
3902.000000	53.119964
3901.000000	53.149532
3900.000000	53.175163
3899.000000	53.200535
3898.000000	53.230032
3897.000000	53.266928
3896.000000	53.313235
3895.000000	53.367302
3894.000000	53.422618
3893.000000	53.471933
3892.000000	53.514301
3891.000000	53.556295
3890.000000	53.604645
3889.000000	53.657456
3888.000000	53.707846
3887.000000	53.752977
3886.000000	53.796828
3885.000000	53.843701
3884.000000	53.891009
3883.000000	53.931601
3882.000000	53.960821
3881.000000	53.978079
3880.000000	53.987279
3879.000000	53.995468
3878.000000	54.007574
3877.000000	54.023735
3876.000000	54.041419
3875.000000	54.059225
3874.000000	54.078405
3873.000000	54.098500
3872.000000	54.116631
3871.000000	54.134655
3870.000000	54.160594
3869.000000	54.198272
3868.000000	54.240412
3867.000000	54.278202
3866.000000	54.311952
3865.000000	54.344528
3864.000000	54.372430
3863.000000	54.390312
3862.000000	54.401912
3861.000000	54.418553
3860.000000	54.447095
3859.000000	54.483674
3858.000000	54.518972
3857.000000	54.545387
3856.000000	54.564792
3855.000000	54.589045
3854.000000	54.627030
3853.000000	54.669680
3852.000000	54.703442
3851.000000	54.729828
3850.000000	54.760349
3849.000000	54.799488
3848.000000	54.841087
3847.000000	54.878894
3846.000000	54.912465
3845.000000	54.945624
3844.000000	54.982012
3843.000000	55.022697
3842.000000	55.065258
3841.000000	55.104161
3840.000000	55.137450
3839.000000	55.170008
3838.000000	55.207213
3837.000000	55.247368
3836.000000	55.284346
3835.000000	55.313810
3834.000000	55.335611
3833.000000	55.352303
3832.000000	55.369032
3831.000000	55.390893
3830.000000	55.418857
3829.000000	55.449995
3828.000000	55.481518
3827.000000	55.514703
3826.000000	55.554544
3825.000000	55.602368
3824.000000	55.653097
3823.000000	55.701558
3822.000000	55.746611
3821.000000	55.788792
3820.000000	55.827297
3819.000000	55.857708
3818.000000	55.878440
3817.000000	55.895102
3816.000000	55.913590
3815.000000	55.933203
3814.000000	55.947457
3813.000000	55.957163
3812.000000	55.973507
3811.000000	56.002391
3810.000000	56.037757
3809.000000	56.072646
3808.000000	56.109140
3807.000000	56.155709
3806.000000	56.214805
3805.000000	56.276210
3804.000000	56.326956
3803.000000	56.364254
3802.000000	56.395768
3801.000000	56.429808
3800.000000	56.463936
3799.000000	56.489261
3798.000000	56.504924
3797.000000	56.515604
3796.000000	56.524009
3795.000000	56.531730
3794.000000	56.541086
3793.000000	56.556149
3792.000000	56.579290
3791.000000	56.608140
3790.000000	56.638882
3789.000000	56.670864
3788.000000	56.705137
3787.000000	56.740959
3786.000000	56.775742
3785.000000	56.808490
3784.000000	56.840985
3783.000000	56.874806
3782.000000	56.908370
3781.000000	56.938041
3780.000000	56.960997
3779.000000	56.977601
3778.000000	56.991340
3777.000000	57.006435
3776.000000	57.027529
3775.000000	57.058878
3774.000000	57.100928
3773.000000	57.148457
3772.000000	57.195260
3771.000000	57.240238
3770.000000	57.286702
3769.000000	57.335261
3768.000000	57.382139
3767.000000	57.424762
3766.000000	57.465471
3765.000000	57.508718
3764.000000	57.556420
3763.000000	57.607070
3762.000000	57.659507
3761.000000	57.713829
3760.000000	57.768034
3759.000000	57.818233
3758.000000	57.864360
3757.000000	57.910952
3756.000000	57.960359
3755.000000	58.010492
3754.000000	58.061901
3753.000000	58.119218
3752.000000	58.183587
3751.000000	58.248568
3750.000000	58.309111
3749.000000	58.368268
3748.000000	58.425368
3747.000000	58.469040
3746.000000	58.495011
3745.000000	58.519086
3744.000000	58.558578
3743.000000	58.611052
3742.000000	58.665394
3741.000000	58.722043
3740.000000	58.783795
3739.000000	58.845112
3738.000000	58.901538
3737.000000	58.955254
3736.000000	59.007591
3735.000000	59.051026
3734.000000	59.075931
3733.000000	59.084591
3732.000000	59.092362
3731.000000	59.111488
3730.000000	59.139755
3729.000000	59.168548
3728.000000	59.195032
3727.000000	59.223276
3726.000000	59.255718
3725.000000	59.288122
3724.000000	59.315809
3723.000000	59.340140
3722.000000	59.364040
3721.000000	59.387352
3720.000000	59.409567
3719.000000	59.432780
3718.000000	59.462102
3717.000000	59.502850
3716.000000	59.555659
3715.000000	59.616970
3714.000000	59.684060
3713.000000	59.755640
3712.000000	59.826767
3711.000000	59.889026
3710.000000	59.937838
3709.000000	59.976297
3708.000000	60.012497
3707.000000	60.053418
3706.000000	60.101141
3705.000000	60.151912
3704.000000	60.201148
3703.000000	60.246287
3702.000000	60.287055
3701.000000	60.325027
3700.000000	60.363054
3699.000000	60.403730
3698.000000	60.447917
3697.000000	60.496109
3696.000000	60.547964
3695.000000	60.602443
3694.000000	60.659030
3693.000000	60.717948
3692.000000	60.776191
3691.000000	60.828741
3690.000000	60.873506
3689.000000	60.912803
3688.000000	60.950038
3687.000000	60.985700
3686.000000	61.018441
3685.000000	61.047825
3684.000000	61.077109
3683.000000	61.109523
3682.000000	61.145230
3681.000000	61.183214
3680.000000	61.224430
3679.000000	61.270118
3678.000000	61.319445
3677.000000	61.373776
3676.000000	61.434419
3675.000000	61.495181
3674.000000	61.544907
3673.000000	61.579643
3672.000000	61.607038
3671.000000	61.635788
3670.000000	61.665126
3669.000000	61.685990
3668.000000	61.693367
3667.000000	61.696473
3666.000000	61.706964
3665.000000	61.725167
3664.000000	61.746165
3663.000000	61.768734
3662.000000	61.795306
3661.000000	61.827080
3660.000000	61.861661
3659.000000	61.895423
3658.000000	61.927952
3657.000000	61.963220
3656.000000	62.006446
3655.000000	62.059185
3654.000000	62.117279
3653.000000	62.175455
3652.000000	62.232639
3651.000000	62.292287
3650.000000	62.354504
3649.000000	62.409027
3648.000000	62.444492
3647.000000	62.463747
3646.000000	62.478469
3645.000000	62.495101
3644.000000	62.513969
3643.000000	62.534910
3642.000000	62.558600
3641.000000	62.584657
3640.000000	62.612225
3639.000000	62.642294
3638.000000	62.676733
3637.000000	62.714212
3636.000000	62.751033
3635.000000	62.785456
3634.000000	62.817278
3633.000000	62.843145
3632.000000	62.858163
3631.000000	62.865213
3630.000000	62.875346
3629.000000	62.892993
3628.000000	62.907554
3627.000000	62.907108
3626.000000	62.892488
3625.000000	62.870765
3624.000000	62.842725
3623.000000	62.804714
3622.000000	62.755439
3621.000000	62.698491
3620.000000	62.640187
3619.000000	62.583583
3618.000000	62.526375
3617.000000	62.463819
3616.000000	62.391831
3615.000000	62.309046
3614.000000	62.217601
3613.000000	62.120461
3612.000000	62.018172
3611.000000	61.910548
3610.000000	61.799238
3609.000000	61.686868
3608.000000	61.573616
3607.000000	61.455936
3606.000000	61.330578
3605.000000	61.198643
3604.000000	61.065407
3603.000000	60.936835
3602.000000	60.818128
3601.000000	60.713037
3600.000000	60.621869
3599.000000	60.539919
3598.000000	60.459965
3597.000000	60.377005
3596.000000	60.288428
3595.000000	60.192952
3594.000000	60.089524
3593.000000	59.978258
3592.000000	59.862616
3591.000000	59.751394
3590.000000	59.658646
3589.000000	59.601111
3588.000000	59.587397
3587.000000	59.606534
3586.000000	59.633538
3585.000000	59.646965
3584.000000	59.638617
3583.000000	59.609267
3582.000000	59.562849
3581.000000	59.504758
3580.000000	59.440921
3579.000000	59.375629
3578.000000	59.309629
3577.000000	59.241749
3576.000000	59.170861
3575.000000	59.096934
3574.000000	59.020390
3573.000000	58.941716
3572.000000	58.860927
3571.000000	58.776790
3570.000000	58.687089
3569.000000	58.591365
3568.000000	58.492360
3567.000000	58.391389
3566.000000	58.284542
3565.000000	58.166083
3564.000000	58.034094
3563.000000	57.890377
3562.000000	57.737100
3561.000000	57.575915
3560.000000	57.408986
3559.000000	57.238745
3558.000000	57.066490
3557.000000	56.892273
3556.000000	56.715493
3555.000000	56.534568
3554.000000	56.347333
3553.000000	56.153030
3552.000000	55.953152
3551.000000	55.748683
3550.000000	55.537703
3549.000000	55.317470
3548.000000	55.088034
3547.000000	54.851550
3546.000000	54.608443
3545.000000	54.356563
3544.000000	54.093639
3543.000000	53.818797
3542.000000	53.532015
3541.000000	53.233737
3540.000000	52.924819
3539.000000	52.605189
3538.000000	52.273253
3537.000000	51.927950
3536.000000	51.570230
3535.000000	51.201071
3534.000000	50.819199
3533.000000	50.422445
3532.000000	50.010328
3531.000000	49.583146
3530.000000	49.139856
3529.000000	48.679247
3528.000000	48.201875
3527.000000	47.708449
3526.000000	47.196929
3525.000000	46.664606
3524.000000	46.112578
3523.000000	45.545068
3522.000000	44.964854
3521.000000	44.371266
3520.000000	43.762383
3519.000000	43.137069
3518.000000	42.495012
3517.000000	41.837056
3516.000000	41.165301
3515.000000	40.481718
3514.000000	39.787031
3513.000000	39.080941
3512.000000	38.362655
3511.000000	37.631204
3510.000000	36.887303
3509.000000	36.135852
3508.000000	35.382970
3507.000000	34.628966
3506.000000	33.867432
3505.000000	33.093232
3504.000000	32.309233
3503.000000	31.523657
3502.000000	30.743505
3501.000000	29.972136
3500.000000	29.209493
3499.000000	28.452205
3498.000000	27.696605
3497.000000	26.943758
3496.000000	26.199425
3495.000000	25.468091
3494.000000	24.750355
3493.000000	24.047153
3492.000000	23.361413
3491.000000	22.693972
3490.000000	22.042673
3489.000000	21.407592
3488.000000	20.793663
3487.000000	20.205591
3486.000000	19.643412
3485.000000	19.104673
3484.000000	18.586286
3483.000000	18.083796
3482.000000	17.593844
3481.000000	17.118968
3480.000000	16.665875
3479.000000	16.236614
3478.000000	15.825781
3477.000000	15.427038
3476.000000	15.037497
3475.000000	14.655553
3474.000000	14.279229
3473.000000	13.909055
3472.000000	13.548973
3471.000000	13.203408
3470.000000	12.878075
3469.000000	12.582829
3468.000000	12.328445
3467.000000	12.119206
3466.000000	11.952126
3465.000000	11.824110
3464.000000	11.734675
3463.000000	11.682850
3462.000000	11.667899
3461.000000	11.692673
3460.000000	11.761364
3459.000000	11.872271
3458.000000	12.017157
3457.000000	12.188011
3456.000000	12.378539
3455.000000	12.580069
3454.000000	12.781672
3453.000000	12.974537
3452.000000	13.152046
3451.000000	13.305562
3450.000000	13.424672
3449.000000	13.502783
3448.000000	13.537948
3447.000000	13.528076
3446.000000	13.471114
3445.000000	13.368851
3444.000000	13.227037
3443.000000	13.051940
3442.000000	12.849379
3441.000000	12.627886
3440.000000	12.397854
3439.000000	12.167962
3438.000000	11.946775
3437.000000	11.746106
3436.000000	11.577831
3435.000000	11.447128
3434.000000	11.352169
3433.000000	11.290108
3432.000000	11.261203
3431.000000	11.267478
3430.000000	11.312736
3429.000000	11.403509
3428.000000	11.544313
3427.000000	11.734519
3426.000000	11.971347
3425.000000	12.255392
3424.000000	12.590492
3423.000000	12.977672
3422.000000	13.415875
3421.000000	13.904778
3420.000000	14.442649
3419.000000	15.023658
3418.000000	15.639250
3417.000000	16.283634
3416.000000	16.953334
3415.000000	17.643326
3414.000000	18.348498
3413.000000	19.065740
3412.000000	19.791937
3411.000000	20.521027
3410.000000	21.246540
3409.000000	21.965980
3408.000000	22.678503
3407.000000	23.379689
3406.000000	24.062659
3405.000000	24.723172
3404.000000	25.360544
3403.000000	25.975818
3402.000000	26.572326
3401.000000	27.156524
3400.000000	27.733879
3399.000000	28.303186
3398.000000	28.858245
3397.000000	29.394288
3396.000000	29.910200
3395.000000	30.406853
3394.000000	30.886476
3393.000000	31.353779
3392.000000	31.814152
3391.000000	32.269737
3390.000000	32.719779
3389.000000	33.163356
3388.000000	33.600142
3387.000000	34.029600
3386.000000	34.451735
3385.000000	34.868401
3384.000000	35.281291
3383.000000	35.689861
3382.000000	36.093225
3381.000000	36.492849
3380.000000	36.891410
3379.000000	37.289932
3378.000000	37.688268
3377.000000	38.087159
3376.000000	38.487128
3375.000000	38.886169
3374.000000	39.280880
3373.000000	39.669677
3372.000000	40.053282
3371.000000	40.432888
3370.000000	40.810020
3369.000000	41.187247
3368.000000	41.566668
3367.000000	41.947711
3366.000000	42.327787
3365.000000	42.704747
3364.000000	43.077341
3363.000000	43.444315
3362.000000	43.805105
3361.000000	44.160923
3360.000000	44.513768
3359.000000	44.864605
3358.000000	45.213576
3357.000000	45.561173
3356.000000	45.907314
3355.000000	46.250109
3354.000000	46.587135
3353.000000	46.917620
3352.000000	47.242365
3351.000000	47.561946
3350.000000	47.876499
3349.000000	48.186698
3348.000000	48.493385
3347.000000	48.796621
3346.000000	49.095909
3345.000000	49.391135
3344.000000	49.682146
3343.000000	49.967685
3342.000000	50.246182
3341.000000	50.516991
3340.000000	50.780215
3339.000000	51.035860
3338.000000	51.283862
3337.000000	51.524793
3336.000000	51.758885
3335.000000	51.984741
3334.000000	52.200035
3333.000000	52.402501
3332.000000	52.590085
3331.000000	52.760125
3330.000000	52.909939
3329.000000	53.038366
3328.000000	53.144685
3327.000000	53.227235
3326.000000	53.283122
3325.000000	53.308926
3324.000000	53.301570
3323.000000	53.256885
3322.000000	53.170588
3321.000000	53.039394
3320.000000	52.859913
3319.000000	52.628548
3318.000000	52.340200
3317.000000	51.989709
3316.000000	51.571436
3315.000000	51.076877
3314.000000	50.497397
3313.000000	49.824940
3312.000000	49.052450
3311.000000	48.173560
3310.000000	47.181327
3309.000000	46.074010
3308.000000	44.853330
3307.000000	43.521670
3306.000000	42.082355
3305.000000	40.537584
3304.000000	38.890823
3303.000000	37.143632
3302.000000	35.298294
3301.000000	33.364352
3300.000000	31.358259
3299.000000	29.303730
3298.000000	27.233256
3297.000000	25.189721
3296.000000	23.220349
3295.000000	21.367517
3294.000000	19.663985
3293.000000	18.134610
3292.000000	16.793395
3291.000000	15.634642
3290.000000	14.638394
3289.000000	13.776304
3288.000000	13.017114
3287.000000	12.331045
3286.000000	11.692713
3285.000000	11.089661
3284.000000	10.518293
3283.000000	9.978963
3282.000000	9.478060
3281.000000	9.028082
3280.000000	8.644617
3279.000000	8.339481
3278.000000	8.121465
3277.000000	8.000416
3276.000000	7.981811
3275.000000	8.062763
3274.000000	8.233603
3273.000000	8.480542
3272.000000	8.784592
3271.000000	9.117350
3270.000000	9.445570
3269.000000	9.738008
3268.000000	9.966293
3267.000000	10.105508
3266.000000	10.140946
3265.000000	10.072778
3264.000000	9.912820
3263.000000	9.679893
3262.000000	9.398044
3261.000000	9.097320
3260.000000	8.807191
3259.000000	8.549870
3258.000000	8.342610
3257.000000	8.201053
3256.000000	8.135226
3255.000000	8.145381
3254.000000	8.225435
3253.000000	8.366966
3252.000000	8.559287
3251.000000	8.786313
3250.000000	9.030725
3249.000000	9.279875
3248.000000	9.523333
3247.000000	9.749997
3246.000000	9.949737
3245.000000	10.116416
3244.000000	10.246553
3243.000000	10.338348
3242.000000	10.394282
3241.000000	10.422450
3240.000000	10.431346
3239.000000	10.424481
3238.000000	10.403946
3237.000000	10.373935
3236.000000	10.339015
3235.000000	10.302226
3234.000000	10.266915
3233.000000	10.237471
3232.000000	10.213288
3231.000000	10.185700
3230.000000	10.144755
3229.000000	10.085559
3228.000000	10.006151
3227.000000	9.902951
3226.000000	9.772972
3225.000000	9.617741
3224.000000	9.440235
3223.000000	9.241784
3222.000000	9.024833
3221.000000	8.796110
3220.000000	8.563588
3219.000000	8.331927
3218.000000	8.104332
3217.000000	7.884842
3216.000000	7.675332
3215.000000	7.473400
3214.000000	7.276474
3213.000000	7.084975
3212.000000	6.898650
3211.000000	6.713903
3210.000000	6.528200
3209.000000	6.344142
3208.000000	6.165575
3207.000000	5.993558
3206.000000	5.829545
3205.000000	5.677976
3204.000000	5.542574
3203.000000	5.423147
3202.000000	5.319570
3201.000000	5.235424
3200.000000	5.173448
3199.000000	5.132445
3198.000000	5.111266
3197.000000	5.112017
3196.000000	5.136276
3195.000000	5.180938
3194.000000	5.243059
3193.000000	5.323704
3192.000000	5.423636
3191.000000	5.540171
3190.000000	5.670318
3189.000000	5.814441
3188.000000	5.972681
3187.000000	6.141417
3186.000000	6.317512
3185.000000	6.501359
3184.000000	6.693264
3183.000000	6.890352
3182.000000	7.090141
3181.000000	7.293758
3180.000000	7.501817
3179.000000	7.711333
3178.000000	7.919528
3177.000000	8.126745
3176.000000	8.332773
3175.000000	8.534287
3174.000000	8.729177
3173.000000	8.919390
3172.000000	9.106594
3171.000000	9.288712
3170.000000	9.463960
3169.000000	9.634096
3168.000000	9.800385
3167.000000	9.960610
3166.000000	10.112873
3165.000000	10.258825
3164.000000	10.399741
3163.000000	10.532964
3162.000000	10.655848
3161.000000	10.769002
3160.000000	10.873062
3159.000000	10.965971
3158.000000	11.046461
3157.000000	11.117368
3156.000000	11.181899
3155.000000	11.240547
3154.000000	11.294686
3153.000000	11.349233
3152.000000	11.408689
3151.000000	11.473476
3150.000000	11.543150
3149.000000	11.619589
3148.000000	11.704004
3147.000000	11.794264
3146.000000	11.888430
3145.000000	11.987553
3144.000000	12.092097
3143.000000	12.199252
3142.000000	12.306341
3141.000000	12.413693
3140.000000	12.521290
3139.000000	12.626038
3138.000000	12.724947
3137.000000	12.817534
3136.000000	12.902455
3135.000000	12.975033
3134.000000	13.031115
3133.000000	13.068954
3132.000000	13.085380
3131.000000	13.073362
3130.000000	13.026066
3129.000000	12.941532
3128.000000	12.819795
3127.000000	12.660974
3126.000000	12.468750
3125.000000	12.251968
3124.000000	12.020976
3123.000000	11.783797
3122.000000	11.548643
3121.000000	11.325166
3120.000000	11.119490
3119.000000	10.931465
3118.000000	10.759245
3117.000000	10.602962
3116.000000	10.461263
3115.000000	10.328986
3114.000000	10.201340
3113.000000	10.077408
3112.000000	9.956823
3111.000000	9.837090
3110.000000	9.717687
3109.000000	9.602454
3108.000000	9.495314
3107.000000	9.397167
3106.000000	9.309312
3105.000000	9.236521
3104.000000	9.182974
3103.000000	9.149646
3102.000000	9.138467
3101.000000	9.154152
3100.000000	9.200411
3099.000000	9.276816
3098.000000	9.382870
3097.000000	9.521052
3096.000000	9.691953
3095.000000	9.892491
3094.000000	10.119867
3093.000000	10.374022
3092.000000	10.654065
3091.000000	10.955397
3090.000000	11.274406
3089.000000	11.610249
3088.000000	11.960258
3087.000000	12.318480
3086.000000	12.680574
3085.000000	13.046942
3084.000000	13.417766
3083.000000	13.789507
3082.000000	14.158944
3081.000000	14.526070
3080.000000	14.890842
3079.000000	15.250960
3078.000000	15.605417
3077.000000	15.955994
3076.000000	16.302826
3075.000000	16.642269
3074.000000	16.971554
3073.000000	17.291900
3072.000000	17.604491
3071.000000	17.907806
3070.000000	18.201150
3069.000000	18.487119
3068.000000	18.768061
3067.000000	19.043031
3066.000000	19.310985
3065.000000	19.573276
3064.000000	19.830822
3063.000000	20.082399
3062.000000	20.327499
3061.000000	20.567972
3060.000000	20.804651
3059.000000	21.035772
3058.000000	21.260828
3057.000000	21.482278
3056.000000	21.701722
3055.000000	21.917588
3054.000000	22.128603
3053.000000	22.336483
3052.000000	22.543027
3051.000000	22.747873
3050.000000	22.950751
3049.000000	23.152611
3048.000000	23.352877
3047.000000	23.548759
3046.000000	23.739334
3045.000000	23.927233
3044.000000	24.114725
3043.000000	24.301442
3042.000000	24.487259
3041.000000	24.673816
3040.000000	24.861187
3039.000000	25.046416
3038.000000	25.227539
3037.000000	25.406109
3036.000000	25.584193
3035.000000	25.761934
3034.000000	25.939560
3033.000000	26.118519
3032.000000	26.298738
3031.000000	26.477891
3030.000000	26.655030
3029.000000	26.831822
3028.000000	27.008751
3027.000000	27.183429
3026.000000	27.354300
3025.000000	27.522807
3024.000000	27.689763
3023.000000	27.852698
3022.000000	28.008443
3021.000000	28.155025
3020.000000	28.289458
3019.000000	28.406045
3018.000000	28.499450
3017.000000	28.567024
3016.000000	28.607357
3015.000000	28.620828
3014.000000	28.613795
3013.000000	28.600647
3012.000000	28.599228
3011.000000	28.625694
3010.000000	28.692758
3009.000000	28.807259
3008.000000	28.965781
3007.000000	29.154375
3006.000000	29.354247
3005.000000	29.546105
3004.000000	29.708873
3003.000000	29.818460
3002.000000	29.851262
3001.000000	29.787928
3000.000000	29.617782
2999.000000	29.347261
2998.000000	29.011346
2997.000000	28.674399
2996.000000	28.413591
2995.000000	28.294647
2994.000000	28.351534
2993.000000	28.577685
2992.000000	28.928733
2991.000000	29.341508
2990.000000	29.759080
2989.000000	30.145716
2988.000000	30.486146
2987.000000	30.777688
2986.000000	31.025376
2985.000000	31.236858
2984.000000	31.416949
2983.000000	31.565380
2982.000000	31.680642
2981.000000	31.761849
2980.000000	31.806186
2979.000000	31.807753
2978.000000	31.761433
2977.000000	31.668302
2976.000000	31.536357
2975.000000	31.381073
2974.000000	31.225552
2973.000000	31.095746
2972.000000	31.010705
2971.000000	30.974573
2970.000000	30.975233
2969.000000	30.984884
2968.000000	30.961745
2967.000000	30.861011
2966.000000	30.654811
2965.000000	30.347171
2964.000000	29.972250
2963.000000	29.580572
2962.000000	29.224328
2961.000000	28.944842
2960.000000	28.765433
2959.000000	28.692532
2958.000000	28.724579
2957.000000	28.855602
2956.000000	29.071091
2955.000000	29.346285
2954.000000	29.651327
2953.000000	29.956783
2952.000000	30.233028
2951.000000	30.453571
2950.000000	30.603942
2949.000000	30.688615
2948.000000	30.726188
2947.000000	30.735516
2946.000000	30.720144
2945.000000	30.654031
2944.000000	30.481846
2943.000000	30.146266
2942.000000	29.638159
2941.000000	29.032886
2940.000000	28.480954
2939.000000	28.151305
2938.000000	28.157890
2937.000000	28.513179
2936.000000	29.130617
2935.000000	29.874803
2934.000000	30.622988
2933.000000	31.300576
2932.000000	31.879753
2931.000000	32.362582
2930.000000	32.766705
2929.000000	33.113834
2928.000000	33.421935
2927.000000	33.701781
2926.000000	33.960432
2925.000000	34.203248
2924.000000	34.432148
2923.000000	34.645839
2922.000000	34.843940
2921.000000	35.028246
2920.000000	35.198924
2919.000000	35.353878
2918.000000	35.492534
2917.000000	35.617394
2916.000000	35.730626
2915.000000	35.832180
2914.000000	35.922421
2913.000000	36.003065
2912.000000	36.074114
2911.000000	36.132890
2910.000000	36.176850
2909.000000	36.204489
2908.000000	36.212205
2907.000000	36.192167
2906.000000	36.134409
2905.000000	36.027529
2904.000000	35.857120
2903.000000	35.608397
2902.000000	35.274433
2901.000000	34.863180
2900.000000	34.398662
2899.000000	33.920442
2898.000000	33.480211
2897.000000	33.132328
2896.000000	32.917499
2895.000000	32.851814
2894.000000	32.928204
2893.000000	33.122362
2892.000000	33.399332
2891.000000	33.721486
2890.000000	34.058408
2889.000000	34.390059
2888.000000	34.703285
2887.000000	34.989097
2886.000000	35.243626
2885.000000	35.468058
2884.000000	35.663935
2883.000000	35.831560
2882.000000	35.972970
2881.000000	36.093409
2880.000000	36.198606
2879.000000	36.293107
2878.000000	36.381914
2877.000000	36.470117
2876.000000	36.559180
2875.000000	36.645939
2874.000000	36.727069
2873.000000	36.802271
2872.000000	36.872979
2871.000000	36.941722
2870.000000	37.014083
2869.000000	37.098061
2868.000000	37.198827
2867.000000	37.315519
2866.000000	37.443764
2865.000000	37.578437
2864.000000	37.713133
2863.000000	37.840742
2862.000000	37.956905
2861.000000	38.061265
2860.000000	38.154786
2859.000000	38.238393
2858.000000	38.315112
2857.000000	38.390350
2856.000000	38.468324
2855.000000	38.550304
2854.000000	38.636891
2853.000000	38.728800
2852.000000	38.824095
2851.000000	38.917564
2850.000000	39.004474
2849.000000	39.083088
2848.000000	39.153350
2847.000000	39.216264
2846.000000	39.275593
2845.000000	39.337063
2844.000000	39.404251
2843.000000	39.477023
2842.000000	39.554458
2841.000000	39.636658
2840.000000	39.722919
2839.000000	39.811073
2838.000000	39.900054
2837.000000	39.990885
2836.000000	40.084342
2835.000000	40.180015
2834.000000	40.278313
2833.000000	40.380802
2832.000000	40.487443
2831.000000	40.595560
2830.000000	40.702468
2829.000000	40.807054
2828.000000	40.908383
2827.000000	41.005357
2826.000000	41.098591
2825.000000	41.190282
2824.000000	41.281308
2823.000000	41.370399
2822.000000	41.456700
2821.000000	41.540679
2820.000000	41.621793
2819.000000	41.697904
2818.000000	41.768091
2817.000000	41.833933
2816.000000	41.897169
2815.000000	41.958130
2814.000000	42.017208
2813.000000	42.075551
2812.000000	42.133320
2811.000000	42.189315
2810.000000	42.243065
2809.000000	42.295328
2808.000000	42.345988
2807.000000	42.393751
2806.000000	42.438680
2805.000000	42.482851
2804.000000	42.527721
2803.000000	42.572989
2802.000000	42.618598
2801.000000	42.665447
2800.000000	42.713243
2799.000000	42.759921
2798.000000	42.804162
2797.000000	42.846513
2796.000000	42.887346
2795.000000	42.926008
2794.000000	42.962796
2793.000000	42.999551
2792.000000	43.037323
2791.000000	43.075310
2790.000000	43.112680
2789.000000	43.149237
2788.000000	43.183680
2787.000000	43.213640
2786.000000	43.238644
2785.000000	43.261259
2784.000000	43.284688
2783.000000	43.311407
2782.000000	43.344525
2781.000000	43.387497
2780.000000	43.440931
2779.000000	43.501534
2778.000000	43.565246
2777.000000	43.629826
2776.000000	43.693891
2775.000000	43.755934
2774.000000	43.815678
2773.000000	43.874435
2772.000000	43.932941
2771.000000	43.990332
2770.000000	44.045844
2769.000000	44.099766
2768.000000	44.151963
2767.000000	44.201208
2766.000000	44.246787
2765.000000	44.289086
2764.000000	44.328035
2763.000000	44.362888
2762.000000	44.394054
2761.000000	44.423383
2760.000000	44.451969
2759.000000	44.479249
2758.000000	44.504675
2757.000000	44.528145
2756.000000	44.548407
2755.000000	44.563414
2754.000000	44.573302
2753.000000	44.581576
2752.000000	44.592804
2751.000000	44.610555
2750.000000	44.637340
2749.000000	44.673656
2748.000000	44.715885
2747.000000	44.757252
2746.000000	44.792213
2745.000000	44.819134
2744.000000	44.839176
2743.000000	44.854939
2742.000000	44.870278
2741.000000	44.888416
2740.000000	44.908621
2739.000000	44.926448
2738.000000	44.938565
2737.000000	44.946653
2736.000000	44.956758
2735.000000	44.976850
2734.000000	45.014705
2733.000000	45.074310
2732.000000	45.152514
2731.000000	45.240587
2730.000000	45.329910
2729.000000	45.415552
2728.000000	45.495016
2727.000000	45.566710
2726.000000	45.630789
2725.000000	45.688926
2724.000000	45.741662
2723.000000	45.787512
2722.000000	45.825197
2721.000000	45.854989
2720.000000	45.877671
2719.000000	45.893917
2718.000000	45.905654
2717.000000	45.916338
2716.000000	45.928826
2715.000000	45.944451
2714.000000	45.964388
2713.000000	45.989970
2712.000000	46.021248
2711.000000	46.057042
2710.000000	46.096768
2709.000000	46.140437
2708.000000	46.186480
2707.000000	46.231507
2706.000000	46.272747
2705.000000	46.308909
2704.000000	46.338358
2703.000000	46.358836
2702.000000	46.369684
2701.000000	46.372191
2700.000000	46.367455
2699.000000	46.355707
2698.000000	46.338221
2697.000000	46.317992
2696.000000	46.297551
2695.000000	46.278145
2694.000000	46.261342
2693.000000	46.248978
2692.000000	46.240797
2691.000000	46.234324
2690.000000	46.228075
2689.000000	46.223272
2688.000000	46.221879
2687.000000	46.224807
2686.000000	46.232618
2685.000000	46.245643
2684.000000	46.262583
2683.000000	46.281257
2682.000000	46.301465
2681.000000	46.325554
2680.000000	46.355426
2679.000000	46.390706
2678.000000	46.430294
2677.000000	46.473105
2676.000000	46.516455
2675.000000	46.555849
2674.000000	46.587457
2673.000000	46.609568
2672.000000	46.621663
2671.000000	46.624432
2670.000000	46.621608
2669.000000	46.619873
2668.000000	46.625636
2667.000000	46.642831
2666.000000	46.673424
2665.000000	46.717213
2664.000000	46.770054
2663.000000	46.824632
2662.000000	46.874241
2661.000000	46.914839
2660.000000	46.943855
2659.000000	46.959627
2658.000000	46.962968
2657.000000	46.957491
2656.000000	46.947387
2655.000000	46.936288
2654.000000	46.928683
2653.000000	46.929912
2652.000000	46.943611
2651.000000	46.970571
2650.000000	47.010322
2649.000000	47.061575
2648.000000	47.120875
2647.000000	47.182917
2646.000000	47.243238
2645.000000	47.299516
2644.000000	47.350114
2643.000000	47.394011
2642.000000	47.432875
2641.000000	47.470961
2640.000000	47.511835
2639.000000	47.556440
2638.000000	47.604419
2637.000000	47.655044
2636.000000	47.706156
2635.000000	47.754266
2634.000000	47.796900
2633.000000	47.833370
2632.000000	47.862949
2631.000000	47.884426
2630.000000	47.898056
2629.000000	47.906415
2628.000000	47.912360
2627.000000	47.917515
2626.000000	47.923139
2625.000000	47.930104
2624.000000	47.937563
2623.000000	47.943395
2622.000000	47.946683
2621.000000	47.948308
2620.000000	47.948589
2619.000000	47.946361
2618.000000	47.940719
2617.000000	47.931529
2616.000000	47.917727
2615.000000	47.896905
2614.000000	47.867734
2613.000000	47.831248
2612.000000	47.789350
2611.000000	47.744404
2610.000000	47.700804
2609.000000	47.664656
2608.000000	47.640553
2607.000000	47.630050
2606.000000	47.633310
2605.000000	47.650452
2604.000000	47.680349
2603.000000	47.719961
2602.000000	47.766418
2601.000000	47.817530
2600.000000	47.870336
2599.000000	47.921080
2598.000000	47.967416
2597.000000	48.009495
2596.000000	48.048236
2595.000000	48.084427
2594.000000	48.119853
2593.000000	48.157123
2592.000000	48.197246
2591.000000	48.238730
2590.000000	48.279327
2589.000000	48.317015
2588.000000	48.349315
2587.000000	48.373900
2586.000000	48.391048
2585.000000	48.404027
2584.000000	48.416597
2583.000000	48.431778
2582.000000	48.453127
2581.000000	48.484636
2580.000000	48.528278
2579.000000	48.583161
2578.000000	48.647308
2577.000000	48.718905
2576.000000	48.795191
2575.000000	48.872467
2574.000000	48.948396
2573.000000	49.022601
2572.000000	49.094808
2571.000000	49.163867
2570.000000	49.229004
2569.000000	49.290317
2568.000000	49.347595
2567.000000	49.400183
2566.000000	49.448621
2565.000000	49.494872
2564.000000	49.540249
2563.000000	49.584802
2562.000000	49.628792
2561.000000	49.673009
2560.000000	49.717127
2559.000000	49.759310
2558.000000	49.798281
2557.000000	49.834344
2556.000000	49.868258
2555.000000	49.900831
2554.000000	49.934060
2553.000000	49.970868
2552.000000	50.012886
2551.000000	50.059541
2550.000000	50.109338
2549.000000	50.160513
2548.000000	50.210366
2547.000000	50.256036
2546.000000	50.296693
2545.000000	50.333650
2544.000000	50.367976
2543.000000	50.399453
2542.000000	50.427773
2541.000000	50.452690
2540.000000	50.472880
2539.000000	50.486069
2538.000000	50.491123
2537.000000	50.488447
2536.000000	50.477823
2535.000000	50.458285
2534.000000	50.430047
2533.000000	50.395190
2532.000000	50.355917
2531.000000	50.313515
2530.000000	50.269864
2529.000000	50.227651
2528.000000	50.188501
2527.000000	50.152384
2526.000000	50.119187
2525.000000	50.089213
2524.000000	50.061632
2523.000000	50.034313
2522.000000	50.005794
2521.000000	49.975700
2520.000000	49.942754
2519.000000	49.904221
2518.000000	49.858011
2517.000000	49.803933
2516.000000	49.742311
2515.000000	49.673880
2514.000000	49.601735
2513.000000	49.531620
2512.000000	49.469183
2511.000000	49.418128
2510.000000	49.381000
2509.000000	49.359565
2508.000000	49.353711
2507.000000	49.361120
2506.000000	49.379814
2505.000000	49.408977
2504.000000	49.447335
2503.000000	49.492729
2502.000000	49.542933
2501.000000	49.595933
2500.000000	49.648494
2499.000000	49.696520
2498.000000	49.737489
2497.000000	49.771019
2496.000000	49.796983
2495.000000	49.814944
2494.000000	49.825832
2493.000000	49.832061
2492.000000	49.835792
2491.000000	49.838297
2490.000000	49.841383
2489.000000	49.847512
2488.000000	49.857854
2487.000000	49.871919
2486.000000	49.889224
2485.000000	49.909569
2484.000000	49.931501
2483.000000	49.952713
2482.000000	49.972457
2481.000000	49.992033
2480.000000	50.012745
2479.000000	50.035059
2478.000000	50.059997
2477.000000	50.089001
2476.000000	50.122099
2475.000000	50.158286
2474.000000	50.197998
2473.000000	50.243611
2472.000000	50.296771
2471.000000	50.357122
2470.000000	50.423809
2469.000000	50.495642
2468.000000	50.569411
2467.000000	50.639958
2466.000000	50.703094
2465.000000	50.757399
2464.000000	50.803312
2463.000000	50.842351
2462.000000	50.877491
2461.000000	50.912120
2460.000000	50.947307
2459.000000	50.981592
2458.000000	51.013197
2457.000000	51.041042
2456.000000	51.063627
2455.000000	51.079041
2454.000000	51.087356
2453.000000	51.091334
2452.000000	51.094437
2451.000000	51.099378
2450.000000	51.108623
2449.000000	51.124307
2448.000000	51.147024
2447.000000	51.176218
2446.000000	51.211913
2445.000000	51.254697
2444.000000	51.303461
2443.000000	51.355190
2442.000000	51.407220
2441.000000	51.458053
2440.000000	51.506160
2439.000000	51.549911
2438.000000	51.589354
2437.000000	51.626122
2436.000000	51.660968
2435.000000	51.692489
2434.000000	51.718744
2433.000000	51.738594
2432.000000	51.751217
2431.000000	51.756380
2430.000000	51.755133
2429.000000	51.749089
2428.000000	51.738342
2427.000000	51.720998
2426.000000	51.695328
2425.000000	51.660525
2424.000000	51.616411
2423.000000	51.564611
2422.000000	51.510488
2421.000000	51.462169
2420.000000	51.426528
2419.000000	51.406865
2418.000000	51.403357
2417.000000	51.413429
2416.000000	51.431077
2415.000000	51.448640
2414.000000	51.460315
2413.000000	51.463042
2412.000000	51.454395
2411.000000	51.432087
2410.000000	51.395990
2409.000000	51.348508
2408.000000	51.292566
2407.000000	51.230275
2406.000000	51.164428
2405.000000	51.098768
2404.000000	51.036256
2403.000000	50.978614
2402.000000	50.927933
2401.000000	50.886910
2400.000000	50.856831
2399.000000	50.836971
2398.000000	50.825800
2397.000000	50.821197
2396.000000	50.818719
2395.000000	50.812030
2394.000000	50.795642
2393.000000	50.766543
2392.000000	50.723630
2391.000000	50.668051
2390.000000	50.604776
2389.000000	50.541497
2388.000000	50.485758
2387.000000	50.443441
2386.000000	50.419868
2385.000000	50.419769
2384.000000	50.445778
2383.000000	50.498764
2382.000000	50.579526
2381.000000	50.687929
2380.000000	50.819187
2379.000000	50.963417
2378.000000	51.108216
2377.000000	51.240335
2376.000000	51.346941
2375.000000	51.417796
2374.000000	51.449901
2373.000000	51.447273
2372.000000	51.416593
2371.000000	51.367802
2370.000000	51.314762
2369.000000	51.270269
2368.000000	51.241236
2367.000000	51.233148
2366.000000	51.251919
2365.000000	51.296517
2364.000000	51.362282
2363.000000	51.449685
2362.000000	51.554271
2361.000000	51.671488
2360.000000	51.794011
2359.000000	51.902015
2358.000000	51.985727
2357.000000	52.034185
2356.000000	52.039410
2355.000000	52.002913
2354.000000	51.922717
2353.000000	51.817977
2352.000000	51.729641
2351.000000	51.724804
2350.000000	51.822334
2349.000000	51.956681
2348.000000	52.054168
2347.000000	52.078235
2346.000000	52.070077
2345.000000	52.086877
2344.000000	52.143086
2343.000000	52.211347
2342.000000	52.245209
2341.000000	52.254993
2340.000000	52.252855
2339.000000	52.245247
2338.000000	52.230678
2337.000000	52.212114
2336.000000	52.195877
2335.000000	52.186884
2334.000000	52.189497
2333.000000	52.200984
2332.000000	52.207011
2331.000000	52.189031
2330.000000	52.142619
2329.000000	52.062412
2328.000000	51.980227
2327.000000	51.907447
2326.000000	51.872804
2325.000000	51.875729
2324.000000	51.908778
2323.000000	51.955344
2322.000000	51.990464
2321.000000	52.006742
2320.000000	51.994156
2319.000000	51.957869
2318.000000	51.905436
2317.000000	51.849267
2316.000000	51.800958
2315.000000	51.758672
2314.000000	51.721072
2313.000000	51.672954
2312.000000	51.607274
2311.000000	51.509898
2310.000000	51.386879
2309.000000	51.241322
2308.000000	51.085741
2307.000000	50.920769
2306.000000	50.753729
2305.000000	50.586676
2304.000000	50.424795
2303.000000	50.266416
2302.000000	50.112860
2301.000000	49.962316
2300.000000	49.816217
2299.000000	49.671894
2298.000000	49.534571
2297.000000	49.408223
2296.000000	49.300772
2295.000000	49.213103
2294.000000	49.149611
2293.000000	49.110656
2292.000000	49.096562
2291.000000	49.103237
2290.000000	49.129745
2289.000000	49.175613
2288.000000	49.239032
2287.000000	49.315954
2286.000000	49.403053
2285.000000	49.498774
2284.000000	49.598766
2283.000000	49.697206
2282.000000	49.789397
2281.000000	49.875160
2280.000000	49.954507
2279.000000	50.027243
2278.000000	50.093634
2277.000000	50.156112
2276.000000	50.216497
2275.000000	50.275698
2274.000000	50.336637
2273.000000	50.403624
2272.000000	50.480141
2271.000000	50.566980
2270.000000	50.665385
2269.000000	50.777009
2268.000000	50.901631
2267.000000	51.036735
2266.000000	51.180114
2265.000000	51.330412
2264.000000	51.485074
2263.000000	51.639403
2262.000000	51.789634
2261.000000	51.933430
2260.000000	52.068089
2259.000000	52.191120
2258.000000	52.302065
2257.000000	52.403746
2256.000000	52.498837
2255.000000	52.589273
2254.000000	52.677241
2253.000000	52.765043
2252.000000	52.852997
2251.000000	52.939324
2250.000000	53.023626
2249.000000	53.106941
2248.000000	53.189615
2247.000000	53.269972
2246.000000	53.347007
2245.000000	53.420718
2244.000000	53.490033
2243.000000	53.552192
2242.000000	53.605556
2241.000000	53.650997
2240.000000	53.689726
2239.000000	53.721875
2238.000000	53.747760
2237.000000	53.768259
2236.000000	53.783222
2235.000000	53.791623
2234.000000	53.794565
2233.000000	53.796290
2232.000000	53.801270
2231.000000	53.812024
2230.000000	53.829839
2229.000000	53.855051
2228.000000	53.885326
2227.000000	53.915954
2226.000000	53.943244
2225.000000	53.966371
2224.000000	53.985636
2223.000000	54.001168
2222.000000	54.014177
2221.000000	54.027001
2220.000000	54.040707
2219.000000	54.054424
2218.000000	54.068129
2217.000000	54.084163
2216.000000	54.105026
2215.000000	54.131534
2214.000000	54.164279
2213.000000	54.204533
2212.000000	54.252169
2211.000000	54.303946
2210.000000	54.355273
2209.000000	54.402682
2208.000000	54.444253
2207.000000	54.479359
2206.000000	54.508906
2205.000000	54.534550
2204.000000	54.556515
2203.000000	54.573257
2202.000000	54.583400
2201.000000	54.586781
2200.000000	54.583511
2199.000000	54.574107
2198.000000	54.561309
2197.000000	54.549879
2196.000000	54.543864
2195.000000	54.545218
2194.000000	54.555341
2193.000000	54.575608
2192.000000	54.605570
2191.000000	54.642794
2190.000000	54.685368
2189.000000	54.733189
2188.000000	54.785989
2187.000000	54.842002
2186.000000	54.899198
2185.000000	54.956285
2184.000000	55.011878
2183.000000	55.064290
2182.000000	55.112979
2181.000000	55.158635
2180.000000	55.201451
2179.000000	55.240608
2178.000000	55.275765
2177.000000	55.307301
2176.000000	55.334615
2175.000000	55.356102
2174.000000	55.371404
2173.000000	55.382101
2172.000000	55.389540
2171.000000	55.393621
2170.000000	55.394226
2169.000000	55.391995
2168.000000	55.387232
2167.000000	55.379865
2166.000000	55.371352
2165.000000	55.364758
2164.000000	55.362135
2163.000000	55.363427
2162.000000	55.368303
2161.000000	55.377084
2160.000000	55.389211
2159.000000	55.403011
2158.000000	55.418123
2157.000000	55.436367
2156.000000	55.459251
2155.000000	55.486105
2154.000000	55.515357
2153.000000	55.545831
2152.000000	55.576084
2151.000000	55.604231
2150.000000	55.629471
2149.000000	55.652537
2148.000000	55.674008
2147.000000	55.693651
2146.000000	55.711672
2145.000000	55.728861
2144.000000	55.744861
2143.000000	55.758171
2142.000000	55.768551
2141.000000	55.777750
2140.000000	55.787210
2139.000000	55.796722
2138.000000	55.805686
2137.000000	55.813668
2136.000000	55.819003
2135.000000	55.818903
2134.000000	55.812102
2133.000000	55.799833
2132.000000	55.783599
2131.000000	55.763728
2130.000000	55.740811
2129.000000	55.716587
2128.000000	55.692417
2127.000000	55.668525
2126.000000	55.645646
2125.000000	55.625983
2124.000000	55.611733
2123.000000	55.604577
2122.000000	55.607076
2121.000000	55.622292
2120.000000	55.650868
2119.000000	55.689989
2118.000000	55.735750
2117.000000	55.784942
2116.000000	55.834165
2115.000000	55.879445
2114.000000	55.918135
2113.000000	55.949744
2112.000000	55.974400
2111.000000	55.992177
2110.000000	56.004375
2109.000000	56.013633
2108.000000	56.021944
2107.000000	56.029991
2106.000000	56.038892
2105.000000	56.050538
2104.000000	56.065239
2103.000000	56.080615
2102.000000	56.093380
2101.000000	56.100809
2100.000000	56.100069
2099.000000	56.088415
2098.000000	56.065163
2097.000000	56.032129
2096.000000	55.991921
2095.000000	55.947685
2094.000000	55.904980
2093.000000	55.871523
2092.000000	55.853802
2091.000000	55.855082
2090.000000	55.876571
2089.000000	55.917760
2088.000000	55.974365
2087.000000	56.038441
2086.000000	56.101955
2085.000000	56.159182
2084.000000	56.206057
2083.000000	56.239916
2082.000000	56.260953
2081.000000	56.272077
2080.000000	56.275836
2079.000000	56.272494
2078.000000	56.261688
2077.000000	56.243689
2076.000000	56.218177
2075.000000	56.183851
2074.000000	56.140443
2073.000000	56.089620
2072.000000	56.032768
2071.000000	55.969752
2070.000000	55.900728
2069.000000	55.827309
2068.000000	55.750851
2067.000000	55.671284
2066.000000	55.588379
2065.000000	55.502720
2064.000000	55.414390
2063.000000	55.322592
2062.000000	55.227408
2061.000000	55.129917
2060.000000	55.030447
2059.000000	54.928946
2058.000000	54.827532
2057.000000	54.730118
2056.000000	54.638799
2055.000000	54.553003
2054.000000	54.472766
2053.000000	54.399707
2052.000000	54.334181
2051.000000	54.275038
2050.000000	54.222749
2049.000000	54.180048
2048.000000	54.148421
2047.000000	54.126460
2046.000000	54.112455
2045.000000	54.105533
2044.000000	54.103856
2043.000000	54.104936
2042.000000	54.108626
2041.000000	54.117783
2040.000000	54.135151
2039.000000	54.162353
2038.000000	54.201794
2037.000000	54.255616
2036.000000	54.322479
2035.000000	54.398104
2034.000000	54.479676
2033.000000	54.566972
2032.000000	54.658778
2031.000000	54.751874
2030.000000	54.844127
2029.000000	54.935294
2028.000000	55.024524
2027.000000	55.109917
2026.000000	55.191199
2025.000000	55.270237
2024.000000	55.347802
2023.000000	55.422912
2022.000000	55.495426
2021.000000	55.566987
2020.000000	55.638576
2019.000000	55.709606
2018.000000	55.780015
2017.000000	55.851219
2016.000000	55.924546
2015.000000	56.000743
2014.000000	56.081016
2013.000000	56.166083
2012.000000	56.253995
2011.000000	56.341357
2010.000000	56.426985
2009.000000	56.512182
2008.000000	56.597663
2007.000000	56.682734
2006.000000	56.767541
2005.000000	56.853240
2004.000000	56.938988
2003.000000	57.021754
2002.000000	57.099247
2001.000000	57.171493
2000.000000	57.238968
1999.000000	57.301560
1998.000000	57.360780
1997.000000	57.419584
1996.000000	57.480034
1995.000000	57.542289
1994.000000	57.606054
1993.000000	57.670788
1992.000000	57.735191
1991.000000	57.799083
1990.000000	57.865552
1989.000000	57.938130
1988.000000	58.016079
1987.000000	58.095215
1986.000000	58.173124
1985.000000	58.250951
1984.000000	58.329921
1983.000000	58.409376
1982.000000	58.488643
1981.000000	58.568067
1980.000000	58.647187
1979.000000	58.724349
1978.000000	58.799874
1977.000000	58.876064
1976.000000	58.954262
1975.000000	59.033534
1974.000000	59.113036
1973.000000	59.192655
1972.000000	59.270874
1971.000000	59.344644
1970.000000	59.412058
1969.000000	59.472894
1968.000000	59.525870
1967.000000	59.568338
1966.000000	59.600095
1965.000000	59.624021
1964.000000	59.641816
1963.000000	59.651347
1962.000000	59.649421
1961.000000	59.635715
1960.000000	59.612595
1959.000000	59.584292
1958.000000	59.557014
1957.000000	59.537061
1956.000000	59.527314
1955.000000	59.526824
1954.000000	59.534439
1953.000000	59.550394
1952.000000	59.574292
1951.000000	59.604123
1950.000000	59.637788
1949.000000	59.674273
1948.000000	59.711330
1947.000000	59.745218
1946.000000	59.774077
1945.000000	59.798829
1944.000000	59.819380
1943.000000	59.832856
1942.000000	59.838127
1941.000000	59.839894
1940.000000	59.844130
1939.000000	59.851687
1938.000000	59.859191
1937.000000	59.863558
1936.000000	59.863714
1935.000000	59.859782
1934.000000	59.852706
1933.000000	59.843647
1932.000000	59.832943
1931.000000	59.820464
1930.000000	59.806788
1929.000000	59.794759
1928.000000	59.787166
1927.000000	59.786338
1926.000000	59.795296
1925.000000	59.815461
1924.000000	59.844475
1923.000000	59.875356
1922.000000	59.903243
1921.000000	59.928772
1920.000000	59.953087
1919.000000	59.972573
1918.000000	59.981999
1917.000000	59.981512
1916.000000	59.977061
1915.000000	59.972252
1914.000000	59.965957
1913.000000	59.956301
1912.000000	59.942952
1911.000000	59.926634
1910.000000	59.909165
1909.000000	59.894209
1908.000000	59.885029
1907.000000	59.883292
1906.000000	59.889781
1905.000000	59.904228
1904.000000	59.926864
1903.000000	59.957555
1902.000000	59.997536
1901.000000	60.048952
1900.000000	60.111374
1899.000000	60.181668
1898.000000	60.255959
1897.000000	60.329488
1896.000000	60.397154
1895.000000	60.455287
1894.000000	60.505997
1893.000000	60.556368
1892.000000	60.611497
1891.000000	60.669139
1890.000000	60.721893
1889.000000	60.764258
1888.000000	60.797985
1887.000000	60.828911
1886.000000	60.860681
1885.000000	60.894020
1884.000000	60.929293
1883.000000	60.968045
1882.000000	61.012175
1881.000000	61.061914
1880.000000	61.114074
1879.000000	61.164616
1878.000000	61.212524
1877.000000	61.259335
1876.000000	61.306990
1875.000000	61.356380
1874.000000	61.407796
1873.000000	61.462033
1872.000000	61.519425
1871.000000	61.577886
1870.000000	61.631988
1869.000000	61.675181
1868.000000	61.707661
1867.000000	61.739408
1866.000000	61.779845
1865.000000	61.829857
1864.000000	61.884384
1863.000000	61.938129
1862.000000	61.989015
1861.000000	62.038071
1860.000000	62.087542
1859.000000	62.139264
1858.000000	62.193790
1857.000000	62.249419
1856.000000	62.302735
1855.000000	62.350778
1854.000000	62.392768
1853.000000	62.431266
1852.000000	62.470797
1851.000000	62.515819
1850.000000	62.570394
1849.000000	62.633538
1848.000000	62.699512
1847.000000	62.760840
1846.000000	62.812548
1845.000000	62.851793
1844.000000	62.879270
1843.000000	62.905415
1842.000000	62.943460
1841.000000	62.994835
1840.000000	63.051469
1839.000000	63.105231
1838.000000	63.150969
1837.000000	63.187682
1836.000000	63.219546
1835.000000	63.252696
1834.000000	63.292776
1833.000000	63.342535
1832.000000	63.398902
1831.000000	63.452897
1830.000000	63.495176
1829.000000	63.527700
1828.000000	63.566701
1827.000000	63.622835
1826.000000	63.690775
1825.000000	63.756359
1824.000000	63.810841
1823.000000	63.857544
1822.000000	63.902465
1821.000000	63.946253
1820.000000	63.988018
1819.000000	64.030742
1818.000000	64.077478
1817.000000	64.125805
1816.000000	64.170962
1815.000000	64.210403
1814.000000	64.244091
1813.000000	64.268796
1812.000000	64.278446
1811.000000	64.272909
1810.000000	64.260225
1809.000000	64.252119
1808.000000	64.254869
1807.000000	64.265740
1806.000000	64.278064
1805.000000	64.288282
1804.000000	64.298716
1803.000000	64.312740
1802.000000	64.329317
1801.000000	64.343188
1800.000000	64.352671
1799.000000	64.366510
1798.000000	64.393272
1797.000000	64.432067
1796.000000	64.473770
1795.000000	64.510631
1794.000000	64.541231
1793.000000	64.565070
1792.000000	64.579798
1791.000000	64.590638
1790.000000	64.605802
1789.000000	64.626297
1788.000000	64.649073
1787.000000	64.673028
1786.000000	64.697344
1785.000000	64.720116
1784.000000	64.741027
1783.000000	64.760943
1782.000000	64.779344
1781.000000	64.792333
1780.000000	64.797414
1779.000000	64.803486
1778.000000	64.823071
1777.000000	64.863498
1776.000000	64.921635
1775.000000	64.990930
1774.000000	65.067368
1773.000000	65.141083
1772.000000	65.196032
1771.000000	65.236193
1770.000000	65.283333
1769.000000	65.345818
1768.000000	65.417884
1767.000000	65.490373
1766.000000	65.559379
1765.000000	65.625152
1764.000000	65.684020
1763.000000	65.726188
1762.000000	65.743409
1761.000000	65.744173
1760.000000	65.751030
1759.000000	65.778468
1758.000000	65.822700
1757.000000	65.873692
1756.000000	65.921766
1755.000000	65.966515
1754.000000	66.014639
1753.000000	66.071491
1752.000000	66.136925
1751.000000	66.201859
1750.000000	66.255012
1749.000000	66.295395
1748.000000	66.331441
1747.000000	66.370799
1746.000000	66.419827
1745.000000	66.478315
1744.000000	66.538977
1743.000000	66.593833
1742.000000	66.637286
1741.000000	66.667970
1740.000000	66.687006
1739.000000	66.700260
1738.000000	66.716525
1737.000000	66.739102
1736.000000	66.769208
1735.000000	66.809602
1734.000000	66.846302
1733.000000	66.870784
1732.000000	66.895641
1731.000000	66.914099
1730.000000	66.909868
1729.000000	66.884919
1728.000000	66.856111
1727.000000	66.841559
1726.000000	66.851191
1725.000000	66.881172
1724.000000	66.919832
1723.000000	66.957763
1722.000000	66.989591
1721.000000	67.014116
1720.000000	67.033070
1719.000000	67.053311
1718.000000	67.077962
1717.000000	67.103134
1716.000000	67.132173
1715.000000	67.168546
1714.000000	67.206041
1713.000000	67.241084
1712.000000	67.276727
1711.000000	67.316562
1710.000000	67.363525
1709.000000	67.418755
1708.000000	67.478971
1707.000000	67.540870
1706.000000	67.601610
1705.000000	67.655581
1704.000000	67.703037
1703.000000	67.749881
1702.000000	67.810616
1701.000000	67.891455
1700.000000	67.966246
1699.000000	68.030048
1698.000000	68.102025
1697.000000	68.167758
1696.000000	68.215415
1695.000000	68.260758
1694.000000	68.328155
1693.000000	68.414566
1692.000000	68.501440
1691.000000	68.583476
1690.000000	68.654871
1689.000000	68.701553
1688.000000	68.716935
1687.000000	68.717050
1686.000000	68.729949
1685.000000	68.760444
1684.000000	68.778704
1683.000000	68.784810
1682.000000	68.810300
1681.000000	68.837648
1680.000000	68.838725
1679.000000	68.814419
1678.000000	68.777459
1677.000000	68.735329
1676.000000	68.692505
1675.000000	68.658377
1674.000000	68.643739
1673.000000	68.642860
1672.000000	68.635118
1671.000000	68.613161
1670.000000	68.577226
1669.000000	68.528614
1668.000000	68.483512
1667.000000	68.462010
1666.000000	68.457104
1665.000000	68.442053
1664.000000	68.399033
1663.000000	68.331894
1662.000000	68.255653
1661.000000	68.176643
1660.000000	68.088484
1659.000000	67.991968
1658.000000	67.887683
1657.000000	67.758278
1656.000000	67.576589
1655.000000	67.324044
1654.000000	66.953455
1653.000000	66.404077
1652.000000	65.810939
1651.000000	65.335173
1650.000000	64.859942
1649.000000	64.168990
1648.000000	63.047917
1647.000000	61.364745
1646.000000	59.207056
1645.000000	56.781641
1644.000000	54.152898
1643.000000	51.221394
1642.000000	47.913300
1641.000000	44.325524
1640.000000	40.755077
1639.000000	37.517601
1638.000000	34.762412
1637.000000	32.546248
1636.000000	31.046086
1635.000000	30.490553
1634.000000	30.819226
1633.000000	31.763648
1632.000000	33.118051
1631.000000	34.768501
1630.000000	36.637568
1629.000000	38.655948
1628.000000	40.734762
1627.000000	42.739012
1626.000000	44.587281
1625.000000	46.346291
1624.000000	48.126013
1623.000000	49.887469
1622.000000	51.459880
1621.000000	52.770604
1620.000000	53.896526
1619.000000	54.944289
1618.000000	55.986043
1617.000000	57.041906
1616.000000	58.044822
1615.000000	58.883620
1614.000000	59.527810
1613.000000	60.047840
1612.000000	60.523438
1611.000000	60.955309
1610.000000	61.283928
1609.000000	61.484306
1608.000000	61.562886
1607.000000	61.481742
1606.000000	61.169007
1605.000000	60.585806
1604.000000	59.730794
1603.000000	58.594186
1602.000000	57.180773
1601.000000	55.580889
1600.000000	53.956546
1599.000000	52.459497
1598.000000	51.179751
1597.000000	50.160159
1596.000000	49.408760
1595.000000	48.874421
1594.000000	48.446681
1593.000000	48.024974
1592.000000	47.569170
1591.000000	47.064568
1590.000000	46.487632
1589.000000	45.829754
1588.000000	45.112515
1587.000000	44.341350
1586.000000	43.481171
1585.000000	42.506779
1584.000000	41.442102
1583.000000	40.318592
1582.000000	39.136151
1581.000000	37.901868
1580.000000	36.655597
1579.000000	35.389820
1578.000000	33.967319
1577.000000	32.200064
1576.000000	30.144996
1575.000000	28.184535
1574.000000	26.579016
1573.000000	25.247071
1572.000000	24.039898
1571.000000	22.922557
1570.000000	21.951847
1569.000000	21.203639
1568.000000	20.729529
1567.000000	20.542581
1566.000000	20.593315
1565.000000	20.793914
1564.000000	21.093251
1563.000000	21.490865
1562.000000	22.005138
1561.000000	22.681444
1560.000000	23.673377
1559.000000	25.039870
1558.000000	26.411336
1557.000000	27.460543
1556.000000	28.270205
1555.000000	29.010274
1554.000000	29.716369
1553.000000	30.323649
1552.000000	30.819489
1551.000000	31.296552
1550.000000	31.841138
1549.000000	32.460252
1548.000000	33.141436
1547.000000	33.926389
1546.000000	34.861030
1545.000000	35.907323
1544.000000	36.967924
1543.000000	37.998912
1542.000000	39.037308
1541.000000	40.118056
1540.000000	41.202862
1539.000000	42.202426
1538.000000	43.065145
1537.000000	43.803657
1536.000000	44.491234
1535.000000	45.236068
1534.000000	46.082324
1533.000000	46.936824
1532.000000	47.695929
1531.000000	48.376525
1530.000000	49.031702
1529.000000	49.671182
1528.000000	50.292457
1527.000000	50.910612
1526.000000	51.517623
1525.000000	52.066110
1524.000000	52.541324
1523.000000	52.994758
1522.000000	53.461628
1521.000000	53.896383
1520.000000	54.264302
1519.000000	54.609866
1518.000000	54.973692
1517.000000	55.339953
1516.000000	55.680731
1515.000000	56.003025
1514.000000	56.324494
1513.000000	56.641078
1512.000000	56.948977
1511.000000	57.258529
1510.000000	57.573161
1509.000000	57.883847
1508.000000	58.193232
1507.000000	58.498502
1506.000000	58.765462
1505.000000	59.002037
1504.000000	59.252959
1503.000000	59.533116
1502.000000	59.830513
1501.000000	60.114531
1500.000000	60.366322
1499.000000	60.600187
1498.000000	60.829505
1497.000000	61.039389
1496.000000	61.233001
1495.000000	61.447677
1494.000000	61.690721
1493.000000	61.933314
1492.000000	62.170145
1491.000000	62.417867
1490.000000	62.649562
1489.000000	62.807753
1488.000000	62.900614
1487.000000	62.988289
1486.000000	63.078252
1485.000000	63.124922
1484.000000	63.101400
1483.000000	62.999941
1482.000000	62.776830
1481.000000	62.370641
1480.000000	61.773351
1479.000000	60.979276
1478.000000	59.885229
1477.000000	58.363177
1476.000000	56.429046
1475.000000	54.204386
1474.000000	51.734884
1473.000000	49.080672
1472.000000	46.569357
1471.000000	44.600987
1470.000000	43.257851
1469.000000	42.400216
1468.000000	41.946816
1467.000000	41.930329
1466.000000	42.418528
1465.000000	43.385129
1464.000000	44.618665
1463.000000	45.817852
1462.000000	46.767463
1461.000000	47.375385
1460.000000	47.601030
1459.000000	47.398888
1458.000000	46.711370
1457.000000	45.637198
1456.000000	44.568296
1455.000000	43.829098
1454.000000	43.397571
1453.000000	43.134301
1452.000000	42.966045
1451.000000	42.876418
1450.000000	42.875155
1449.000000	42.986325
1448.000000	43.221876
1447.000000	43.546681
1446.000000	43.914508
1445.000000	44.325656
1444.000000	44.818177
1443.000000	45.429757
1442.000000	46.183778
1441.000000	47.091803
1440.000000	48.153120
1439.000000	49.379152
1438.000000	50.810477
1437.000000	52.413522
1436.000000	53.957168
1435.000000	55.203702
1434.000000	56.159780
1433.000000	56.959979
1432.000000	57.677141
1431.000000	58.308385
1430.000000	58.847994
1429.000000	59.315959
1428.000000	59.723433
1427.000000	60.074407
1426.000000	60.394587
1425.000000	60.709706
1424.000000	61.004210
1423.000000	61.251177
1422.000000	61.469971
1421.000000	61.710605
1420.000000	61.989129
1419.000000	62.266604
1418.000000	62.509785
1417.000000	62.725441
1416.000000	62.918052
1415.000000	63.086434
1414.000000	63.252484
1413.000000	63.444875
1412.000000	63.665269
1411.000000	63.895858
1410.000000	64.130439
1409.000000	64.368899
1408.000000	64.594155
1407.000000	64.785441
1406.000000	64.947985
1405.000000	65.099163
1404.000000	65.233552
1403.000000	65.333649
1402.000000	65.384864
1401.000000	65.345127
1400.000000	65.130374
1399.000000	64.706448
1398.000000	64.192316
1397.000000	63.792326
1396.000000	63.645587
1395.000000	63.757506
1394.000000	64.020462
1393.000000	64.306365
1392.000000	64.561071
1391.000000	64.814582
1390.000000	65.128213
1389.000000	65.536541
1388.000000	66.014157
1387.000000	66.491203
1386.000000	66.917352
1385.000000	67.296338
1384.000000	67.651243
1383.000000	67.992332
1382.000000	68.319039
1381.000000	68.626659
1380.000000	68.903170
1379.000000	69.124354
1378.000000	69.255200
1377.000000	69.229778
1376.000000	68.892394
1375.000000	67.958337
1374.000000	66.077515
1373.000000	63.021528
1372.000000	58.871425
1371.000000	54.097542
1370.000000	49.546127
1369.000000	46.243887
1368.000000	44.907040
1367.000000	45.471770
1366.000000	47.180528
1365.000000	49.088998
1364.000000	50.428336
1363.000000	50.743319
1362.000000	50.026580
1361.000000	48.793789
1360.000000	47.867887
1359.000000	47.968459
1358.000000	49.370712
1357.000000	51.792530
1356.000000	54.611144
1355.000000	57.247869
1354.000000	59.417885
1353.000000	61.116417
1352.000000	62.453243
1351.000000	63.530601
1350.000000	64.418681
1349.000000	65.161315
1348.000000	65.781847
1347.000000	66.303437
1346.000000	66.758674
1345.000000	67.173157
1344.000000	67.552934
1343.000000	67.897627
1342.000000	68.218752
1341.000000	68.530842
1340.000000	68.832379
1339.000000	69.114927
1338.000000	69.382777
1337.000000	69.644921
1336.000000	69.890279
1335.000000	70.085802
1334.000000	70.191098
1333.000000	70.148233
1332.000000	69.866388
1331.000000	69.239286
1330.000000	68.191449
1329.000000	66.710839
1328.000000	64.815464
1327.000000	62.500859
1326.000000	59.759559
1325.000000	56.713126
1324.000000	53.763154
1323.000000	51.524592
1322.000000	50.467959
1321.000000	50.587709
1320.000000	51.440570
1319.000000	52.494718
1318.000000	53.451274
1317.000000	54.273399
1316.000000	55.017501
1315.000000	55.725561
1314.000000	56.438674
1313.000000	57.234672
1312.000000	58.201166
1311.000000	59.368064
1310.000000	60.668922
1309.000000	61.959366
1308.000000	63.075445
1307.000000	63.898326
1306.000000	64.386009
1305.000000	64.538769
1304.000000	64.350745
1303.000000	63.797660
1302.000000	62.859329
1301.000000	61.567233
1300.000000	60.055763
1299.000000	58.583015
1298.000000	57.450780
1297.000000	56.842875
1296.000000	56.715995
1295.000000	56.829764
1294.000000	56.874095
1293.000000	56.585990
1292.000000	55.808684
1291.000000	54.501200
1290.000000	52.701309
1289.000000	50.492437
1288.000000	48.041549
1287.000000	45.670413
1286.000000	43.810337
1285.000000	42.806192
1284.000000	42.738367
1283.000000	43.432222
1282.000000	44.642219
1281.000000	46.205140
1280.000000	48.021691
1279.000000	49.927406
1278.000000	51.640118
1277.000000	52.868798
1276.000000	53.461399
1275.000000	53.459802
1274.000000	53.060613
1273.000000	52.551900
1272.000000	52.255623
1271.000000	52.450631
1270.000000	53.270148
1269.000000	54.640848
1268.000000	56.328589
1267.000000	58.066606
1266.000000	59.668776
1265.000000	61.061482
1264.000000	62.247132
1263.000000	63.256358
1262.000000	64.121522
1261.000000	64.864949
1260.000000	65.493934
1259.000000	66.012369
1258.000000	66.443357
1257.000000	66.822801
1256.000000	67.178595
1255.000000	67.525971
1254.000000	67.871909
1253.000000	68.212826
1252.000000	68.527805
1251.000000	68.793202
1250.000000	69.006627
1249.000000	69.187217
1248.000000	69.358293
1247.000000	69.539260
1246.000000	69.746694
1245.000000	69.984056
1244.000000	70.229204
1243.000000	70.447760
1242.000000	70.619678
1241.000000	70.744718
1240.000000	70.829865
1239.000000	70.885447
1238.000000	70.929335
1237.000000	70.975201
1236.000000	71.016088
1235.000000	71.032703
1234.000000	71.014135
1233.000000	70.961863
1232.000000	70.877610
1231.000000	70.761101
1230.000000	70.616675
1229.000000	70.441947
1228.000000	70.215431
1227.000000	69.905273
1226.000000	69.485171
1225.000000	68.936254
1224.000000	68.227988
1223.000000	67.318956
1222.000000	66.167327
1221.000000	64.727918
1220.000000	62.965620
1219.000000	60.880860
1218.000000	58.533470
1217.000000	56.035465
1216.000000	53.526851
1215.000000	51.162323
1214.000000	49.101677
1213.000000	47.488311
1212.000000	46.423087
1211.000000	45.943229
1210.000000	45.987799
1209.000000	46.402609
1208.000000	46.984331
1207.000000	47.530773
1206.000000	47.886015
1205.000000	47.952972
1204.000000	47.687124
1203.000000	47.090834
1202.000000	46.218398
1201.000000	45.188554
1200.000000	44.186740
1199.000000	43.435010
1198.000000	43.122647
1197.000000	43.335453
1196.000000	44.045298
1195.000000	45.143144
1194.000000	46.494068
1193.000000	47.984884
1192.000000	49.534601
1191.000000	51.094333
1190.000000	52.634740
1189.000000	54.134410
1188.000000	55.571913
1187.000000	56.921951
1186.000000	58.160969
1185.000000	59.275597
1184.000000	60.265440
1183.000000	61.140262
1182.000000	61.922240
1181.000000	62.632834
1180.000000	63.278355
1179.000000	63.851637
1178.000000	64.340234
1177.000000	64.735872
1176.000000	65.029943
1175.000000	65.217456
1174.000000	65.304510
1173.000000	65.289161
1172.000000	65.144565
1171.000000	64.811915
1170.000000	64.214560
1169.000000	63.279917
1168.000000	61.957334
1167.000000	60.264075
1166.000000	58.322547
1165.000000	56.354061
1164.000000	54.629313
1163.000000	53.398973
1162.000000	52.814884
1161.000000	52.888227
1160.000000	53.506931
1159.000000	54.484007
1158.000000	55.630971
1157.000000	56.797884
1156.000000	57.882006
1155.000000	58.822960
1154.000000	59.590653
1153.000000	60.173244
1152.000000	60.565410
1151.000000	60.766101
1150.000000	60.775816
1149.000000	60.596001
1148.000000	60.205901
1147.000000	59.560494
1146.000000	58.601941
1145.000000	57.253174
1144.000000	55.436259
1143.000000	53.091625
1142.000000	50.220633
1141.000000	46.927417
1140.000000	43.425228
1139.000000	40.002396
1138.000000	36.919219
1137.000000	34.298521
1136.000000	32.093571
1135.000000	30.168689
1134.000000	28.418968
1133.000000	26.895236
1132.000000	25.841643
1131.000000	25.587327
1130.000000	26.389240
1129.000000	28.277943
1128.000000	31.026627
1127.000000	34.216371
1126.000000	37.340202
1125.000000	39.919339
1124.000000	41.581791
1123.000000	42.100065
1122.000000	41.414997
1121.000000	39.645052
1120.000000	37.020793
1119.000000	33.837748
1118.000000	30.466291
1117.000000	27.391224
1116.000000	25.188048
1115.000000	24.354867
1114.000000	25.074023
1113.000000	27.102774
1112.000000	29.867980
1111.000000	32.644589
1110.000000	34.805649
1109.000000	36.067411
1108.000000	36.600991
1107.000000	36.901318
1106.000000	37.461105
1105.000000	38.486164
1104.000000	39.834856
1103.000000	41.137512
1102.000000	41.943047
1101.000000	41.875087
1100.000000	40.799046
1099.000000	38.969709
1098.000000	37.027799
1097.000000	35.764022
1096.000000	35.757392
1095.000000	37.118047
1094.000000	39.488477
1093.000000	42.285993
1092.000000	45.011555
1091.000000	47.397425
1090.000000	49.389974
1089.000000	51.051784
1088.000000	52.469750
1087.000000	53.716039
1086.000000	54.843229
1085.000000	55.881795
1084.000000	56.838014
1083.000000	57.714512
1082.000000	58.521301
1081.000000	59.272153
1080.000000	59.969732
1079.000000	60.597834
1078.000000	61.137659
1077.000000	61.563211
1076.000000	61.836178
1075.000000	61.910726
1074.000000	61.724878
1073.000000	61.197310
1072.000000	60.187625
1071.000000	58.500415
1070.000000	55.923105
1069.000000	52.250318
1068.000000	47.386870
1067.000000	41.481145
1066.000000	35.039026
1065.000000	28.887913
1064.000000	23.927786
1063.000000	20.737973
1062.000000	19.254682
1061.000000	18.777952
1060.000000	18.364348
1059.000000	17.395037
1058.000000	15.889121
1057.000000	14.441162
1056.000000	13.831145
1055.000000	14.543059
1054.000000	16.564150
1053.000000	19.487846
1052.000000	22.798170
1051.000000	26.092290
1050.000000	29.136773
1049.000000	31.859025
1048.000000	34.291746
1047.000000	36.502527
1046.000000	38.536715
1045.000000	40.405237
1044.000000	42.097021
1043.000000	43.600990
1042.000000	44.920745
1041.000000	46.071476
1040.000000	47.081293
1039.000000	47.976488
1038.000000	48.774993
1037.000000	49.485868
1036.000000	50.107931
1035.000000	50.641523
1034.000000	51.092742
1033.000000	51.474664
1032.000000	51.804713
1031.000000	52.098042
1030.000000	52.367679
1029.000000	52.619169
1028.000000	52.847579
1027.000000	53.043887
1026.000000	53.200629
1025.000000	53.314313
1024.000000	53.378081
1023.000000	53.377626
1022.000000	53.295874
1021.000000	53.106989
1020.000000	52.777900
1019.000000	52.270448
1018.000000	51.545433
1017.000000	50.567558
1016.000000	49.298771
1015.000000	47.721843
1014.000000	45.878752
1013.000000	43.901501
1012.000000	42.008069
1011.000000	40.435075
1010.000000	39.320239
1009.000000	38.605654
1008.000000	38.063360
1007.000000	37.459604
1006.000000	36.777824
1005.000000	36.296572
1004.000000	36.431912
1003.000000	37.446305
1002.000000	39.244145
1001.000000	41.437922
1000.000000	43.570214
999.000000	45.300484
998.000000	46.463152
997.000000	47.031968
996.000000	47.081079
995.000000	46.775241
994.000000	46.365270
993.000000	46.143167
992.000000	46.354749
991.000000	47.103167
990.000000	48.304372
989.000000	49.742602
988.000000	51.190150
987.000000	52.495351
986.000000	53.604595
985.000000	54.534619
984.000000	55.332032
983.000000	56.046850
982.000000	56.718631
981.000000	57.364673
980.000000	57.976273
979.000000	58.533126
978.000000	59.016866
977.000000	59.421302
976.000000	59.755325
975.000000	60.043065
974.000000	60.319950
973.000000	60.614516
972.000000	60.934426
971.000000	61.267890
970.000000	61.595196
969.000000	61.897947
968.000000	62.162531
967.000000	62.387562
966.000000	62.587670
965.000000	62.782164
964.000000	62.980519
963.000000	63.181279
962.000000	63.381680
961.000000	63.581480
960.000000	63.780197
959.000000	63.979300
958.000000	64.184304
957.000000	64.396695
956.000000	64.604687
955.000000	64.789932
954.000000	64.944037
953.000000	65.073752
952.000000	65.195218
951.000000	65.330841
950.000000	65.505348
949.000000	65.730586
948.000000	65.990420
947.000000	66.247178
946.000000	66.464929
945.000000	66.624113
944.000000	66.724369
943.000000	66.788836
942.000000	66.862707
941.000000	66.990125
940.000000	67.185020
939.000000	67.426306
938.000000	67.675660
937.000000	67.893994
936.000000	68.051279
935.000000	68.140776
934.000000	68.189419
933.000000	68.242864
932.000000	68.335078
931.000000	68.475586
930.000000	68.656622
929.000000	68.858111
928.000000	69.049664
927.000000	69.205765
926.000000	69.324324
925.000000	69.421744
924.000000	69.511491
923.000000	69.597369
922.000000	69.683623
921.000000	69.776751
920.000000	69.877673
919.000000	69.985989
918.000000	70.111028
917.000000	70.263362
916.000000	70.434080
915.000000	70.594585
914.000000	70.717797
913.000000	70.791564
912.000000	70.815013
911.000000	70.802582
910.000000	70.785547
909.000000	70.785109
908.000000	70.773228
907.000000	70.661293
906.000000	70.333078
905.000000	69.678710
904.000000	68.630446
903.000000	67.231706
902.000000	65.703357
901.000000	64.415686
900.000000	63.737846
899.000000	63.851668
898.000000	64.660840
897.000000	65.868478
896.000000	67.135998
895.000000	68.224695
894.000000	69.053689
893.000000	69.657675
892.000000	70.115763
891.000000	70.502240
890.000000	70.868092
889.000000	71.228913
888.000000	71.563634
887.000000	71.823759
886.000000	71.948215
885.000000	71.869742
884.000000	71.529728
883.000000	70.937262
882.000000	70.205264
881.000000	69.492876
880.000000	68.881695
879.000000	68.323546
878.000000	67.734604
877.000000	67.140419
876.000000	66.720863
875.000000	66.694062
874.000000	67.148642
873.000000	67.965721
872.000000	68.896589
871.000000	69.721824
870.000000	70.357995
869.000000	70.847073
868.000000	71.271367
867.000000	71.689526
866.000000	72.117579
865.000000	72.531483
864.000000	72.876606
863.000000	73.101265
862.000000	73.197987
861.000000	73.210985
860.000000	73.208363
859.000000	73.251707
858.000000	73.380605
857.000000	73.596370
856.000000	73.853445
855.000000	74.083583
854.000000	74.238137
853.000000	74.308446
852.000000	74.315551
851.000000	74.296946
850.000000	74.298641
849.000000	74.355173
848.000000	74.467294
847.000000	74.608070
846.000000	74.752049
845.000000	74.888579
844.000000	75.011556
843.000000	75.114897
842.000000	75.199723
841.000000	75.270081
840.000000	75.320354
839.000000	75.342840
838.000000	75.350514
837.000000	75.377786
836.000000	75.455486
835.000000	75.594218
834.000000	75.785590
833.000000	75.999947
832.000000	76.183503
831.000000	76.282021
830.000000	76.282282
829.000000	76.225584
828.000000	76.181062
827.000000	76.213980
826.000000	76.367321
825.000000	76.640361
824.000000	76.972116
823.000000	77.265745
822.000000	77.446952
821.000000	77.499088
820.000000	77.454968
819.000000	77.378307
818.000000	77.345516
817.000000	77.411643
816.000000	77.574477
815.000000	77.777449
814.000000	77.950100
813.000000	78.039835
812.000000	78.018042
811.000000	77.881437
810.000000	77.653926
809.000000	77.366125
808.000000	77.019859
807.000000	76.586785
806.000000	76.031465
805.000000	75.321225
804.000000	74.415656
803.000000	73.257905
802.000000	71.791040
801.000000	69.961388
800.000000	67.722193
799.000000	65.065709
798.000000	62.054940
797.000000	58.824510
796.000000	55.538695
795.000000	52.354038
794.000000	49.402634
793.000000	46.790983
792.000000	44.601150
791.000000	42.897200
790.000000	41.733892
789.000000	41.144430
788.000000	41.128982
787.000000	41.639348
786.000000	42.587502
785.000000	43.860738
784.000000	45.317057
783.000000	46.790264
782.000000	48.110290
781.000000	49.137404
780.000000	49.785344
779.000000	50.038615
778.000000	49.958226
777.000000	49.654716
776.000000	49.231791
775.000000	48.746716
774.000000	48.225869
773.000000	47.707727
772.000000	47.273867
771.000000	47.044661
770.000000	47.148938
769.000000	47.674183
768.000000	48.627044
767.000000	49.932908
766.000000	51.476420
765.000000	53.145889
764.000000	54.844490
763.000000	56.493500
762.000000	58.041701
761.000000	59.466336
760.000000	60.755271
759.000000	61.897569
758.000000	62.896933
757.000000	63.779494
756.000000	64.583126
755.000000	65.348084
754.000000	66.119783
753.000000	66.935746
752.000000	67.794218
751.000000	68.643127
750.000000	69.405764
749.000000	70.016942
748.000000	70.445198
747.000000	70.710872
746.000000	70.895111
745.000000	71.111088
744.000000	71.444642
743.000000	71.912227
742.000000	72.461987
741.000000	72.998140
740.000000	73.411831
739.000000	73.627234
738.000000	73.644643
737.000000	73.537437
736.000000	73.402897
735.000000	73.315078
734.000000	73.308205
733.000000	73.373743
732.000000	73.462786
731.000000	73.511125
730.000000	73.478704
729.000000	73.363051
728.000000	73.178317
727.000000	72.935537
726.000000	72.641604
725.000000	72.298519
724.000000	71.894559
723.000000	71.398624
722.000000	70.753769
721.000000	69.866779
720.000000	68.623421
719.000000	66.957981
718.000000	64.928684
717.000000	62.727325
716.000000	60.622513
715.000000	58.888082
714.000000	57.750346
713.000000	57.340651
712.000000	57.653947
711.000000	58.552095
710.000000	59.827541
709.000000	61.271127
708.000000	62.701504
707.000000	63.990407
706.000000	65.102243
705.000000	66.097482
704.000000	67.074188
703.000000	68.105747
702.000000	69.217921
701.000000	70.380917
700.000000	71.503290
699.000000	72.462588
698.000000	73.176265
697.000000	73.649823
696.000000	73.961591
695.000000	74.219961
694.000000	74.529171
693.000000	74.955115
692.000000	75.495223
691.000000	76.083005
690.000000	76.631376
689.000000	77.072729
688.000000	77.371665
687.000000	77.533678
686.000000	77.605645
685.000000	77.648631
684.000000	77.706416
683.000000	77.802550
682.000000	77.958611
681.000000	78.191981
680.000000	78.490788
679.000000	78.807983
678.000000	79.083177
677.000000	79.250872
676.000000	79.274055
675.000000	79.158505
674.000000	78.966021
673.000000	78.856658
672.000000	79.068317
671.000000	79.801668
670.000000	81.049408
669.000000	82.398139
668.000000	82.946056
667.000000	82.258588
666.000000	81.061763
665.000000	80.087334
664.000000	79.489523
663.000000	79.216137
662.000000	79.210032
661.000000	79.440795
660.000000	79.820601
659.000000	80.198414
658.000000	80.440539
657.000000	80.487458
656.000000	80.358167
655.000000	80.121553
654.000000	79.879964
653.000000	79.741622
652.000000	79.757466
651.000000	79.898959
650.000000	80.096449
649.000000	80.279283
648.000000	80.381975
647.000000	80.357351
646.000000	80.211132
645.000000	79.994112
644.000000	79.749216
643.000000	79.496762
642.000000	79.269333
641.000000	79.120424
640.000000	79.082705
639.000000	79.139782
638.000000	79.241218
637.000000	79.317879
636.000000	79.281504
635.000000	79.056665
634.000000	78.648139
633.000000	78.155828
632.000000	77.710774
631.000000	77.411233
630.000000	77.299151
629.000000	77.345786
628.000000	77.442590
627.000000	77.436757
626.000000	77.214189
625.000000	76.760863
624.000000	76.150634
623.000000	75.500461
622.000000	74.934406
621.000000	74.540395
620.000000	74.320844
619.000000	74.179779
618.000000	73.966299
617.000000	73.549940
616.000000	72.883546
615.000000	72.014641
614.000000	71.039991
613.000000	70.038116
612.000000	69.036346
611.000000	68.033243
610.000000	67.020441
609.000000	65.972640
608.000000	64.843527
607.000000	63.585209
606.000000	62.163562
605.000000	60.553594
604.000000	58.749110
603.000000	56.788704
602.000000	54.743203
601.000000	52.675679
600.000000	50.634871
599.000000	48.667074
598.000000	46.788370
597.000000	44.958630
596.000000	43.129190
595.000000	41.303862
594.000000	39.521622
593.000000	37.808647
592.000000	36.204148
591.000000	34.787384
590.000000	33.610956
589.000000	32.637285
588.000000	31.781778
587.000000	30.977835
586.000000	30.153597
585.000000	29.210195
584.000000	28.100103
583.000000	26.890327
582.000000	25.703116
581.000000	24.639391
580.000000	23.800785
579.000000	23.320859
578.000000	23.283580
577.000000	23.656904
576.000000	24.341643
575.000000	25.219281
574.000000	26.135683
573.000000	26.920172
572.000000	27.499013
571.000000	27.966938
570.000000	28.514800
569.000000	29.300809
568.000000	30.384725
567.000000	31.717252
566.000000	33.146313
565.000000	34.489042
564.000000	35.642010
563.000000	36.608349
562.000000	37.434292
561.000000	38.160260
560.000000	38.834018
559.000000	39.516881
558.000000	40.246311
557.000000	41.012457
556.000000	41.783856
555.000000	42.535641
554.000000	43.241135
553.000000	43.872283
552.000000	44.431277
551.000000	44.965837
550.000000	45.537585
549.000000	46.180862
548.000000	46.895790
547.000000	47.657403
546.000000	48.415349
545.000000	49.105271
544.000000	49.681624
543.000000	50.145203
542.000000	50.542337
541.000000	50.937468
540.000000	51.382671
539.000000	51.900530
538.000000	52.479261
537.000000	53.077588
536.000000	53.637056
535.000000	54.105276
534.000000	54.461731
533.000000	54.723195
532.000000	54.925058
531.000000	55.098873
530.000000	55.264223
529.000000	55.420034
528.000000	55.533421
527.000000	55.548205
526.000000	55.406136
525.000000	55.068490
524.000000	54.525726
523.000000	53.808926
522.000000	53.006250
521.000000	52.233433
520.000000	51.564598
519.000000	50.968539
518.000000	50.281185
517.000000	49.257028
516.000000	47.693011
515.000000	45.572149
514.000000	43.110527
513.000000	40.671784
512.000000	38.634264
511.000000	37.295048
510.000000	36.796193
509.000000	37.110877
508.000000	38.126931
507.000000	39.681818
506.000000	41.554143
505.000000	43.515142
504.000000	45.408577
503.000000	47.161262
502.000000	48.729475
501.000000	50.100114
500.000000	51.318617
499.000000	52.462451
498.000000	53.577909
497.000000	54.659176
496.000000	55.670367
495.000000	56.577837
494.000000	57.377090
493.000000	58.092606
492.000000	58.757797
491.000000	59.394324
490.000000	60.013221
489.000000	60.624779
488.000000	61.227094
487.000000	61.801534
486.000000	62.335691
485.000000	62.838856
484.000000	63.320162
483.000000	63.763288
482.000000	64.147733
481.000000	64.477648
480.000000	64.764151
479.000000	65.006636
478.000000	65.211211
477.000000	65.399157
476.000000	65.562942
475.000000	65.618528
474.000000	65.427742
473.000000	64.852591
472.000000	63.825053
471.000000	62.434930
470.000000	60.950361
469.000000	59.710181
468.000000	58.966662
467.000000	58.744604
466.000000	58.781024
465.000000	58.643975
464.000000	57.968621
463.000000	56.677531
462.000000	55.107759
461.000000	53.867331
460.000000	53.506551
459.000000	54.288165
458.000000	56.074825
457.000000	58.336121
456.000000	60.475081
455.000000	62.216188
454.000000	63.590640
453.000000	64.706834
452.000000	65.604777
451.000000	66.263633
450.000000	66.656754
449.000000	66.746003
448.000000	66.441607
447.000000	65.653200
446.000000	64.442996
445.000000	63.062231
444.000000	61.844455
443.000000	61.088120
442.000000	60.953409
441.000000	61.388744
440.000000	62.182036
439.000000	63.100540
438.000000	64.004102
437.000000	64.861946
436.000000	65.653235
435.000000	66.302852
434.000000	66.747383
433.000000	66.997432
432.000000	67.082048
431.000000	67.017629
430.000000	66.865401
429.000000	66.728650
428.000000	66.652628
427.000000	66.583372
426.000000	66.462726
425.000000	66.295661
424.000000	66.095945
423.000000	65.850736
422.000000	65.587798
421.000000	65.393453
420.000000	65.314918
419.000000	65.284070
418.000000	65.212698
417.000000	65.124591
416.000000	65.052167
415.000000	64.968974
414.000000	64.890498
413.000000	64.900738
412.000000	65.034336
411.000000	65.212986
410.000000	65.355058
409.000000	65.469047
408.000000	65.578947
407.000000	65.665709
406.000000	65.755416
405.000000	65.953124
404.000000	66.286561
403.000000	66.639907
402.000000	66.916384
401.000000	67.182236
400.000000	67.500988
