PE IR       SUBTECH     SPECTRUM    ASCII       PEDS        4.00        
   -1
23ms015-cis.asc
24/10/21
15:34:04.00
24/10/21
15:34:04.00
Administrator
Sample 1316 By Administrator Date Monday, October 21 2024
400.000000
#HDR
-1
-1
#GR
cm-1
%T
1.0
0.0
4000.000000
-1.000000
3601
8
83.789867
6.947973
#DATA
4000.000000	55.202039
3999.000000	55.183562
3998.000000	55.167720
3997.000000	55.154837
3996.000000	55.145015
3995.000000	55.137777
3994.000000	55.132401
3993.000000	55.128372
3992.000000	55.125257
3991.000000	55.122376
3990.000000	55.118966
3989.000000	55.114910
3988.000000	55.111240
3987.000000	55.109713
3986.000000	55.112124
3985.000000	55.119924
3984.000000	55.133988
3983.000000	55.154514
3982.000000	55.180967
3981.000000	55.212526
3980.000000	55.248600
3979.000000	55.288887
3978.000000	55.333240
3977.000000	55.381232
3976.000000	55.432030
3975.000000	55.484523
3974.000000	55.537302
3973.000000	55.588963
3972.000000	55.638561
3971.000000	55.685975
3970.000000	55.731633
3969.000000	55.775847
3968.000000	55.819035
3967.000000	55.862071
3966.000000	55.906326
3965.000000	55.953170
3964.000000	56.003170
3963.000000	56.055761
3962.000000	56.109825
3961.000000	56.164478
3960.000000	56.219393
3959.000000	56.274476
3958.000000	56.329207
3957.000000	56.382739
3956.000000	56.434963
3955.000000	56.486277
3954.000000	56.536775
3953.000000	56.586109
3952.000000	56.633994
3951.000000	56.680779
3950.000000	56.726525
3949.000000	56.770307
3948.000000	56.810970
3947.000000	56.848692
3946.000000	56.885644
3945.000000	56.924152
3944.000000	56.964184
3943.000000	57.003104
3942.000000	57.039343
3941.000000	57.075404
3940.000000	57.114802
3939.000000	57.157488
3938.000000	57.199890
3937.000000	57.239003
3936.000000	57.276111
3935.000000	57.314677
3934.000000	57.355977
3933.000000	57.397433
3932.000000	57.434966
3931.000000	57.466929
3930.000000	57.493812
3929.000000	57.517034
3928.000000	57.538227
3927.000000	57.558826
3926.000000	57.579459
3925.000000	57.598115
3924.000000	57.613035
3923.000000	57.627133
3922.000000	57.644427
3921.000000	57.664313
3920.000000	57.683126
3919.000000	57.699623
3918.000000	57.716045
3917.000000	57.733290
3916.000000	57.750150
3915.000000	57.766879
3914.000000	57.785987
3913.000000	57.808110
3912.000000	57.830440
3911.000000	57.850285
3910.000000	57.868610
3909.000000	57.887553
3908.000000	57.909301
3907.000000	57.934029
3906.000000	57.959810
3905.000000	57.983460
3904.000000	58.002656
3903.000000	58.021908
3902.000000	58.050247
3901.000000	58.090218
3900.000000	58.133698
3899.000000	58.170339
3898.000000	58.199656
3897.000000	58.230644
3896.000000	58.269335
3895.000000	58.314879
3894.000000	58.365226
3893.000000	58.418475
3892.000000	58.469667
3891.000000	58.511009
3890.000000	58.544466
3889.000000	58.581779
3888.000000	58.629499
3887.000000	58.681192
3886.000000	58.722178
3885.000000	58.745737
3884.000000	58.765701
3883.000000	58.799924
3882.000000	58.845215
3881.000000	58.882424
3880.000000	58.898767
3879.000000	58.901536
3878.000000	58.909297
3877.000000	58.928994
3876.000000	58.951484
3875.000000	58.965250
3874.000000	58.968762
3873.000000	58.974060
3872.000000	58.995682
3871.000000	59.032338
3870.000000	59.064530
3869.000000	59.080895
3868.000000	59.097998
3867.000000	59.133533
3866.000000	59.180126
3865.000000	59.217219
3864.000000	59.237469
3863.000000	59.254488
3862.000000	59.280778
3861.000000	59.311793
3860.000000	59.341157
3859.000000	59.370009
3858.000000	59.403735
3857.000000	59.443654
3856.000000	59.488074
3855.000000	59.533027
3854.000000	59.560894
3853.000000	59.554741
3852.000000	59.542061
3851.000000	59.562183
3850.000000	59.608958
3849.000000	59.654905
3848.000000	59.687504
3847.000000	59.712949
3846.000000	59.741250
3845.000000	59.773015
3844.000000	59.803377
3843.000000	59.830818
3842.000000	59.858758
3841.000000	59.892570
3840.000000	59.933565
3839.000000	59.972883
3838.000000	60.002703
3837.000000	60.025819
3836.000000	60.052133
3835.000000	60.086412
3834.000000	60.123805
3833.000000	60.157831
3832.000000	60.185670
3831.000000	60.209142
3830.000000	60.235732
3829.000000	60.271021
3828.000000	60.311177
3827.000000	60.347378
3826.000000	60.375187
3825.000000	60.400860
3824.000000	60.436513
3823.000000	60.484744
3822.000000	60.532122
3821.000000	60.560070
3820.000000	60.574653
3819.000000	60.604611
3818.000000	60.658008
3817.000000	60.712216
3816.000000	60.740945
3815.000000	60.744700
3814.000000	60.752843
3813.000000	60.783541
3812.000000	60.822816
3811.000000	60.853414
3810.000000	60.878861
3809.000000	60.912863
3808.000000	60.956213
3807.000000	60.993142
3806.000000	61.016731
3805.000000	61.044737
3804.000000	61.090555
3803.000000	61.143226
3802.000000	61.179536
3801.000000	61.186778
3800.000000	61.187280
3799.000000	61.213017
3798.000000	61.260112
3797.000000	61.301892
3796.000000	61.324277
3795.000000	61.337337
3794.000000	61.358457
3793.000000	61.391687
3792.000000	61.427142
3791.000000	61.457404
3790.000000	61.484882
3789.000000	61.514245
3788.000000	61.546292
3787.000000	61.579550
3786.000000	61.612119
3785.000000	61.641572
3784.000000	61.666209
3783.000000	61.688618
3782.000000	61.714232
3781.000000	61.743834
3780.000000	61.771711
3779.000000	61.793323
3778.000000	61.813513
3777.000000	61.840243
3776.000000	61.873465
3775.000000	61.905663
3774.000000	61.933138
3773.000000	61.960748
3772.000000	61.994825
3771.000000	62.033525
3770.000000	62.068213
3769.000000	62.097756
3768.000000	62.133169
3767.000000	62.180273
3766.000000	62.230995
3765.000000	62.273701
3764.000000	62.307593
3763.000000	62.343328
3762.000000	62.387243
3761.000000	62.433830
3760.000000	62.474464
3759.000000	62.509068
3758.000000	62.546666
3757.000000	62.589909
3756.000000	62.634597
3755.000000	62.678500
3754.000000	62.722524
3753.000000	62.767982
3752.000000	62.813208
3751.000000	62.855295
3750.000000	62.893446
3749.000000	62.930115
3748.000000	62.971669
3747.000000	63.024203
3746.000000	63.090044
3745.000000	63.154971
3744.000000	63.187244
3743.000000	63.197842
3742.000000	63.230778
3741.000000	63.285561
3740.000000	63.330325
3739.000000	63.353273
3738.000000	63.374526
3737.000000	63.414093
3736.000000	63.467466
3735.000000	63.519117
3734.000000	63.564148
3733.000000	63.605323
3732.000000	63.637270
3731.000000	63.657580
3730.000000	63.676754
3729.000000	63.704304
3728.000000	63.739347
3727.000000	63.774259
3726.000000	63.804530
3725.000000	63.835141
3724.000000	63.871741
3723.000000	63.910755
3722.000000	63.943960
3721.000000	63.972096
3720.000000	64.002286
3719.000000	64.036563
3718.000000	64.072748
3717.000000	64.108087
3716.000000	64.144927
3715.000000	64.189055
3714.000000	64.242468
3713.000000	64.301237
3712.000000	64.358461
3711.000000	64.411247
3710.000000	64.463172
3709.000000	64.515563
3708.000000	64.565013
3707.000000	64.609061
3706.000000	64.649271
3705.000000	64.690045
3704.000000	64.734415
3703.000000	64.781903
3702.000000	64.828787
3701.000000	64.872369
3700.000000	64.914944
3699.000000	64.959804
3698.000000	65.006194
3697.000000	65.049407
3696.000000	65.086099
3695.000000	65.120281
3694.000000	65.158154
3693.000000	65.199471
3692.000000	65.240451
3691.000000	65.281792
3690.000000	65.327413
3689.000000	65.374306
3688.000000	65.415757
3687.000000	65.454096
3686.000000	65.495695
3685.000000	65.538096
3684.000000	65.573043
3683.000000	65.598429
3682.000000	65.621799
3681.000000	65.649419
3680.000000	65.678056
3679.000000	65.703257
3678.000000	65.730739
3677.000000	65.773609
3676.000000	65.824092
3675.000000	65.856591
3674.000000	65.875234
3673.000000	65.905171
3672.000000	65.947674
3671.000000	65.988278
3670.000000	66.016274
3669.000000	66.034701
3668.000000	66.060996
3667.000000	66.099549
3666.000000	66.135436
3665.000000	66.159668
3664.000000	66.176928
3663.000000	66.195526
3662.000000	66.218781
3661.000000	66.242829
3660.000000	66.264955
3659.000000	66.288603
3658.000000	66.317939
3657.000000	66.350365
3656.000000	66.374775
3655.000000	66.388934
3654.000000	66.402000
3653.000000	66.418148
3652.000000	66.434600
3651.000000	66.452651
3650.000000	66.478578
3649.000000	66.516524
3648.000000	66.564530
3647.000000	66.613042
3646.000000	66.652113
3645.000000	66.680326
3644.000000	66.702474
3643.000000	66.722882
3642.000000	66.743463
3641.000000	66.764486
3640.000000	66.787108
3639.000000	66.810690
3638.000000	66.831351
3637.000000	66.847221
3636.000000	66.860752
3635.000000	66.873434
3634.000000	66.879314
3633.000000	66.873001
3632.000000	66.859958
3631.000000	66.854761
3630.000000	66.867198
3629.000000	66.883580
3628.000000	66.883137
3627.000000	66.872719
3626.000000	66.861714
3625.000000	66.837920
3624.000000	66.790551
3623.000000	66.725533
3622.000000	66.658215
3621.000000	66.599360
3620.000000	66.547493
3619.000000	66.493598
3618.000000	66.433066
3617.000000	66.367240
3616.000000	66.296046
3615.000000	66.217706
3614.000000	66.131001
3613.000000	66.036414
3612.000000	65.937907
3611.000000	65.841028
3610.000000	65.747787
3609.000000	65.655722
3608.000000	65.560061
3607.000000	65.457937
3606.000000	65.349173
3605.000000	65.232779
3604.000000	65.109246
3603.000000	64.983818
3602.000000	64.864428
3601.000000	64.756692
3600.000000	64.660289
3599.000000	64.570926
3598.000000	64.484245
3597.000000	64.397103
3596.000000	64.307486
3595.000000	64.213856
3594.000000	64.111646
3593.000000	63.997751
3592.000000	63.875053
3591.000000	63.753070
3590.000000	63.648206
3589.000000	63.579754
3588.000000	63.555455
3587.000000	63.561285
3586.000000	63.572395
3585.000000	63.570357
3584.000000	63.547103
3583.000000	63.502969
3582.000000	63.444018
3581.000000	63.378035
3580.000000	63.310053
3579.000000	63.241329
3578.000000	63.170841
3577.000000	63.097924
3576.000000	63.022470
3575.000000	62.943904
3574.000000	62.860155
3573.000000	62.768137
3572.000000	62.666244
3571.000000	62.554972
3570.000000	62.438467
3569.000000	62.325180
3568.000000	62.222653
3567.000000	62.129002
3566.000000	62.033889
3565.000000	61.927860
3564.000000	61.806540
3563.000000	61.670400
3562.000000	61.523448
3561.000000	61.371012
3560.000000	61.216661
3559.000000	61.060351
3558.000000	60.899585
3557.000000	60.732061
3556.000000	60.557531
3555.000000	60.377128
3554.000000	60.192001
3553.000000	60.001949
3552.000000	59.805750
3551.000000	59.601942
3550.000000	59.389287
3549.000000	59.167913
3548.000000	58.940107
3547.000000	58.709337
3546.000000	58.477031
3545.000000	58.241168
3544.000000	57.997860
3543.000000	57.743485
3542.000000	57.475772
3541.000000	57.194270
3540.000000	56.900227
3539.000000	56.594879
3538.000000	56.278862
3537.000000	55.952857
3536.000000	55.617432
3535.000000	55.271309
3534.000000	54.910692
3533.000000	54.532486
3532.000000	54.136608
3531.000000	53.724865
3530.000000	53.297984
3529.000000	52.855813
3528.000000	52.398670
3527.000000	51.926816
3526.000000	51.439221
3525.000000	50.934935
3524.000000	50.414929
3523.000000	49.880550
3522.000000	49.331333
3521.000000	48.765495
3520.000000	48.182070
3519.000000	47.580862
3518.000000	46.961408
3517.000000	46.323870
3516.000000	45.669882
3515.000000	45.001410
3514.000000	44.319570
3513.000000	43.625081
3512.000000	42.918019
3511.000000	42.196872
3510.000000	41.460614
3509.000000	40.712884
3508.000000	39.959881
3507.000000	39.202636
3506.000000	38.434916
3505.000000	37.651273
3504.000000	36.854933
3503.000000	36.055540
3502.000000	35.261271
3501.000000	34.474925
3500.000000	33.694621
3499.000000	32.915752
3498.000000	32.134891
3497.000000	31.353822
3496.000000	30.578565
3495.000000	29.813780
3494.000000	29.060814
3493.000000	28.321338
3492.000000	27.597891
3491.000000	26.889956
3490.000000	26.194615
3489.000000	25.513013
3488.000000	24.852384
3487.000000	24.219509
3486.000000	23.615337
3485.000000	23.036783
3484.000000	22.478757
3483.000000	21.934766
3482.000000	21.401224
3481.000000	20.882798
3480.000000	20.388822
3479.000000	19.922128
3478.000000	19.476037
3477.000000	19.042511
3476.000000	18.617927
3475.000000	18.200930
3474.000000	17.790135
3473.000000	17.386464
3472.000000	16.994099
3471.000000	16.618096
3470.000000	16.265774
3469.000000	15.949204
3468.000000	15.680785
3467.000000	15.465027
3466.000000	15.298186
3465.000000	15.176156
3464.000000	15.097360
3463.000000	15.059951
3462.000000	15.063528
3461.000000	15.112666
3460.000000	15.213159
3459.000000	15.362964
3458.000000	15.551465
3457.000000	15.767753
3456.000000	16.003442
3455.000000	16.248893
3454.000000	16.492839
3453.000000	16.725847
3452.000000	16.939726
3451.000000	17.124034
3450.000000	17.267456
3449.000000	17.363427
3448.000000	17.410046
3447.000000	17.405014
3446.000000	17.346873
3445.000000	17.238908
3444.000000	17.087906
3443.000000	16.900090
3442.000000	16.681108
3441.000000	16.440327
3440.000000	16.189663
3439.000000	15.939268
3438.000000	15.699324
3437.000000	15.483801
3436.000000	15.306676
3435.000000	15.174081
3434.000000	15.083744
3433.000000	15.031642
3432.000000	15.017241
3431.000000	15.043009
3430.000000	15.114392
3429.000000	15.239718
3428.000000	15.424055
3427.000000	15.666093
3426.000000	15.962061
3425.000000	16.311743
3424.000000	16.718316
3423.000000	17.182130
3422.000000	17.701722
3421.000000	18.276362
3420.000000	18.903261
3419.000000	19.574958
3418.000000	20.281192
3417.000000	21.014565
3416.000000	21.769986
3415.000000	22.541367
3414.000000	23.323730
3413.000000	24.114788
3412.000000	24.911509
3411.000000	25.706909
3410.000000	26.493781
3409.000000	27.269592
3408.000000	28.033523
3407.000000	28.780527
3406.000000	29.502983
3405.000000	30.196640
3404.000000	30.861531
3403.000000	31.499847
3402.000000	32.116420
3401.000000	32.719439
3400.000000	33.315597
3399.000000	33.903530
3398.000000	34.475584
3397.000000	35.025357
3396.000000	35.550830
3395.000000	36.053017
3394.000000	36.535327
3393.000000	37.004480
3392.000000	37.467763
3391.000000	37.927672
3390.000000	38.381991
3389.000000	38.827897
3388.000000	39.264507
3387.000000	39.692340
3386.000000	40.112662
3385.000000	40.527474
3384.000000	40.937648
3383.000000	41.342003
3382.000000	41.739809
3381.000000	42.133132
3380.000000	42.525002
3379.000000	42.916371
3378.000000	43.306852
3377.000000	43.697090
3376.000000	44.087600
3375.000000	44.476131
3374.000000	44.858624
3373.000000	45.232687
3372.000000	45.598820
3371.000000	45.959157
3370.000000	46.317204
3369.000000	46.677419
3368.000000	47.042407
3367.000000	47.410461
3366.000000	47.777233
3365.000000	48.139392
3364.000000	48.495449
3363.000000	48.844602
3362.000000	49.187109
3361.000000	49.524983
3360.000000	49.860467
3359.000000	50.194072
3358.000000	50.525310
3357.000000	50.854462
3356.000000	51.181500
3355.000000	51.504409
3354.000000	51.820521
3353.000000	52.129286
3352.000000	52.432435
3351.000000	52.731613
3350.000000	53.027303
3349.000000	53.319457
3348.000000	53.607564
3347.000000	53.890515
3346.000000	54.167469
3345.000000	54.438777
3344.000000	54.704905
3343.000000	54.964747
3342.000000	55.216392
3341.000000	55.459144
3340.000000	55.694071
3339.000000	55.922944
3338.000000	56.147042
3337.000000	56.366637
3336.000000	56.580099
3335.000000	56.784051
3334.000000	56.975470
3333.000000	57.152779
3332.000000	57.314926
3331.000000	57.459683
3330.000000	57.584115
3329.000000	57.686630
3328.000000	57.766642
3327.000000	57.823652
3326.000000	57.856476
3325.000000	57.862776
3324.000000	57.838961
3323.000000	57.779525
3322.000000	57.679044
3321.000000	57.533935
3320.000000	57.340999
3319.000000	57.097187
3318.000000	56.798446
3317.000000	56.440978
3316.000000	56.019928
3315.000000	55.527147
3314.000000	54.953997
3313.000000	54.292533
3312.000000	53.535388
3311.000000	52.675500
3310.000000	51.705531
3309.000000	50.623444
3308.000000	49.430273
3307.000000	48.126869
3306.000000	46.714474
3305.000000	45.192675
3304.000000	43.561555
3303.000000	41.818585
3302.000000	39.962692
3301.000000	38.001360
3300.000000	35.949859
3299.000000	33.831027
3298.000000	31.677260
3297.000000	29.532571
3296.000000	27.446685
3295.000000	25.464655
3294.000000	23.622881
3293.000000	21.951219
3292.000000	20.469320
3291.000000	19.175611
3290.000000	18.051238
3289.000000	17.066820
3288.000000	16.189812
3287.000000	15.389554
3286.000000	14.639997
3285.000000	13.927635
3284.000000	13.247583
3283.000000	12.599627
3282.000000	11.990814
3281.000000	11.435653
3280.000000	10.952422
3279.000000	10.556187
3278.000000	10.259820
3277.000000	10.077944
3276.000000	10.020120
3275.000000	10.085406
3274.000000	10.263572
3273.000000	10.538141
3272.000000	10.886443
3271.000000	11.275541
3270.000000	11.667057
3269.000000	12.023835
3268.000000	12.311103
3267.000000	12.498699
3266.000000	12.569174
3265.000000	12.522452
3264.000000	12.371084
3263.000000	12.134876
3262.000000	11.839112
3261.000000	11.515996
3260.000000	11.197402
3259.000000	10.907316
3258.000000	10.663735
3257.000000	10.481157
3256.000000	10.366405
3255.000000	10.314416
3254.000000	10.312643
3253.000000	10.346999
3252.000000	10.404261
3251.000000	10.472755
3250.000000	10.549530
3249.000000	10.644985
3248.000000	10.773570
3247.000000	10.942650
3246.000000	11.148410
3245.000000	11.378342
3244.000000	11.614167
3243.000000	11.836187
3242.000000	12.031323
3241.000000	12.196128
3240.000000	12.331246
3239.000000	12.436071
3238.000000	12.511561
3237.000000	12.562699
3236.000000	12.595516
3235.000000	12.615039
3234.000000	12.627258
3233.000000	12.638994
3232.000000	12.650119
3231.000000	12.650504
3230.000000	12.628926
3229.000000	12.580574
3228.000000	12.504510
3227.000000	12.398028
3226.000000	12.258660
3225.000000	12.088479
3224.000000	11.890783
3223.000000	11.667215
3222.000000	11.421067
3221.000000	11.160538
3220.000000	10.895055
3219.000000	10.630202
3218.000000	10.369966
3217.000000	10.119184
3216.000000	9.880037
3215.000000	9.649771
3214.000000	9.425517
3213.000000	9.207817
3212.000000	8.996334
3211.000000	8.786811
3210.000000	8.576150
3209.000000	8.367041
3208.000000	8.163536
3207.000000	7.966476
3206.000000	7.777263
3205.000000	7.601196
3204.000000	7.443417
3203.000000	7.304790
3202.000000	7.185564
3201.000000	7.089308
3200.000000	7.018531
3199.000000	6.971777
3198.000000	6.947973
3197.000000	6.949654
3196.000000	6.978772
3195.000000	7.032240
3194.000000	7.107064
3193.000000	7.204114
3192.000000	7.323328
3191.000000	7.460786
3190.000000	7.612799
3189.000000	7.779962
3188.000000	7.962733
3187.000000	8.157106
3186.000000	8.359273
3185.000000	8.569334
3184.000000	8.787567
3183.000000	9.010921
3182.000000	9.236753
3181.000000	9.466235
3180.000000	9.699904
3179.000000	9.934340
3178.000000	10.166507
3177.000000	10.397274
3176.000000	10.627453
3175.000000	10.854441
3174.000000	11.076169
3173.000000	11.294216
3172.000000	11.509961
3171.000000	11.721722
3170.000000	11.929004
3169.000000	12.135181
3168.000000	12.342467
3167.000000	12.548355
3166.000000	12.749878
3165.000000	12.947366
3164.000000	13.140727
3163.000000	13.326106
3162.000000	13.500042
3161.000000	13.662607
3160.000000	13.813796
3159.000000	13.950875
3158.000000	14.072200
3157.000000	14.180462
3156.000000	14.278506
3155.000000	14.366406
3154.000000	14.445782
3153.000000	14.522478
3152.000000	14.601802
3151.000000	14.684062
3150.000000	14.767955
3149.000000	14.854540
3148.000000	14.944580
3147.000000	15.035988
3146.000000	15.127090
3145.000000	15.218959
3144.000000	15.311707
3143.000000	15.402052
3142.000000	15.487392
3141.000000	15.568631
3140.000000	15.646264
3139.000000	15.717645
3138.000000	15.780524
3137.000000	15.835629
3136.000000	15.882710
3135.000000	15.917550
3134.000000	15.936009
3133.000000	15.936384
3132.000000	15.915919
3131.000000	15.868568
3130.000000	15.788868
3129.000000	15.675665
3128.000000	15.528590
3127.000000	15.346751
3126.000000	15.133526
3125.000000	14.898424
3124.000000	14.652217
3123.000000	14.402574
3122.000000	14.157149
3121.000000	13.925240
3120.000000	13.712516
3119.000000	13.517989
3118.000000	13.339138
3117.000000	13.176006
3116.000000	13.027460
3115.000000	12.888450
3114.000000	12.754008
3113.000000	12.622503
3112.000000	12.492201
3111.000000	12.359528
3110.000000	12.224257
3109.000000	12.091620
3108.000000	11.966394
3107.000000	11.849108
3106.000000	11.740530
3105.000000	11.645563
3104.000000	11.568828
3103.000000	11.511596
3102.000000	11.476492
3101.000000	11.469708
3100.000000	11.496352
3099.000000	11.556354
3098.000000	11.648759
3097.000000	11.775580
3096.000000	11.937128
3095.000000	12.129981
3094.000000	12.351086
3093.000000	12.600479
3092.000000	12.877427
3091.000000	13.177085
3090.000000	13.494996
3089.000000	13.828968
3088.000000	14.174806
3087.000000	14.525606
3086.000000	14.877491
3085.000000	15.232441
3084.000000	15.592070
3083.000000	15.953475
3082.000000	16.314041
3081.000000	16.675205
3080.000000	17.038901
3079.000000	17.404301
3078.000000	17.770804
3077.000000	18.139752
3076.000000	18.510343
3075.000000	18.878054
3074.000000	19.239727
3073.000000	19.596357
3072.000000	19.948533
3071.000000	20.293644
3070.000000	20.630163
3069.000000	20.960617
3068.000000	21.287635
3067.000000	21.610287
3066.000000	21.926869
3065.000000	22.237483
3064.000000	22.541692
3063.000000	22.837542
3062.000000	23.124760
3061.000000	23.405799
3060.000000	23.681721
3059.000000	23.950643
3058.000000	24.212232
3057.000000	24.469539
3056.000000	24.724665
3055.000000	24.976036
3054.000000	25.222046
3053.000000	25.464161
3052.000000	25.704232
3051.000000	25.942165
3050.000000	26.177692
3049.000000	26.411050
3048.000000	26.640683
3047.000000	26.863613
3046.000000	27.079869
3045.000000	27.293152
3044.000000	27.505939
3043.000000	27.717625
3042.000000	27.928351
3041.000000	28.140450
3040.000000	28.354225
3039.000000	28.566210
3038.000000	28.773827
3037.000000	28.978392
3036.000000	29.182119
3035.000000	29.385649
3034.000000	29.589900
3033.000000	29.796630
3032.000000	30.005272
3031.000000	30.212671
3030.000000	30.417420
3029.000000	30.620968
3028.000000	30.823416
3027.000000	31.022294
3026.000000	31.216983
3025.000000	31.410193
3024.000000	31.602758
3023.000000	31.790814
3022.000000	31.970091
3021.000000	32.139071
3020.000000	32.296098
3019.000000	32.436288
3018.000000	32.554217
3017.000000	32.646780
3016.000000	32.712135
3015.000000	32.750298
3014.000000	32.767349
3013.000000	32.777529
3012.000000	32.798590
3011.000000	32.846511
3010.000000	32.933682
3009.000000	33.066487
3008.000000	33.241034
3007.000000	33.442993
3006.000000	33.652666
3005.000000	33.847897
3004.000000	34.001486
3003.000000	34.081173
3002.000000	34.057903
3001.000000	33.915762
3000.000000	33.659328
2999.000000	33.317516
2998.000000	32.944284
2997.000000	32.609640
2996.000000	32.381698
2995.000000	32.310061
2994.000000	32.415121
2993.000000	32.683702
2992.000000	33.070081
2991.000000	33.511805
2990.000000	33.952830
2989.000000	34.358086
2988.000000	34.712284
2987.000000	35.011704
2986.000000	35.258836
2985.000000	35.457153
2984.000000	35.607094
2983.000000	35.707399
2982.000000	35.762799
2981.000000	35.785885
2980.000000	35.789693
2979.000000	35.779427
2978.000000	35.752071
2977.000000	35.702310
2976.000000	35.627613
2975.000000	35.533615
2974.000000	35.436905
2973.000000	35.360136
2972.000000	35.320928
2971.000000	35.323357
2970.000000	35.356411
2969.000000	35.393979
2968.000000	35.395297
2967.000000	35.314968
2966.000000	35.122664
2965.000000	34.817340
2964.000000	34.424787
2963.000000	33.983800
2962.000000	33.535500
2961.000000	33.118694
2960.000000	32.771166
2959.000000	32.530889
2958.000000	32.432251
2957.000000	32.490994
2956.000000	32.689499
2955.000000	32.981730
2954.000000	33.314750
2953.000000	33.646635
2952.000000	33.946620
2951.000000	34.192390
2950.000000	34.373452
2949.000000	34.495574
2948.000000	34.575907
2947.000000	34.630283
2946.000000	34.659667
2945.000000	34.637316
2944.000000	34.509290
2943.000000	34.221444
2942.000000	33.768643
2941.000000	33.229217
2940.000000	32.753230
2939.000000	32.504802
2938.000000	32.589957
2937.000000	33.013145
2936.000000	33.683007
2935.000000	34.464517
2934.000000	35.239433
2933.000000	35.938610
2932.000000	36.537973
2931.000000	37.041606
2930.000000	37.468425
2929.000000	37.840497
2928.000000	38.174440
2927.000000	38.478765
2926.000000	38.759258
2925.000000	39.021271
2924.000000	39.266692
2923.000000	39.493282
2922.000000	39.699558
2921.000000	39.886903
2920.000000	40.055726
2919.000000	40.204434
2918.000000	40.333078
2917.000000	40.444709
2916.000000	40.541796
2915.000000	40.624723
2914.000000	40.695077
2913.000000	40.756380
2912.000000	40.810110
2911.000000	40.854208
2910.000000	40.886146
2909.000000	40.904187
2908.000000	40.904371
2907.000000	40.878749
2906.000000	40.817759
2905.000000	40.710583
2904.000000	40.542765
2903.000000	40.298637
2902.000000	39.970261
2901.000000	39.564660
2900.000000	39.104887
2899.000000	38.629602
2898.000000	38.190218
2897.000000	37.841769
2896.000000	37.625943
2895.000000	37.559348
2894.000000	37.634732
2893.000000	37.827297
2892.000000	38.101874
2891.000000	38.421220
2890.000000	38.755706
2889.000000	39.085855
2888.000000	39.398553
2887.000000	39.684597
2886.000000	39.939888
2885.000000	40.165118
2884.000000	40.360972
2883.000000	40.527124
2882.000000	40.665697
2881.000000	40.782255
2880.000000	40.882215
2879.000000	40.969114
2878.000000	41.046922
2877.000000	41.120308
2876.000000	41.191474
2875.000000	41.259673
2874.000000	41.325329
2873.000000	41.391375
2872.000000	41.460117
2871.000000	41.532764
2870.000000	41.613133
2869.000000	41.708153
2868.000000	41.822562
2867.000000	41.955549
2866.000000	42.103256
2865.000000	42.260830
2864.000000	42.420891
2863.000000	42.574412
2862.000000	42.715693
2861.000000	42.844343
2860.000000	42.961740
2859.000000	43.068704
2858.000000	43.167877
2857.000000	43.264811
2856.000000	43.364562
2855.000000	43.469402
2854.000000	43.580288
2853.000000	43.696918
2852.000000	43.814803
2851.000000	43.925577
2850.000000	44.022404
2849.000000	44.103642
2848.000000	44.171349
2847.000000	44.229439
2846.000000	44.284012
2845.000000	44.341781
2844.000000	44.406094
2843.000000	44.476125
2842.000000	44.550434
2841.000000	44.629085
2840.000000	44.711937
2839.000000	44.797960
2838.000000	44.887123
2837.000000	44.980422
2836.000000	45.077527
2835.000000	45.176973
2834.000000	45.278928
2833.000000	45.384931
2832.000000	45.494341
2831.000000	45.603847
2830.000000	45.711129
2829.000000	45.816284
2828.000000	45.919247
2827.000000	46.018903
2826.000000	46.115464
2825.000000	46.210802
2824.000000	46.305536
2823.000000	46.398274
2822.000000	46.488391
2821.000000	46.576653
2820.000000	46.662351
2819.000000	46.742790
2818.000000	46.816688
2817.000000	46.885662
2816.000000	46.951562
2815.000000	47.014802
2814.000000	47.076037
2813.000000	47.136722
2812.000000	47.197009
2811.000000	47.255474
2810.000000	47.311648
2809.000000	47.366468
2808.000000	47.419738
2807.000000	47.469914
2806.000000	47.517281
2805.000000	47.564691
2804.000000	47.614099
2803.000000	47.664733
2802.000000	47.715428
2801.000000	47.766237
2800.000000	47.816914
2799.000000	47.866209
2798.000000	47.913711
2797.000000	47.960238
2796.000000	48.005792
2795.000000	48.049385
2794.000000	48.091447
2793.000000	48.133959
2792.000000	48.177573
2791.000000	48.220891
2790.000000	48.263033
2789.000000	48.304296
2788.000000	48.343713
2787.000000	48.378794
2786.000000	48.408779
2785.000000	48.436043
2784.000000	48.463651
2783.000000	48.493941
2782.000000	48.529807
2781.000000	48.574231
2780.000000	48.627165
2779.000000	48.685019
2778.000000	48.744180
2777.000000	48.803213
2776.000000	48.861383
2775.000000	48.917788
2774.000000	48.972886
2773.000000	49.028385
2772.000000	49.084626
2771.000000	49.140070
2770.000000	49.193810
2769.000000	49.246302
2768.000000	49.297120
2767.000000	49.344401
2766.000000	49.387321
2765.000000	49.426851
2764.000000	49.463504
2763.000000	49.496793
2762.000000	49.527460
2761.000000	49.557759
2760.000000	49.588686
2759.000000	49.619073
2758.000000	49.648060
2757.000000	49.675949
2756.000000	49.702026
2755.000000	49.724273
2754.000000	49.742452
2753.000000	49.759575
2752.000000	49.779449
2751.000000	49.804499
2750.000000	49.836118
2749.000000	49.874269
2748.000000	49.915615
2747.000000	49.954265
2746.000000	49.985772
2745.000000	50.009319
2744.000000	50.026257
2743.000000	50.038929
2742.000000	50.050956
2741.000000	50.065642
2740.000000	50.082803
2739.000000	50.099193
2738.000000	50.113093
2737.000000	50.127196
2736.000000	50.146861
2735.000000	50.177735
2734.000000	50.224962
2733.000000	50.290979
2732.000000	50.372605
2731.000000	50.462169
2730.000000	50.552374
2729.000000	50.639100
2728.000000	50.719879
2727.000000	50.792602
2726.000000	50.856696
2725.000000	50.913231
2724.000000	50.962824
2723.000000	51.005236
2722.000000	51.041081
2721.000000	51.071733
2720.000000	51.097557
2719.000000	51.118259
2718.000000	51.135421
2717.000000	51.152502
2716.000000	51.171733
2715.000000	51.193325
2714.000000	51.217870
2713.000000	51.246921
2712.000000	51.280728
2711.000000	51.317781
2710.000000	51.357083
2709.000000	51.398582
2708.000000	51.440906
2707.000000	51.481047
2706.000000	51.516914
2705.000000	51.548041
2704.000000	51.573404
2703.000000	51.591143
2702.000000	51.601169
2701.000000	51.605513
2700.000000	51.605634
2699.000000	51.601393
2698.000000	51.593186
2697.000000	51.582961
2696.000000	51.572305
2695.000000	51.561800
2694.000000	51.552670
2693.000000	51.546584
2692.000000	51.543323
2691.000000	51.541012
2690.000000	51.539307
2689.000000	51.540207
2688.000000	51.545241
2687.000000	51.554015
2686.000000	51.566080
2685.000000	51.581679
2684.000000	51.600017
2683.000000	51.619408
2682.000000	51.639869
2681.000000	51.663733
2680.000000	51.692966
2679.000000	51.727704
2678.000000	51.767593
2677.000000	51.811774
2676.000000	51.857071
2675.000000	51.898667
2674.000000	51.933372
2673.000000	51.960542
2672.000000	51.979971
2671.000000	51.991587
2670.000000	51.997905
2669.000000	52.004354
2668.000000	52.016177
2667.000000	52.036588
2666.000000	52.067636
2665.000000	52.109763
2664.000000	52.159615
2663.000000	52.210879
2662.000000	52.258205
2661.000000	52.298674
2660.000000	52.329843
2659.000000	52.349459
2658.000000	52.357935
2657.000000	52.358770
2656.000000	52.355579
2655.000000	52.350725
2654.000000	52.347379
2653.000000	52.350105
2652.000000	52.362286
2651.000000	52.384939
2650.000000	52.418427
2649.000000	52.462800
2648.000000	52.516020
2647.000000	52.573966
2646.000000	52.632979
2645.000000	52.690802
2644.000000	52.744877
2643.000000	52.792790
2642.000000	52.835215
2641.000000	52.876056
2640.000000	52.918804
2639.000000	52.964391
2638.000000	53.012615
2637.000000	53.062962
2636.000000	53.113220
2635.000000	53.159575
2634.000000	53.199375
2633.000000	53.232202
2632.000000	53.258103
2631.000000	53.277128
2630.000000	53.290880
2629.000000	53.302426
2628.000000	53.313733
2627.000000	53.324879
2626.000000	53.336191
2625.000000	53.348598
2624.000000	53.361593
2623.000000	53.373066
2622.000000	53.381839
2621.000000	53.388545
2620.000000	53.393325
2619.000000	53.394923
2618.000000	53.392422
2617.000000	53.385716
2616.000000	53.373906
2615.000000	53.355085
2614.000000	53.328569
2613.000000	53.295571
2612.000000	53.257466
2611.000000	53.215895
2610.000000	53.174818
2609.000000	53.140032
2608.000000	53.115836
2607.000000	53.103993
2606.000000	53.105622
2605.000000	53.121801
2604.000000	53.151472
2603.000000	53.190991
2602.000000	53.237010
2601.000000	53.287265
2600.000000	53.338943
2599.000000	53.388757
2598.000000	53.435115
2597.000000	53.478547
2596.000000	53.519435
2595.000000	53.557640
2594.000000	53.594576
2593.000000	53.633009
2592.000000	53.673967
2591.000000	53.715757
2590.000000	53.756180
2589.000000	53.793636
2588.000000	53.826148
2587.000000	53.851897
2586.000000	53.871597
2585.000000	53.888378
2584.000000	53.905045
2583.000000	53.923570
2582.000000	53.947143
2581.000000	53.979697
2580.000000	54.022695
2579.000000	54.074604
2578.000000	54.133689
2577.000000	54.199233
2576.000000	54.269456
2575.000000	54.341109
2574.000000	54.412153
2573.000000	54.482486
2572.000000	54.551680
2571.000000	54.618089
2570.000000	54.680677
2569.000000	54.739594
2568.000000	54.794465
2567.000000	54.844232
2566.000000	54.889399
2565.000000	54.932518
2564.000000	54.975670
2563.000000	55.019426
2562.000000	55.064259
2561.000000	55.110722
2560.000000	55.157711
2559.000000	55.202558
2558.000000	55.243724
2557.000000	55.281711
2556.000000	55.317307
2555.000000	55.351076
2554.000000	55.384898
2553.000000	55.421756
2552.000000	55.463163
2551.000000	55.508298
2550.000000	55.555748
2549.000000	55.604099
2548.000000	55.650766
2547.000000	55.692668
2546.000000	55.728793
2545.000000	55.760541
2544.000000	55.789219
2543.000000	55.815129
2542.000000	55.838986
2541.000000	55.861751
2540.000000	55.882759
2539.000000	55.899639
2538.000000	55.910694
2537.000000	55.915474
2536.000000	55.912818
2535.000000	55.901207
2534.000000	55.881146
2533.000000	55.855449
2532.000000	55.826600
2531.000000	55.795452
2530.000000	55.763092
2529.000000	55.731375
2528.000000	55.701167
2527.000000	55.672072
2526.000000	55.644162
2525.000000	55.618214
2524.000000	55.593750
2523.000000	55.568875
2522.000000	55.542363
2521.000000	55.513775
2520.000000	55.481527
2519.000000	55.442991
2518.000000	55.396987
2517.000000	55.344264
2516.000000	55.285247
2515.000000	55.220177
2514.000000	55.151871
2513.000000	55.085976
2512.000000	55.027679
2511.000000	54.980113
2510.000000	54.945802
2509.000000	54.926990
2508.000000	54.923817
2507.000000	54.933839
2506.000000	54.954823
2505.000000	54.985431
2504.000000	55.023341
2503.000000	55.065513
2502.000000	55.110205
2501.000000	55.157228
2500.000000	55.205241
2499.000000	55.251006
2498.000000	55.291820
2497.000000	55.326508
2496.000000	55.353953
2495.000000	55.373069
2494.000000	55.384828
2493.000000	55.392189
2492.000000	55.397860
2491.000000	55.403618
2490.000000	55.411694
2489.000000	55.424346
2488.000000	55.441570
2487.000000	55.461465
2486.000000	55.482980
2485.000000	55.506196
2484.000000	55.530025
2483.000000	55.552406
2482.000000	55.573073
2481.000000	55.593853
2480.000000	55.615977
2479.000000	55.639325
2478.000000	55.664616
2477.000000	55.693537
2476.000000	55.726397
2475.000000	55.762113
2474.000000	55.800909
2473.000000	55.844946
2472.000000	55.895506
2471.000000	55.951754
2470.000000	56.012513
2469.000000	56.076651
2468.000000	56.141567
2467.000000	56.203534
2466.000000	56.260374
2465.000000	56.312067
2464.000000	56.358732
2463.000000	56.400179
2462.000000	56.437698
2461.000000	56.473936
2460.000000	56.510213
2459.000000	56.545927
2458.000000	56.580293
2457.000000	56.612646
2456.000000	56.641018
2455.000000	56.662694
2454.000000	56.677157
2453.000000	56.686601
2452.000000	56.693699
2451.000000	56.700868
2450.000000	56.711416
2449.000000	56.728736
2448.000000	56.753743
2447.000000	56.785033
2446.000000	56.821638
2445.000000	56.863695
2444.000000	56.910177
2443.000000	56.958628
2442.000000	57.007406
2441.000000	57.055989
2440.000000	57.103044
2439.000000	57.146393
2438.000000	57.185257
2437.000000	57.220336
2436.000000	57.251500
2435.000000	57.277273
2434.000000	57.297064
2433.000000	57.311759
2432.000000	57.321769
2431.000000	57.326850
2430.000000	57.327453
2429.000000	57.324434
2428.000000	57.316884
2427.000000	57.302075
2426.000000	57.278296
2425.000000	57.245648
2424.000000	57.204860
2423.000000	57.157764
2422.000000	57.109198
2421.000000	57.066178
2420.000000	57.034278
2419.000000	57.016096
2418.000000	57.012387
2417.000000	57.021936
2416.000000	57.039775
2415.000000	57.058398
2414.000000	57.071643
2413.000000	57.076105
2412.000000	57.069356
2411.000000	57.049623
2410.000000	57.017515
2409.000000	56.975790
2408.000000	56.926997
2407.000000	56.872634
2406.000000	56.814850
2405.000000	56.756315
2404.000000	56.698361
2403.000000	56.641585
2402.000000	56.588333
2401.000000	56.542490
2400.000000	56.506439
2399.000000	56.480017
2398.000000	56.461897
2397.000000	56.449479
2396.000000	56.437298
2395.000000	56.418351
2394.000000	56.387687
2393.000000	56.343576
2392.000000	56.286102
2391.000000	56.217584
2390.000000	56.144107
2389.000000	56.073785
2388.000000	56.012990
2387.000000	55.965764
2386.000000	55.935988
2385.000000	55.926847
2384.000000	55.938617
2383.000000	55.968690
2382.000000	56.014759
2381.000000	56.074544
2380.000000	56.142147
2379.000000	56.208734
2378.000000	56.265238
2377.000000	56.303951
2376.000000	56.317633
2375.000000	56.301298
2374.000000	56.256232
2373.000000	56.188421
2372.000000	56.104837
2371.000000	56.013485
2370.000000	55.925128
2369.000000	55.850125
2368.000000	55.795014
2367.000000	55.763748
2366.000000	55.759227
2365.000000	55.782202
2364.000000	55.829737
2363.000000	55.898113
2362.000000	55.987173
2361.000000	56.094940
2360.000000	56.210098
2359.000000	56.316874
2358.000000	56.405485
2357.000000	56.473232
2356.000000	56.518877
2355.000000	56.541200
2354.000000	56.542756
2353.000000	56.535966
2352.000000	56.540914
2351.000000	56.568794
2350.000000	56.609979
2349.000000	56.648145
2348.000000	56.674697
2347.000000	56.692026
2346.000000	56.710547
2345.000000	56.737261
2344.000000	56.769441
2343.000000	56.797773
2342.000000	56.820634
2341.000000	56.842897
2340.000000	56.865306
2339.000000	56.884521
2338.000000	56.898218
2337.000000	56.909140
2336.000000	56.921820
2335.000000	56.941210
2334.000000	56.970033
2333.000000	57.003543
2332.000000	57.027687
2331.000000	57.024540
2330.000000	56.984898
2329.000000	56.920202
2328.000000	56.854829
2327.000000	56.812872
2326.000000	56.807751
2325.000000	56.836775
2324.000000	56.884148
2323.000000	56.927668
2322.000000	56.953253
2321.000000	56.957585
2320.000000	56.942724
2319.000000	56.912662
2318.000000	56.875217
2317.000000	56.842101
2316.000000	56.819207
2315.000000	56.801830
2314.000000	56.777755
2313.000000	56.735304
2312.000000	56.667025
2311.000000	56.572279
2310.000000	56.457995
2309.000000	56.334810
2308.000000	56.209836
2307.000000	56.084389
2306.000000	55.958957
2305.000000	55.835622
2304.000000	55.715505
2303.000000	55.596521
2302.000000	55.476148
2301.000000	55.353537
2300.000000	55.228226
2299.000000	55.100424
2298.000000	54.973785
2297.000000	54.855197
2296.000000	54.750035
2295.000000	54.660931
2294.000000	54.590808
2293.000000	54.544187
2292.000000	54.523620
2291.000000	54.528042
2290.000000	54.556014
2289.000000	54.606344
2288.000000	54.676312
2287.000000	54.760880
2286.000000	54.855902
2285.000000	54.958757
2284.000000	55.065506
2283.000000	55.170944
2282.000000	55.271965
2281.000000	55.368329
2280.000000	55.459592
2279.000000	55.544389
2278.000000	55.623416
2277.000000	55.699931
2276.000000	55.776164
2275.000000	55.852263
2274.000000	55.929146
2273.000000	56.009541
2272.000000	56.095236
2271.000000	56.186227
2270.000000	56.283671
2269.000000	56.390628
2268.000000	56.509065
2267.000000	56.638327
2266.000000	56.777104
2265.000000	56.924384
2264.000000	57.077307
2263.000000	57.230895
2262.000000	57.380649
2261.000000	57.523692
2260.000000	57.657481
2259.000000	57.779985
2258.000000	57.891988
2257.000000	57.996705
2256.000000	58.096690
2255.000000	58.192873
2254.000000	58.286704
2253.000000	58.380311
2252.000000	58.473903
2251.000000	58.565679
2250.000000	58.654830
2249.000000	58.742247
2248.000000	58.827916
2247.000000	58.910121
2246.000000	58.987901
2245.000000	59.061916
2244.000000	59.132017
2243.000000	59.196415
2242.000000	59.253932
2241.000000	59.305016
2240.000000	59.349500
2239.000000	59.385787
2238.000000	59.413138
2237.000000	59.432690
2236.000000	59.445768
2235.000000	59.453148
2234.000000	59.457007
2233.000000	59.461278
2232.000000	59.469090
2231.000000	59.481542
2230.000000	59.499117
2229.000000	59.521900
2228.000000	59.547747
2227.000000	59.572808
2226.000000	59.594981
2225.000000	59.615015
2224.000000	59.633747
2223.000000	59.650522
2222.000000	59.664893
2221.000000	59.677512
2220.000000	59.688511
2219.000000	59.697318
2218.000000	59.704954
2217.000000	59.714538
2216.000000	59.728764
2215.000000	59.748774
2214.000000	59.775858
2213.000000	59.811533
2212.000000	59.855038
2211.000000	59.902794
2210.000000	59.951234
2209.000000	59.998203
2208.000000	60.041383
2207.000000	60.077980
2206.000000	60.106904
2205.000000	60.129259
2204.000000	60.145747
2203.000000	60.155698
2202.000000	60.159274
2201.000000	60.158579
2200.000000	60.155756
2199.000000	60.152023
2198.000000	60.149191
2197.000000	60.149876
2196.000000	60.155480
2195.000000	60.165923
2194.000000	60.182094
2193.000000	60.206220
2192.000000	60.239008
2191.000000	60.278533
2190.000000	60.322570
2189.000000	60.369952
2188.000000	60.419046
2187.000000	60.467433
2186.000000	60.514131
2185.000000	60.560255
2184.000000	60.606650
2183.000000	60.652558
2182.000000	60.697168
2181.000000	60.740351
2180.000000	60.781292
2179.000000	60.818312
2178.000000	60.850745
2177.000000	60.879243
2176.000000	60.903759
2175.000000	60.923283
2174.000000	60.938017
2173.000000	60.949765
2172.000000	60.959560
2171.000000	60.966888
2170.000000	60.971811
2169.000000	60.975738
2168.000000	60.979442
2167.000000	60.982331
2166.000000	60.984402
2165.000000	60.986943
2164.000000	60.990763
2163.000000	60.995859
2162.000000	61.003276
2161.000000	61.015076
2160.000000	61.031692
2159.000000	61.051367
2158.000000	61.072819
2157.000000	61.096353
2156.000000	61.121806
2155.000000	61.147626
2154.000000	61.172807
2153.000000	61.197693
2152.000000	61.222244
2151.000000	61.245442
2150.000000	61.267026
2149.000000	61.287761
2148.000000	61.307253
2147.000000	61.323600
2146.000000	61.335844
2145.000000	61.344870
2144.000000	61.351431
2143.000000	61.355334
2142.000000	61.357177
2141.000000	61.358968
2140.000000	61.362147
2139.000000	61.366618
2138.000000	61.372140
2137.000000	61.378703
2136.000000	61.385067
2135.000000	61.388996
2134.000000	61.389580
2133.000000	61.387519
2132.000000	61.382848
2131.000000	61.374480
2130.000000	61.362535
2129.000000	61.348938
2128.000000	61.335093
2127.000000	61.320917
2126.000000	61.306724
2125.000000	61.294120
2124.000000	61.284525
2123.000000	61.279003
2122.000000	61.279894
2121.000000	61.290348
2120.000000	61.311646
2119.000000	61.342555
2118.000000	61.381166
2117.000000	61.425049
2116.000000	61.469542
2115.000000	61.508732
2114.000000	61.539218
2113.000000	61.561246
2112.000000	61.576163
2111.000000	61.585180
2110.000000	61.590732
2109.000000	61.596236
2108.000000	61.603436
2107.000000	61.611857
2106.000000	61.621370
2105.000000	61.633050
2104.000000	61.646814
2103.000000	61.660553
2102.000000	61.672260
2101.000000	61.680910
2100.000000	61.684861
2099.000000	61.681468
2098.000000	61.669364
2097.000000	61.649252
2096.000000	61.622193
2095.000000	61.589715
2094.000000	61.555767
2093.000000	61.526222
2092.000000	61.505933
2091.000000	61.498064
2090.000000	61.506010
2089.000000	61.532709
2088.000000	61.577049
2087.000000	61.633549
2086.000000	61.695940
2085.000000	61.758719
2084.000000	61.815838
2083.000000	61.861373
2082.000000	61.892661
2081.000000	61.910890
2080.000000	61.918142
2079.000000	61.915835
2078.000000	61.906395
2077.000000	61.892999
2076.000000	61.876311
2075.000000	61.854174
2074.000000	61.824526
2073.000000	61.786997
2072.000000	61.741168
2071.000000	61.685915
2070.000000	61.622350
2069.000000	61.554377
2068.000000	61.485009
2067.000000	61.414194
2066.000000	61.341159
2065.000000	61.266594
2064.000000	61.190954
2063.000000	61.113036
2062.000000	61.031704
2061.000000	60.947039
2060.000000	60.859258
2059.000000	60.768798
2058.000000	60.678168
2057.000000	60.591432
2056.000000	60.511000
2055.000000	60.437026
2054.000000	60.369921
2053.000000	60.310779
2052.000000	60.259021
2051.000000	60.212573
2050.000000	60.171115
2049.000000	60.136648
2048.000000	60.109969
2047.000000	60.089621
2046.000000	60.075422
2045.000000	60.068959
2044.000000	60.069855
2043.000000	60.075178
2042.000000	60.083543
2041.000000	60.096908
2040.000000	60.117142
2039.000000	60.144526
2038.000000	60.180457
2037.000000	60.227706
2036.000000	60.287109
2035.000000	60.356649
2034.000000	60.434516
2033.000000	60.519860
2032.000000	60.609876
2031.000000	60.700004
2030.000000	60.787403
2029.000000	60.871813
2028.000000	60.952508
2027.000000	61.028008
2026.000000	61.098930
2025.000000	61.168036
2024.000000	61.236742
2023.000000	61.303867
2022.000000	61.369419
2021.000000	61.435756
2020.000000	61.503887
2019.000000	61.571981
2018.000000	61.639072
2017.000000	61.707368
2016.000000	61.779357
2015.000000	61.855216
2014.000000	61.934165
2013.000000	62.015807
2012.000000	62.098946
2011.000000	62.181744
2010.000000	62.263915
2009.000000	62.346586
2008.000000	62.429477
2007.000000	62.511081
2006.000000	62.591332
2005.000000	62.671526
2004.000000	62.751568
2003.000000	62.828933
2002.000000	62.902267
2001.000000	62.971688
2000.000000	63.036834
1999.000000	63.096944
1998.000000	63.152110
1997.000000	63.204766
1996.000000	63.257865
1995.000000	63.311924
1994.000000	63.364777
1993.000000	63.414515
1992.000000	63.462163
1991.000000	63.511409
1990.000000	63.565411
1989.000000	63.624376
1988.000000	63.686475
1987.000000	63.750662
1986.000000	63.817944
1985.000000	63.889345
1984.000000	63.963880
1983.000000	64.039572
1982.000000	64.116002
1981.000000	64.193104
1980.000000	64.269834
1979.000000	64.345095
1978.000000	64.418716
1977.000000	64.491946
1976.000000	64.566059
1975.000000	64.641276
1974.000000	64.716543
1973.000000	64.790261
1972.000000	64.861058
1971.000000	64.927988
1970.000000	64.989478
1969.000000	65.042598
1968.000000	65.083925
1967.000000	65.112290
1966.000000	65.130510
1965.000000	65.142376
1964.000000	65.148767
1963.000000	65.147806
1962.000000	65.138034
1961.000000	65.120502
1960.000000	65.097924
1959.000000	65.073466
1958.000000	65.050805
1957.000000	65.033700
1956.000000	65.024654
1955.000000	65.025055
1954.000000	65.035433
1953.000000	65.055621
1952.000000	65.083763
1951.000000	65.116972
1950.000000	65.154321
1949.000000	65.194795
1948.000000	65.235181
1947.000000	65.272787
1946.000000	65.307766
1945.000000	65.340193
1944.000000	65.366383
1943.000000	65.382809
1942.000000	65.393075
1941.000000	65.405221
1940.000000	65.422129
1939.000000	65.439586
1938.000000	65.452894
1937.000000	65.461129
1936.000000	65.464987
1935.000000	65.463676
1934.000000	65.455867
1933.000000	65.442975
1932.000000	65.427036
1931.000000	65.409232
1930.000000	65.392646
1929.000000	65.379218
1928.000000	65.369998
1927.000000	65.366284
1926.000000	65.370653
1925.000000	65.383144
1924.000000	65.396577
1923.000000	65.406827
1922.000000	65.420343
1921.000000	65.443880
1920.000000	65.472027
1919.000000	65.491749
1918.000000	65.498807
1917.000000	65.501234
1916.000000	65.503698
1915.000000	65.502120
1914.000000	65.493314
1913.000000	65.480641
1912.000000	65.467598
1911.000000	65.453711
1910.000000	65.439592
1909.000000	65.428211
1908.000000	65.422781
1907.000000	65.423392
1906.000000	65.430639
1905.000000	65.447189
1904.000000	65.471826
1903.000000	65.503239
1902.000000	65.544227
1901.000000	65.596893
1900.000000	65.659055
1899.000000	65.726871
1898.000000	65.798869
1897.000000	65.873829
1896.000000	65.945102
1895.000000	66.007217
1894.000000	66.063920
1893.000000	66.121981
1892.000000	66.180069
1891.000000	66.230432
1890.000000	66.270502
1889.000000	66.306916
1888.000000	66.345753
1887.000000	66.386219
1886.000000	66.425704
1885.000000	66.463778
1884.000000	66.500396
1883.000000	66.536469
1882.000000	66.575328
1881.000000	66.618703
1880.000000	66.665063
1879.000000	66.711745
1878.000000	66.757628
1877.000000	66.803622
1876.000000	66.847609
1875.000000	66.884983
1874.000000	66.916814
1873.000000	66.949684
1872.000000	66.986775
1871.000000	67.024404
1870.000000	67.057893
1869.000000	67.088925
1868.000000	67.123701
1867.000000	67.165715
1866.000000	67.215201
1865.000000	67.270628
1864.000000	67.328103
1863.000000	67.383813
1862.000000	67.437623
1861.000000	67.491004
1860.000000	67.542746
1859.000000	67.590785
1858.000000	67.636276
1857.000000	67.681625
1856.000000	67.726406
1855.000000	67.768728
1854.000000	67.810560
1853.000000	67.853678
1852.000000	67.898916
1851.000000	67.946974
1850.000000	67.995558
1849.000000	68.043945
1848.000000	68.093742
1847.000000	68.146887
1846.000000	68.199585
1845.000000	68.242493
1844.000000	68.274102
1843.000000	68.306458
1842.000000	68.348168
1841.000000	68.395164
1840.000000	68.441445
1839.000000	68.484265
1838.000000	68.525244
1837.000000	68.565916
1836.000000	68.602776
1835.000000	68.634941
1834.000000	68.668258
1833.000000	68.708642
1832.000000	68.756659
1831.000000	68.804165
1830.000000	68.844212
1829.000000	68.885895
1828.000000	68.940000
1827.000000	69.002251
1826.000000	69.059300
1825.000000	69.106458
1824.000000	69.151490
1823.000000	69.199481
1822.000000	69.247226
1821.000000	69.292623
1820.000000	69.338888
1819.000000	69.386514
1818.000000	69.432965
1817.000000	69.477704
1816.000000	69.519410
1815.000000	69.556283
1814.000000	69.585563
1813.000000	69.606111
1812.000000	69.617355
1811.000000	69.616995
1810.000000	69.610459
1809.000000	69.607509
1808.000000	69.610089
1807.000000	69.614239
1806.000000	69.619230
1805.000000	69.627914
1804.000000	69.638397
1803.000000	69.646264
1802.000000	69.649321
1801.000000	69.652101
1800.000000	69.661162
1799.000000	69.675855
1798.000000	69.695636
1797.000000	69.721994
1796.000000	69.754834
1795.000000	69.792141
1794.000000	69.827595
1793.000000	69.852918
1792.000000	69.866568
1791.000000	69.875126
1790.000000	69.887859
1789.000000	69.909067
1788.000000	69.936853
1787.000000	69.965188
1786.000000	69.990021
1785.000000	70.012470
1784.000000	70.034158
1783.000000	70.056403
1782.000000	70.073056
1781.000000	70.078606
1780.000000	70.082103
1779.000000	70.095632
1778.000000	70.124485
1777.000000	70.164290
1776.000000	70.214101
1775.000000	70.278657
1774.000000	70.352715
1773.000000	70.420623
1772.000000	70.478962
1771.000000	70.534243
1770.000000	70.585695
1769.000000	70.632370
1768.000000	70.678462
1767.000000	70.730695
1766.000000	70.790334
1765.000000	70.852036
1764.000000	70.907789
1763.000000	70.946533
1762.000000	70.960997
1761.000000	70.963745
1760.000000	70.973320
1759.000000	70.992850
1758.000000	71.015257
1757.000000	71.033253
1756.000000	71.058144
1755.000000	71.100098
1754.000000	71.148967
1753.000000	71.190293
1752.000000	71.223508
1751.000000	71.257875
1750.000000	71.297782
1749.000000	71.336946
1748.000000	71.372204
1747.000000	71.414156
1746.000000	71.464439
1745.000000	71.515527
1744.000000	71.564403
1743.000000	71.611856
1742.000000	71.656859
1741.000000	71.692852
1740.000000	71.712233
1739.000000	71.721902
1738.000000	71.738650
1737.000000	71.769261
1736.000000	71.808339
1735.000000	71.838843
1734.000000	71.859304
1733.000000	71.889729
1732.000000	71.923340
1731.000000	71.936334
1730.000000	71.925433
1729.000000	71.902084
1728.000000	71.885195
1727.000000	71.885338
1726.000000	71.898153
1725.000000	71.917965
1724.000000	71.941730
1723.000000	71.965714
1722.000000	71.992696
1721.000000	72.024408
1720.000000	72.056061
1719.000000	72.073016
1718.000000	72.074155
1717.000000	72.087865
1716.000000	72.122964
1715.000000	72.159746
1714.000000	72.194484
1713.000000	72.235289
1712.000000	72.278371
1711.000000	72.314842
1710.000000	72.345660
1709.000000	72.378477
1708.000000	72.419804
1707.000000	72.466219
1706.000000	72.510878
1705.000000	72.557997
1704.000000	72.612024
1703.000000	72.676335
1702.000000	72.751256
1701.000000	72.821047
1700.000000	72.879396
1699.000000	72.938803
1698.000000	72.997593
1697.000000	73.046815
1696.000000	73.084765
1695.000000	73.130790
1694.000000	73.198497
1693.000000	73.267283
1692.000000	73.322159
1691.000000	73.363781
1690.000000	73.396130
1689.000000	73.415035
1688.000000	73.425158
1687.000000	73.444177
1686.000000	73.480933
1685.000000	73.514587
1684.000000	73.531097
1683.000000	73.559197
1682.000000	73.594503
1681.000000	73.601263
1680.000000	73.577118
1679.000000	73.547326
1678.000000	73.528639
1677.000000	73.506083
1676.000000	73.463126
1675.000000	73.419596
1674.000000	73.401489
1673.000000	73.397506
1672.000000	73.388709
1671.000000	73.372565
1670.000000	73.351253
1669.000000	73.315209
1668.000000	73.263476
1667.000000	73.212672
1666.000000	73.171049
1665.000000	73.128675
1664.000000	73.070381
1663.000000	73.001946
1662.000000	72.938246
1661.000000	72.863850
1660.000000	72.759936
1659.000000	72.633399
1658.000000	72.496741
1657.000000	72.346399
1656.000000	72.174858
1655.000000	71.963859
1654.000000	71.636589
1653.000000	71.157345
1652.000000	70.652190
1651.000000	70.195212
1650.000000	69.702168
1649.000000	69.025965
1648.000000	67.964020
1647.000000	66.391439
1646.000000	64.395843
1645.000000	62.150251
1644.000000	59.681219
1643.000000	56.896308
1642.000000	53.731879
1641.000000	50.274529
1640.000000	46.809573
1639.000000	43.646071
1638.000000	40.935801
1637.000000	38.737382
1636.000000	37.249736
1635.000000	36.735421
1634.000000	37.128173
1633.000000	38.133819
1632.000000	39.541850
1631.000000	41.243259
1630.000000	43.164422
1629.000000	45.234650
1628.000000	47.356016
1627.000000	49.383963
1626.000000	51.232987
1625.000000	52.973252
1624.000000	54.722793
1623.000000	56.450794
1622.000000	57.988299
1621.000000	59.254780
1620.000000	60.329302
1619.000000	61.324213
1618.000000	62.304844
1617.000000	63.278998
1616.000000	64.178370
1615.000000	64.893418
1614.000000	65.393690
1613.000000	65.751699
1612.000000	66.046140
1611.000000	66.285637
1610.000000	66.417964
1609.000000	66.411472
1608.000000	66.263738
1607.000000	65.940059
1606.000000	65.365043
1605.000000	64.467168
1604.000000	63.200133
1603.000000	61.507553
1602.000000	59.363610
1601.000000	56.882590
1600.000000	54.347791
1599.000000	52.107869
1598.000000	50.407857
1597.000000	49.296342
1596.000000	48.661560
1595.000000	48.327308
1594.000000	48.122783
1593.000000	47.935471
1592.000000	47.730255
1591.000000	47.509418
1590.000000	47.278871
1589.000000	47.043478
1588.000000	46.797477
1587.000000	46.487371
1586.000000	46.023598
1585.000000	45.362561
1584.000000	44.555506
1583.000000	43.681488
1582.000000	42.762570
1581.000000	41.793929
1580.000000	40.794433
1579.000000	39.747901
1578.000000	38.513917
1577.000000	36.891767
1576.000000	34.927972
1575.000000	33.012534
1574.000000	31.415658
1573.000000	30.064306
1572.000000	28.818729
1571.000000	27.647552
1570.000000	26.617761
1569.000000	25.822317
1568.000000	25.325084
1567.000000	25.141715
1566.000000	25.218566
1565.000000	25.457308
1564.000000	25.802030
1563.000000	26.253753
1562.000000	26.834439
1561.000000	27.586445
1560.000000	28.669428
1559.000000	30.176058
1558.000000	31.719474
1557.000000	32.893243
1556.000000	33.776076
1555.000000	34.584040
1554.000000	35.366490
1553.000000	36.049539
1552.000000	36.608646
1551.000000	37.135417
1550.000000	37.724020
1549.000000	38.389979
1548.000000	39.120047
1547.000000	39.953106
1546.000000	40.934165
1545.000000	42.026534
1544.000000	43.135999
1543.000000	44.219924
1542.000000	45.315715
1541.000000	46.463788
1540.000000	47.630321
1539.000000	48.707889
1538.000000	49.605986
1537.000000	50.337487
1536.000000	51.005056
1535.000000	51.733771
1534.000000	52.572038
1533.000000	53.429986
1532.000000	54.195805
1531.000000	54.866768
1530.000000	55.496896
1529.000000	56.106809
1528.000000	56.696787
1527.000000	57.281497
1526.000000	57.856985
1525.000000	58.384020
1524.000000	58.851757
1523.000000	59.303510
1522.000000	59.765201
1521.000000	60.193496
1520.000000	60.552532
1519.000000	60.873758
1518.000000	61.192196
1517.000000	61.503306
1516.000000	61.799898
1515.000000	62.099773
1514.000000	62.410055
1513.000000	62.714918
1512.000000	63.003286
1511.000000	63.279353
1510.000000	63.545571
1509.000000	63.798670
1508.000000	64.052542
1507.000000	64.341872
1506.000000	64.669954
1505.000000	64.974789
1504.000000	65.229135
1503.000000	65.469360
1502.000000	65.713033
1501.000000	65.943128
1500.000000	66.149891
1499.000000	66.350491
1498.000000	66.552101
1497.000000	66.741914
1496.000000	66.924034
1495.000000	67.122224
1494.000000	67.333111
1493.000000	67.530768
1492.000000	67.714988
1491.000000	67.904037
1490.000000	68.085213
1489.000000	68.221149
1488.000000	68.310588
1487.000000	68.383186
1486.000000	68.439820
1485.000000	68.442458
1484.000000	68.376003
1483.000000	68.243112
1482.000000	68.004106
1481.000000	67.603127
1480.000000	67.027277
1479.000000	66.259316
1478.000000	65.190510
1477.000000	63.707457
1476.000000	61.846049
1475.000000	59.737303
1474.000000	57.419249
1473.000000	54.935773
1472.000000	52.598613
1471.000000	50.777565
1470.000000	49.531481
1469.000000	48.726798
1468.000000	48.300406
1467.000000	48.298020
1466.000000	48.795118
1465.000000	49.764996
1464.000000	50.989151
1463.000000	52.152370
1462.000000	53.039100
1461.000000	53.577252
1460.000000	53.749729
1459.000000	53.523612
1458.000000	52.834539
1457.000000	51.778946
1456.000000	50.743049
1455.000000	50.018482
1454.000000	49.558034
1453.000000	49.224500
1452.000000	48.949879
1451.000000	48.710122
1450.000000	48.484344
1449.000000	48.266304
1448.000000	48.093483
1447.000000	48.036816
1446.000000	48.162968
1445.000000	48.520289
1444.000000	49.137961
1443.000000	50.000556
1442.000000	51.054749
1441.000000	52.240002
1440.000000	53.514062
1439.000000	54.873466
1438.000000	56.356923
1437.000000	57.946628
1436.000000	59.449520
1435.000000	60.657358
1434.000000	61.580624
1433.000000	62.359528
1432.000000	63.077022
1431.000000	63.733495
1430.000000	64.312674
1429.000000	64.818844
1428.000000	65.248781
1427.000000	65.601939
1426.000000	65.905288
1425.000000	66.190186
1424.000000	66.463299
1423.000000	66.712916
1422.000000	66.949753
1421.000000	67.203301
1420.000000	67.479330
1419.000000	67.745642
1418.000000	67.978622
1417.000000	68.187915
1416.000000	68.380299
1415.000000	68.556983
1414.000000	68.731860
1413.000000	68.922833
1412.000000	69.129075
1411.000000	69.335632
1410.000000	69.538995
1409.000000	69.745636
1408.000000	69.944614
1407.000000	70.117472
1406.000000	70.265678
1405.000000	70.399108
1404.000000	70.512046
1403.000000	70.585508
1402.000000	70.602740
1401.000000	70.528782
1400.000000	70.301148
1399.000000	69.907045
1398.000000	69.457189
1397.000000	69.115985
1396.000000	68.979522
1395.000000	69.036526
1394.000000	69.190757
1393.000000	69.339593
1392.000000	69.454995
1391.000000	69.583845
1390.000000	69.795396
1389.000000	70.128736
1388.000000	70.566147
1387.000000	71.043867
1386.000000	71.498556
1385.000000	71.899080
1384.000000	72.240433
1383.000000	72.529371
1382.000000	72.783750
1381.000000	73.020637
1380.000000	73.234041
1379.000000	73.394901
1378.000000	73.464713
1377.000000	73.381125
1376.000000	73.000243
1375.000000	72.061925
1374.000000	70.244031
1373.000000	67.320015
1372.000000	63.322632
1371.000000	58.644019
1370.000000	54.072813
1369.000000	50.643268
1368.000000	49.152079
1367.000000	49.628166
1366.000000	51.356365
1365.000000	53.381648
1364.000000	54.906544
1363.000000	55.458232
1362.000000	55.026724
1361.000000	54.117062
1360.000000	53.512709
1359.000000	53.873575
1358.000000	55.424179
1357.000000	57.868674
1356.000000	60.612210
1355.000000	63.122762
1354.000000	65.152220
1353.000000	66.711198
1352.000000	67.911138
1351.000000	68.858527
1350.000000	69.634329
1349.000000	70.289794
1348.000000	70.847868
1347.000000	71.321622
1346.000000	71.730303
1345.000000	72.088930
1344.000000	72.401127
1343.000000	72.670527
1342.000000	72.914355
1341.000000	73.151691
1340.000000	73.386540
1339.000000	73.615537
1338.000000	73.840427
1337.000000	74.060480
1336.000000	74.258992
1335.000000	74.408262
1334.000000	74.479295
1333.000000	74.424359
1332.000000	74.159835
1331.000000	73.585999
1330.000000	72.632775
1329.000000	71.289733
1328.000000	69.575425
1327.000000	67.489888
1326.000000	65.029317
1325.000000	62.301242
1324.000000	59.661939
1323.000000	57.655185
1322.000000	56.686310
1321.000000	56.720080
1320.000000	57.323523
1319.000000	58.008782
1318.000000	58.553735
1317.000000	59.020994
1316.000000	59.549611
1315.000000	60.196065
1314.000000	60.937221
1313.000000	61.763265
1312.000000	62.720950
1311.000000	63.861237
1310.000000	65.157049
1309.000000	66.478382
1308.000000	67.649993
1307.000000	68.538488
1306.000000	69.094782
1305.000000	69.317435
1304.000000	69.204324
1303.000000	68.743026
1302.000000	67.930126
1301.000000	66.805240
1300.000000	65.489457
1299.000000	64.204629
1298.000000	63.203753
1297.000000	62.623767
1296.000000	62.392105
1295.000000	62.276964
1294.000000	62.031679
1293.000000	61.502078
1292.000000	60.636164
1291.000000	59.430391
1290.000000	57.872421
1289.000000	55.952583
1288.000000	53.763597
1287.000000	51.596391
1286.000000	49.880840
1285.000000	48.973102
1284.000000	48.974342
1283.000000	49.732750
1282.000000	51.008324
1281.000000	52.614845
1280.000000	54.412016
1279.000000	56.196725
1278.000000	57.662207
1277.000000	58.509768
1276.000000	58.612854
1275.000000	58.096694
1274.000000	57.293520
1273.000000	56.621173
1272.000000	56.445892
1271.000000	56.968389
1270.000000	58.170370
1269.000000	59.850424
1268.000000	61.728522
1267.000000	63.560369
1266.000000	65.199440
1265.000000	66.597511
1264.000000	67.767594
1263.000000	68.744327
1262.000000	69.562445
1261.000000	70.250641
1260.000000	70.829908
1259.000000	71.317068
1258.000000	71.735811
1257.000000	72.110309
1256.000000	72.454761
1255.000000	72.775513
1254.000000	73.077085
1253.000000	73.362470
1252.000000	73.627085
1251.000000	73.864280
1250.000000	74.075909
1249.000000	74.269882
1248.000000	74.452064
1247.000000	74.627298
1246.000000	74.804588
1245.000000	74.991317
1244.000000	75.182672
1243.000000	75.365546
1242.000000	75.529610
1241.000000	75.667458
1240.000000	75.769541
1239.000000	75.829182
1238.000000	75.852297
1237.000000	75.851520
1236.000000	75.833110
1235.000000	75.797849
1234.000000	75.747080
1233.000000	75.679533
1232.000000	75.584215
1231.000000	75.445787
1230.000000	75.256542
1229.000000	75.011637
1228.000000	74.700595
1227.000000	74.309712
1226.000000	73.825287
1225.000000	73.229187
1224.000000	72.484471
1223.000000	71.541871
1222.000000	70.353781
1221.000000	68.876047
1220.000000	67.083587
1219.000000	64.988529
1218.000000	62.652646
1217.000000	60.178975
1216.000000	57.696175
1215.000000	55.349181
1214.000000	53.285090
1213.000000	51.632068
1212.000000	50.482103
1211.000000	49.879217
1210.000000	49.787446
1209.000000	50.092782
1208.000000	50.636968
1207.000000	51.248526
1206.000000	51.771083
1205.000000	52.078266
1204.000000	52.089194
1203.000000	51.779286
1202.000000	51.186022
1201.000000	50.416499
1200.000000	49.647522
1199.000000	49.094388
1198.000000	48.941201
1197.000000	49.272373
1196.000000	50.063655
1195.000000	51.214903
1194.000000	52.601324
1193.000000	54.118025
1192.000000	55.690216
1191.000000	57.269532
1190.000000	58.818974
1189.000000	60.306023
1188.000000	61.703256
1187.000000	62.990262
1186.000000	64.155881
1185.000000	65.200724
1184.000000	66.134554
1183.000000	66.967588
1182.000000	67.709942
1181.000000	68.366038
1180.000000	68.934851
1179.000000	69.418127
1178.000000	69.821355
1177.000000	70.151260
1176.000000	70.406233
1175.000000	70.578784
1174.000000	70.663193
1173.000000	70.644709
1172.000000	70.493810
1171.000000	70.164588
1170.000000	69.601607
1169.000000	68.750226
1168.000000	67.566470
1167.000000	66.056524
1166.000000	64.312965
1165.000000	62.519872
1164.000000	60.920394
1163.000000	59.756530
1162.000000	59.188071
1161.000000	59.242525
1160.000000	59.826009
1159.000000	60.765881
1158.000000	61.876957
1157.000000	63.002360
1156.000000	64.032559
1155.000000	64.908850
1154.000000	65.611159
1153.000000	66.140603
1152.000000	66.503102
1151.000000	66.702589
1150.000000	66.734641
1149.000000	66.588291
1148.000000	66.234721
1147.000000	65.631925
1146.000000	64.732335
1145.000000	63.469401
1144.000000	61.769450
1143.000000	59.566158
1142.000000	56.839534
1141.000000	53.662606
1140.000000	50.221565
1139.000000	46.793529
1138.000000	43.642218
1137.000000	40.899748
1136.000000	38.529023
1135.000000	36.401872
1134.000000	34.424114
1133.000000	32.665825
1132.000000	31.404021
1131.000000	31.005261
1130.000000	31.743582
1129.000000	33.627148
1128.000000	36.370632
1127.000000	39.477520
1126.000000	42.361494
1125.000000	44.476921
1124.000000	45.429914
1123.000000	45.065656
1122.000000	43.511221
1121.000000	41.129290
1120.000000	38.334908
1119.000000	35.440507
1118.000000	32.656959
1117.000000	30.250049
1116.000000	28.648538
1115.000000	28.320386
1114.000000	29.473976
1113.000000	31.876240
1112.000000	34.936332
1111.000000	37.918261
1110.000000	40.208540
1109.000000	41.545095
1108.000000	42.098092
1107.000000	42.310012
1106.000000	42.579561
1105.000000	43.041744
1104.000000	43.609766
1103.000000	44.144261
1102.000000	44.503319
1101.000000	44.502967
1100.000000	43.960545
1099.000000	42.898399
1098.000000	41.710045
1097.000000	41.056821
1096.000000	41.503627
1095.000000	43.189822
1094.000000	45.782535
1093.000000	48.718364
1092.000000	51.518973
1091.000000	53.935355
1090.000000	55.924392
1089.000000	57.552329
1088.000000	58.911288
1087.000000	60.079897
1086.000000	61.118385
1085.000000	62.065764
1084.000000	62.933833
1083.000000	63.722355
1082.000000	64.429713
1081.000000	65.059542
1080.000000	65.615226
1079.000000	66.093349
1078.000000	66.491332
1077.000000	66.797323
1076.000000	66.980219
1075.000000	66.991439
1074.000000	66.762135
1073.000000	66.210258
1072.000000	65.212628
1071.000000	63.600275
1070.000000	61.175742
1069.000000	57.716383
1068.000000	53.068242
1067.000000	47.289049
1066.000000	40.805131
1065.000000	34.430490
1064.000000	29.138199
1063.000000	25.623062
1062.000000	23.897672
1061.000000	23.250966
1060.000000	22.665893
1059.000000	21.454260
1058.000000	19.623060
1057.000000	17.815927
1056.000000	16.887320
1055.000000	17.382050
1054.000000	19.318135
1053.000000	22.298355
1052.000000	25.803945
1051.000000	29.411650
1050.000000	32.839284
1049.000000	35.952480
1048.000000	38.734020
1047.000000	41.228210
1046.000000	43.477946
1045.000000	45.505252
1044.000000	47.316982
1043.000000	48.919381
1042.000000	50.322641
1041.000000	51.537351
1040.000000	52.585494
1039.000000	53.492158
1038.000000	54.278885
1037.000000	54.962772
1036.000000	55.555524
1035.000000	56.070222
1034.000000	56.516648
1033.000000	56.901044
1032.000000	57.231224
1031.000000	57.516930
1030.000000	57.770312
1029.000000	58.001366
1028.000000	58.216166
1027.000000	58.417135
1026.000000	58.598832
1025.000000	58.748234
1024.000000	58.846417
1023.000000	58.872066
1022.000000	58.806215
1021.000000	58.627257
1020.000000	58.312837
1019.000000	57.836426
1018.000000	57.159350
1017.000000	56.233723
1016.000000	55.004970
1015.000000	53.443425
1014.000000	51.579720
1013.000000	49.530581
1012.000000	47.494561
1011.000000	45.680073
1010.000000	44.192438
1009.000000	42.965567
1008.000000	41.832792
1007.000000	40.699856
1006.000000	39.706580
1005.000000	39.212174
1004.000000	39.591546
1003.000000	40.981079
1002.000000	43.150582
1001.000000	45.622581
1000.000000	47.894556
999.000000	49.601194
998.000000	50.567074
997.000000	50.799993
996.000000	50.476616
995.000000	49.907171
994.000000	49.454427
993.000000	49.421828
992.000000	49.969233
991.000000	51.077755
990.000000	52.574696
989.000000	54.216905
988.000000	55.796787
987.000000	57.197419
986.000000	58.392527
985.000000	59.410071
984.000000	60.294334
983.000000	61.083545
982.000000	61.804017
981.000000	62.467393
980.000000	63.072474
979.000000	63.617117
978.000000	64.101342
977.000000	64.528331
976.000000	64.903179
975.000000	65.235131
974.000000	65.540982
973.000000	65.837524
972.000000	66.134882
971.000000	66.436223
970.000000	66.739757
969.000000	67.038441
968.000000	67.319062
967.000000	67.569614
966.000000	67.787892
965.000000	67.980576
964.000000	68.157858
963.000000	68.331864
962.000000	68.516477
961.000000	68.720852
960.000000	68.942184
959.000000	69.169092
958.000000	69.389646
957.000000	69.594014
956.000000	69.774227
955.000000	69.929240
954.000000	70.069914
953.000000	70.213077
952.000000	70.370779
951.000000	70.547950
950.000000	70.745235
949.000000	70.956731
948.000000	71.166634
947.000000	71.356357
946.000000	71.516829
945.000000	71.650334
944.000000	71.764945
943.000000	71.873631
942.000000	71.994408
941.000000	72.141140
940.000000	72.312792
939.000000	72.496612
938.000000	72.678909
937.000000	72.847434
936.000000	72.988843
935.000000	73.095386
934.000000	73.175241
933.000000	73.248684
932.000000	73.333917
931.000000	73.442074
930.000000	73.579886
929.000000	73.745274
928.000000	73.920358
927.000000	74.079100
926.000000	74.204830
925.000000	74.295393
924.000000	74.356456
923.000000	74.400412
922.000000	74.449575
921.000000	74.527369
920.000000	74.642584
919.000000	74.787074
918.000000	74.946132
917.000000	75.102066
916.000000	75.231951
915.000000	75.316735
914.000000	75.357123
913.000000	75.372920
912.000000	75.385022
911.000000	75.406749
910.000000	75.443174
909.000000	75.479093
908.000000	75.464326
907.000000	75.315277
906.000000	74.944006
905.000000	74.281707
904.000000	73.301345
903.000000	72.064178
902.000000	70.763839
901.000000	69.699772
900.000000	69.158756
899.000000	69.271898
898.000000	69.948378
897.000000	70.943618
896.000000	71.988959
895.000000	72.899106
894.000000	73.603730
893.000000	74.099887
892.000000	74.400141
891.000000	74.526870
890.000000	74.545696
889.000000	74.569143
888.000000	74.702839
887.000000	74.967099
886.000000	75.265513
885.000000	75.431556
884.000000	75.325527
883.000000	74.926097
882.000000	74.345598
881.000000	73.751024
880.000000	73.245328
879.000000	72.815163
878.000000	72.397744
877.000000	71.998035
876.000000	71.740302
875.000000	71.786876
874.000000	72.203897
873.000000	72.897256
872.000000	73.679675
871.000000	74.395473
870.000000	74.989569
869.000000	75.486051
868.000000	75.925142
867.000000	76.327896
866.000000	76.692820
865.000000	77.004384
864.000000	77.240039
863.000000	77.387675
862.000000	77.460389
861.000000	77.491715
860.000000	77.519995
859.000000	77.578142
858.000000	77.689461
857.000000	77.857146
856.000000	78.056567
855.000000	78.247082
854.000000	78.393183
853.000000	78.475535
852.000000	78.492072
851.000000	78.461566
850.000000	78.423505
849.000000	78.421219
848.000000	78.480063
847.000000	78.601594
846.000000	78.770392
845.000000	78.956911
844.000000	79.119708
843.000000	79.222134
842.000000	79.253978
841.000000	79.233626
840.000000	79.193270
839.000000	79.168867
838.000000	79.194808
837.000000	79.290336
836.000000	79.445814
835.000000	79.627937
834.000000	79.798198
833.000000	79.924561
832.000000	79.985257
831.000000	79.978737
830.000000	79.932860
829.000000	79.894098
828.000000	79.903356
827.000000	79.983603
826.000000	80.139942
825.000000	80.354605
824.000000	80.582228
823.000000	80.766726
822.000000	80.871591
821.000000	80.891834
820.000000	80.845495
819.000000	80.766766
818.000000	80.699396
817.000000	80.677256
816.000000	80.700244
815.000000	80.730380
814.000000	80.705640
813.000000	80.553445
812.000000	80.213067
811.000000	79.673687
810.000000	79.003578
809.000000	78.326170
808.000000	77.751523
807.000000	77.322552
806.000000	77.002772
805.000000	76.693270
804.000000	76.263613
803.000000	75.583973
802.000000	74.557346
801.000000	73.128549
800.000000	71.281962
799.000000	69.048944
798.000000	66.505891
797.000000	63.763117
796.000000	60.940211
795.000000	58.152920
794.000000	55.508385
793.000000	53.105729
792.000000	51.038891
791.000000	49.396517
790.000000	48.257772
789.000000	47.672595
788.000000	47.652746
787.000000	48.157114
786.000000	49.094858
785.000000	50.342094
784.000000	51.750818
783.000000	53.162533
782.000000	54.422150
781.000000	55.404031
780.000000	56.032709
779.000000	56.297804
778.000000	56.253776
777.000000	55.997270
776.000000	55.625796
775.000000	55.203288
774.000000	54.763526
773.000000	54.340557
772.000000	54.002535
771.000000	53.853454
770.000000	54.004285
769.000000	54.526926
768.000000	55.426594
767.000000	56.646248
766.000000	58.096497
765.000000	59.687189
764.000000	61.334360
763.000000	62.959720
762.000000	64.492567
761.000000	65.876039
760.000000	67.071163
759.000000	68.066690
758.000000	68.891059
757.000000	69.607291
756.000000	70.289100
755.000000	70.994714
754.000000	71.753667
753.000000	72.558612
752.000000	73.363057
751.000000	74.096768
750.000000	74.695647
749.000000	75.128481
748.000000	75.406568
747.000000	75.581346
746.000000	75.731429
745.000000	75.934968
744.000000	76.238224
743.000000	76.638846
742.000000	77.089595
741.000000	77.514624
740.000000	77.832931
739.000000	77.989124
738.000000	77.976633
737.000000	77.836458
736.000000	77.636684
735.000000	77.448133
734.000000	77.322046
733.000000	77.270760
732.000000	77.261804
731.000000	77.234955
730.000000	77.131979
729.000000	76.920175
728.000000	76.601509
727.000000	76.210535
726.000000	75.800589
725.000000	75.421084
724.000000	75.094085
723.000000	74.795753
722.000000	74.439790
721.000000	73.878579
720.000000	72.950869
719.000000	71.572452
718.000000	69.802330
717.000000	67.835356
716.000000	65.943402
715.000000	64.403193
714.000000	63.431900
713.000000	63.136407
712.000000	63.489444
711.000000	64.347985
710.000000	65.511559
709.000000	66.783818
708.000000	68.010806
707.000000	69.105147
706.000000	70.059139
705.000000	70.928875
704.000000	71.789017
703.000000	72.694881
702.000000	73.665380
701.000000	74.673773
700.000000	75.647825
699.000000	76.494137
698.000000	77.140911
697.000000	77.569050
696.000000	77.817392
695.000000	77.972098
694.000000	78.139040
693.000000	78.403867
692.000000	78.802058
691.000000	79.309201
690.000000	79.851149
689.000000	80.325461
688.000000	80.638479
687.000000	80.754448
686.000000	80.708964
685.000000	80.582040
684.000000	80.471446
683.000000	80.469178
682.000000	80.628053
681.000000	80.933516
680.000000	81.309254
679.000000	81.656016
678.000000	81.881083
677.000000	81.921211
676.000000	81.786771
675.000000	81.551792
674.000000	81.323100
673.000000	81.238238
672.000000	81.441663
671.000000	82.007744
670.000000	82.854134
669.000000	83.629962
668.000000	83.789867
667.000000	83.251656
666.000000	82.542307
665.000000	82.016180
664.000000	81.700242
663.000000	81.539922
662.000000	81.527814
661.000000	81.687452
660.000000	81.986906
659.000000	82.322683
658.000000	82.580013
657.000000	82.686097
656.000000	82.619086
655.000000	82.393120
654.000000	82.084055
653.000000	81.825101
652.000000	81.722932
651.000000	81.802152
650.000000	82.023791
649.000000	82.312837
648.000000	82.555850
647.000000	82.630883
646.000000	82.489198
645.000000	82.183771
644.000000	81.808497
643.000000	81.452229
642.000000	81.201838
641.000000	81.125741
640.000000	81.222395
639.000000	81.407591
638.000000	81.569056
637.000000	81.619330
636.000000	81.500390
635.000000	81.192976
634.000000	80.752403
633.000000	80.297881
632.000000	79.941425
631.000000	79.737655
630.000000	79.687874
629.000000	79.750014
628.000000	79.833401
627.000000	79.819510
626.000000	79.624819
625.000000	79.243663
624.000000	78.728181
623.000000	78.156752
622.000000	77.624840
621.000000	77.223205
620.000000	76.988330
619.000000	76.870789
618.000000	76.753545
617.000000	76.506999
616.000000	76.046869
615.000000	75.363522
614.000000	74.512303
613.000000	73.574439
612.000000	72.621665
611.000000	71.707984
610.000000	70.859719
609.000000	70.051759
608.000000	69.207248
607.000000	68.230926
606.000000	67.047780
605.000000	65.620346
604.000000	63.960922
603.000000	62.140285
602.000000	60.253826
601.000000	58.370512
600.000000	56.526274
599.000000	54.742282
598.000000	53.008606
597.000000	51.267143
596.000000	49.461964
595.000000	47.596085
594.000000	45.705671
593.000000	43.802901
592.000000	41.904684
591.000000	40.090489
590.000000	38.473066
589.000000	37.133417
588.000000	36.107843
587.000000	35.378491
586.000000	34.813470
585.000000	34.186056
584.000000	33.341354
583.000000	32.308620
582.000000	31.224496
581.000000	30.219961
580.000000	29.422405
579.000000	28.983976
578.000000	28.999044
577.000000	29.439448
576.000000	30.206689
575.000000	31.178436
574.000000	32.190496
573.000000	33.062022
572.000000	33.718198
571.000000	34.260513
570.000000	34.886532
569.000000	35.756453
568.000000	36.928852
567.000000	38.349087
566.000000	39.852581
565.000000	41.241656
564.000000	42.405451
563.000000	43.351990
562.000000	44.141456
561.000000	44.831318
560.000000	45.484900
559.000000	46.171320
558.000000	46.922271
557.000000	47.711728
556.000000	48.492341
555.000000	49.231705
554.000000	49.904847
553.000000	50.493864
552.000000	51.016709
551.000000	51.533319
550.000000	52.102682
549.000000	52.743179
548.000000	53.441979
547.000000	54.176232
546.000000	54.908738
545.000000	55.586314
544.000000	56.164383
543.000000	56.633281
542.000000	57.021805
541.000000	57.381204
540.000000	57.765469
539.000000	58.212431
538.000000	58.727884
537.000000	59.284773
536.000000	59.835427
535.000000	60.327246
534.000000	60.716475
533.000000	60.984827
532.000000	61.148275
531.000000	61.250060
530.000000	61.340280
529.000000	61.446334
528.000000	61.551897
527.000000	61.604631
526.000000	61.532387
525.000000	61.267703
524.000000	60.775258
523.000000	60.072292
522.000000	59.238914
521.000000	58.386241
520.000000	57.594168
519.000000	56.850240
518.000000	56.013305
517.000000	54.863141
516.000000	53.227928
515.000000	51.116361
514.000000	48.739992
513.000000	46.429352
512.000000	44.528843
511.000000	43.320889
510.000000	42.946337
509.000000	43.379422
508.000000	44.510921
507.000000	46.179681
506.000000	48.156078
505.000000	50.200787
504.000000	52.163242
503.000000	53.990977
502.000000	55.647992
501.000000	57.100245
500.000000	58.362574
499.000000	59.502354
498.000000	60.579729
497.000000	61.614714
496.000000	62.596492
495.000000	63.503030
494.000000	64.319368
493.000000	65.040984
492.000000	65.675014
491.000000	66.240698
490.000000	66.767811
489.000000	67.292494
488.000000	67.834044
487.000000	68.382739
486.000000	68.911325
485.000000	69.388881
484.000000	69.784606
483.000000	70.072056
482.000000	70.250997
481.000000	70.350948
480.000000	70.394097
479.000000	70.369904
478.000000	70.247944
477.000000	70.010561
476.000000	69.661924
475.000000	69.207676
474.000000	68.640213
473.000000	67.933780
472.000000	67.068466
471.000000	66.086649
470.000000	65.121905
469.000000	64.359881
468.000000	63.960382
467.000000	63.947405
466.000000	64.121987
465.000000	64.132286
464.000000	63.673830
463.000000	62.686225
462.000000	61.459601
461.000000	60.507570
460.000000	60.302950
459.000000	61.094856
458.000000	62.787507
457.000000	64.909746
456.000000	66.911871
455.000000	68.544859
454.000000	69.838660
453.000000	70.875126
452.000000	71.665591
451.000000	72.188929
450.000000	72.444888
449.000000	72.436300
448.000000	72.123077
447.000000	71.448947
446.000000	70.449071
445.000000	69.291726
444.000000	68.233037
443.000000	67.544874
442.000000	67.404660
441.000000	67.787617
440.000000	68.507800
439.000000	69.356133
438.000000	70.195273
437.000000	70.968742
436.000000	71.636535
435.000000	72.149294
434.000000	72.495891
433.000000	72.721125
432.000000	72.858353
431.000000	72.901626
430.000000	72.859372
429.000000	72.773453
428.000000	72.667544
427.000000	72.526014
426.000000	72.346549
425.000000	72.157831
424.000000	71.973562
423.000000	71.786062
422.000000	71.607897
421.000000	71.466509
420.000000	71.353570
419.000000	71.240721
418.000000	71.155626
417.000000	71.143223
416.000000	71.171917
415.000000	71.184910
414.000000	71.191910
413.000000	71.253738
412.000000	71.381405
411.000000	71.516010
410.000000	71.623633
409.000000	71.724261
408.000000	71.812388
407.000000	71.850403
406.000000	71.872823
405.000000	71.985251
404.000000	72.216819
403.000000	72.484402
402.000000	72.738158
401.000000	73.034965
400.000000	73.396146
