PE IR       SUBTECH     SPECTRUM    ASCII       PEDS        4.00        
   -1
23ms052-trans.asc
24/10/15
15:31:26.00
24/10/15
15:31:26.00
Administrator
Sample 1270 By Administrator Date Tuesday, October 15 2024
400.000000
#HDR
-1
-1
#GR
cm-1
%T
1.0
0.0
4000.000000
-1.000000
3601
8
100.378082
10.192974
#DATA
4000.000000	67.763391
3999.000000	67.695900
3998.000000	67.633953
3997.000000	67.575791
3996.000000	67.519234
3995.000000	67.464299
3994.000000	67.412670
3993.000000	67.363778
3992.000000	67.313164
3991.000000	67.255471
3990.000000	67.187232
3989.000000	67.107353
3988.000000	67.016651
3987.000000	66.917638
3986.000000	66.814030
3985.000000	66.709432
3984.000000	66.607034
3983.000000	66.509809
3982.000000	66.420889
3981.000000	66.344705
3980.000000	66.286716
3979.000000	66.251452
3978.000000	66.242551
3977.000000	66.261753
3976.000000	66.307420
3975.000000	66.374934
3974.000000	66.459304
3973.000000	66.558958
3972.000000	66.673060
3971.000000	66.799148
3970.000000	66.932211
3969.000000	67.064631
3968.000000	67.189695
3967.000000	67.303949
3966.000000	67.406605
3965.000000	67.497377
3964.000000	67.574466
3963.000000	67.634439
3962.000000	67.676977
3961.000000	67.707588
3960.000000	67.731237
3959.000000	67.752186
3958.000000	67.774674
3957.000000	67.801184
3956.000000	67.834244
3955.000000	67.876507
3954.000000	67.931826
3953.000000	68.002449
3952.000000	68.087850
3951.000000	68.186678
3950.000000	68.292701
3949.000000	68.396464
3948.000000	68.498644
3947.000000	68.613436
3946.000000	68.750347
3945.000000	68.897839
3944.000000	69.032536
3943.000000	69.138340
3942.000000	69.220061
3941.000000	69.299550
3940.000000	69.387107
3939.000000	69.475380
3938.000000	69.555043
3937.000000	69.624340
3936.000000	69.691885
3935.000000	69.764837
3934.000000	69.845472
3933.000000	69.926385
3932.000000	69.991888
3931.000000	70.033797
3930.000000	70.056081
3929.000000	70.080952
3928.000000	70.129749
3927.000000	70.191294
3926.000000	70.236005
3925.000000	70.251412
3924.000000	70.252816
3923.000000	70.262322
3922.000000	70.284458
3921.000000	70.318690
3920.000000	70.368971
3919.000000	70.429369
3918.000000	70.482465
3917.000000	70.520791
3916.000000	70.558876
3915.000000	70.612290
3914.000000	70.676031
3913.000000	70.745121
3912.000000	70.810458
3911.000000	70.863848
3910.000000	70.907995
3909.000000	70.955890
3908.000000	71.029271
3907.000000	71.126937
3906.000000	71.216013
3905.000000	71.264250
3904.000000	71.278893
3903.000000	71.314467
3902.000000	71.407907
3901.000000	71.524658
3900.000000	71.609704
3899.000000	71.643579
3898.000000	71.644309
3897.000000	71.649934
3896.000000	71.682278
3895.000000	71.756608
3894.000000	71.867830
3893.000000	71.966119
3892.000000	71.973653
3891.000000	71.886417
3890.000000	71.814934
3889.000000	71.845711
3888.000000	71.955853
3887.000000	72.065809
3886.000000	72.097560
3885.000000	72.060657
3884.000000	72.047116
3883.000000	72.108222
3882.000000	72.199688
3881.000000	72.231710
3880.000000	72.166738
3879.000000	72.082871
3878.000000	72.080208
3877.000000	72.159735
3876.000000	72.239226
3875.000000	72.247224
3874.000000	72.212367
3873.000000	72.224545
3872.000000	72.303253
3871.000000	72.371820
3870.000000	72.356633
3869.000000	72.312002
3868.000000	72.337982
3867.000000	72.424577
3866.000000	72.514939
3865.000000	72.582881
3864.000000	72.594582
3863.000000	72.561028
3862.000000	72.528880
3861.000000	72.524594
3860.000000	72.536002
3859.000000	72.542082
3858.000000	72.561405
3857.000000	72.646973
3856.000000	72.833607
3855.000000	73.053327
3854.000000	73.081012
3853.000000	72.847054
3852.000000	72.642120
3851.000000	72.651889
3850.000000	72.755493
3849.000000	72.843459
3848.000000	72.891646
3847.000000	72.908902
3846.000000	72.922080
3845.000000	72.936044
3844.000000	72.923126
3843.000000	72.897943
3842.000000	72.899741
3841.000000	72.947392
3840.000000	73.028940
3839.000000	73.095018
3838.000000	73.104328
3837.000000	73.072576
3836.000000	73.059601
3835.000000	73.103911
3834.000000	73.178714
3833.000000	73.230967
3832.000000	73.235187
3831.000000	73.214978
3830.000000	73.226334
3829.000000	73.291089
3828.000000	73.345283
3827.000000	73.332397
3826.000000	73.286219
3825.000000	73.294630
3824.000000	73.400984
3823.000000	73.554735
3822.000000	73.619810
3821.000000	73.517649
3820.000000	73.397368
3819.000000	73.428601
3818.000000	73.582208
3817.000000	73.717239
3816.000000	73.733040
3815.000000	73.672649
3814.000000	73.645958
3813.000000	73.673327
3812.000000	73.714322
3811.000000	73.764835
3810.000000	73.854973
3809.000000	73.970063
3808.000000	74.022881
3807.000000	73.964486
3806.000000	73.883784
3805.000000	73.921631
3804.000000	74.082838
3803.000000	74.261311
3802.000000	74.324059
3801.000000	74.237898
3800.000000	74.152724
3799.000000	74.183149
3798.000000	74.281630
3797.000000	74.351723
3796.000000	74.360020
3795.000000	74.345015
3794.000000	74.355835
3793.000000	74.402214
3792.000000	74.462049
3791.000000	74.508786
3790.000000	74.538479
3789.000000	74.565264
3788.000000	74.604875
3787.000000	74.656474
3786.000000	74.693901
3785.000000	74.700868
3784.000000	74.700233
3783.000000	74.733025
3782.000000	74.807715
3781.000000	74.888199
3780.000000	74.919278
3779.000000	74.894680
3778.000000	74.869309
3777.000000	74.879274
3776.000000	74.900764
3775.000000	74.911995
3774.000000	74.932976
3773.000000	74.980903
3772.000000	75.028088
3771.000000	75.035748
3770.000000	74.997019
3769.000000	74.951865
3768.000000	74.949585
3767.000000	74.979036
3766.000000	74.990522
3765.000000	74.968720
3764.000000	74.948933
3763.000000	74.972718
3762.000000	75.030283
3761.000000	75.096237
3760.000000	75.136289
3759.000000	75.117057
3758.000000	75.062557
3757.000000	75.027579
3756.000000	75.041122
3755.000000	75.092707
3754.000000	75.170133
3753.000000	75.286822
3752.000000	75.412452
3751.000000	75.439592
3750.000000	75.339929
3749.000000	75.260534
3748.000000	75.344290
3747.000000	75.561550
3746.000000	75.802455
3745.000000	75.907577
3744.000000	75.783807
3743.000000	75.636094
3742.000000	75.629225
3741.000000	75.694205
3740.000000	75.771374
3739.000000	75.855152
3738.000000	75.952783
3737.000000	76.053434
3736.000000	76.151079
3735.000000	76.250032
3734.000000	76.328981
3733.000000	76.365998
3732.000000	76.360882
3731.000000	76.347762
3730.000000	76.370222
3729.000000	76.425334
3728.000000	76.487640
3727.000000	76.534560
3726.000000	76.561514
3725.000000	76.582062
3724.000000	76.605140
3723.000000	76.631937
3722.000000	76.640874
3721.000000	76.637884
3720.000000	76.645187
3719.000000	76.646632
3718.000000	76.631970
3717.000000	76.629368
3716.000000	76.675435
3715.000000	76.779999
3714.000000	76.921450
3713.000000	77.061608
3712.000000	77.140689
3711.000000	77.135674
3710.000000	77.105855
3709.000000	77.106474
3708.000000	77.135389
3707.000000	77.171645
3706.000000	77.213744
3705.000000	77.273932
3704.000000	77.346855
3703.000000	77.398513
3702.000000	77.390920
3701.000000	77.339864
3700.000000	77.313263
3699.000000	77.333121
3698.000000	77.362280
3697.000000	77.378884
3696.000000	77.385924
3695.000000	77.390486
3694.000000	77.398616
3693.000000	77.429252
3692.000000	77.496015
3691.000000	77.581391
3690.000000	77.637080
3689.000000	77.620432
3688.000000	77.569911
3687.000000	77.568794
3686.000000	77.622780
3685.000000	77.676630
3684.000000	77.709460
3683.000000	77.728003
3682.000000	77.731313
3681.000000	77.694887
3680.000000	77.640663
3679.000000	77.644148
3678.000000	77.736962
3677.000000	77.865843
3676.000000	77.880370
3675.000000	77.737436
3674.000000	77.632552
3673.000000	77.688977
3672.000000	77.828703
3671.000000	77.942283
3670.000000	77.936170
3669.000000	77.822510
3668.000000	77.735274
3667.000000	77.739120
3666.000000	77.775652
3665.000000	77.792492
3664.000000	77.785907
3663.000000	77.757019
3662.000000	77.706646
3661.000000	77.640106
3660.000000	77.596090
3659.000000	77.602946
3658.000000	77.625935
3657.000000	77.585196
3656.000000	77.451752
3655.000000	77.311347
3654.000000	77.237210
3653.000000	77.209109
3652.000000	77.199179
3651.000000	77.197722
3650.000000	77.160122
3649.000000	77.045568
3648.000000	76.896351
3647.000000	76.790973
3646.000000	76.737548
3645.000000	76.701373
3644.000000	76.657189
3643.000000	76.595675
3642.000000	76.518644
3641.000000	76.426572
3640.000000	76.324222
3639.000000	76.215066
3638.000000	76.109878
3637.000000	76.018400
3636.000000	75.924878
3635.000000	75.800201
3634.000000	75.642064
3633.000000	75.498963
3632.000000	75.420400
3631.000000	75.406719
3630.000000	75.375600
3629.000000	75.202817
3628.000000	74.925650
3627.000000	74.717659
3626.000000	74.612143
3625.000000	74.518641
3624.000000	74.397716
3623.000000	74.269147
3622.000000	74.151499
3621.000000	74.034759
3620.000000	73.876137
3619.000000	73.638506
3618.000000	73.371179
3617.000000	73.162950
3616.000000	73.029886
3615.000000	72.922427
3614.000000	72.791282
3613.000000	72.630916
3612.000000	72.478019
3611.000000	72.360661
3610.000000	72.263572
3609.000000	72.152872
3608.000000	72.007403
3607.000000	71.835403
3606.000000	71.665532
3605.000000	71.510758
3604.000000	71.368511
3603.000000	71.221833
3602.000000	71.049026
3601.000000	70.850282
3600.000000	70.649074
3599.000000	70.455616
3598.000000	70.272864
3597.000000	70.100192
3596.000000	69.922016
3595.000000	69.719651
3594.000000	69.487002
3593.000000	69.248096
3592.000000	69.038251
3591.000000	68.868656
3590.000000	68.724104
3589.000000	68.576249
3588.000000	68.390135
3587.000000	68.157866
3586.000000	67.922896
3585.000000	67.728257
3584.000000	67.572636
3583.000000	67.427847
3582.000000	67.274946
3581.000000	67.115667
3580.000000	66.959612
3579.000000	66.810092
3578.000000	66.663753
3577.000000	66.524769
3576.000000	66.395189
3575.000000	66.270604
3574.000000	66.145572
3573.000000	66.021148
3572.000000	65.909459
3571.000000	65.823139
3570.000000	65.766117
3569.000000	65.733583
3568.000000	65.707725
3567.000000	65.664969
3566.000000	65.609834
3565.000000	65.571564
3564.000000	65.561979
3563.000000	65.570210
3562.000000	65.583336
3561.000000	65.598067
3560.000000	65.615852
3559.000000	65.635495
3558.000000	65.653836
3557.000000	65.675138
3556.000000	65.708607
3555.000000	65.753745
3554.000000	65.798561
3553.000000	65.830421
3552.000000	65.849026
3551.000000	65.865849
3550.000000	65.889841
3549.000000	65.923303
3548.000000	65.964829
3547.000000	66.008663
3546.000000	66.046858
3545.000000	66.079571
3544.000000	66.112647
3543.000000	66.147554
3542.000000	66.179931
3541.000000	66.207507
3540.000000	66.233155
3539.000000	66.255207
3538.000000	66.270288
3537.000000	66.277726
3536.000000	66.280449
3535.000000	66.278990
3534.000000	66.270392
3533.000000	66.255185
3532.000000	66.236061
3531.000000	66.211561
3530.000000	66.173901
3529.000000	66.117919
3528.000000	66.048032
3527.000000	65.973917
3526.000000	65.902140
3525.000000	65.833794
3524.000000	65.763429
3523.000000	65.680457
3522.000000	65.579091
3521.000000	65.463153
3520.000000	65.338418
3519.000000	65.201231
3518.000000	65.044551
3517.000000	64.868913
3516.000000	64.680008
3515.000000	64.480739
3514.000000	64.271579
3513.000000	64.055080
3512.000000	63.833152
3511.000000	63.600399
3510.000000	63.348217
3509.000000	63.077907
3508.000000	62.801220
3507.000000	62.525431
3506.000000	62.246478
3505.000000	61.958765
3504.000000	61.662771
3503.000000	61.363405
3502.000000	61.066983
3501.000000	60.780319
3500.000000	60.506722
3499.000000	60.242343
3498.000000	59.981761
3497.000000	59.725478
3496.000000	59.478605
3495.000000	59.244104
3494.000000	59.023180
3493.000000	58.819277
3492.000000	58.635556
3491.000000	58.470255
3490.000000	58.319158
3489.000000	58.182793
3488.000000	58.066741
3487.000000	57.975049
3486.000000	57.908967
3485.000000	57.868526
3484.000000	57.849941
3483.000000	57.844822
3482.000000	57.848390
3481.000000	57.867800
3480.000000	57.914619
3479.000000	57.990522
3478.000000	58.086187
3477.000000	58.192621
3476.000000	58.306097
3475.000000	58.423579
3474.000000	58.542488
3473.000000	58.663938
3472.000000	58.790381
3471.000000	58.922145
3470.000000	59.059996
3469.000000	59.208154
3468.000000	59.369665
3467.000000	59.540739
3466.000000	59.715117
3465.000000	59.890249
3464.000000	60.065110
3463.000000	60.236282
3462.000000	60.402684
3461.000000	60.571027
3460.000000	60.749195
3459.000000	60.936439
3458.000000	61.126663
3457.000000	61.316410
3456.000000	61.507025
3455.000000	61.699190
3454.000000	61.890283
3453.000000	62.078696
3452.000000	62.265018
3451.000000	62.450562
3450.000000	62.635510
3449.000000	62.818195
3448.000000	62.995249
3447.000000	63.164101
3446.000000	63.328020
3445.000000	63.494057
3444.000000	63.663692
3443.000000	63.829625
3442.000000	63.984413
3441.000000	64.128973
3440.000000	64.269443
3439.000000	64.408893
3438.000000	64.547653
3437.000000	64.687483
3436.000000	64.832504
3435.000000	64.983879
3434.000000	65.136582
3433.000000	65.285295
3432.000000	65.429445
3431.000000	65.573306
3430.000000	65.721501
3429.000000	65.875987
3428.000000	66.035808
3427.000000	66.198128
3426.000000	66.361419
3425.000000	66.527298
3424.000000	66.698658
3423.000000	66.875792
3422.000000	67.056516
3421.000000	67.239354
3420.000000	67.424502
3419.000000	67.612016
3418.000000	67.800423
3417.000000	67.988103
3416.000000	68.174381
3415.000000	68.359415
3414.000000	68.544377
3413.000000	68.731263
3412.000000	68.921046
3411.000000	69.112458
3410.000000	69.303905
3409.000000	69.495872
3408.000000	69.688932
3407.000000	69.880015
3406.000000	70.064772
3405.000000	70.242164
3404.000000	70.415144
3403.000000	70.588030
3402.000000	70.766170
3401.000000	70.955750
3400.000000	71.157642
3399.000000	71.363379
3398.000000	71.561678
3397.000000	71.748756
3396.000000	71.928576
3395.000000	72.105103
3394.000000	72.280001
3393.000000	72.456648
3392.000000	72.639709
3391.000000	72.829059
3390.000000	73.019108
3389.000000	73.205032
3388.000000	73.386547
3387.000000	73.564965
3386.000000	73.741133
3385.000000	73.916547
3384.000000	74.093065
3383.000000	74.270923
3382.000000	74.449392
3381.000000	74.629452
3380.000000	74.812051
3379.000000	74.995658
3378.000000	75.178392
3377.000000	75.361534
3376.000000	75.547099
3375.000000	75.733044
3374.000000	75.915160
3373.000000	76.092924
3372.000000	76.270281
3371.000000	76.451635
3370.000000	76.640169
3369.000000	76.838168
3368.000000	77.045397
3367.000000	77.257679
3366.000000	77.470292
3365.000000	77.682053
3364.000000	77.894068
3363.000000	78.106522
3362.000000	78.319620
3361.000000	78.535959
3360.000000	78.758143
3359.000000	78.984974
3358.000000	79.212833
3357.000000	79.439817
3356.000000	79.665582
3355.000000	79.889118
3354.000000	80.110545
3353.000000	80.334014
3352.000000	80.564812
3351.000000	80.803616
3350.000000	81.045957
3349.000000	81.286104
3348.000000	81.520106
3347.000000	81.745698
3346.000000	81.963351
3345.000000	82.177067
3344.000000	82.389926
3343.000000	82.599565
3342.000000	82.800615
3341.000000	82.991308
3340.000000	83.174722
3339.000000	83.353206
3338.000000	83.523599
3337.000000	83.678573
3336.000000	83.810087
3335.000000	83.911901
3334.000000	83.981020
3333.000000	84.015914
3332.000000	84.013985
3331.000000	83.969260
3330.000000	83.874210
3329.000000	83.724231
3328.000000	83.517170
3327.000000	83.251329
3326.000000	82.923498
3325.000000	82.527966
3324.000000	82.057659
3323.000000	81.502767
3322.000000	80.854411
3321.000000	80.105230
3320.000000	79.244026
3319.000000	78.255664
3318.000000	77.120277
3317.000000	75.818337
3316.000000	74.329481
3315.000000	72.628540
3314.000000	70.695974
3313.000000	68.523517
3312.000000	66.117072
3311.000000	63.496437
3310.000000	60.693163
3309.000000	57.757478
3308.000000	54.751386
3307.000000	51.736536
3306.000000	48.770955
3305.000000	45.907122
3304.000000	43.189037
3303.000000	40.650467
3302.000000	38.319167
3301.000000	36.220678
3300.000000	34.376952
3299.000000	32.798159
3298.000000	31.488156
3297.000000	30.449295
3296.000000	29.667316
3295.000000	29.104887
3294.000000	28.703261
3293.000000	28.396548
3292.000000	28.123687
3291.000000	27.830424
3290.000000	27.484270
3289.000000	27.081688
3288.000000	26.641032
3287.000000	26.188747
3286.000000	25.748376
3285.000000	25.335846
3284.000000	24.952061
3283.000000	24.581396
3282.000000	24.202652
3281.000000	23.801204
3280.000000	23.370359
3279.000000	22.909453
3278.000000	22.429047
3277.000000	21.954694
3276.000000	21.517659
3275.000000	21.143701
3274.000000	20.852275
3273.000000	20.660404
3272.000000	20.581694
3271.000000	20.620116
3270.000000	20.773717
3269.000000	21.039112
3268.000000	21.407763
3267.000000	21.866079
3266.000000	22.397139
3265.000000	22.982317
3264.000000	23.594003
3263.000000	24.189669
3262.000000	24.719031
3261.000000	25.133573
3260.000000	25.386283
3259.000000	25.432157
3258.000000	25.240651
3257.000000	24.798758
3256.000000	24.110212
3255.000000	23.187171
3254.000000	22.050202
3253.000000	20.738458
3252.000000	19.301436
3251.000000	17.796820
3250.000000	16.292340
3249.000000	14.862478
3248.000000	13.574880
3247.000000	12.475461
3246.000000	11.587710
3245.000000	10.920782
3244.000000	10.475038
3243.000000	10.238588
3242.000000	10.192974
3241.000000	10.308753
3240.000000	10.535759
3239.000000	10.809888
3238.000000	11.069175
3237.000000	11.272856
3236.000000	11.403484
3235.000000	11.461845
3234.000000	11.464999
3233.000000	11.436984
3232.000000	11.393399
3231.000000	11.336794
3230.000000	11.270474
3229.000000	11.209745
3228.000000	11.176171
3227.000000	11.188377
3226.000000	11.262976
3225.000000	11.416628
3224.000000	11.660051
3223.000000	11.991279
3222.000000	12.400495
3221.000000	12.874692
3220.000000	13.391984
3219.000000	13.919950
3218.000000	14.424941
3217.000000	14.881525
3216.000000	15.271568
3215.000000	15.583066
3214.000000	15.816181
3213.000000	15.986373
3212.000000	16.115211
3211.000000	16.221861
3210.000000	16.326263
3209.000000	16.450969
3208.000000	16.614239
3207.000000	16.824307
3206.000000	17.084465
3205.000000	17.397934
3204.000000	17.764436
3203.000000	18.177044
3202.000000	18.627374
3201.000000	19.110124
3200.000000	19.617576
3199.000000	20.137231
3198.000000	20.657952
3197.000000	21.174186
3196.000000	21.681211
3195.000000	22.170897
3194.000000	22.635972
3193.000000	23.072923
3192.000000	23.477359
3191.000000	23.840908
3190.000000	24.158158
3189.000000	24.430842
3188.000000	24.662548
3187.000000	24.855301
3186.000000	25.012900
3185.000000	25.143779
3184.000000	25.254892
3183.000000	25.348054
3182.000000	25.425619
3181.000000	25.493040
3180.000000	25.554524
3179.000000	25.610887
3178.000000	25.666183
3177.000000	25.731463
3176.000000	25.818314
3175.000000	25.933228
3174.000000	26.081269
3173.000000	26.269600
3172.000000	26.502619
3171.000000	26.781484
3170.000000	27.109766
3169.000000	27.495456
3168.000000	27.944006
3167.000000	28.451482
3166.000000	29.010567
3165.000000	29.614921
3164.000000	30.256122
3163.000000	30.922683
3162.000000	31.604045
3161.000000	32.292391
3160.000000	32.975473
3159.000000	33.632997
3158.000000	34.240946
3157.000000	34.775883
3156.000000	35.211098
3155.000000	35.515639
3154.000000	35.662228
3153.000000	35.632737
3152.000000	35.424985
3151.000000	35.057648
3150.000000	34.575038
3149.000000	34.040307
3148.000000	33.509956
3147.000000	33.015649
3146.000000	32.560082
3145.000000	32.121466
3144.000000	31.661038
3143.000000	31.133949
3142.000000	30.508744
3141.000000	29.777361
3140.000000	28.949297
3139.000000	28.045585
3138.000000	27.098110
3137.000000	26.147987
3136.000000	25.234521
3135.000000	24.387984
3134.000000	23.633966
3133.000000	22.997341
3132.000000	22.495297
3131.000000	22.132652
3130.000000	21.909496
3129.000000	21.823427
3128.000000	21.867529
3127.000000	22.028045
3126.000000	22.290253
3125.000000	22.644007
3124.000000	23.075291
3123.000000	23.566128
3122.000000	24.101757
3121.000000	24.673412
3120.000000	25.272612
3119.000000	25.885695
3118.000000	26.500673
3117.000000	27.110748
3116.000000	27.708598
3115.000000	28.282573
3114.000000	28.821640
3113.000000	29.318251
3112.000000	29.763964
3111.000000	30.149821
3110.000000	30.471100
3109.000000	30.728793
3108.000000	30.921391
3107.000000	31.042471
3106.000000	31.089985
3105.000000	31.069440
3104.000000	30.989882
3103.000000	30.860371
3102.000000	30.695601
3101.000000	30.519575
3100.000000	30.357958
3099.000000	30.231262
3098.000000	30.155912
3097.000000	30.146051
3096.000000	30.208074
3095.000000	30.338908
3094.000000	30.531192
3093.000000	30.776812
3092.000000	31.064326
3091.000000	31.377266
3090.000000	31.700619
3089.000000	32.023679
3088.000000	32.336275
3087.000000	32.628862
3086.000000	32.898468
3085.000000	33.150285
3084.000000	33.390208
3083.000000	33.620447
3082.000000	33.844499
3081.000000	34.070673
3080.000000	34.307556
3079.000000	34.560275
3078.000000	34.832947
3077.000000	35.129227
3076.000000	35.447750
3075.000000	35.782492
3074.000000	36.129662
3073.000000	36.489743
3072.000000	36.861508
3071.000000	37.239132
3070.000000	37.618520
3069.000000	38.001059
3068.000000	38.388353
3067.000000	38.777650
3066.000000	39.164656
3065.000000	39.547224
3064.000000	39.923509
3063.000000	40.290478
3062.000000	40.646451
3061.000000	40.992033
3060.000000	41.327001
3059.000000	41.649665
3058.000000	41.961167
3057.000000	42.265880
3056.000000	42.566257
3055.000000	42.860916
3054.000000	43.148826
3053.000000	43.432066
3052.000000	43.711805
3051.000000	43.985545
3050.000000	44.250157
3049.000000	44.504314
3048.000000	44.747301
3047.000000	44.978489
3046.000000	45.199898
3045.000000	45.415938
3044.000000	45.629050
3043.000000	45.839235
3042.000000	46.048240
3041.000000	46.259915
3040.000000	46.475172
3039.000000	46.690394
3038.000000	46.902954
3037.000000	47.114821
3036.000000	47.329218
3035.000000	47.547302
3034.000000	47.769166
3033.000000	47.994203
3032.000000	48.219238
3031.000000	48.440414
3030.000000	48.658184
3029.000000	48.876502
3028.000000	49.096544
3027.000000	49.315866
3026.000000	49.534330
3025.000000	49.755597
3024.000000	49.980886
3023.000000	50.205985
3022.000000	50.426506
3021.000000	50.642275
3020.000000	50.854800
3019.000000	51.063837
3018.000000	51.268755
3017.000000	51.469965
3016.000000	51.666927
3015.000000	51.857562
3014.000000	52.041051
3013.000000	52.218504
3012.000000	52.389432
3011.000000	52.549609
3010.000000	52.694051
3009.000000	52.818134
3008.000000	52.914534
3007.000000	52.972018
3006.000000	52.976195
3005.000000	52.909317
3004.000000	52.744789
3003.000000	52.448490
3002.000000	51.995794
3001.000000	51.395193
3000.000000	50.700732
2999.000000	49.995575
2998.000000	49.358154
2997.000000	48.835111
2996.000000	48.444229
2995.000000	48.198228
2994.000000	48.115413
2993.000000	48.201916
2992.000000	48.426643
2991.000000	48.726813
2990.000000	49.037737
2989.000000	49.315634
2988.000000	49.537445
2987.000000	49.691846
2986.000000	49.775523
2985.000000	49.789153
2984.000000	49.733895
2983.000000	49.617431
2982.000000	49.468017
2981.000000	49.336683
2980.000000	49.277891
2979.000000	49.323759
2978.000000	49.474889
2977.000000	49.710179
2976.000000	50.005256
2975.000000	50.346361
2974.000000	50.730697
2973.000000	51.152949
2972.000000	51.591331
2971.000000	52.010192
2970.000000	52.373127
2969.000000	52.652850
2968.000000	52.828516
2967.000000	52.882950
2966.000000	52.802858
2965.000000	52.574383
2964.000000	52.175242
2963.000000	51.569905
2962.000000	50.725806
2961.000000	49.642667
2960.000000	48.380079
2959.000000	47.056666
2958.000000	45.809411
2957.000000	44.739248
2956.000000	43.884244
2955.000000	43.245742
2954.000000	42.823783
2953.000000	42.617950
2952.000000	42.598553
2951.000000	42.700824
2950.000000	42.859630
2949.000000	43.042494
2948.000000	43.253740
2947.000000	43.513870
2946.000000	43.838704
2945.000000	44.221537
2944.000000	44.625565
2943.000000	45.002101
2942.000000	45.324285
2941.000000	45.607940
2940.000000	45.902367
2939.000000	46.265532
2938.000000	46.742631
2937.000000	47.351260
2936.000000	48.075290
2935.000000	48.874731
2934.000000	49.705491
2933.000000	50.531602
2932.000000	51.324862
2931.000000	52.065275
2930.000000	52.744911
2929.000000	53.365434
2928.000000	53.929724
2927.000000	54.439249
2926.000000	54.899730
2925.000000	55.320742
2924.000000	55.707967
2923.000000	56.060467
2922.000000	56.376859
2921.000000	56.658561
2920.000000	56.905552
2919.000000	57.116047
2918.000000	57.291245
2917.000000	57.436097
2916.000000	57.554456
2915.000000	57.647917
2914.000000	57.720343
2913.000000	57.777618
2912.000000	57.822862
2911.000000	57.856408
2910.000000	57.881094
2909.000000	57.903112
2908.000000	57.926299
2907.000000	57.951061
2906.000000	57.978609
2905.000000	58.011216
2904.000000	58.046984
2903.000000	58.080158
2902.000000	58.107114
2901.000000	58.127318
2900.000000	58.139267
2899.000000	58.139312
2898.000000	58.126397
2897.000000	58.102078
2896.000000	58.065554
2895.000000	58.013576
2894.000000	57.946003
2893.000000	57.866103
2892.000000	57.774060
2891.000000	57.665466
2890.000000	57.537462
2889.000000	57.391912
2888.000000	57.231725
2887.000000	57.059620
2886.000000	56.882123
2885.000000	56.709549
2884.000000	56.550414
2883.000000	56.409366
2882.000000	56.291393
2881.000000	56.202741
2880.000000	56.145544
2879.000000	56.116269
2878.000000	56.110718
2877.000000	56.127011
2876.000000	56.163644
2875.000000	56.219633
2874.000000	56.297146
2873.000000	56.398454
2872.000000	56.518959
2871.000000	56.648562
2870.000000	56.782107
2869.000000	56.924497
2868.000000	57.085139
2867.000000	57.271443
2866.000000	57.487058
2865.000000	57.729612
2864.000000	57.987628
2863.000000	58.245101
2862.000000	58.491348
2861.000000	58.723412
2860.000000	58.940135
2859.000000	59.140071
2858.000000	59.326544
2857.000000	59.508779
2856.000000	59.695381
2855.000000	59.890402
2854.000000	60.095607
2853.000000	60.310511
2852.000000	60.528359
2851.000000	60.737150
2850.000000	60.927175
2849.000000	61.094713
2848.000000	61.238950
2847.000000	61.360786
2846.000000	61.465764
2845.000000	61.563024
2844.000000	61.659216
2843.000000	61.756418
2842.000000	61.856593
2841.000000	61.964053
2840.000000	62.082085
2839.000000	62.210882
2838.000000	62.349724
2837.000000	62.497658
2836.000000	62.651431
2835.000000	62.806253
2834.000000	62.959424
2833.000000	63.110440
2832.000000	63.257711
2831.000000	63.398631
2830.000000	63.533064
2829.000000	63.663189
2828.000000	63.789695
2827.000000	63.911695
2826.000000	64.030155
2825.000000	64.147341
2824.000000	64.262696
2823.000000	64.372942
2822.000000	64.476601
2821.000000	64.574733
2820.000000	64.667063
2819.000000	64.751535
2818.000000	64.828135
2817.000000	64.899358
2816.000000	64.966262
2815.000000	65.027601
2814.000000	65.083649
2813.000000	65.137581
2812.000000	65.192460
2811.000000	65.249946
2810.000000	65.311916
2809.000000	65.379703
2808.000000	65.451446
2807.000000	65.523531
2806.000000	65.594965
2805.000000	65.667201
2804.000000	65.739845
2803.000000	65.810324
2802.000000	65.877993
2801.000000	65.944851
2800.000000	66.012039
2799.000000	66.079095
2798.000000	66.146735
2797.000000	66.216618
2796.000000	66.287997
2795.000000	66.357972
2794.000000	66.425201
2793.000000	66.490004
2792.000000	66.551183
2791.000000	66.606703
2790.000000	66.657530
2789.000000	66.706791
2788.000000	66.754889
2787.000000	66.799413
2786.000000	66.840315
2785.000000	66.881260
2784.000000	66.925149
2783.000000	66.972037
2782.000000	67.021986
2781.000000	67.076051
2780.000000	67.133419
2779.000000	67.190918
2778.000000	67.246293
2777.000000	67.299078
2776.000000	67.348014
2775.000000	67.390875
2774.000000	67.427518
2773.000000	67.460098
2772.000000	67.489790
2771.000000	67.516382
2770.000000	67.541182
2769.000000	67.566836
2768.000000	67.593777
2767.000000	67.619692
2766.000000	67.642904
2765.000000	67.663410
2764.000000	67.680676
2763.000000	67.693920
2762.000000	67.705014
2761.000000	67.717953
2760.000000	67.735027
2759.000000	67.756145
2758.000000	67.781547
2757.000000	67.811609
2756.000000	67.843746
2755.000000	67.872869
2754.000000	67.895475
2753.000000	67.910684
2752.000000	67.917471
2751.000000	67.914583
2750.000000	67.903670
2749.000000	67.889293
2748.000000	67.875367
2747.000000	67.864229
2746.000000	67.858923
2745.000000	67.863101
2744.000000	67.878116
2743.000000	67.902787
2742.000000	67.936202
2741.000000	67.978102
2740.000000	68.026879
2739.000000	68.080660
2738.000000	68.139894
2737.000000	68.205921
2736.000000	68.277327
2735.000000	68.350625
2734.000000	68.424297
2733.000000	68.498763
2732.000000	68.572764
2731.000000	68.643402
2730.000000	68.709644
2729.000000	68.772307
2728.000000	68.830592
2727.000000	68.881617
2726.000000	68.923372
2725.000000	68.955545
2724.000000	68.977710
2723.000000	68.990298
2722.000000	68.997266
2721.000000	69.004426
2720.000000	69.015226
2719.000000	69.030608
2718.000000	69.052107
2717.000000	69.081617
2716.000000	69.118375
2715.000000	69.159628
2714.000000	69.204225
2713.000000	69.252317
2712.000000	69.301848
2711.000000	69.348892
2710.000000	69.391265
2709.000000	69.428596
2708.000000	69.459388
2707.000000	69.481527
2706.000000	69.495660
2705.000000	69.505102
2704.000000	69.512668
2703.000000	69.520661
2702.000000	69.533412
2701.000000	69.555893
2700.000000	69.589456
2699.000000	69.631721
2698.000000	69.679998
2697.000000	69.731573
2696.000000	69.781632
2695.000000	69.825050
2694.000000	69.860575
2693.000000	69.890391
2692.000000	69.915859
2691.000000	69.936783
2690.000000	69.954291
2689.000000	69.970690
2688.000000	69.986453
2687.000000	70.000701
2686.000000	70.014179
2685.000000	70.028514
2684.000000	70.042961
2683.000000	70.055261
2682.000000	70.065518
2681.000000	70.075803
2680.000000	70.086383
2679.000000	70.096053
2678.000000	70.106030
2677.000000	70.119825
2676.000000	70.139313
2675.000000	70.164166
2674.000000	70.194868
2673.000000	70.232879
2672.000000	70.277589
2671.000000	70.326657
2670.000000	70.379358
2669.000000	70.436283
2668.000000	70.496160
2667.000000	70.556062
2666.000000	70.614896
2665.000000	70.673775
2664.000000	70.733123
2663.000000	70.792611
2662.000000	70.853293
2661.000000	70.916442
2660.000000	70.980460
2659.000000	71.041940
2658.000000	71.099425
2657.000000	71.153346
2656.000000	71.202916
2655.000000	71.246307
2654.000000	71.283523
2653.000000	71.315577
2652.000000	71.341670
2651.000000	71.360378
2650.000000	71.373030
2649.000000	71.382953
2648.000000	71.391720
2647.000000	71.399487
2646.000000	71.408361
2645.000000	71.421708
2644.000000	71.440535
2643.000000	71.463945
2642.000000	71.492507
2641.000000	71.527655
2640.000000	71.568192
2639.000000	71.610806
2638.000000	71.653988
2637.000000	71.698090
2636.000000	71.741987
2635.000000	71.783457
2634.000000	71.822672
2633.000000	71.862150
2632.000000	71.903370
2631.000000	71.946384
2630.000000	71.992276
2629.000000	72.042478
2628.000000	72.095987
2627.000000	72.150327
2626.000000	72.204899
2625.000000	72.260300
2624.000000	72.315005
2623.000000	72.365996
2622.000000	72.412154
2621.000000	72.453849
2620.000000	72.489592
2619.000000	72.516762
2618.000000	72.535080
2617.000000	72.545993
2616.000000	72.549467
2615.000000	72.544511
2614.000000	72.532779
2613.000000	72.518111
2612.000000	72.502400
2611.000000	72.485505
2610.000000	72.468645
2609.000000	72.454569
2608.000000	72.444429
2607.000000	72.437600
2606.000000	72.434407
2605.000000	72.435934
2604.000000	72.441409
2603.000000	72.448979
2602.000000	72.458983
2601.000000	72.473011
2600.000000	72.490187
2599.000000	72.507516
2598.000000	72.523599
2597.000000	72.538912
2596.000000	72.552752
2595.000000	72.563317
2594.000000	72.570738
2593.000000	72.576936
2592.000000	72.582423
2591.000000	72.586136
2590.000000	72.587950
2589.000000	72.588496
2588.000000	72.587073
2587.000000	72.582696
2586.000000	72.576910
2585.000000	72.572729
2584.000000	72.571423
2583.000000	72.573137
2582.000000	72.579804
2581.000000	72.593970
2580.000000	72.615468
2579.000000	72.642491
2578.000000	72.674925
2577.000000	72.713583
2576.000000	72.756662
2575.000000	72.800583
2574.000000	72.844079
2573.000000	72.888026
2572.000000	72.932191
2571.000000	72.975306
2570.000000	73.017765
2569.000000	73.061122
2568.000000	73.105342
2567.000000	73.149741
2566.000000	73.195827
2565.000000	73.246013
2564.000000	73.300406
2563.000000	73.357828
2562.000000	73.419063
2561.000000	73.485580
2560.000000	73.555900
2559.000000	73.626881
2558.000000	73.697608
2557.000000	73.768666
2556.000000	73.838594
2555.000000	73.904757
2554.000000	73.967099
2553.000000	74.027371
2552.000000	74.085227
2551.000000	74.138630
2550.000000	74.187617
2549.000000	74.233696
2548.000000	74.276168
2547.000000	74.312507
2546.000000	74.342103
2545.000000	74.366645
2544.000000	74.386988
2543.000000	74.403438
2542.000000	74.418772
2541.000000	74.437440
2540.000000	74.461774
2539.000000	74.491676
2538.000000	74.527346
2537.000000	74.568967
2536.000000	74.614172
2535.000000	74.659110
2534.000000	74.702070
2533.000000	74.743261
2532.000000	74.781809
2531.000000	74.816261
2530.000000	74.847516
2529.000000	74.877872
2528.000000	74.907465
2527.000000	74.934568
2526.000000	74.958505
2525.000000	74.979370
2524.000000	74.995217
2523.000000	75.002960
2522.000000	75.001954
2521.000000	74.993314
2520.000000	74.976896
2519.000000	74.951606
2518.000000	74.918112
2517.000000	74.878330
2516.000000	74.832204
2515.000000	74.778952
2514.000000	74.720660
2513.000000	74.661510
2512.000000	74.604113
2511.000000	74.549572
2510.000000	74.500633
2509.000000	74.460973
2508.000000	74.431395
2507.000000	74.409676
2506.000000	74.394118
2505.000000	74.383722
2504.000000	74.375571
2503.000000	74.365879
2502.000000	74.353622
2501.000000	74.340737
2500.000000	74.328939
2499.000000	74.319391
2498.000000	74.315181
2497.000000	74.320083
2496.000000	74.335334
2495.000000	74.360062
2494.000000	74.394229
2493.000000	74.438361
2492.000000	74.490320
2491.000000	74.546218
2490.000000	74.603980
2489.000000	74.663354
2488.000000	74.723645
2487.000000	74.784199
2486.000000	74.846596
2485.000000	74.912815
2484.000000	74.981537
2483.000000	75.049359
2482.000000	75.114864
2481.000000	75.178740
2480.000000	75.241086
2479.000000	75.301894
2478.000000	75.363138
2477.000000	75.426686
2476.000000	75.490531
2475.000000	75.550208
2474.000000	75.603526
2473.000000	75.650672
2472.000000	75.691040
2471.000000	75.723396
2470.000000	75.748530
2469.000000	75.768673
2468.000000	75.784245
2467.000000	75.794665
2466.000000	75.801595
2465.000000	75.808018
2464.000000	75.814811
2463.000000	75.820833
2462.000000	75.825885
2461.000000	75.830437
2460.000000	75.833172
2459.000000	75.832431
2458.000000	75.829396
2457.000000	75.826842
2456.000000	75.825354
2455.000000	75.824030
2454.000000	75.824043
2453.000000	75.827984
2452.000000	75.836260
2451.000000	75.847532
2450.000000	75.862354
2449.000000	75.882604
2448.000000	75.908053
2447.000000	75.936946
2446.000000	75.969483
2445.000000	76.007486
2444.000000	76.050456
2443.000000	76.095476
2442.000000	76.140649
2441.000000	76.185453
2440.000000	76.228322
2439.000000	76.267171
2438.000000	76.302315
2437.000000	76.335886
2436.000000	76.368749
2435.000000	76.400797
2434.000000	76.433476
2433.000000	76.468650
2432.000000	76.505308
2431.000000	76.540609
2430.000000	76.573566
2429.000000	76.604684
2428.000000	76.632654
2427.000000	76.654761
2426.000000	76.670503
2425.000000	76.681459
2424.000000	76.688318
2423.000000	76.691189
2422.000000	76.692133
2421.000000	76.694106
2420.000000	76.697321
2419.000000	76.700030
2418.000000	76.702502
2417.000000	76.707078
2416.000000	76.714683
2415.000000	76.724574
2414.000000	76.736973
2413.000000	76.752394
2412.000000	76.768531
2411.000000	76.781275
2410.000000	76.788737
2409.000000	76.791207
2408.000000	76.787811
2407.000000	76.776571
2406.000000	76.757875
2405.000000	76.734143
2404.000000	76.706044
2403.000000	76.672713
2402.000000	76.634930
2401.000000	76.594649
2400.000000	76.550680
2399.000000	76.498060
2398.000000	76.432491
2397.000000	76.351081
2396.000000	76.249669
2395.000000	76.123380
2394.000000	75.970453
2393.000000	75.793850
2392.000000	75.597179
2391.000000	75.383896
2390.000000	75.160480
2389.000000	74.935174
2388.000000	74.713856
2387.000000	74.498418
2386.000000	74.291630
2385.000000	74.100177
2384.000000	73.929399
2383.000000	73.781913
2382.000000	73.658931
2381.000000	73.560960
2380.000000	73.484809
2379.000000	73.420921
2378.000000	73.359946
2377.000000	73.296021
2376.000000	73.226398
2375.000000	73.150506
2374.000000	73.076409
2373.000000	73.018191
2372.000000	72.984232
2371.000000	72.974328
2370.000000	72.986711
2369.000000	73.021312
2368.000000	73.071715
2367.000000	73.128746
2366.000000	73.187185
2365.000000	73.237308
2364.000000	73.279197
2363.000000	73.311851
2362.000000	73.327672
2361.000000	73.335693
2360.000000	73.340615
2359.000000	73.351624
2358.000000	73.377590
2357.000000	73.401342
2356.000000	73.406057
2355.000000	73.360609
2354.000000	73.235464
2353.000000	73.028362
2352.000000	72.836415
2351.000000	72.833888
2350.000000	73.116527
2349.000000	73.639876
2348.000000	74.211606
2347.000000	74.568916
2346.000000	74.577420
2345.000000	74.333067
2344.000000	74.073185
2343.000000	73.912055
2342.000000	73.843689
2341.000000	73.837614
2340.000000	73.866261
2339.000000	73.914855
2338.000000	73.971199
2337.000000	74.041674
2336.000000	74.126747
2335.000000	74.234504
2334.000000	74.349920
2333.000000	74.449816
2332.000000	74.488332
2331.000000	74.487413
2330.000000	74.471079
2329.000000	74.486491
2328.000000	74.531486
2327.000000	74.590540
2326.000000	74.641488
2325.000000	74.654108
2324.000000	74.621290
2323.000000	74.543463
2322.000000	74.438526
2321.000000	74.322868
2320.000000	74.205628
2319.000000	74.108399
2318.000000	74.035366
2317.000000	73.987401
2316.000000	73.927288
2315.000000	73.838721
2314.000000	73.707946
2313.000000	73.557358
2312.000000	73.394678
2311.000000	73.239454
2310.000000	73.091378
2309.000000	72.957149
2308.000000	72.829475
2307.000000	72.714975
2306.000000	72.616016
2305.000000	72.537435
2304.000000	72.468328
2303.000000	72.404463
2302.000000	72.340491
2301.000000	72.282096
2300.000000	72.225598
2299.000000	72.172966
2298.000000	72.120783
2297.000000	72.069823
2296.000000	72.013368
2295.000000	71.950590
2294.000000	71.884928
2293.000000	71.822916
2292.000000	71.767248
2291.000000	71.719688
2290.000000	71.683977
2289.000000	71.659769
2288.000000	71.641548
2287.000000	71.622924
2286.000000	71.604969
2285.000000	71.591002
2284.000000	71.582913
2283.000000	71.581119
2282.000000	71.589939
2281.000000	71.614709
2280.000000	71.658702
2279.000000	71.723627
2278.000000	71.811033
2277.000000	71.919981
2276.000000	72.044222
2275.000000	72.179548
2274.000000	72.326414
2273.000000	72.485798
2272.000000	72.653306
2271.000000	72.823360
2270.000000	72.994408
2269.000000	73.165814
2268.000000	73.334129
2267.000000	73.497050
2266.000000	73.656571
2265.000000	73.815185
2264.000000	73.971168
2263.000000	74.122012
2262.000000	74.269558
2261.000000	74.415975
2260.000000	74.561483
2259.000000	74.706997
2258.000000	74.857626
2257.000000	75.017881
2256.000000	75.186976
2255.000000	75.362889
2254.000000	75.545734
2253.000000	75.735675
2252.000000	75.928988
2251.000000	76.122503
2250.000000	76.316660
2249.000000	76.511943
2248.000000	76.705937
2247.000000	76.896360
2246.000000	77.083847
2245.000000	77.268095
2244.000000	77.444950
2243.000000	77.610581
2242.000000	77.764780
2241.000000	77.907624
2240.000000	78.036727
2239.000000	78.150872
2238.000000	78.252645
2237.000000	78.343969
2236.000000	78.423434
2235.000000	78.490091
2234.000000	78.546544
2233.000000	78.595202
2232.000000	78.635496
2231.000000	78.667900
2230.000000	78.696302
2229.000000	78.723522
2228.000000	78.748135
2227.000000	78.768559
2226.000000	78.786263
2225.000000	78.801802
2224.000000	78.811771
2223.000000	78.813305
2222.000000	78.807875
2221.000000	78.798111
2220.000000	78.784524
2219.000000	78.768627
2218.000000	78.755121
2217.000000	78.747511
2216.000000	78.744928
2215.000000	78.746125
2214.000000	78.753021
2213.000000	78.767156
2212.000000	78.786548
2211.000000	78.809116
2210.000000	78.835738
2209.000000	78.867054
2208.000000	78.900962
2207.000000	78.936076
2206.000000	78.973313
2205.000000	79.011036
2204.000000	79.042666
2203.000000	79.062831
2202.000000	79.072987
2201.000000	79.079186
2200.000000	79.088659
2199.000000	79.111211
2198.000000	79.157968
2197.000000	79.233681
2196.000000	79.332475
2195.000000	79.443800
2194.000000	79.559085
2193.000000	79.670839
2192.000000	79.771497
2191.000000	79.857461
2190.000000	79.930921
2189.000000	79.994175
2188.000000	80.045703
2187.000000	80.084363
2186.000000	80.112719
2185.000000	80.133301
2184.000000	80.145717
2183.000000	80.150834
2182.000000	80.153485
2181.000000	80.157712
2180.000000	80.163056
2179.000000	80.168311
2178.000000	80.175004
2177.000000	80.184016
2176.000000	80.193008
2175.000000	80.200212
2174.000000	80.206977
2173.000000	80.213941
2172.000000	80.219190
2171.000000	80.223168
2170.000000	80.230969
2169.000000	80.246706
2168.000000	80.269537
2167.000000	80.298039
2166.000000	80.333766
2165.000000	80.377110
2164.000000	80.424140
2163.000000	80.471049
2162.000000	80.517674
2161.000000	80.563694
2160.000000	80.605936
2159.000000	80.642634
2158.000000	80.675893
2157.000000	80.706980
2156.000000	80.733597
2155.000000	80.754821
2154.000000	80.774283
2153.000000	80.795443
2152.000000	80.818114
2151.000000	80.842377
2150.000000	80.871088
2149.000000	80.905069
2148.000000	80.940210
2147.000000	80.972623
2146.000000	81.002051
2145.000000	81.027213
2144.000000	81.043184
2143.000000	81.047044
2142.000000	81.041702
2141.000000	81.032019
2140.000000	81.021331
2139.000000	81.014095
2138.000000	81.016770
2137.000000	81.032678
2136.000000	81.060062
2135.000000	81.097434
2134.000000	81.145563
2133.000000	81.201460
2132.000000	81.256085
2131.000000	81.301523
2130.000000	81.335967
2129.000000	81.359174
2128.000000	81.368601
2127.000000	81.363714
2126.000000	81.349156
2125.000000	81.329727
2124.000000	81.306474
2123.000000	81.280304
2122.000000	81.254005
2121.000000	81.227590
2120.000000	81.196749
2119.000000	81.158927
2118.000000	81.116509
2117.000000	81.071509
2116.000000	81.022326
2115.000000	80.968771
2114.000000	80.914939
2113.000000	80.863994
2112.000000	80.815230
2111.000000	80.769409
2110.000000	80.731866
2109.000000	80.706779
2108.000000	80.693008
2107.000000	80.688604
2106.000000	80.694183
2105.000000	80.708705
2104.000000	80.727159
2103.000000	80.745800
2102.000000	80.765496
2101.000000	80.786605
2100.000000	80.806686
2099.000000	80.825830
2098.000000	80.849219
2097.000000	80.881102
2096.000000	80.920125
2095.000000	80.964712
2094.000000	81.016208
2093.000000	81.073154
2092.000000	81.129128
2091.000000	81.180422
2090.000000	81.230678
2089.000000	81.285125
2088.000000	81.345921
2087.000000	81.416352
2086.000000	81.502300
2085.000000	81.605246
2084.000000	81.719273
2083.000000	81.838343
2082.000000	81.960958
2081.000000	82.084660
2080.000000	82.202909
2079.000000	82.311377
2078.000000	82.411625
2077.000000	82.505334
2076.000000	82.590251
2075.000000	82.666540
2074.000000	82.738528
2073.000000	82.807920
2072.000000	82.872241
2071.000000	82.930433
2070.000000	82.986860
2069.000000	83.045363
2068.000000	83.104733
2067.000000	83.162674
2066.000000	83.219111
2065.000000	83.273766
2064.000000	83.325068
2063.000000	83.373935
2062.000000	83.422867
2061.000000	83.469918
2060.000000	83.509872
2059.000000	83.543208
2058.000000	83.576954
2057.000000	83.614921
2056.000000	83.654538
2055.000000	83.695161
2054.000000	83.740842
2053.000000	83.792662
2052.000000	83.846427
2051.000000	83.898759
2050.000000	83.950576
2049.000000	84.002288
2048.000000	84.050487
2047.000000	84.092506
2046.000000	84.130838
2045.000000	84.167929
2044.000000	84.201529
2043.000000	84.229768
2042.000000	84.256354
2041.000000	84.286328
2040.000000	84.320963
2039.000000	84.360525
2038.000000	84.406177
2037.000000	84.455710
2036.000000	84.502988
2035.000000	84.545626
2034.000000	84.587628
2033.000000	84.631068
2032.000000	84.672531
2031.000000	84.711729
2030.000000	84.754101
2029.000000	84.801950
2028.000000	84.849161
2027.000000	84.889706
2026.000000	84.925125
2025.000000	84.957552
2024.000000	84.985146
2023.000000	85.004828
2022.000000	85.019623
2021.000000	85.034757
2020.000000	85.049814
2019.000000	85.061185
2018.000000	85.069468
2017.000000	85.079085
2016.000000	85.093297
2015.000000	85.114229
2014.000000	85.143042
2013.000000	85.175930
2012.000000	85.204321
2011.000000	85.224406
2010.000000	85.241217
2009.000000	85.258934
2008.000000	85.273870
2007.000000	85.283242
2006.000000	85.292073
2005.000000	85.304019
2004.000000	85.316775
2003.000000	85.327203
2002.000000	85.339959
2001.000000	85.358477
2000.000000	85.379015
1999.000000	85.401485
1998.000000	85.427609
1997.000000	85.457859
1996.000000	85.490676
1995.000000	85.522565
1994.000000	85.544821
1993.000000	85.545749
1992.000000	85.522369
1991.000000	85.487848
1990.000000	85.458811
1989.000000	85.438955
1988.000000	85.422018
1987.000000	85.406716
1986.000000	85.401611
1985.000000	85.413281
1984.000000	85.439032
1983.000000	85.473134
1982.000000	85.514846
1981.000000	85.563368
1980.000000	85.614826
1979.000000	85.667561
1978.000000	85.718357
1977.000000	85.765159
1976.000000	85.810101
1975.000000	85.858624
1974.000000	85.912290
1973.000000	85.968092
1972.000000	86.024250
1971.000000	86.080317
1970.000000	86.130536
1969.000000	86.164044
1968.000000	86.173527
1967.000000	86.161654
1966.000000	86.139060
1965.000000	86.116276
1964.000000	86.097375
1963.000000	86.079144
1962.000000	86.057139
1961.000000	86.034684
1960.000000	86.024062
1959.000000	86.033210
1958.000000	86.055139
1957.000000	86.076268
1956.000000	86.090132
1955.000000	86.099330
1954.000000	86.105180
1953.000000	86.106592
1952.000000	86.104442
1951.000000	86.100778
1950.000000	86.101428
1949.000000	86.106846
1948.000000	86.112595
1947.000000	86.120902
1946.000000	86.138340
1945.000000	86.163724
1944.000000	86.185443
1943.000000	86.196210
1942.000000	86.207100
1941.000000	86.237296
1940.000000	86.295095
1939.000000	86.372447
1938.000000	86.452419
1937.000000	86.523414
1936.000000	86.587318
1935.000000	86.650682
1934.000000	86.710822
1933.000000	86.761541
1932.000000	86.800790
1931.000000	86.830684
1930.000000	86.859673
1929.000000	86.882675
1928.000000	86.893367
1927.000000	86.898928
1926.000000	86.911092
1925.000000	86.930749
1924.000000	86.932886
1923.000000	86.910324
1922.000000	86.891264
1921.000000	86.897974
1920.000000	86.918914
1919.000000	86.927716
1918.000000	86.918781
1917.000000	86.910999
1916.000000	86.913226
1915.000000	86.922607
1914.000000	86.933581
1913.000000	86.937426
1912.000000	86.925417
1911.000000	86.900046
1910.000000	86.874136
1909.000000	86.845448
1908.000000	86.808597
1907.000000	86.770531
1906.000000	86.743152
1905.000000	86.726519
1904.000000	86.696122
1903.000000	86.650210
1902.000000	86.615297
1901.000000	86.595540
1900.000000	86.574050
1899.000000	86.551902
1898.000000	86.548644
1897.000000	86.568834
1896.000000	86.584877
1895.000000	86.586380
1894.000000	86.601925
1893.000000	86.649586
1892.000000	86.708222
1891.000000	86.751815
1890.000000	86.779657
1889.000000	86.806294
1888.000000	86.840055
1887.000000	86.888170
1886.000000	86.956465
1885.000000	87.028760
1884.000000	87.077898
1883.000000	87.107446
1882.000000	87.146225
1881.000000	87.193036
1880.000000	87.223145
1879.000000	87.234037
1878.000000	87.243667
1877.000000	87.259795
1876.000000	87.264426
1875.000000	87.243993
1874.000000	87.216989
1873.000000	87.203094
1872.000000	87.194788
1871.000000	87.182896
1870.000000	87.173395
1869.000000	87.174514
1868.000000	87.188394
1867.000000	87.227824
1866.000000	87.314508
1865.000000	87.438559
1864.000000	87.556611
1863.000000	87.646405
1862.000000	87.729562
1861.000000	87.821035
1860.000000	87.902387
1859.000000	87.966547
1858.000000	88.040490
1857.000000	88.137208
1856.000000	88.232932
1855.000000	88.311800
1854.000000	88.393016
1853.000000	88.477797
1852.000000	88.546890
1851.000000	88.607198
1850.000000	88.668480
1849.000000	88.727608
1848.000000	88.775257
1847.000000	88.823853
1846.000000	88.887390
1845.000000	88.941299
1844.000000	88.967650
1843.000000	88.999377
1842.000000	89.067193
1841.000000	89.152834
1840.000000	89.227433
1839.000000	89.276596
1838.000000	89.311989
1837.000000	89.353072
1836.000000	89.392975
1835.000000	89.431288
1834.000000	89.486890
1833.000000	89.568343
1832.000000	89.670081
1831.000000	89.762839
1830.000000	89.813327
1829.000000	89.845808
1828.000000	89.904466
1827.000000	89.995730
1826.000000	90.093033
1825.000000	90.177300
1824.000000	90.256236
1823.000000	90.342448
1822.000000	90.438689
1821.000000	90.538876
1820.000000	90.629492
1819.000000	90.696907
1818.000000	90.756568
1817.000000	90.836437
1816.000000	90.921623
1815.000000	90.990390
1814.000000	91.052500
1813.000000	91.125577
1812.000000	91.193700
1811.000000	91.219871
1810.000000	91.229875
1809.000000	91.270192
1808.000000	91.322680
1807.000000	91.356484
1806.000000	91.389505
1805.000000	91.444822
1804.000000	91.495882
1803.000000	91.523967
1802.000000	91.552335
1801.000000	91.604001
1800.000000	91.664764
1799.000000	91.704857
1798.000000	91.741006
1797.000000	91.789474
1796.000000	91.825797
1795.000000	91.843887
1794.000000	91.867002
1793.000000	91.899094
1792.000000	91.917354
1791.000000	91.916452
1790.000000	91.937299
1789.000000	91.998017
1788.000000	92.064776
1787.000000	92.108002
1786.000000	92.149008
1785.000000	92.218364
1784.000000	92.297132
1783.000000	92.371812
1782.000000	92.439971
1781.000000	92.487994
1780.000000	92.524775
1779.000000	92.565998
1778.000000	92.634506
1777.000000	92.722512
1776.000000	92.815489
1775.000000	92.930702
1774.000000	93.069968
1773.000000	93.196333
1772.000000	93.292402
1771.000000	93.353194
1770.000000	93.382534
1769.000000	93.425891
1768.000000	93.508128
1767.000000	93.602451
1766.000000	93.687251
1765.000000	93.778775
1764.000000	93.892921
1763.000000	93.996768
1762.000000	94.049650
1761.000000	94.089041
1760.000000	94.157435
1759.000000	94.229568
1758.000000	94.276362
1757.000000	94.280574
1756.000000	94.280284
1755.000000	94.294644
1754.000000	94.294177
1753.000000	94.285025
1752.000000	94.310022
1751.000000	94.376100
1750.000000	94.440938
1749.000000	94.471118
1748.000000	94.466991
1747.000000	94.458899
1746.000000	94.440468
1745.000000	94.407147
1744.000000	94.385380
1743.000000	94.373679
1742.000000	94.362747
1741.000000	94.366766
1740.000000	94.383096
1739.000000	94.381293
1738.000000	94.353608
1737.000000	94.332976
1736.000000	94.363631
1735.000000	94.401745
1734.000000	94.430612
1733.000000	94.509042
1732.000000	94.598650
1731.000000	94.627436
1730.000000	94.608655
1729.000000	94.564810
1728.000000	94.525075
1727.000000	94.511333
1726.000000	94.503093
1725.000000	94.492009
1724.000000	94.476653
1723.000000	94.447147
1722.000000	94.437558
1721.000000	94.477940
1720.000000	94.548619
1719.000000	94.577683
1718.000000	94.560099
1717.000000	94.601052
1716.000000	94.671202
1715.000000	94.676318
1714.000000	94.672774
1713.000000	94.731004
1712.000000	94.805349
1711.000000	94.859983
1710.000000	94.948515
1709.000000	95.106917
1708.000000	95.302171
1707.000000	95.491623
1706.000000	95.674530
1705.000000	95.858852
1704.000000	95.996182
1703.000000	96.099394
1702.000000	96.274348
1701.000000	96.504044
1700.000000	96.701241
1699.000000	96.827406
1698.000000	96.936650
1697.000000	97.090617
1696.000000	97.243603
1695.000000	97.361707
1694.000000	97.491841
1693.000000	97.622760
1692.000000	97.739183
1691.000000	97.837926
1690.000000	97.917292
1689.000000	97.970286
1688.000000	98.022445
1687.000000	98.123291
1686.000000	98.282477
1685.000000	98.395874
1684.000000	98.430796
1683.000000	98.509758
1682.000000	98.626814
1681.000000	98.691128
1680.000000	98.736214
1679.000000	98.811404
1678.000000	98.907007
1677.000000	98.991430
1676.000000	99.059144
1675.000000	99.141423
1674.000000	99.207818
1673.000000	99.216434
1672.000000	99.214865
1671.000000	99.237163
1670.000000	99.250396
1669.000000	99.225210
1668.000000	99.204179
1667.000000	99.220357
1666.000000	99.237107
1665.000000	99.226253
1664.000000	99.172932
1663.000000	99.081972
1662.000000	98.962754
1661.000000	98.781672
1660.000000	98.565381
1659.000000	98.366290
1658.000000	98.151243
1657.000000	97.888422
1656.000000	97.633051
1655.000000	97.425130
1654.000000	96.997546
1653.000000	96.294548
1652.000000	95.651454
1651.000000	95.066568
1650.000000	94.345948
1649.000000	93.433969
1648.000000	92.148019
1647.000000	90.358953
1646.000000	88.256294
1645.000000	86.137129
1644.000000	84.061456
1643.000000	81.966398
1642.000000	79.849622
1641.000000	77.799493
1640.000000	76.016149
1639.000000	74.652949
1638.000000	73.760223
1637.000000	73.336800
1636.000000	73.433868
1635.000000	74.082815
1634.000000	75.089952
1633.000000	76.240348
1632.000000	77.471554
1631.000000	78.805135
1630.000000	80.230129
1629.000000	81.688642
1628.000000	83.112294
1627.000000	84.451921
1626.000000	85.680307
1625.000000	86.823637
1624.000000	87.943774
1623.000000	89.049566
1622.000000	90.058154
1621.000000	90.890742
1620.000000	91.609674
1619.000000	92.337347
1618.000000	93.100360
1617.000000	93.823084
1616.000000	94.446874
1615.000000	94.926692
1614.000000	95.195828
1613.000000	95.244089
1612.000000	95.117536
1611.000000	94.838054
1610.000000	94.318648
1609.000000	93.423586
1608.000000	92.086802
1607.000000	90.271165
1606.000000	87.837563
1605.000000	84.574551
1604.000000	80.398593
1603.000000	75.370119
1602.000000	69.667303
1601.000000	63.632085
1600.000000	57.718557
1599.000000	52.272505
1598.000000	47.264314
1597.000000	42.356119
1596.000000	37.323964
1595.000000	32.386281
1594.000000	28.052652
1593.000000	24.729984
1592.000000	22.572265
1591.000000	21.544246
1590.000000	21.459211
1589.000000	21.969514
1588.000000	22.690831
1587.000000	23.325978
1586.000000	23.654816
1585.000000	23.579068
1584.000000	23.235095
1583.000000	22.936716
1582.000000	22.909039
1581.000000	23.159070
1580.000000	23.618696
1579.000000	24.267529
1578.000000	25.053407
1577.000000	25.800619
1576.000000	26.334980
1575.000000	26.674947
1574.000000	26.917971
1573.000000	27.105672
1572.000000	27.335819
1571.000000	27.821839
1570.000000	28.760321
1569.000000	30.126991
1568.000000	31.782764
1567.000000	33.690009
1566.000000	35.815877
1565.000000	37.979175
1564.000000	39.955688
1563.000000	41.687038
1562.000000	43.289801
1561.000000	44.964159
1560.000000	46.949543
1559.000000	49.345509
1558.000000	51.754828
1557.000000	53.742518
1556.000000	55.384276
1555.000000	56.963143
1554.000000	58.526044
1553.000000	59.941197
1552.000000	61.160722
1551.000000	62.244351
1550.000000	63.245400
1549.000000	64.152466
1548.000000	64.966447
1547.000000	65.757210
1546.000000	66.575558
1545.000000	67.388919
1544.000000	68.159333
1543.000000	68.907637
1542.000000	69.686398
1541.000000	70.484081
1540.000000	71.220640
1539.000000	71.888692
1538.000000	72.495484
1537.000000	73.017125
1536.000000	73.498650
1535.000000	74.009928
1534.000000	74.525743
1533.000000	74.987307
1532.000000	75.406564
1531.000000	75.821005
1530.000000	76.257698
1529.000000	76.702059
1528.000000	77.104841
1527.000000	77.469205
1526.000000	77.828341
1525.000000	78.182469
1524.000000	78.522888
1523.000000	78.849691
1522.000000	79.140687
1521.000000	79.377800
1520.000000	79.590359
1519.000000	79.816230
1518.000000	80.048192
1517.000000	80.246270
1516.000000	80.393825
1515.000000	80.541520
1514.000000	80.730817
1513.000000	80.961199
1512.000000	81.190385
1511.000000	81.380849
1510.000000	81.557881
1509.000000	81.773358
1508.000000	81.988648
1507.000000	82.100965
1506.000000	82.207832
1505.000000	82.408637
1504.000000	82.607526
1503.000000	82.764348
1502.000000	82.926297
1501.000000	83.114439
1500.000000	83.317823
1499.000000	83.515277
1498.000000	83.716836
1497.000000	83.979113
1496.000000	84.309858
1495.000000	84.656762
1494.000000	85.001610
1493.000000	85.356925
1492.000000	85.715358
1491.000000	86.047260
1490.000000	86.354528
1489.000000	86.672770
1488.000000	86.991286
1487.000000	87.287666
1486.000000	87.602568
1485.000000	87.920996
1484.000000	88.205795
1483.000000	88.476160
1482.000000	88.744634
1481.000000	88.997227
1480.000000	89.215715
1479.000000	89.427082
1478.000000	89.659131
1477.000000	89.894194
1476.000000	90.089865
1475.000000	90.278573
1474.000000	90.522172
1473.000000	90.793609
1472.000000	91.048729
1471.000000	91.281810
1470.000000	91.486044
1469.000000	91.631130
1468.000000	91.682610
1467.000000	91.605434
1466.000000	91.301683
1465.000000	90.581150
1464.000000	89.330176
1463.000000	87.543948
1462.000000	85.222516
1461.000000	82.386070
1460.000000	79.106897
1459.000000	75.428986
1458.000000	71.301197
1457.000000	67.038075
1456.000000	63.461857
1455.000000	60.892993
1454.000000	58.850240
1453.000000	56.885869
1452.000000	54.977381
1451.000000	53.327546
1450.000000	52.062402
1449.000000	51.171693
1448.000000	50.642958
1447.000000	50.529930
1446.000000	50.923031
1445.000000	51.949265
1444.000000	53.724406
1443.000000	56.152534
1442.000000	58.889030
1441.000000	61.551709
1440.000000	63.914706
1439.000000	65.924454
1438.000000	67.657108
1437.000000	69.270234
1436.000000	70.864229
1435.000000	72.390686
1434.000000	73.806484
1433.000000	75.183893
1432.000000	76.562791
1431.000000	77.854168
1430.000000	78.956467
1429.000000	79.887889
1428.000000	80.699389
1427.000000	81.407790
1426.000000	82.029539
1425.000000	82.601454
1424.000000	83.164426
1423.000000	83.687568
1422.000000	84.141679
1421.000000	84.571788
1420.000000	85.019778
1419.000000	85.436130
1418.000000	85.778322
1417.000000	86.120023
1416.000000	86.511579
1415.000000	86.909666
1414.000000	87.263064
1413.000000	87.586876
1412.000000	87.918268
1411.000000	88.228398
1410.000000	88.473318
1409.000000	88.675559
1408.000000	88.841922
1407.000000	88.904113
1406.000000	88.766273
1405.000000	88.361254
1404.000000	87.693863
1403.000000	86.818663
1402.000000	85.836442
1401.000000	84.876723
1400.000000	84.036733
1399.000000	83.340998
1398.000000	82.774622
1397.000000	82.370186
1396.000000	82.232657
1395.000000	82.472546
1394.000000	83.061875
1393.000000	83.818449
1392.000000	84.543706
1391.000000	85.109422
1390.000000	85.485112
1389.000000	85.743321
1388.000000	86.018681
1387.000000	86.427777
1386.000000	87.003940
1385.000000	87.701715
1384.000000	88.451803
1383.000000	89.177640
1382.000000	89.825679
1381.000000	90.398085
1380.000000	90.916237
1379.000000	91.375345
1378.000000	91.745709
1377.000000	91.990795
1376.000000	92.043516
1375.000000	91.781093
1374.000000	91.038746
1373.000000	89.655411
1372.000000	87.458511
1371.000000	84.257215
1370.000000	80.007089
1369.000000	75.098375
1368.000000	70.439976
1367.000000	67.019032
1366.000000	65.310867
1365.000000	65.146474
1364.000000	66.021700
1363.000000	67.467258
1362.000000	69.248984
1361.000000	71.344142
1360.000000	73.749930
1359.000000	76.336584
1358.000000	78.869486
1357.000000	81.127476
1356.000000	83.003135
1355.000000	84.509000
1354.000000	85.724146
1353.000000	86.745716
1352.000000	87.638649
1351.000000	88.428914
1350.000000	89.125131
1349.000000	89.735347
1348.000000	90.279702
1347.000000	90.773557
1346.000000	91.223875
1345.000000	91.639897
1344.000000	92.033007
1343.000000	92.404242
1342.000000	92.747012
1341.000000	93.060350
1340.000000	93.349431
1339.000000	93.618329
1338.000000	93.869260
1337.000000	94.110691
1336.000000	94.350384
1335.000000	94.586215
1334.000000	94.816698
1333.000000	95.050063
1332.000000	95.289611
1331.000000	95.520018
1330.000000	95.717723
1329.000000	95.869483
1328.000000	95.958521
1327.000000	95.943296
1326.000000	95.752623
1325.000000	95.287793
1324.000000	94.433201
1323.000000	93.058275
1322.000000	91.056162
1321.000000	88.406579
1320.000000	85.214935
1319.000000	81.734602
1318.000000	78.345665
1317.000000	75.455485
1316.000000	73.360878
1315.000000	72.167879
1314.000000	71.803320
1313.000000	72.108330
1312.000000	72.916993
1311.000000	74.062635
1310.000000	75.390597
1309.000000	76.804238
1308.000000	78.306302
1307.000000	79.964497
1306.000000	81.804930
1305.000000	83.745838
1304.000000	85.626210
1303.000000	87.285475
1302.000000	88.633463
1301.000000	89.666542
1300.000000	90.419993
1299.000000	90.920493
1298.000000	91.162199
1297.000000	91.077199
1296.000000	90.530091
1295.000000	89.393060
1294.000000	87.707617
1293.000000	85.762116
1292.000000	83.947463
1291.000000	82.508861
1290.000000	81.412375
1289.000000	80.422038
1288.000000	79.244644
1287.000000	77.616951
1286.000000	75.390220
1285.000000	72.660078
1284.000000	69.832775
1283.000000	67.505464
1282.000000	66.203520
1281.000000	66.142455
1280.000000	67.174336
1279.000000	68.868666
1278.000000	70.632283
1277.000000	71.874269
1276.000000	72.187069
1275.000000	71.518909
1274.000000	70.270559
1273.000000	69.205926
1272.000000	69.130900
1271.000000	70.454861
1270.000000	72.973251
1269.000000	76.061617
1268.000000	79.087814
1267.000000	81.700126
1266.000000	83.833992
1265.000000	85.573787
1264.000000	87.029496
1263.000000	88.277282
1262.000000	89.354521
1261.000000	90.286315
1260.000000	91.100375
1259.000000	91.816343
1258.000000	92.446614
1257.000000	93.004750
1256.000000	93.508694
1255.000000	93.972580
1254.000000	94.402476
1253.000000	94.808001
1252.000000	95.202617
1251.000000	95.592518
1250.000000	95.974816
1249.000000	96.347189
1248.000000	96.711712
1247.000000	97.065527
1246.000000	97.400065
1245.000000	97.713833
1244.000000	98.013977
1243.000000	98.304923
1242.000000	98.586322
1241.000000	98.862345
1240.000000	99.140671
1239.000000	99.419208
1238.000000	99.685605
1237.000000	99.928164
1236.000000	100.136118
1235.000000	100.292395
1234.000000	100.376302
1233.000000	100.378082
1232.000000	100.297912
1231.000000	100.130695
1230.000000	99.867317
1229.000000	99.495857
1228.000000	98.995047
1227.000000	98.314516
1226.000000	97.362850
1225.000000	96.026001
1224.000000	94.169336
1223.000000	91.665285
1222.000000	88.448998
1221.000000	84.567123
1220.000000	80.206709
1219.000000	75.645576
1218.000000	71.164004
1217.000000	66.969751
1216.000000	63.168573
1215.000000	59.774524
1214.000000	56.745120
1213.000000	54.030115
1212.000000	51.611823
1211.000000	49.518573
1210.000000	47.783950
1209.000000	46.445481
1208.000000	45.562844
1207.000000	45.186492
1206.000000	45.316420
1205.000000	45.873262
1204.000000	46.739197
1203.000000	47.802679
1202.000000	48.973778
1201.000000	50.228418
1200.000000	51.619329
1199.000000	53.236047
1198.000000	55.140481
1197.000000	57.332815
1196.000000	59.771178
1195.000000	62.379218
1194.000000	65.052124
1193.000000	67.686138
1192.000000	70.206006
1191.000000	72.561181
1190.000000	74.714066
1189.000000	76.647146
1188.000000	78.365963
1187.000000	79.887893
1186.000000	81.221492
1185.000000	82.375464
1184.000000	83.370765
1183.000000	84.225267
1182.000000	84.947749
1181.000000	85.535129
1180.000000	85.980316
1179.000000	86.279704
1178.000000	86.437255
1177.000000	86.479168
1176.000000	86.447842
1175.000000	86.385214
1174.000000	86.327528
1173.000000	86.310470
1172.000000	86.369802
1171.000000	86.527891
1170.000000	86.786105
1169.000000	87.132011
1168.000000	87.544516
1167.000000	87.985090
1166.000000	88.396359
1165.000000	88.720840
1164.000000	88.922965
1163.000000	89.004396
1162.000000	89.014706
1161.000000	89.047268
1160.000000	89.202568
1159.000000	89.535761
1158.000000	90.038151
1157.000000	90.664348
1156.000000	91.367865
1155.000000	92.110822
1154.000000	92.858140
1153.000000	93.576396
1152.000000	94.229434
1151.000000	94.771961
1150.000000	95.160361
1149.000000	95.381481
1148.000000	95.458932
1147.000000	95.435591
1146.000000	95.355574
1145.000000	95.249785
1144.000000	95.127307
1143.000000	94.957620
1142.000000	94.674982
1141.000000	94.207629
1140.000000	93.489071
1139.000000	92.467014
1138.000000	91.088896
1137.000000	89.296688
1136.000000	87.031325
1135.000000	84.211549
1134.000000	80.751934
1133.000000	76.579518
1132.000000	71.672334
1131.000000	66.122883
1130.000000	60.171270
1129.000000	54.208715
1128.000000	48.715571
1127.000000	44.119553
1126.000000	40.616117
1125.000000	38.108812
1124.000000	36.298550
1123.000000	34.866867
1122.000000	33.635723
1121.000000	32.588484
1120.000000	31.782990
1119.000000	31.161850
1118.000000	30.498240
1117.000000	29.632691
1116.000000	28.764059
1115.000000	28.478475
1114.000000	29.381446
1113.000000	31.695773
1112.000000	35.172026
1111.000000	39.250867
1110.000000	43.288106
1109.000000	46.718358
1108.000000	49.128299
1107.000000	50.240818
1106.000000	49.905799
1105.000000	48.188487
1104.000000	45.563759
1103.000000	42.988303
1102.000000	41.588921
1101.000000	42.090303
1100.000000	44.449633
1099.000000	47.991332
1098.000000	51.888546
1097.000000	55.587009
1096.000000	58.870733
1095.000000	61.712688
1094.000000	64.151804
1093.000000	66.261661
1092.000000	68.136201
1091.000000	69.856359
1090.000000	71.480209
1089.000000	73.061190
1088.000000	74.653432
1087.000000	76.278487
1086.000000	77.919165
1085.000000	79.540223
1084.000000	81.096630
1083.000000	82.537179
1082.000000	83.820466
1081.000000	84.942105
1080.000000	85.926381
1079.000000	86.793138
1078.000000	87.558688
1077.000000	88.242861
1076.000000	88.856526
1075.000000	89.378820
1074.000000	89.752665
1073.000000	89.917842
1072.000000	89.796849
1071.000000	89.277100
1070.000000	88.223857
1069.000000	86.482264
1068.000000	83.905382
1067.000000	80.349649
1066.000000	75.727550
1065.000000	70.106467
1064.000000	63.743027
1063.000000	57.072174
1062.000000	50.585214
1061.000000	44.663067
1060.000000	39.446051
1059.000000	34.816287
1058.000000	30.514247
1057.000000	26.387488
1056.000000	22.610488
1055.000000	19.650133
1054.000000	18.064463
1053.000000	18.208388
1052.000000	20.090869
1051.000000	23.394312
1050.000000	27.563305
1049.000000	32.031188
1048.000000	36.376715
1047.000000	40.373609
1046.000000	43.961386
1045.000000	47.176766
1044.000000	50.093274
1043.000000	52.760344
1042.000000	55.184031
1041.000000	57.351951
1040.000000	59.273323
1039.000000	60.968732
1038.000000	62.458987
1037.000000	63.774199
1036.000000	64.949498
1035.000000	66.018989
1034.000000	67.005515
1033.000000	67.932358
1032.000000	68.828286
1031.000000	69.708412
1030.000000	70.570852
1029.000000	71.410833
1028.000000	72.231646
1027.000000	73.039466
1026.000000	73.839924
1025.000000	74.646390
1024.000000	75.475930
1023.000000	76.330511
1022.000000	77.194402
1021.000000	78.045047
1020.000000	78.857901
1019.000000	79.589647
1018.000000	80.166057
1017.000000	80.495434
1016.000000	80.449720
1015.000000	79.868952
1014.000000	78.579783
1013.000000	76.431806
1012.000000	73.353840
1011.000000	69.360628
1010.000000	64.584186
1009.000000	59.309833
1008.000000	53.999322
1007.000000	49.270459
1006.000000	45.797175
1005.000000	44.102246
1004.000000	44.324085
1003.000000	46.111596
1002.000000	48.721437
1001.000000	51.316341
1000.000000	53.211125
999.000000	53.942763
998.000000	53.289384
997.000000	51.365958
996.000000	48.721618
995.000000	46.217703
994.000000	44.639813
993.000000	44.321681
992.000000	45.089919
991.000000	46.528699
990.000000	48.296569
989.000000	50.261018
988.000000	52.432584
987.000000	54.801166
986.000000	57.265324
985.000000	59.676675
984.000000	61.911999
983.000000	63.909143
982.000000	65.660095
981.000000	67.193184
980.000000	68.547489
979.000000	69.756764
978.000000	70.839497
977.000000	71.810879
976.000000	72.685511
975.000000	73.469458
974.000000	74.168847
973.000000	74.794750
972.000000	75.362866
971.000000	75.884940
970.000000	76.368336
969.000000	76.826241
968.000000	77.271867
967.000000	77.708701
966.000000	78.133025
965.000000	78.542960
964.000000	78.938589
963.000000	79.314000
962.000000	79.662453
961.000000	79.986905
960.000000	80.294686
959.000000	80.586741
958.000000	80.860488
957.000000	81.121013
956.000000	81.378342
955.000000	81.634892
954.000000	81.887266
953.000000	82.135880
952.000000	82.382994
951.000000	82.624372
950.000000	82.852608
949.000000	83.066970
948.000000	83.269704
947.000000	83.457425
946.000000	83.626882
945.000000	83.784014
944.000000	83.937844
943.000000	84.089605
942.000000	84.238287
941.000000	84.391651
940.000000	84.559483
939.000000	84.740903
938.000000	84.928717
937.000000	85.120924
936.000000	85.316419
935.000000	85.505179
934.000000	85.675984
933.000000	85.829804
932.000000	85.974338
931.000000	86.110924
930.000000	86.238037
929.000000	86.361882
928.000000	86.491316
927.000000	86.627288
926.000000	86.768643
925.000000	86.921191
924.000000	87.088868
923.000000	87.262065
922.000000	87.427154
921.000000	87.581580
920.000000	87.728236
919.000000	87.863420
918.000000	87.983375
917.000000	88.095418
916.000000	88.209702
915.000000	88.327007
914.000000	88.446627
913.000000	88.577994
912.000000	88.730410
911.000000	88.899070
910.000000	89.073850
909.000000	89.253393
908.000000	89.435670
907.000000	89.600149
906.000000	89.714661
905.000000	89.757696
904.000000	89.732382
903.000000	89.672493
902.000000	89.634580
901.000000	89.660542
900.000000	89.725562
899.000000	89.735335
898.000000	89.597820
897.000000	89.286468
896.000000	88.847370
895.000000	88.367501
894.000000	87.917508
893.000000	87.459594
892.000000	86.778847
891.000000	85.600474
890.000000	83.888092
889.000000	82.023215
888.000000	80.592049
887.000000	79.966095
886.000000	80.090602
885.000000	80.649902
884.000000	81.364990
883.000000	82.088821
882.000000	82.742817
881.000000	83.280342
880.000000	83.722890
879.000000	84.173630
878.000000	84.744428
877.000000	85.475295
876.000000	86.312586
875.000000	87.151583
874.000000	87.901813
873.000000	88.527620
872.000000	89.040282
871.000000	89.462460
870.000000	89.809766
869.000000	90.090213
868.000000	90.303625
867.000000	90.432904
866.000000	90.451915
865.000000	90.352707
864.000000	90.158007
863.000000	89.918057
862.000000	89.702099
861.000000	89.582608
860.000000	89.604940
859.000000	89.764085
858.000000	90.016081
857.000000	90.313152
856.000000	90.624844
855.000000	90.933291
854.000000	91.229930
853.000000	91.515403
852.000000	91.789650
851.000000	92.041647
850.000000	92.258218
849.000000	92.438931
848.000000	92.592176
847.000000	92.722323
846.000000	92.831802
845.000000	92.931230
844.000000	93.033448
843.000000	93.142733
842.000000	93.260723
841.000000	93.395650
840.000000	93.553075
839.000000	93.723138
838.000000	93.889584
837.000000	94.045198
836.000000	94.186327
835.000000	94.302257
834.000000	94.385594
833.000000	94.446825
832.000000	94.504030
831.000000	94.564176
830.000000	94.628430
829.000000	94.707535
828.000000	94.815892
827.000000	94.955632
826.000000	95.120448
825.000000	95.306373
824.000000	95.502866
823.000000	95.682698
822.000000	95.820783
821.000000	95.915333
820.000000	95.976154
819.000000	96.002483
818.000000	95.984776
817.000000	95.918067
816.000000	95.785127
815.000000	95.530596
814.000000	95.057979
813.000000	94.248382
812.000000	93.003292
811.000000	91.317489
810.000000	89.366633
809.000000	87.509732
808.000000	86.150451
807.000000	85.538137
806.000000	85.666072
805.000000	86.321961
804.000000	87.221234
803.000000	88.128578
802.000000	88.909995
801.000000	89.525979
800.000000	89.980808
799.000000	90.277997
798.000000	90.410954
797.000000	90.368968
796.000000	90.128758
795.000000	89.652435
794.000000	88.917884
793.000000	87.946026
792.000000	86.803479
791.000000	85.588660
790.000000	84.424179
789.000000	83.438526
788.000000	82.726990
787.000000	82.324192
786.000000	82.215352
785.000000	82.361191
784.000000	82.697091
783.000000	83.130130
782.000000	83.559605
781.000000	83.909770
780.000000	84.143554
779.000000	84.263828
778.000000	84.323844
777.000000	84.418684
776.000000	84.639738
775.000000	85.030640
774.000000	85.585975
773.000000	86.276239
772.000000	87.058227
771.000000	87.879109
770.000000	88.694874
769.000000	89.481192
768.000000	90.217202
767.000000	90.871525
766.000000	91.420167
765.000000	91.864602
764.000000	92.219972
763.000000	92.499238
762.000000	92.723197
761.000000	92.928520
760.000000	93.146003
759.000000	93.382867
758.000000	93.636661
757.000000	93.909423
756.000000	94.192490
755.000000	94.455049
754.000000	94.667549
753.000000	94.823183
752.000000	94.923709
751.000000	94.963303
750.000000	94.943224
749.000000	94.885910
748.000000	94.815842
747.000000	94.741108
746.000000	94.667412
745.000000	94.609219
744.000000	94.568880
743.000000	94.522873
742.000000	94.446467
741.000000	94.335706
740.000000	94.191708
739.000000	94.006509
738.000000	93.780878
737.000000	93.530251
736.000000	93.251519
735.000000	92.902696
734.000000	92.434189
733.000000	91.820375
732.000000	91.051139
731.000000	90.132560
730.000000	89.127262
729.000000	88.170821
728.000000	87.417556
727.000000	86.970344
726.000000	86.863487
725.000000	87.079103
724.000000	87.544748
723.000000	88.143015
722.000000	88.770968
721.000000	89.389603
720.000000	90.001173
719.000000	90.600613
718.000000	91.173351
717.000000	91.713862
716.000000	92.214211
715.000000	92.651534
714.000000	93.010113
713.000000	93.297279
712.000000	93.518069
711.000000	93.659167
710.000000	93.722052
709.000000	93.742970
708.000000	93.760151
707.000000	93.787341
706.000000	93.835875
705.000000	93.937278
704.000000	94.111683
703.000000	94.335441
702.000000	94.577902
701.000000	94.833695
700.000000	95.089173
699.000000	95.303110
698.000000	95.444039
697.000000	95.523859
696.000000	95.558433
695.000000	95.529368
694.000000	95.437345
693.000000	95.335105
692.000000	95.269365
691.000000	95.241439
690.000000	95.250099
689.000000	95.333770
688.000000	95.506522
687.000000	95.700225
686.000000	95.848482
685.000000	95.957627
684.000000	96.040990
683.000000	96.061649
682.000000	96.002159
681.000000	95.922026
680.000000	95.875806
679.000000	95.845494
678.000000	95.831856
677.000000	95.889316
676.000000	96.037864
675.000000	96.250310
674.000000	96.500058
673.000000	96.790551
672.000000	97.100088
671.000000	97.352985
670.000000	97.546386
669.000000	97.539999
668.000000	96.973127
667.000000	96.402881
666.000000	96.560218
665.000000	96.992301
664.000000	97.257860
663.000000	97.367682
662.000000	97.476908
661.000000	97.640985
660.000000	97.822772
659.000000	97.989128
658.000000	98.128255
657.000000	98.203840
656.000000	98.186582
655.000000	98.127093
654.000000	98.065873
653.000000	97.983781
652.000000	97.885342
651.000000	97.825276
650.000000	97.823639
649.000000	97.837251
648.000000	97.856149
647.000000	97.925959
646.000000	98.049947
645.000000	98.167801
644.000000	98.240636
643.000000	98.287428
642.000000	98.324479
641.000000	98.327209
640.000000	98.285138
639.000000	98.232377
638.000000	98.191816
637.000000	98.153114
636.000000	98.125112
635.000000	98.144970
634.000000	98.224108
633.000000	98.332192
632.000000	98.444350
631.000000	98.560533
630.000000	98.666694
629.000000	98.724109
628.000000	98.718008
627.000000	98.673790
626.000000	98.614374
625.000000	98.545356
624.000000	98.481656
623.000000	98.456090
622.000000	98.485637
621.000000	98.554565
620.000000	98.638711
619.000000	98.721320
618.000000	98.787899
617.000000	98.830561
616.000000	98.856785
615.000000	98.873151
614.000000	98.866118
613.000000	98.823844
612.000000	98.766971
611.000000	98.731575
610.000000	98.731847
609.000000	98.757194
608.000000	98.799025
607.000000	98.850444
606.000000	98.885788
605.000000	98.875706
604.000000	98.808915
603.000000	98.684448
602.000000	98.490900
601.000000	98.210476
600.000000	97.832791
599.000000	97.347078
598.000000	96.726744
597.000000	95.929087
596.000000	94.909843
595.000000	93.610971
594.000000	91.908932
593.000000	89.584779
592.000000	86.386433
591.000000	82.259183
590.000000	77.631085
589.000000	73.458096
588.000000	70.824584
587.000000	70.303761
586.000000	71.579822
585.000000	73.732434
584.000000	75.968814
583.000000	78.008650
582.000000	79.887839
581.000000	81.645617
580.000000	83.248223
579.000000	84.658600
578.000000	85.851298
577.000000	86.806012
576.000000	87.538989
575.000000	88.109709
574.000000	88.562256
573.000000	88.906083
572.000000	89.161569
571.000000	89.372626
570.000000	89.561383
569.000000	89.702713
568.000000	89.767575
567.000000	89.733858
566.000000	89.536953
565.000000	89.063776
564.000000	88.226724
563.000000	87.045507
562.000000	85.651429
561.000000	84.235493
560.000000	82.978545
559.000000	81.965834
558.000000	81.139983
557.000000	80.394337
556.000000	79.762150
555.000000	79.463366
554.000000	79.730998
553.000000	80.614348
552.000000	81.957734
551.000000	83.495349
550.000000	84.942073
549.000000	86.099911
548.000000	86.931790
547.000000	87.516204
546.000000	87.933190
545.000000	88.221289
544.000000	88.418195
543.000000	88.574334
542.000000	88.712364
541.000000	88.809608
540.000000	88.844305
539.000000	88.819413
538.000000	88.736287
537.000000	88.586445
536.000000	88.381517
535.000000	88.159013
534.000000	87.946161
533.000000	87.749547
532.000000	87.577847
531.000000	87.452001
530.000000	87.374685
529.000000	87.311603
528.000000	87.211175
527.000000	87.025433
526.000000	86.698010
525.000000	86.175179
524.000000	85.437777
523.000000	84.487783
522.000000	83.322139
521.000000	81.936154
520.000000	80.353960
519.000000	78.627549
518.000000	76.809226
517.000000	74.971651
516.000000	73.258796
515.000000	71.855312
514.000000	70.882042
513.000000	70.364753
512.000000	70.290107
511.000000	70.646211
510.000000	71.383097
509.000000	72.395315
508.000000	73.587867
507.000000	74.903797
506.000000	76.288246
505.000000	77.689034
504.000000	79.099856
503.000000	80.540578
502.000000	81.973213
501.000000	83.295422
500.000000	84.433560
499.000000	85.389595
498.000000	86.185200
497.000000	86.833420
496.000000	87.364546
495.000000	87.825815
494.000000	88.247602
493.000000	88.625441
492.000000	88.960040
491.000000	89.274011
490.000000	89.570190
489.000000	89.822547
488.000000	90.003244
487.000000	90.093157
486.000000	90.040425
485.000000	89.735423
484.000000	89.065055
483.000000	87.963072
482.000000	86.418792
481.000000	84.486256
480.000000	82.307865
479.000000	80.071156
478.000000	77.884368
477.000000	75.748991
476.000000	73.679820
475.000000	71.809996
474.000000	70.337518
473.000000	69.453924
472.000000	69.331796
471.000000	70.054704
470.000000	71.519642
469.000000	73.463142
468.000000	75.615604
467.000000	77.773923
466.000000	79.780802
465.000000	81.541702
464.000000	83.041486
463.000000	84.325153
462.000000	85.438424
461.000000	86.399300
460.000000	87.221709
459.000000	87.935124
458.000000	88.561974
457.000000	89.102741
456.000000	89.557917
455.000000	89.933737
454.000000	90.239476
453.000000	90.490114
452.000000	90.715826
451.000000	90.952771
450.000000	91.207987
449.000000	91.464086
448.000000	91.708246
447.000000	91.937134
446.000000	92.141732
445.000000	92.309084
444.000000	92.425518
443.000000	92.484702
442.000000	92.492615
441.000000	92.471197
440.000000	92.451652
439.000000	92.452589
438.000000	92.472472
437.000000	92.502647
436.000000	92.545857
435.000000	92.602512
434.000000	92.637160
433.000000	92.580845
432.000000	92.376911
431.000000	92.028135
430.000000	91.599528
429.000000	91.162920
428.000000	90.767578
427.000000	90.455324
426.000000	90.248438
425.000000	90.132240
424.000000	90.098289
423.000000	90.178883
422.000000	90.387741
421.000000	90.671641
420.000000	90.967223
419.000000	91.291935
418.000000	91.702049
417.000000	92.155780
416.000000	92.547190
415.000000	92.819497
414.000000	92.981931
413.000000	93.074531
412.000000	93.125504
411.000000	93.139286
410.000000	93.111554
409.000000	93.008081
408.000000	92.792616
407.000000	92.510602
406.000000	92.304347
405.000000	92.298861
404.000000	92.507556
403.000000	92.833263
402.000000	93.166749
401.000000	93.434288
400.000000	93.621366
