PE IR       SUBTECH     SPECTRUM    ASCII       PEDS        4.00        
   -1
23MS101-cis.asc
24/10/22
15:11:42.00
24/10/22
15:11:42.00
Administrator
Sample 1328 By Administrator Date Tuesday, October 22 2024
400.000000
#HDR
-1
-1
#GR
cm-1
%T
1.0
0.0
4000.000000
-1.000000
3601
8
83.645723
8.143523
#DATA
4000.000000	57.152390
3999.000000	57.139114
3998.000000	57.129946
3997.000000	57.123243
3996.000000	57.117615
3995.000000	57.113323
3994.000000	57.111365
3993.000000	57.111581
3992.000000	57.112540
3991.000000	57.113803
3990.000000	57.117289
3989.000000	57.125536
3988.000000	57.139364
3987.000000	57.157971
3986.000000	57.180803
3985.000000	57.207983
3984.000000	57.239008
3983.000000	57.272301
3982.000000	57.306494
3981.000000	57.341797
3980.000000	57.379778
3979.000000	57.421617
3978.000000	57.466926
3977.000000	57.514055
3976.000000	57.561229
3975.000000	57.606893
3974.000000	57.649985
3973.000000	57.690311
3972.000000	57.728105
3971.000000	57.763604
3970.000000	57.797339
3969.000000	57.831144
3968.000000	57.867342
3967.000000	57.907537
3966.000000	57.951956
3965.000000	57.999801
3964.000000	58.050101
3963.000000	58.102150
3962.000000	58.156263
3961.000000	58.213388
3960.000000	58.273246
3959.000000	58.333849
3958.000000	58.393342
3957.000000	58.452575
3956.000000	58.513217
3955.000000	58.575586
3954.000000	58.638209
3953.000000	58.698283
3952.000000	58.752890
3951.000000	58.799978
3950.000000	58.840394
3949.000000	58.877730
3948.000000	58.916965
3947.000000	58.962552
3946.000000	59.013918
3945.000000	59.062674
3944.000000	59.099444
3943.000000	59.125149
3942.000000	59.152000
3941.000000	59.189911
3940.000000	59.237181
3939.000000	59.286875
3938.000000	59.335666
3937.000000	59.386415
3936.000000	59.440715
3935.000000	59.493458
3934.000000	59.537578
3933.000000	59.571372
3932.000000	59.600455
3931.000000	59.629250
3930.000000	59.657358
3929.000000	59.685712
3928.000000	59.717422
3927.000000	59.750000
3926.000000	59.772440
3925.000000	59.781020
3924.000000	59.787883
3923.000000	59.803655
3922.000000	59.823473
3921.000000	59.837794
3920.000000	59.847073
3919.000000	59.858109
3918.000000	59.870997
3917.000000	59.882374
3916.000000	59.895445
3915.000000	59.914774
3914.000000	59.937881
3913.000000	59.960120
3912.000000	59.982022
3911.000000	60.009524
3910.000000	60.043317
3909.000000	60.082202
3908.000000	60.124891
3907.000000	60.166932
3906.000000	60.196029
3905.000000	60.202521
3904.000000	60.199779
3903.000000	60.212499
3902.000000	60.246849
3901.000000	60.286680
3900.000000	60.318114
3899.000000	60.346909
3898.000000	60.385217
3897.000000	60.433146
3896.000000	60.485730
3895.000000	60.544559
3894.000000	60.609869
3893.000000	60.673138
3892.000000	60.720383
3891.000000	60.754658
3890.000000	60.792242
3889.000000	60.846776
3888.000000	60.913554
3887.000000	60.969472
3886.000000	61.006410
3885.000000	61.046377
3884.000000	61.100240
3883.000000	61.150069
3882.000000	61.171820
3881.000000	61.163920
3880.000000	61.154303
3879.000000	61.167121
3878.000000	61.200629
3877.000000	61.240249
3876.000000	61.265359
3875.000000	61.263953
3874.000000	61.254875
3873.000000	61.271361
3872.000000	61.313591
3871.000000	61.343716
3870.000000	61.350728
3869.000000	61.371656
3868.000000	61.424022
3867.000000	61.481309
3866.000000	61.510599
3865.000000	61.516517
3864.000000	61.531547
3863.000000	61.563538
3862.000000	61.595513
3861.000000	61.626543
3860.000000	61.662444
3859.000000	61.706713
3858.000000	61.766612
3857.000000	61.857136
3856.000000	61.963672
3855.000000	62.018203
3854.000000	62.012853
3853.000000	62.034447
3852.000000	62.090331
3851.000000	62.111640
3850.000000	62.084030
3849.000000	62.048322
3848.000000	62.042576
3847.000000	62.072288
3846.000000	62.119433
3845.000000	62.167553
3844.000000	62.207488
3843.000000	62.238943
3842.000000	62.272170
3841.000000	62.314763
3840.000000	62.355960
3839.000000	62.392667
3838.000000	62.435714
3837.000000	62.484859
3836.000000	62.522527
3835.000000	62.540529
3834.000000	62.550676
3833.000000	62.564082
3832.000000	62.583636
3831.000000	62.613230
3830.000000	62.655876
3829.000000	62.707026
3828.000000	62.751157
3827.000000	62.776097
3826.000000	62.792903
3825.000000	62.831022
3824.000000	62.899764
3823.000000	62.967181
3822.000000	62.995381
3821.000000	63.002230
3820.000000	63.030265
3819.000000	63.087077
3818.000000	63.150095
3817.000000	63.188546
3816.000000	63.209084
3815.000000	63.243456
3814.000000	63.286730
3813.000000	63.306876
3812.000000	63.299690
3811.000000	63.298264
3810.000000	63.334999
3809.000000	63.400427
3808.000000	63.455248
3807.000000	63.487099
3806.000000	63.520365
3805.000000	63.574989
3804.000000	63.643149
3803.000000	63.694310
3802.000000	63.713586
3801.000000	63.737564
3800.000000	63.782208
3799.000000	63.815850
3798.000000	63.818212
3797.000000	63.801477
3796.000000	63.798696
3795.000000	63.827002
3794.000000	63.873405
3793.000000	63.915168
3792.000000	63.947643
3791.000000	63.981059
3790.000000	64.020771
3789.000000	64.061982
3788.000000	64.099878
3787.000000	64.133386
3786.000000	64.161200
3785.000000	64.181911
3784.000000	64.201736
3783.000000	64.231339
3782.000000	64.269799
3781.000000	64.301929
3780.000000	64.318028
3779.000000	64.331293
3778.000000	64.358401
3777.000000	64.397172
3776.000000	64.430710
3775.000000	64.453339
3774.000000	64.479379
3773.000000	64.521889
3772.000000	64.570093
3771.000000	64.606446
3770.000000	64.638534
3769.000000	64.685414
3768.000000	64.744281
3767.000000	64.797401
3766.000000	64.835797
3765.000000	64.868482
3764.000000	64.912980
3763.000000	64.974474
3762.000000	65.037636
3761.000000	65.085420
3760.000000	65.122762
3759.000000	65.167267
3758.000000	65.216155
3757.000000	65.261167
3756.000000	65.310422
3755.000000	65.375064
3754.000000	65.447903
3753.000000	65.508560
3752.000000	65.559434
3751.000000	65.622652
3750.000000	65.691381
3749.000000	65.740128
3748.000000	65.779305
3747.000000	65.840857
3746.000000	65.901763
3745.000000	65.934499
3744.000000	65.988596
3743.000000	66.072863
3742.000000	66.121429
3741.000000	66.115774
3740.000000	66.103181
3739.000000	66.138275
3738.000000	66.214759
3737.000000	66.278850
3736.000000	66.308111
3735.000000	66.329506
3734.000000	66.367122
3733.000000	66.413590
3732.000000	66.458281
3731.000000	66.498852
3730.000000	66.534725
3729.000000	66.567537
3728.000000	66.594867
3727.000000	66.615579
3726.000000	66.642020
3725.000000	66.680321
3724.000000	66.718390
3723.000000	66.745322
3722.000000	66.768530
3721.000000	66.801224
3720.000000	66.846509
3719.000000	66.900822
3718.000000	66.955748
3717.000000	67.012332
3716.000000	67.076576
3715.000000	67.143851
3714.000000	67.200654
3713.000000	67.241849
3712.000000	67.283103
3711.000000	67.338889
3710.000000	67.404593
3709.000000	67.470807
3708.000000	67.532226
3707.000000	67.587736
3706.000000	67.643746
3705.000000	67.704498
3704.000000	67.764716
3703.000000	67.813926
3702.000000	67.854364
3701.000000	67.899653
3700.000000	67.955362
3699.000000	68.015443
3698.000000	68.068768
3697.000000	68.113821
3696.000000	68.162090
3695.000000	68.219709
3694.000000	68.277027
3693.000000	68.325803
3692.000000	68.367116
3691.000000	68.405200
3690.000000	68.447703
3689.000000	68.511544
3688.000000	68.597623
3687.000000	68.673514
3686.000000	68.713461
3685.000000	68.722331
3684.000000	68.724340
3683.000000	68.745230
3682.000000	68.790768
3681.000000	68.839230
3680.000000	68.875879
3679.000000	68.917263
3678.000000	68.982340
3677.000000	69.040654
3676.000000	69.070148
3675.000000	69.109551
3674.000000	69.171465
3673.000000	69.231354
3672.000000	69.270579
3671.000000	69.281449
3670.000000	69.292785
3669.000000	69.335395
3668.000000	69.388066
3667.000000	69.421444
3666.000000	69.436937
3665.000000	69.451636
3664.000000	69.477664
3663.000000	69.516027
3662.000000	69.556536
3661.000000	69.590766
3660.000000	69.624467
3659.000000	69.664859
3658.000000	69.706185
3657.000000	69.737766
3656.000000	69.769798
3655.000000	69.815530
3654.000000	69.869608
3653.000000	69.918871
3652.000000	69.949188
3651.000000	69.956452
3650.000000	69.968029
3649.000000	70.012609
3648.000000	70.078253
3647.000000	70.138094
3646.000000	70.182432
3645.000000	70.216669
3644.000000	70.248355
3643.000000	70.282127
3642.000000	70.319001
3641.000000	70.360915
3640.000000	70.405862
3639.000000	70.447161
3638.000000	70.483779
3637.000000	70.521194
3636.000000	70.561109
3635.000000	70.592695
3634.000000	70.610303
3633.000000	70.626183
3632.000000	70.652910
3631.000000	70.672337
3630.000000	70.653291
3629.000000	70.628821
3628.000000	70.652145
3627.000000	70.693740
3626.000000	70.697980
3625.000000	70.661714
3624.000000	70.616454
3623.000000	70.586350
3622.000000	70.564745
3621.000000	70.524024
3620.000000	70.451945
3619.000000	70.367245
3618.000000	70.289813
3617.000000	70.220607
3616.000000	70.150732
3615.000000	70.066461
3614.000000	69.961087
3613.000000	69.847414
3612.000000	69.743525
3611.000000	69.650228
3610.000000	69.554311
3609.000000	69.448635
3608.000000	69.339627
3607.000000	69.232819
3606.000000	69.123689
3605.000000	69.007669
3604.000000	68.887211
3603.000000	68.766531
3602.000000	68.648257
3601.000000	68.537573
3600.000000	68.441702
3599.000000	68.358484
3598.000000	68.275255
3597.000000	68.183390
3596.000000	68.083165
3595.000000	67.975396
3594.000000	67.862424
3593.000000	67.748550
3592.000000	67.638969
3591.000000	67.539776
3590.000000	67.454589
3589.000000	67.387040
3588.000000	67.350161
3587.000000	67.356560
3586.000000	67.395005
3585.000000	67.435852
3584.000000	67.455874
3583.000000	67.448487
3582.000000	67.418442
3581.000000	67.374123
3580.000000	67.321908
3579.000000	67.263794
3578.000000	67.200095
3577.000000	67.133168
3576.000000	67.065630
3575.000000	66.997841
3574.000000	66.928352
3573.000000	66.857180
3572.000000	66.783400
3571.000000	66.703644
3570.000000	66.609598
3569.000000	66.490778
3568.000000	66.348551
3567.000000	66.203243
3566.000000	66.072813
3565.000000	65.954577
3564.000000	65.835611
3563.000000	65.706640
3562.000000	65.564969
3561.000000	65.412015
3560.000000	65.250236
3559.000000	65.081573
3558.000000	64.907374
3557.000000	64.729674
3556.000000	64.549531
3555.000000	64.364038
3554.000000	64.167337
3553.000000	63.958529
3552.000000	63.744337
3551.000000	63.529879
3550.000000	63.310980
3549.000000	63.078942
3548.000000	62.829963
3547.000000	62.568022
3546.000000	62.299118
3545.000000	62.026528
3544.000000	61.750184
3543.000000	61.467445
3542.000000	61.174527
3541.000000	60.869389
3540.000000	60.551633
3539.000000	60.219343
3538.000000	59.868638
3537.000000	59.498932
3536.000000	59.115058
3535.000000	58.720991
3534.000000	58.315947
3533.000000	57.896592
3532.000000	57.460984
3531.000000	57.006573
3530.000000	56.528685
3529.000000	56.025371
3528.000000	55.501577
3527.000000	54.964380
3526.000000	54.414731
3525.000000	53.848041
3524.000000	53.261398
3523.000000	52.656493
3522.000000	52.036200
3521.000000	51.401662
3520.000000	50.751698
3519.000000	50.083573
3518.000000	49.395648
3517.000000	48.690102
3516.000000	47.971151
3515.000000	47.240618
3514.000000	46.498178
3513.000000	45.742969
3512.000000	44.972348
3511.000000	44.181623
3510.000000	43.370296
3509.000000	42.548064
3508.000000	41.728357
3507.000000	40.914358
3506.000000	40.096107
3505.000000	39.262895
3504.000000	38.414929
3503.000000	37.561485
3502.000000	36.712133
3501.000000	35.872670
3500.000000	35.044492
3499.000000	34.223760
3498.000000	33.404642
3497.000000	32.586202
3496.000000	31.773874
3495.000000	30.973544
3494.000000	30.188312
3493.000000	29.421371
3492.000000	28.675733
3491.000000	27.949891
3490.000000	27.239201
3489.000000	26.543162
3488.000000	25.867925
3487.000000	25.220093
3486.000000	24.601430
3485.000000	24.010031
3484.000000	23.441208
3483.000000	22.887909
3482.000000	22.346377
3481.000000	21.821837
3480.000000	21.323390
3479.000000	20.851932
3478.000000	20.398591
3477.000000	19.954899
3476.000000	19.518522
3475.000000	19.089639
3474.000000	18.667867
3473.000000	18.255096
3472.000000	17.856434
3471.000000	17.476816
3470.000000	17.121653
3469.000000	16.799730
3468.000000	16.520272
3467.000000	16.286715
3466.000000	16.096924
3465.000000	15.949674
3464.000000	15.845671
3463.000000	15.784239
3462.000000	15.765441
3461.000000	15.793462
3460.000000	15.872520
3459.000000	15.998815
3458.000000	16.161572
3457.000000	16.351688
3456.000000	16.562965
3455.000000	16.786871
3454.000000	17.012416
3453.000000	17.230510
3452.000000	17.433898
3451.000000	17.612652
3450.000000	17.754053
3449.000000	17.848083
3448.000000	17.889515
3447.000000	17.875882
3446.000000	17.808856
3445.000000	17.695010
3444.000000	17.541711
3443.000000	17.353398
3442.000000	17.134212
3441.000000	16.893785
3440.000000	16.644891
3439.000000	16.397334
3438.000000	16.159574
3437.000000	15.943553
3436.000000	15.761738
3435.000000	15.619543
3434.000000	15.515032
3433.000000	15.445685
3432.000000	15.413009
3431.000000	15.420364
3430.000000	15.471912
3429.000000	15.573523
3428.000000	15.728875
3427.000000	15.937601
3426.000000	16.198480
3425.000000	16.513801
3424.000000	16.887691
3423.000000	17.319593
3422.000000	17.806499
3421.000000	18.347350
3420.000000	18.940982
3419.000000	19.582425
3418.000000	20.263276
3417.000000	20.977069
3416.000000	21.719159
3415.000000	22.483253
3414.000000	23.263254
3413.000000	24.055387
3412.000000	24.856065
3411.000000	25.658911
3410.000000	26.457087
3409.000000	27.247207
3408.000000	28.026852
3407.000000	28.790110
3406.000000	29.530059
3405.000000	30.244495
3404.000000	30.935828
3403.000000	31.607564
3402.000000	32.263718
3401.000000	32.908850
3400.000000	33.543949
3399.000000	34.162902
3398.000000	34.758178
3397.000000	35.328672
3396.000000	35.878257
3395.000000	36.410002
3394.000000	36.925890
3393.000000	37.430773
3392.000000	37.930428
3391.000000	38.425219
3390.000000	38.911042
3389.000000	39.385689
3388.000000	39.850874
3387.000000	40.308441
3386.000000	40.758457
3385.000000	41.201676
3384.000000	41.639867
3383.000000	42.073896
3382.000000	42.504326
3381.000000	42.933100
3380.000000	43.362049
3379.000000	43.790305
3378.000000	44.216159
3377.000000	44.640212
3376.000000	45.063393
3375.000000	45.483466
3374.000000	45.897069
3373.000000	46.304663
3372.000000	46.710156
3371.000000	47.116115
3370.000000	47.522355
3369.000000	47.928058
3368.000000	48.332169
3367.000000	48.732434
3366.000000	49.126771
3365.000000	49.515407
3364.000000	49.899755
3363.000000	50.280280
3362.000000	50.657524
3361.000000	51.033436
3360.000000	51.409133
3359.000000	51.782505
3358.000000	52.150659
3357.000000	52.513634
3356.000000	52.872844
3355.000000	53.227686
3354.000000	53.576857
3353.000000	53.921855
3352.000000	54.265650
3351.000000	54.607947
3350.000000	54.944886
3349.000000	55.273488
3348.000000	55.593878
3347.000000	55.907747
3346.000000	56.216755
3345.000000	56.522268
3344.000000	56.824166
3343.000000	57.119703
3342.000000	57.406406
3341.000000	57.685425
3340.000000	57.959903
3339.000000	58.230370
3338.000000	58.493675
3337.000000	58.746747
3336.000000	58.988618
3335.000000	59.218952
3334.000000	59.436966
3333.000000	59.641517
3332.000000	59.831105
3331.000000	60.002803
3330.000000	60.153120
3329.000000	60.280681
3328.000000	60.385516
3327.000000	60.466480
3326.000000	60.519638
3325.000000	60.539318
3324.000000	60.520698
3323.000000	60.459464
3322.000000	60.352729
3321.000000	60.198715
3320.000000	59.993879
3319.000000	59.732913
3318.000000	59.409275
3317.000000	59.018013
3316.000000	58.554315
3315.000000	58.009261
3314.000000	57.372830
3313.000000	56.635914
3312.000000	55.791160
3311.000000	54.832202
3310.000000	53.752350
3309.000000	52.551090
3308.000000	51.231612
3307.000000	49.796373
3306.000000	48.246739
3305.000000	46.581860
3304.000000	44.803300
3303.000000	42.913381
3302.000000	40.917759
3301.000000	38.829928
3300.000000	36.668401
3299.000000	34.457210
3298.000000	32.229552
3297.000000	30.030502
3296.000000	27.909930
3295.000000	25.912446
3294.000000	24.073061
3293.000000	22.419194
3292.000000	20.966570
3291.000000	19.709387
3290.000000	18.626940
3289.000000	17.690256
3288.000000	16.867085
3287.000000	16.125556
3286.000000	15.437230
3285.000000	14.787030
3284.000000	14.169617
3283.000000	13.584638
3282.000000	13.039165
3281.000000	12.547403
3280.000000	12.126819
3279.000000	11.790772
3278.000000	11.549785
3277.000000	11.415736
3276.000000	11.395039
3275.000000	11.483856
3274.000000	11.670586
3273.000000	11.939813
3272.000000	12.271205
3271.000000	12.634043
3270.000000	12.991508
3269.000000	13.308494
3268.000000	13.553632
3267.000000	13.700498
3266.000000	13.734423
3265.000000	13.656447
3264.000000	13.479134
3263.000000	13.221977
3262.000000	12.910550
3261.000000	12.577892
3260.000000	12.256979
3259.000000	11.972995
3258.000000	11.745579
3257.000000	11.592062
3256.000000	11.522765
3255.000000	11.536935
3254.000000	11.627478
3253.000000	11.785516
3252.000000	11.999719
3251.000000	12.252282
3250.000000	12.523820
3249.000000	12.800194
3248.000000	13.069300
3247.000000	13.317520
3246.000000	13.532635
3245.000000	13.708854
3244.000000	13.845252
3243.000000	13.942441
3242.000000	14.003495
3241.000000	14.035743
3240.000000	14.046707
3239.000000	14.039460
3238.000000	14.016723
3237.000000	13.984362
3236.000000	13.948789
3235.000000	13.913825
3234.000000	13.881926
3233.000000	13.855458
3232.000000	13.831782
3231.000000	13.801400
3230.000000	13.755236
3229.000000	13.690047
3228.000000	13.604757
3227.000000	13.495340
3226.000000	13.357922
3225.000000	13.193561
3224.000000	13.004947
3223.000000	12.793065
3222.000000	12.560299
3221.000000	12.313741
3220.000000	12.061636
3219.000000	11.808689
3218.000000	11.558634
3217.000000	11.316532
3216.000000	11.084647
3215.000000	10.859953
3214.000000	10.639368
3213.000000	10.423701
3212.000000	10.213065
3211.000000	10.003266
3210.000000	9.791108
3209.000000	9.579775
3208.000000	9.374538
3207.000000	9.177223
3206.000000	8.989072
3205.000000	8.814284
3204.000000	8.656900
3203.000000	8.517274
3202.000000	8.395843
3201.000000	8.296882
3200.000000	8.223587
3199.000000	8.174419
3198.000000	8.147239
3197.000000	8.143523
3196.000000	8.165427
3195.000000	8.211209
3194.000000	8.278952
3193.000000	8.369389
3192.000000	8.481634
3191.000000	8.611456
3190.000000	8.755601
3189.000000	8.915171
3188.000000	9.090570
3187.000000	9.277276
3186.000000	9.471184
3185.000000	9.672709
3184.000000	9.882858
3183.000000	10.099211
3182.000000	10.319183
3181.000000	10.543430
3180.000000	10.771772
3179.000000	11.000387
3178.000000	11.226335
3177.000000	11.450734
3176.000000	11.674268
3175.000000	11.893670
3174.000000	12.106106
3173.000000	12.312778
3172.000000	12.515076
3171.000000	12.711096
3170.000000	12.899577
3169.000000	13.082844
3168.000000	13.262319
3167.000000	13.435511
3166.000000	13.600256
3165.000000	13.758139
3164.000000	13.910276
3163.000000	14.053781
3162.000000	14.186166
3161.000000	14.308548
3160.000000	14.421776
3159.000000	14.523399
3158.000000	14.611551
3157.000000	14.688730
3156.000000	14.758149
3155.000000	14.820794
3154.000000	14.879073
3153.000000	14.938734
3152.000000	15.003986
3151.000000	15.074155
3150.000000	15.148318
3149.000000	15.229042
3148.000000	15.318356
3147.000000	15.414145
3146.000000	15.514077
3145.000000	15.619127
3144.000000	15.729914
3143.000000	15.843704
3142.000000	15.957939
3141.000000	16.073072
3140.000000	16.188558
3139.000000	16.300044
3138.000000	16.403762
3137.000000	16.499867
3136.000000	16.588135
3135.000000	16.663843
3134.000000	16.721539
3133.000000	16.758325
3132.000000	16.771206
3131.000000	16.754387
3130.000000	16.702001
3129.000000	16.611662
3128.000000	16.481744
3127.000000	16.311038
3126.000000	16.103444
3125.000000	15.869053
3124.000000	15.619362
3123.000000	15.363275
3122.000000	15.110091
3121.000000	14.870435
3120.000000	14.650363
3119.000000	14.448692
3118.000000	14.262753
3117.000000	14.092601
3116.000000	13.937007
3115.000000	13.790901
3114.000000	13.649962
3113.000000	13.514019
3112.000000	13.382951
3111.000000	13.253890
3110.000000	13.125965
3109.000000	13.002721
3108.000000	12.887395
3107.000000	12.780251
3106.000000	12.683019
3105.000000	12.601759
3104.000000	12.541314
3103.000000	12.502210
3102.000000	12.486139
3101.000000	12.498821
3100.000000	12.545401
3099.000000	12.625883
3098.000000	12.739246
3097.000000	12.887499
3096.000000	13.070990
3095.000000	13.286308
3094.000000	13.530376
3093.000000	13.803347
3092.000000	14.104777
3091.000000	14.429866
3090.000000	14.773993
3089.000000	15.135231
3088.000000	15.510582
3087.000000	15.894678
3086.000000	16.283932
3085.000000	16.678618
3084.000000	17.077506
3083.000000	17.475421
3082.000000	17.868870
3081.000000	18.259244
3080.000000	18.648113
3079.000000	19.033484
3078.000000	19.413359
3077.000000	19.788117
3076.000000	20.156896
3075.000000	20.515965
3074.000000	20.863497
3073.000000	21.201942
3072.000000	21.532956
3071.000000	21.854695
3070.000000	22.166334
3069.000000	22.470876
3068.000000	22.770616
3067.000000	23.063477
3066.000000	23.347325
3065.000000	23.623832
3064.000000	23.895193
3063.000000	24.160831
3062.000000	24.419806
3061.000000	24.673546
3060.000000	24.923184
3059.000000	25.167467
3058.000000	25.405910
3057.000000	25.640478
3056.000000	25.872207
3055.000000	26.099395
3054.000000	26.321486
3053.000000	26.541445
3052.000000	26.761607
3051.000000	26.980492
3050.000000	27.195855
3049.000000	27.407803
3048.000000	27.616849
3047.000000	27.822065
3046.000000	28.023651
3045.000000	28.224197
3044.000000	28.425179
3043.000000	28.625159
3042.000000	28.823034
3041.000000	29.019841
3040.000000	29.215534
3039.000000	29.407636
3038.000000	29.595402
3037.000000	29.781965
3036.000000	29.970275
3035.000000	30.159820
3034.000000	30.349171
3033.000000	30.538492
3032.000000	30.727521
3031.000000	30.914560
3030.000000	31.099476
3029.000000	31.284428
3028.000000	31.469992
3027.000000	31.653901
3026.000000	31.835030
3025.000000	32.015013
3024.000000	32.193832
3023.000000	32.367614
3022.000000	32.532732
3021.000000	32.688255
3020.000000	32.832427
3019.000000	32.959392
3018.000000	33.062393
3017.000000	33.137444
3016.000000	33.182592
3015.000000	33.198256
3014.000000	33.191296
3013.000000	33.177187
3012.000000	33.175077
3011.000000	33.202055
3010.000000	33.271469
3009.000000	33.390899
3008.000000	33.557511
3007.000000	33.757021
3006.000000	33.969284
3005.000000	34.173351
3004.000000	34.346732
3003.000000	34.464006
3002.000000	34.500122
3001.000000	34.434450
3000.000000	34.255668
2999.000000	33.970296
2998.000000	33.614263
2997.000000	33.254265
2996.000000	32.971684
2995.000000	32.837940
2994.000000	32.892109
2993.000000	33.129227
2992.000000	33.501566
2991.000000	33.939691
2990.000000	34.381562
2989.000000	34.789765
2988.000000	35.149599
2987.000000	35.458900
2986.000000	35.722702
2985.000000	35.948882
2984.000000	36.142750
2983.000000	36.304038
2982.000000	36.430603
2981.000000	36.520784
2980.000000	36.571133
2979.000000	36.575279
2978.000000	36.528014
2977.000000	36.430883
2976.000000	36.292584
2975.000000	36.129457
2974.000000	35.966186
2973.000000	35.831127
2972.000000	35.745356
2971.000000	35.713242
2970.000000	35.721053
2969.000000	35.738390
2968.000000	35.720387
2967.000000	35.619190
2966.000000	35.405402
2965.000000	35.084372
2964.000000	34.693689
2963.000000	34.287196
2962.000000	33.919007
2961.000000	33.631259
2960.000000	33.447528
2959.000000	33.373850
2958.000000	33.407672
2957.000000	33.542185
2956.000000	33.763054
2955.000000	34.046719
2954.000000	34.364314
2953.000000	34.685515
2952.000000	34.977438
2951.000000	35.209772
2950.000000	35.366311
2949.000000	35.452715
2948.000000	35.490041
2947.000000	35.498880
2946.000000	35.483048
2945.000000	35.415049
2944.000000	35.236160
2943.000000	34.885100
2942.000000	34.352074
2941.000000	33.718220
2940.000000	33.144839
2939.000000	32.811024
2938.000000	32.835029
2937.000000	33.226963
2936.000000	33.894106
2935.000000	34.694663
2934.000000	35.501138
2933.000000	36.236053
2932.000000	36.870194
2931.000000	37.405456
2930.000000	37.860060
2929.000000	38.255947
2928.000000	38.610251
2927.000000	38.932410
2926.000000	39.228986
2925.000000	39.505801
2924.000000	39.764960
2923.000000	40.004281
2922.000000	40.222166
2921.000000	40.419878
2920.000000	40.597367
2919.000000	40.751809
2918.000000	40.881705
2917.000000	40.989725
2916.000000	41.079807
2915.000000	41.154308
2914.000000	41.215514
2913.000000	41.266398
2912.000000	41.308191
2911.000000	41.339862
2910.000000	41.360583
2909.000000	41.369689
2908.000000	41.362678
2907.000000	41.329198
2906.000000	41.256358
2905.000000	41.130881
2904.000000	40.937838
2903.000000	40.663339
2902.000000	40.302067
2901.000000	39.863034
2900.000000	39.370716
2899.000000	38.864897
2898.000000	38.398592
2897.000000	38.028625
2896.000000	37.797657
2895.000000	37.721887
2894.000000	37.793131
2893.000000	37.986181
2892.000000	38.265743
2891.000000	38.593664
2890.000000	38.938563
2889.000000	39.279541
2888.000000	39.602966
2887.000000	39.899258
2886.000000	40.163491
2885.000000	40.395848
2884.000000	40.597664
2883.000000	40.769977
2882.000000	40.915951
2881.000000	41.041612
2880.000000	41.152773
2879.000000	41.253554
2878.000000	41.348527
2877.000000	41.442700
2876.000000	41.537740
2875.000000	41.630610
2874.000000	41.717684
2873.000000	41.797909
2872.000000	41.872134
2871.000000	41.943428
2870.000000	42.019166
2869.000000	42.109138
2868.000000	42.218941
2867.000000	42.346938
2866.000000	42.488105
2865.000000	42.637331
2864.000000	42.788377
2863.000000	42.934233
2862.000000	43.071094
2861.000000	43.199467
2860.000000	43.320290
2859.000000	43.432971
2858.000000	43.538553
2857.000000	43.641239
2856.000000	43.744718
2855.000000	43.849701
2854.000000	43.955996
2853.000000	44.063362
2852.000000	44.168524
2851.000000	44.264605
2850.000000	44.345841
2849.000000	44.410997
2848.000000	44.461725
2847.000000	44.501043
2846.000000	44.534726
2845.000000	44.570434
2844.000000	44.613132
2843.000000	44.663311
2842.000000	44.720719
2841.000000	44.787089
2840.000000	44.863564
2839.000000	44.948293
2838.000000	45.038432
2837.000000	45.132425
2836.000000	45.229184
2835.000000	45.327477
2834.000000	45.427344
2833.000000	45.529955
2832.000000	45.635020
2831.000000	45.740443
2830.000000	45.845345
2829.000000	45.950862
2828.000000	46.056963
2827.000000	46.161206
2826.000000	46.261769
2825.000000	46.359216
2824.000000	46.454116
2823.000000	46.545335
2822.000000	46.632092
2821.000000	46.715396
2820.000000	46.796073
2819.000000	46.873550
2818.000000	46.947712
2817.000000	47.019824
2816.000000	47.090397
2815.000000	47.158126
2814.000000	47.222102
2813.000000	47.283161
2812.000000	47.342076
2811.000000	47.398427
2810.000000	47.452116
2809.000000	47.504057
2808.000000	47.554558
2807.000000	47.603034
2806.000000	47.650055
2805.000000	47.697462
2804.000000	47.745727
2803.000000	47.793463
2802.000000	47.840217
2801.000000	47.887412
2800.000000	47.935705
2799.000000	47.983716
2798.000000	48.030272
2797.000000	48.075613
2796.000000	48.119552
2795.000000	48.160860
2794.000000	48.199474
2793.000000	48.237122
2792.000000	48.274861
2791.000000	48.312078
2790.000000	48.348520
2789.000000	48.384881
2788.000000	48.420576
2787.000000	48.453453
2786.000000	48.482765
2785.000000	48.510327
2784.000000	48.538081
2783.000000	48.567102
2782.000000	48.599756
2781.000000	48.639874
2780.000000	48.689375
2779.000000	48.746811
2778.000000	48.810100
2777.000000	48.878306
2776.000000	48.949656
2775.000000	49.020549
2774.000000	49.088208
2773.000000	49.152387
2772.000000	49.213440
2771.000000	49.270887
2770.000000	49.324910
2769.000000	49.377087
2768.000000	49.428343
2767.000000	49.477871
2766.000000	49.525014
2765.000000	49.570151
2764.000000	49.612867
2763.000000	49.651491
2762.000000	49.685427
2761.000000	49.716000
2760.000000	49.744103
2759.000000	49.769072
2758.000000	49.790849
2757.000000	49.810882
2756.000000	49.829748
2755.000000	49.846098
2754.000000	49.859241
2753.000000	49.871191
2752.000000	49.885245
2751.000000	49.904207
2750.000000	49.930492
2749.000000	49.965253
2748.000000	50.005826
2747.000000	50.045972
2746.000000	50.080261
2745.000000	50.107321
2744.000000	50.128786
2743.000000	50.147280
2742.000000	50.165861
2741.000000	50.186655
2740.000000	50.208208
2739.000000	50.225881
2738.000000	50.236579
2737.000000	50.242733
2736.000000	50.251561
2735.000000	50.272096
2734.000000	50.312420
2733.000000	50.375944
2732.000000	50.458504
2731.000000	50.550509
2730.000000	50.643005
2729.000000	50.731203
2728.000000	50.812799
2727.000000	50.886131
2726.000000	50.951274
2725.000000	51.010407
2724.000000	51.065211
2723.000000	51.115094
2722.000000	51.158280
2721.000000	51.193014
2720.000000	51.217783
2719.000000	51.232322
2718.000000	51.239498
2717.000000	51.244729
2716.000000	51.252654
2715.000000	51.265837
2714.000000	51.286331
2713.000000	51.315855
2712.000000	51.353709
2711.000000	51.396663
2710.000000	51.441641
2709.000000	51.486908
2708.000000	51.530594
2707.000000	51.570508
2706.000000	51.606181
2705.000000	51.638794
2704.000000	51.668161
2703.000000	51.691811
2702.000000	51.707668
2701.000000	51.715346
2700.000000	51.714512
2699.000000	51.704179
2698.000000	51.684729
2697.000000	51.659122
2696.000000	51.631090
2695.000000	51.603950
2694.000000	51.581244
2693.000000	51.565857
2692.000000	51.557511
2691.000000	51.553033
2690.000000	51.549899
2689.000000	51.547995
2688.000000	51.547794
2687.000000	51.549176
2686.000000	51.552834
2685.000000	51.560443
2684.000000	51.572528
2683.000000	51.588346
2682.000000	51.608279
2681.000000	51.634437
2680.000000	51.668028
2679.000000	51.707889
2678.000000	51.752020
2677.000000	51.798106
2676.000000	51.842212
2675.000000	51.879592
2674.000000	51.907807
2673.000000	51.927384
2672.000000	51.939266
2671.000000	51.943958
2670.000000	51.943848
2669.000000	51.944092
2668.000000	51.950077
2667.000000	51.965591
2666.000000	51.993338
2665.000000	52.034297
2664.000000	52.085409
2663.000000	52.140141
2662.000000	52.192114
2661.000000	52.236694
2660.000000	52.269586
2659.000000	52.287193
2658.000000	52.289565
2657.000000	52.281045
2656.000000	52.267137
2655.000000	52.252572
2654.000000	52.242689
2653.000000	52.243463
2652.000000	52.258626
2651.000000	52.288569
2650.000000	52.332450
2649.000000	52.388725
2648.000000	52.453146
2647.000000	52.518835
2646.000000	52.579862
2645.000000	52.633726
2644.000000	52.680135
2643.000000	52.720270
2642.000000	52.757908
2641.000000	52.798390
2640.000000	52.844750
2639.000000	52.896104
2638.000000	52.950109
2637.000000	53.004789
2636.000000	53.057521
2635.000000	53.104829
2634.000000	53.144720
2633.000000	53.177532
2632.000000	53.203909
2631.000000	53.224050
2630.000000	53.239236
2629.000000	53.251999
2628.000000	53.263571
2627.000000	53.272986
2626.000000	53.279567
2625.000000	53.283957
2624.000000	53.286374
2623.000000	53.286088
2622.000000	53.283545
2621.000000	53.281042
2620.000000	53.279974
2619.000000	53.279160
2618.000000	53.276297
2617.000000	53.269071
2616.000000	53.254606
2615.000000	53.230023
2614.000000	53.194963
2613.000000	53.152005
2612.000000	53.104157
2611.000000	53.054218
2610.000000	53.006736
2609.000000	52.967879
2608.000000	52.942077
2607.000000	52.930571
2606.000000	52.933316
2605.000000	52.950249
2604.000000	52.979846
2603.000000	53.018768
2602.000000	53.064514
2601.000000	53.115710
2600.000000	53.169837
2599.000000	53.222985
2598.000000	53.272521
2597.000000	53.318252
2596.000000	53.360248
2595.000000	53.398196
2594.000000	53.433611
2593.000000	53.469997
2592.000000	53.509394
2591.000000	53.550694
2590.000000	53.591861
2589.000000	53.631437
2588.000000	53.667181
2587.000000	53.695803
2586.000000	53.715903
2585.000000	53.729620
2584.000000	53.740659
2583.000000	53.752684
2582.000000	53.770254
2581.000000	53.798590
2580.000000	53.840751
2579.000000	53.896284
2578.000000	53.962930
2577.000000	54.038178
2576.000000	54.118461
2575.000000	54.199440
2574.000000	54.278564
2573.000000	54.355522
2572.000000	54.430035
2571.000000	54.500920
2570.000000	54.567777
2569.000000	54.631422
2568.000000	54.691893
2567.000000	54.747955
2566.000000	54.799412
2565.000000	54.848062
2564.000000	54.895379
2563.000000	54.941377
2562.000000	54.986216
2561.000000	55.030878
2560.000000	55.075380
2559.000000	55.118009
2558.000000	55.157492
2557.000000	55.194204
2556.000000	55.228854
2555.000000	55.261949
2554.000000	55.295316
2553.000000	55.332125
2552.000000	55.374308
2551.000000	55.421339
2550.000000	55.471947
2549.000000	55.525128
2548.000000	55.578760
2547.000000	55.629381
2546.000000	55.674528
2545.000000	55.714040
2544.000000	55.748412
2543.000000	55.777673
2542.000000	55.802426
2541.000000	55.823955
2540.000000	55.842548
2539.000000	55.856605
2538.000000	55.864276
2537.000000	55.864406
2536.000000	55.855236
2535.000000	55.834792
2534.000000	55.802986
2533.000000	55.762360
2532.000000	55.716185
2531.000000	55.666945
2530.000000	55.617411
2529.000000	55.570709
2528.000000	55.528536
2527.000000	55.490704
2526.000000	55.456814
2525.000000	55.426792
2524.000000	55.399312
2523.000000	55.371575
2522.000000	55.341289
2521.000000	55.307318
2520.000000	55.268202
2519.000000	55.222044
2518.000000	55.168386
2517.000000	55.108517
2516.000000	55.043263
2515.000000	54.972869
2514.000000	54.899422
2513.000000	54.827429
2512.000000	54.761342
2511.000000	54.704430
2510.000000	54.660140
2509.000000	54.632038
2508.000000	54.621560
2507.000000	54.627069
2506.000000	54.646568
2505.000000	54.678580
2504.000000	54.720417
2503.000000	54.768343
2502.000000	54.819492
2501.000000	54.872457
2500.000000	54.924941
2499.000000	54.973223
2498.000000	55.014681
2497.000000	55.048701
2496.000000	55.074861
2495.000000	55.092500
2494.000000	55.102727
2493.000000	55.108386
2492.000000	55.111729
2491.000000	55.113728
2490.000000	55.116167
2489.000000	55.121941
2488.000000	55.132364
2487.000000	55.146458
2486.000000	55.163404
2485.000000	55.183445
2484.000000	55.205720
2483.000000	55.227808
2482.000000	55.248390
2481.000000	55.268493
2480.000000	55.289406
2479.000000	55.311315
2478.000000	55.334846
2477.000000	55.361633
2476.000000	55.392682
2475.000000	55.428135
2474.000000	55.469020
2473.000000	55.517482
2472.000000	55.574241
2471.000000	55.637824
2470.000000	55.706678
2469.000000	55.779550
2468.000000	55.853660
2467.000000	55.924697
2466.000000	55.989637
2465.000000	56.047771
2464.000000	56.098777
2463.000000	56.142142
2462.000000	56.179185
2461.000000	56.213287
2460.000000	56.246711
2459.000000	56.279194
2458.000000	56.309681
2457.000000	56.337452
2456.000000	56.360967
2455.000000	56.377821
2454.000000	56.387462
2453.000000	56.392119
2452.000000	56.394659
2451.000000	56.397368
2450.000000	56.403217
2449.000000	56.415865
2448.000000	56.437276
2447.000000	56.467064
2446.000000	56.504667
2445.000000	56.550320
2444.000000	56.602732
2443.000000	56.658231
2442.000000	56.713193
2441.000000	56.765648
2440.000000	56.814287
2439.000000	56.857870
2438.000000	56.896757
2437.000000	56.932978
2436.000000	56.967823
2435.000000	57.000428
2434.000000	57.029320
2433.000000	57.053475
2432.000000	57.071178
2431.000000	57.080226
2430.000000	57.079681
2429.000000	57.070392
2428.000000	57.053120
2427.000000	57.027488
2426.000000	56.993747
2425.000000	56.953158
2424.000000	56.906871
2423.000000	56.856326
2422.000000	56.805279
2421.000000	56.759551
2420.000000	56.723694
2419.000000	56.699550
2418.000000	56.687788
2417.000000	56.688458
2416.000000	56.698792
2415.000000	56.713067
2414.000000	56.725444
2413.000000	56.731469
2412.000000	56.726755
2411.000000	56.707100
2410.000000	56.671069
2409.000000	56.620565
2408.000000	56.558595
2407.000000	56.487954
2406.000000	56.413019
2405.000000	56.339495
2404.000000	56.271305
2403.000000	56.209740
2402.000000	56.156340
2401.000000	56.114079
2400.000000	56.084459
2399.000000	56.065854
2398.000000	56.055279
2397.000000	56.049792
2396.000000	56.044817
2395.000000	56.034078
2394.000000	56.012824
2393.000000	55.979833
2392.000000	55.935549
2391.000000	55.881257
2390.000000	55.821243
2389.000000	55.762612
2388.000000	55.712542
2387.000000	55.675867
2386.000000	55.656694
2385.000000	55.659557
2384.000000	55.685751
2383.000000	55.733040
2382.000000	55.797867
2381.000000	55.876784
2380.000000	55.964565
2379.000000	56.051849
2378.000000	56.129478
2377.000000	56.193096
2376.000000	56.239974
2375.000000	56.265783
2374.000000	56.267329
2373.000000	56.245278
2372.000000	56.204348
2371.000000	56.149070
2370.000000	56.082721
2369.000000	56.014969
2368.000000	55.960957
2367.000000	55.929213
2366.000000	55.918727
2365.000000	55.936730
2364.000000	55.997410
2363.000000	56.089598
2362.000000	56.204016
2361.000000	56.336925
2360.000000	56.471602
2359.000000	56.599160
2358.000000	56.695543
2357.000000	56.752488
2356.000000	56.770020
2355.000000	56.734935
2354.000000	56.665876
2353.000000	56.608618
2352.000000	56.644169
2351.000000	56.763304
2350.000000	56.866711
2349.000000	56.886011
2348.000000	56.826811
2347.000000	56.792864
2346.000000	56.842835
2345.000000	56.955817
2344.000000	57.062933
2343.000000	57.104801
2342.000000	57.120558
2341.000000	57.128124
2340.000000	57.137214
2339.000000	57.135874
2338.000000	57.125796
2337.000000	57.115289
2336.000000	57.108804
2335.000000	57.105804
2334.000000	57.101299
2333.000000	57.083845
2332.000000	57.045684
2331.000000	56.983311
2330.000000	56.885640
2329.000000	56.791611
2328.000000	56.696767
2327.000000	56.636349
2326.000000	56.595937
2325.000000	56.584959
2324.000000	56.591382
2323.000000	56.593539
2322.000000	56.586287
2321.000000	56.557658
2320.000000	56.519866
2319.000000	56.473644
2318.000000	56.427459
2317.000000	56.386524
2316.000000	56.346435
2315.000000	56.307517
2314.000000	56.254421
2313.000000	56.189007
2312.000000	56.096888
2311.000000	55.989222
2310.000000	55.861890
2309.000000	55.730261
2308.000000	55.587564
2307.000000	55.441793
2306.000000	55.290026
2305.000000	55.142529
2304.000000	54.998385
2303.000000	54.861644
2302.000000	54.729492
2301.000000	54.606365
2300.000000	54.486643
2299.000000	54.372106
2298.000000	54.259251
2297.000000	54.156554
2296.000000	54.063212
2295.000000	53.986727
2294.000000	53.928372
2293.000000	53.896526
2292.000000	53.891007
2291.000000	53.912359
2290.000000	53.957724
2289.000000	54.024934
2288.000000	54.108724
2287.000000	54.203118
2286.000000	54.305016
2285.000000	54.411824
2284.000000	54.519906
2283.000000	54.623707
2282.000000	54.722171
2281.000000	54.815651
2280.000000	54.904121
2279.000000	54.984700
2278.000000	55.057457
2277.000000	55.124395
2276.000000	55.187691
2275.000000	55.249368
2274.000000	55.312788
2273.000000	55.383241
2272.000000	55.463439
2271.000000	55.554457
2270.000000	55.657453
2269.000000	55.774105
2268.000000	55.903900
2267.000000	56.044245
2266.000000	56.192552
2265.000000	56.347389
2264.000000	56.505341
2263.000000	56.662996
2262.000000	56.817991
2261.000000	56.968965
2260.000000	57.113454
2259.000000	57.247327
2258.000000	57.369332
2257.000000	57.479597
2256.000000	57.579225
2255.000000	57.669029
2254.000000	57.752433
2253.000000	57.834751
2252.000000	57.919820
2251.000000	58.009645
2250.000000	58.104450
2249.000000	58.203103
2248.000000	58.301240
2247.000000	58.393369
2246.000000	58.475763
2245.000000	58.547818
2244.000000	58.609900
2243.000000	58.663282
2242.000000	58.710864
2241.000000	58.756171
2240.000000	58.800385
2239.000000	58.841836
2238.000000	58.878055
2237.000000	58.906483
2236.000000	58.924577
2235.000000	58.931271
2234.000000	58.929495
2233.000000	58.925102
2232.000000	58.923728
2231.000000	58.929463
2230.000000	58.945410
2229.000000	58.972364
2228.000000	59.006821
2227.000000	59.042639
2226.000000	59.075089
2225.000000	59.102123
2224.000000	59.122498
2223.000000	59.135659
2222.000000	59.143449
2221.000000	59.149778
2220.000000	59.157726
2219.000000	59.168653
2218.000000	59.183668
2217.000000	59.203986
2216.000000	59.229601
2215.000000	59.259531
2214.000000	59.293660
2213.000000	59.332538
2212.000000	59.375667
2211.000000	59.421616
2210.000000	59.469735
2209.000000	59.519607
2208.000000	59.568968
2207.000000	59.614008
2206.000000	59.651714
2205.000000	59.680496
2204.000000	59.698943
2203.000000	59.706385
2202.000000	59.704666
2201.000000	59.697591
2200.000000	59.688398
2199.000000	59.679160
2198.000000	59.672165
2197.000000	59.669565
2196.000000	59.671708
2195.000000	59.677577
2194.000000	59.687219
2193.000000	59.702172
2192.000000	59.723785
2191.000000	59.752903
2190.000000	59.790667
2189.000000	59.837786
2188.000000	59.892940
2187.000000	59.953630
2186.000000	60.017874
2185.000000	60.083436
2184.000000	60.146283
2183.000000	60.202178
2182.000000	60.249838
2181.000000	60.290679
2180.000000	60.326294
2179.000000	60.358051
2178.000000	60.388379
2177.000000	60.419648
2176.000000	60.451405
2175.000000	60.480625
2174.000000	60.504494
2173.000000	60.521368
2172.000000	60.529728
2171.000000	60.528852
2170.000000	60.520730
2169.000000	60.509283
2168.000000	60.497530
2167.000000	60.487021
2166.000000	60.479427
2165.000000	60.476219
2164.000000	60.476717
2163.000000	60.478823
2162.000000	60.481841
2161.000000	60.486941
2160.000000	60.495034
2159.000000	60.506263
2158.000000	60.521475
2157.000000	60.541921
2156.000000	60.567251
2155.000000	60.595449
2154.000000	60.624712
2153.000000	60.653729
2152.000000	60.680739
2151.000000	60.704529
2150.000000	60.726294
2149.000000	60.748552
2148.000000	60.772152
2147.000000	60.796038
2146.000000	60.819133
2145.000000	60.840451
2144.000000	60.857835
2143.000000	60.868984
2142.000000	60.874095
2141.000000	60.875886
2140.000000	60.877079
2139.000000	60.879452
2138.000000	60.884665
2137.000000	60.893455
2136.000000	60.903743
2135.000000	60.911340
2134.000000	60.912740
2133.000000	60.905735
2132.000000	60.888303
2131.000000	60.859620
2130.000000	60.822528
2129.000000	60.782923
2128.000000	60.746320
2127.000000	60.716232
2126.000000	60.695057
2125.000000	60.683999
2124.000000	60.681749
2123.000000	60.685538
2122.000000	60.694021
2121.000000	60.707836
2120.000000	60.727834
2119.000000	60.754625
2118.000000	60.789303
2117.000000	60.832286
2116.000000	60.881161
2115.000000	60.931285
2114.000000	60.978542
2113.000000	61.019970
2112.000000	61.052596
2111.000000	61.074144
2110.000000	61.085067
2109.000000	61.088360
2108.000000	61.087520
2107.000000	61.085986
2106.000000	61.087888
2105.000000	61.096767
2104.000000	61.112976
2103.000000	61.133513
2102.000000	61.153749
2101.000000	61.168147
2100.000000	61.170445
2099.000000	61.156037
2098.000000	61.124947
2097.000000	61.081146
2096.000000	61.030097
2095.000000	60.978479
2094.000000	60.934412
2093.000000	60.904804
2092.000000	60.892436
2091.000000	60.897194
2090.000000	60.919136
2089.000000	60.957907
2088.000000	61.009878
2087.000000	61.068892
2086.000000	61.129614
2085.000000	61.187891
2084.000000	61.239167
2083.000000	61.279433
2082.000000	61.307139
2081.000000	61.322480
2080.000000	61.325316
2079.000000	61.315835
2078.000000	61.296611
2077.000000	61.270943
2076.000000	61.239925
2075.000000	61.203055
2074.000000	61.160482
2073.000000	61.112632
2072.000000	61.057834
2071.000000	60.993680
2070.000000	60.920778
2069.000000	60.841882
2068.000000	60.757598
2067.000000	60.666413
2066.000000	60.569278
2065.000000	60.470830
2064.000000	60.374566
2063.000000	60.279805
2062.000000	60.184044
2061.000000	60.085514
2060.000000	59.983163
2059.000000	59.876820
2058.000000	59.768505
2057.000000	59.661660
2056.000000	59.558808
2055.000000	59.461501
2054.000000	59.372246
2053.000000	59.293833
2052.000000	59.226247
2051.000000	59.167068
2050.000000	59.115124
2049.000000	59.071142
2048.000000	59.034836
2047.000000	59.005171
2046.000000	58.983502
2045.000000	58.971992
2044.000000	58.969126
2043.000000	58.970844
2042.000000	58.976014
2041.000000	58.987415
2040.000000	59.006951
2039.000000	59.034320
2038.000000	59.070586
2037.000000	59.118707
2036.000000	59.180373
2035.000000	59.255105
2034.000000	59.342209
2033.000000	59.440203
2032.000000	59.544344
2031.000000	59.648145
2030.000000	59.747496
2029.000000	59.840757
2028.000000	59.926420
2027.000000	60.004388
2026.000000	60.078340
2025.000000	60.153744
2024.000000	60.232543
2023.000000	60.313426
2022.000000	60.396068
2021.000000	60.480268
2020.000000	60.561633
2019.000000	60.633808
2018.000000	60.696127
2017.000000	60.755137
2016.000000	60.817899
2015.000000	60.887876
2014.000000	60.967081
2013.000000	61.056954
2012.000000	61.155556
2011.000000	61.257785
2010.000000	61.359423
2009.000000	61.458040
2008.000000	61.550793
2007.000000	61.635258
2006.000000	61.712457
2005.000000	61.786777
2004.000000	61.861410
2003.000000	61.937491
2002.000000	62.016235
2001.000000	62.097999
2000.000000	62.180474
1999.000000	62.258598
1998.000000	62.329185
1997.000000	62.394063
1996.000000	62.456069
1995.000000	62.513458
1994.000000	62.562617
1993.000000	62.606215
1992.000000	62.654755
1991.000000	62.717461
1990.000000	62.794583
1989.000000	62.880135
1988.000000	62.968587
1987.000000	63.057146
1986.000000	63.144062
1985.000000	63.227715
1984.000000	63.307384
1983.000000	63.384415
1982.000000	63.461074
1981.000000	63.538729
1980.000000	63.618306
1979.000000	63.699236
1978.000000	63.779814
1977.000000	63.859320
1976.000000	63.939091
1975.000000	64.019967
1974.000000	64.100845
1973.000000	64.181113
1972.000000	64.262067
1971.000000	64.343018
1970.000000	64.417595
1969.000000	64.477592
1968.000000	64.520511
1967.000000	64.551505
1966.000000	64.577544
1965.000000	64.601041
1964.000000	64.619951
1963.000000	64.631206
1962.000000	64.633001
1961.000000	64.626133
1960.000000	64.612751
1959.000000	64.593951
1958.000000	64.569458
1957.000000	64.540286
1956.000000	64.511790
1955.000000	64.491740
1954.000000	64.485894
1953.000000	64.496330
1952.000000	64.521962
1951.000000	64.560798
1950.000000	64.608250
1949.000000	64.655681
1948.000000	64.696146
1947.000000	64.729304
1946.000000	64.756144
1945.000000	64.771442
1944.000000	64.768241
1943.000000	64.751959
1942.000000	64.741419
1941.000000	64.750344
1940.000000	64.775650
1939.000000	64.805377
1938.000000	64.829638
1937.000000	64.843563
1936.000000	64.844977
1935.000000	64.832921
1934.000000	64.810029
1933.000000	64.782572
1932.000000	64.755869
1931.000000	64.735464
1930.000000	64.724923
1929.000000	64.723779
1928.000000	64.730745
1927.000000	64.745114
1926.000000	64.764691
1925.000000	64.778134
1924.000000	64.775489
1923.000000	64.767089
1922.000000	64.775577
1921.000000	64.807210
1920.000000	64.844787
1919.000000	64.870123
1918.000000	64.886322
1917.000000	64.903308
1916.000000	64.915309
1915.000000	64.911864
1914.000000	64.894068
1913.000000	64.868922
1912.000000	64.839034
1911.000000	64.807031
1910.000000	64.780999
1909.000000	64.769243
1908.000000	64.771627
1907.000000	64.781734
1906.000000	64.798307
1905.000000	64.819528
1904.000000	64.840078
1903.000000	64.860860
1902.000000	64.890533
1901.000000	64.935442
1900.000000	64.994606
1899.000000	65.064984
1898.000000	65.145631
1897.000000	65.228879
1896.000000	65.300988
1895.000000	65.359207
1894.000000	65.414858
1893.000000	65.473202
1892.000000	65.523202
1891.000000	65.554673
1890.000000	65.577865
1889.000000	65.613142
1888.000000	65.664542
1887.000000	65.721143
1886.000000	65.774998
1885.000000	65.822909
1884.000000	65.862269
1883.000000	65.895165
1882.000000	65.928089
1881.000000	65.965035
1880.000000	66.005852
1879.000000	66.050696
1878.000000	66.103743
1877.000000	66.166037
1876.000000	66.227936
1875.000000	66.281160
1874.000000	66.330355
1873.000000	66.382641
1872.000000	66.433155
1871.000000	66.468986
1870.000000	66.487453
1869.000000	66.506474
1868.000000	66.543676
1867.000000	66.598425
1866.000000	66.664335
1865.000000	66.734545
1864.000000	66.798351
1863.000000	66.849822
1862.000000	66.894936
1861.000000	66.941904
1860.000000	66.991360
1859.000000	67.042504
1858.000000	67.099667
1857.000000	67.164215
1856.000000	67.226698
1855.000000	67.278280
1854.000000	67.319859
1853.000000	67.355653
1852.000000	67.390570
1851.000000	67.425745
1850.000000	67.462531
1849.000000	67.506209
1848.000000	67.563929
1847.000000	67.637957
1846.000000	67.715038
1845.000000	67.773426
1844.000000	67.813640
1843.000000	67.849273
1842.000000	67.880017
1841.000000	67.905937
1840.000000	67.933304
1839.000000	67.967159
1838.000000	68.013263
1837.000000	68.071046
1836.000000	68.132700
1835.000000	68.193107
1834.000000	68.250421
1833.000000	68.299422
1832.000000	68.328412
1831.000000	68.328274
1830.000000	68.323554
1829.000000	68.353645
1828.000000	68.422501
1827.000000	68.503623
1826.000000	68.575811
1825.000000	68.644521
1824.000000	68.719984
1823.000000	68.792174
1822.000000	68.847632
1821.000000	68.888278
1820.000000	68.920158
1819.000000	68.943497
1818.000000	68.965040
1817.000000	68.998490
1816.000000	69.049928
1815.000000	69.109167
1814.000000	69.159861
1813.000000	69.192634
1812.000000	69.200805
1811.000000	69.185479
1810.000000	69.161811
1809.000000	69.142699
1808.000000	69.127918
1807.000000	69.118453
1806.000000	69.127082
1805.000000	69.159148
1804.000000	69.196982
1803.000000	69.215964
1802.000000	69.210265
1801.000000	69.200846
1800.000000	69.203150
1799.000000	69.213933
1798.000000	69.228245
1797.000000	69.248231
1796.000000	69.279694
1795.000000	69.326461
1794.000000	69.378332
1793.000000	69.419483
1792.000000	69.445788
1791.000000	69.461343
1790.000000	69.473283
1789.000000	69.492574
1788.000000	69.519655
1787.000000	69.542499
1786.000000	69.556802
1785.000000	69.572215
1784.000000	69.597264
1783.000000	69.624763
1782.000000	69.635893
1781.000000	69.630908
1780.000000	69.626754
1779.000000	69.635448
1778.000000	69.651866
1777.000000	69.670182
1776.000000	69.703772
1775.000000	69.768200
1774.000000	69.851360
1773.000000	69.938383
1772.000000	70.041786
1771.000000	70.147746
1770.000000	70.221473
1769.000000	70.260118
1768.000000	70.289118
1767.000000	70.332566
1766.000000	70.393733
1765.000000	70.468129
1764.000000	70.545218
1763.000000	70.601409
1762.000000	70.629547
1761.000000	70.653421
1760.000000	70.681780
1759.000000	70.703570
1758.000000	70.703949
1757.000000	70.694276
1756.000000	70.714812
1755.000000	70.774810
1754.000000	70.848852
1753.000000	70.915837
1752.000000	70.967601
1751.000000	71.007659
1750.000000	71.039271
1749.000000	71.059970
1748.000000	71.089526
1747.000000	71.146377
1746.000000	71.215547
1745.000000	71.278254
1744.000000	71.337803
1743.000000	71.406216
1742.000000	71.480327
1741.000000	71.539258
1740.000000	71.570229
1739.000000	71.586529
1738.000000	71.599381
1737.000000	71.624702
1736.000000	71.661757
1735.000000	71.675136
1734.000000	71.706594
1733.000000	71.791631
1732.000000	71.849506
1731.000000	71.843574
1730.000000	71.808250
1729.000000	71.775185
1728.000000	71.757241
1727.000000	71.750742
1726.000000	71.748095
1725.000000	71.751654
1724.000000	71.764598
1723.000000	71.793233
1722.000000	71.841129
1721.000000	71.899216
1720.000000	71.940508
1719.000000	71.931563
1718.000000	71.903249
1717.000000	71.922599
1716.000000	71.965229
1715.000000	71.985263
1714.000000	72.010965
1713.000000	72.073081
1712.000000	72.151350
1711.000000	72.218803
1710.000000	72.277984
1709.000000	72.338499
1708.000000	72.388081
1707.000000	72.404476
1706.000000	72.403600
1705.000000	72.430891
1704.000000	72.497994
1703.000000	72.608647
1702.000000	72.741320
1701.000000	72.836272
1700.000000	72.931656
1699.000000	73.034516
1698.000000	73.102098
1697.000000	73.159456
1696.000000	73.232315
1695.000000	73.331303
1694.000000	73.417101
1693.000000	73.462272
1692.000000	73.499048
1691.000000	73.549255
1690.000000	73.596770
1689.000000	73.623666
1688.000000	73.648694
1687.000000	73.710974
1686.000000	73.794475
1685.000000	73.821934
1684.000000	73.842837
1683.000000	73.915945
1682.000000	73.962502
1681.000000	73.951895
1680.000000	73.933398
1679.000000	73.949425
1678.000000	73.992252
1677.000000	74.012941
1676.000000	73.981653
1675.000000	73.943658
1674.000000	73.930331
1673.000000	73.914064
1672.000000	73.887452
1671.000000	73.870746
1670.000000	73.875277
1669.000000	73.893620
1668.000000	73.904703
1667.000000	73.900072
1666.000000	73.886136
1665.000000	73.856843
1664.000000	73.797747
1663.000000	73.736295
1662.000000	73.702074
1661.000000	73.663036
1660.000000	73.584320
1659.000000	73.472453
1658.000000	73.334552
1657.000000	73.169533
1656.000000	72.994733
1655.000000	72.769872
1654.000000	72.364018
1653.000000	71.861590
1652.000000	71.409798
1651.000000	70.897670
1650.000000	70.244135
1649.000000	69.385436
1648.000000	68.143057
1647.000000	66.392404
1646.000000	64.216392
1645.000000	61.745780
1644.000000	58.990966
1643.000000	55.886765
1642.000000	52.400586
1641.000000	48.641808
1640.000000	44.913335
1639.000000	41.544717
1638.000000	38.695157
1637.000000	36.401655
1636.000000	34.827891
1635.000000	34.226655
1634.000000	34.554741
1633.000000	35.536947
1632.000000	36.963661
1631.000000	38.718896
1630.000000	40.714771
1629.000000	42.868306
1628.000000	45.085767
1627.000000	47.232238
1626.000000	49.212873
1625.000000	51.070690
1624.000000	52.905729
1623.000000	54.708912
1622.000000	56.338563
1621.000000	57.709363
1620.000000	58.892205
1619.000000	60.006380
1618.000000	61.113171
1617.000000	62.216335
1616.000000	63.256356
1615.000000	64.106971
1614.000000	64.723313
1613.000000	65.193801
1612.000000	65.617413
1611.000000	66.007435
1610.000000	66.306169
1609.000000	66.477750
1608.000000	66.523267
1607.000000	66.412374
1606.000000	66.067157
1605.000000	65.429651
1604.000000	64.493937
1603.000000	63.260530
1602.000000	61.744444
1601.000000	60.039560
1600.000000	58.314064
1599.000000	56.727963
1598.000000	55.369670
1597.000000	54.271592
1596.000000	53.435343
1595.000000	52.815259
1594.000000	52.308933
1593.000000	51.816764
1592.000000	51.299030
1591.000000	50.748380
1590.000000	50.147049
1589.000000	49.480802
1588.000000	48.759768
1587.000000	47.982435
1586.000000	47.108156
1585.000000	46.102344
1584.000000	44.991912
1583.000000	43.822436
1582.000000	42.599597
1581.000000	41.328281
1580.000000	40.054593
1579.000000	38.782742
1578.000000	37.367367
1577.000000	35.589654
1576.000000	33.493199
1575.000000	31.472796
1574.000000	29.805052
1573.000000	28.429191
1572.000000	27.197332
1571.000000	26.046164
1570.000000	25.015700
1569.000000	24.202791
1568.000000	23.688479
1567.000000	23.489814
1566.000000	23.539625
1565.000000	23.733905
1564.000000	24.031755
1563.000000	24.463171
1562.000000	25.061535
1561.000000	25.826060
1560.000000	26.791659
1559.000000	28.043345
1558.000000	29.391427
1557.000000	30.500128
1556.000000	31.364667
1555.000000	32.141306
1554.000000	32.868061
1553.000000	33.489047
1552.000000	33.992200
1551.000000	34.459387
1550.000000	34.982756
1549.000000	35.596215
1548.000000	36.305601
1547.000000	37.137116
1546.000000	38.100629
1545.000000	39.142956
1544.000000	40.192211
1543.000000	41.227046
1542.000000	42.276441
1541.000000	43.364579
1540.000000	44.492341
1539.000000	45.596277
1538.000000	46.555020
1537.000000	47.338230
1536.000000	48.050122
1535.000000	48.807202
1534.000000	49.638366
1533.000000	50.482972
1532.000000	51.261715
1531.000000	51.969387
1530.000000	52.649626
1529.000000	53.313385
1528.000000	53.953046
1527.000000	54.579277
1526.000000	55.190622
1525.000000	55.756598
1524.000000	56.269996
1523.000000	56.762948
1522.000000	57.248990
1521.000000	57.705528
1520.000000	58.107505
1519.000000	58.463654
1518.000000	58.806091
1517.000000	59.150960
1516.000000	59.507766
1515.000000	59.881067
1514.000000	60.255060
1513.000000	60.607313
1512.000000	60.923419
1511.000000	61.209215
1510.000000	61.473970
1509.000000	61.717678
1508.000000	61.946181
1507.000000	62.241142
1506.000000	62.665716
1505.000000	63.095078
1504.000000	63.415442
1503.000000	63.669162
1502.000000	63.911899
1501.000000	64.142369
1500.000000	64.353129
1499.000000	64.562210
1498.000000	64.788045
1497.000000	65.034199
1496.000000	65.301709
1495.000000	65.585380
1494.000000	65.859443
1493.000000	66.102274
1492.000000	66.308784
1491.000000	66.481912
1490.000000	66.632787
1489.000000	66.772572
1488.000000	66.908350
1487.000000	67.053712
1486.000000	67.193037
1485.000000	67.270217
1484.000000	67.256300
1483.000000	67.141230
1482.000000	66.887356
1481.000000	66.453141
1480.000000	65.837161
1479.000000	65.015285
1478.000000	63.862436
1477.000000	62.255277
1476.000000	60.235046
1475.000000	57.943095
1474.000000	55.418143
1473.000000	52.716805
1472.000000	50.174730
1471.000000	48.176737
1470.000000	46.792039
1469.000000	45.893163
1468.000000	45.410929
1467.000000	45.377822
1466.000000	45.853911
1465.000000	46.819506
1464.000000	48.084651
1463.000000	49.336435
1462.000000	50.326383
1461.000000	50.947840
1460.000000	51.168041
1459.000000	50.939851
1458.000000	50.189264
1457.000000	49.047842
1456.000000	47.952687
1455.000000	47.201177
1454.000000	46.745967
1453.000000	46.457954
1452.000000	46.270589
1451.000000	46.166082
1450.000000	46.150659
1449.000000	46.248649
1448.000000	46.480568
1447.000000	46.825801
1446.000000	47.230942
1445.000000	47.679753
1444.000000	48.203730
1443.000000	48.834934
1442.000000	49.596392
1441.000000	50.515337
1440.000000	51.617239
1439.000000	52.915291
1438.000000	54.410526
1437.000000	56.043770
1436.000000	57.626817
1435.000000	58.938171
1434.000000	59.946137
1433.000000	60.774728
1432.000000	61.506880
1431.000000	62.140862
1430.000000	62.670480
1429.000000	63.125840
1428.000000	63.530680
1427.000000	63.892242
1426.000000	64.218418
1425.000000	64.527984
1424.000000	64.840106
1423.000000	65.154977
1422.000000	65.470710
1421.000000	65.781668
1420.000000	66.051220
1419.000000	66.251513
1418.000000	66.412155
1417.000000	66.578080
1416.000000	66.770610
1415.000000	66.990430
1414.000000	67.231634
1413.000000	67.491676
1412.000000	67.759830
1411.000000	68.012493
1410.000000	68.239032
1409.000000	68.449562
1408.000000	68.644515
1407.000000	68.814133
1406.000000	68.959431
1405.000000	69.100338
1404.000000	69.250626
1403.000000	69.390187
1402.000000	69.472406
1401.000000	69.423519
1400.000000	69.158945
1399.000000	68.677826
1398.000000	68.127691
1397.000000	67.711536
1396.000000	67.559134
1395.000000	67.679747
1394.000000	67.968113
1393.000000	68.289836
1392.000000	68.591142
1391.000000	68.912669
1390.000000	69.318650
1389.000000	69.832741
1388.000000	70.422960
1387.000000	71.027175
1386.000000	71.583843
1385.000000	72.052675
1384.000000	72.421279
1383.000000	72.697855
1382.000000	72.912292
1381.000000	73.096606
1380.000000	73.256615
1379.000000	73.371248
1378.000000	73.405720
1377.000000	73.292388
1376.000000	72.872034
1375.000000	71.863889
1374.000000	69.924657
1373.000000	66.812482
1372.000000	62.572574
1371.000000	57.658286
1370.000000	52.935005
1369.000000	49.471839
1368.000000	48.032467
1367.000000	48.578609
1366.000000	50.339636
1365.000000	52.325723
1364.000000	53.720606
1363.000000	54.051797
1362.000000	53.323777
1361.000000	52.067737
1360.000000	51.121012
1359.000000	51.220933
1358.000000	52.653505
1357.000000	55.133927
1356.000000	58.029837
1355.000000	60.752659
1354.000000	63.008483
1353.000000	64.784509
1352.000000	66.182237
1351.000000	67.302548
1350.000000	68.218399
1349.000000	68.977337
1348.000000	69.606849
1347.000000	70.130847
1346.000000	70.581453
1345.000000	70.988774
1344.000000	71.370414
1343.000000	71.732433
1342.000000	72.077527
1341.000000	72.403694
1340.000000	72.704103
1339.000000	72.977976
1338.000000	73.232558
1337.000000	73.472821
1336.000000	73.692259
1335.000000	73.874565
1334.000000	73.994120
1333.000000	73.992715
1332.000000	73.763792
1331.000000	73.175756
1330.000000	72.125706
1329.000000	70.586472
1328.000000	68.584383
1327.000000	66.141662
1326.000000	63.276890
1325.000000	60.128227
1324.000000	57.109676
1323.000000	54.845047
1322.000000	53.804483
1321.000000	53.968745
1320.000000	54.872557
1319.000000	55.965056
1318.000000	56.940462
1317.000000	57.767705
1316.000000	58.514656
1315.000000	59.231014
1314.000000	59.958501
1313.000000	60.774753
1312.000000	61.771329
1311.000000	62.980506
1310.000000	64.328677
1309.000000	65.658772
1308.000000	66.797664
1307.000000	67.623084
1306.000000	68.090252
1305.000000	68.199945
1304.000000	67.958151
1303.000000	67.360315
1302.000000	66.401365
1301.000000	65.115721
1300.000000	63.630059
1299.000000	62.187113
1298.000000	61.070630
1297.000000	60.451842
1296.000000	60.286684
1295.000000	60.344358
1294.000000	60.328799
1293.000000	59.992062
1292.000000	59.189480
1291.000000	57.880559
1290.000000	56.087423
1289.000000	53.871136
1288.000000	51.383980
1287.000000	48.946954
1286.000000	47.003149
1285.000000	45.917919
1284.000000	45.793584
1283.000000	46.469678
1282.000000	47.702199
1281.000000	49.319408
1280.000000	51.209826
1279.000000	53.194367
1278.000000	54.972816
1277.000000	56.239374
1276.000000	56.839990
1275.000000	56.825685
1274.000000	56.403506
1273.000000	55.870438
1272.000000	55.559652
1271.000000	55.762033
1270.000000	56.616756
1269.000000	58.047744
1268.000000	59.813175
1267.000000	61.636648
1266.000000	63.320494
1265.000000	64.781113
1264.000000	66.017523
1263.000000	67.062545
1262.000000	67.952977
1261.000000	68.719530
1260.000000	69.382928
1259.000000	69.955398
1258.000000	70.451961
1257.000000	70.888431
1256.000000	71.275155
1255.000000	71.620272
1254.000000	71.934859
1253.000000	72.232297
1252.000000	72.519428
1251.000000	72.797302
1250.000000	73.068340
1249.000000	73.334249
1248.000000	73.590493
1247.000000	73.829189
1246.000000	74.048064
1245.000000	74.250674
1244.000000	74.438742
1243.000000	74.612839
1242.000000	74.777458
1241.000000	74.936912
1240.000000	75.087000
1239.000000	75.216729
1238.000000	75.318570
1237.000000	75.388746
1236.000000	75.420871
1235.000000	75.410236
1234.000000	75.361549
1233.000000	75.286239
1232.000000	75.191615
1231.000000	75.078512
1230.000000	74.947178
1229.000000	74.790687
1228.000000	74.586962
1227.000000	74.302563
1226.000000	73.901622
1225.000000	73.351239
1224.000000	72.611402
1223.000000	71.639160
1222.000000	70.398321
1221.000000	68.858340
1220.000000	67.006658
1219.000000	64.861091
1218.000000	62.480107
1217.000000	59.957743
1216.000000	57.412728
1215.000000	54.985397
1214.000000	52.832469
1213.000000	51.108254
1212.000000	49.937388
1211.000000	49.384981
1210.000000	49.409205
1209.000000	49.859744
1208.000000	50.522734
1207.000000	51.172537
1206.000000	51.620832
1205.000000	51.740859
1204.000000	51.475115
1203.000000	50.833182
1202.000000	49.889150
1201.000000	48.785427
1200.000000	47.729425
1199.000000	46.958299
1198.000000	46.665616
1197.000000	46.931815
1196.000000	47.718157
1195.000000	48.902080
1194.000000	50.333878
1193.000000	51.889572
1192.000000	53.486679
1191.000000	55.082616
1190.000000	56.655450
1189.000000	58.190514
1188.000000	59.675671
1187.000000	61.095479
1186.000000	62.429178
1185.000000	63.656138
1184.000000	64.761912
1183.000000	65.737098
1182.000000	66.581302
1181.000000	67.299453
1180.000000	67.901379
1179.000000	68.406646
1178.000000	68.839654
1177.000000	69.222474
1176.000000	69.558979
1175.000000	69.832751
1174.000000	70.016947
1173.000000	70.070602
1172.000000	69.942182
1171.000000	69.571433
1170.000000	68.899292
1169.000000	67.880864
1168.000000	66.492202
1167.000000	64.763406
1166.000000	62.810116
1165.000000	60.837028
1164.000000	59.103743
1163.000000	57.861061
1162.000000	57.267612
1161.000000	57.343381
1160.000000	57.985030
1159.000000	59.009487
1158.000000	60.222248
1157.000000	61.459572
1156.000000	62.606495
1155.000000	63.597945
1154.000000	64.405287
1153.000000	65.021769
1152.000000	65.448282
1151.000000	65.685335
1150.000000	65.725970
1149.000000	65.560767
1148.000000	65.164079
1147.000000	64.494267
1146.000000	63.500141
1145.000000	62.109785
1144.000000	60.246590
1143.000000	57.844049
1142.000000	54.889311
1141.000000	51.477034
1140.000000	47.827494
1139.000000	44.251213
1138.000000	41.033145
1137.000000	38.311462
1136.000000	36.040532
1135.000000	34.073154
1134.000000	32.286904
1133.000000	30.720788
1132.000000	29.622097
1131.000000	29.336603
1130.000000	30.142116
1129.000000	32.083456
1128.000000	34.938185
1127.000000	38.282724
1126.000000	41.594328
1125.000000	44.366060
1124.000000	46.190314
1123.000000	46.805102
1122.000000	46.127909
1121.000000	44.275053
1120.000000	41.495666
1119.000000	38.113457
1118.000000	34.526892
1117.000000	31.250302
1116.000000	28.895412
1115.000000	27.998276
1114.000000	28.764704
1113.000000	30.946136
1112.000000	33.933075
1111.000000	36.944074
1110.000000	39.295328
1109.000000	40.669962
1108.000000	41.245821
1107.000000	41.555728
1106.000000	42.132791
1105.000000	43.202655
1104.000000	44.620717
1103.000000	46.000725
1102.000000	46.866184
1101.000000	46.812873
1100.000000	45.687847
1099.000000	43.749972
1098.000000	41.671304
1097.000000	40.290300
1096.000000	40.228787
1095.000000	41.615918
1094.000000	44.084375
1093.000000	47.022794
1092.000000	49.901284
1091.000000	52.427137
1090.000000	54.526770
1089.000000	56.249748
1088.000000	57.683624
1087.000000	58.915661
1086.000000	60.019632
1085.000000	61.044406
1084.000000	62.006915
1083.000000	62.908609
1082.000000	63.744349
1081.000000	64.507777
1080.000000	65.191104
1079.000000	65.781776
1078.000000	66.271327
1077.000000	66.642820
1076.000000	66.863249
1075.000000	66.885529
1074.000000	66.638167
1073.000000	66.030443
1072.000000	64.921928
1071.000000	63.123513
1070.000000	60.422440
1069.000000	56.601336
1068.000000	51.550717
1067.000000	45.413535
1066.000000	38.706419
1065.000000	32.286041
1064.000000	27.092601
1063.000000	23.739498
1062.000000	22.174551
1061.000000	21.680272
1060.000000	21.274577
1059.000000	20.298668
1058.000000	18.748226
1057.000000	17.220071
1056.000000	16.517200
1055.000000	17.150471
1054.000000	19.123353
1053.000000	22.031456
1052.000000	25.355626
1051.000000	28.691701
1050.000000	31.802681
1049.000000	34.606717
1048.000000	37.125686
1047.000000	39.418962
1046.000000	41.524934
1045.000000	43.448821
1044.000000	45.179538
1043.000000	46.711395
1042.000000	48.051736
1041.000000	49.214544
1040.000000	50.227091
1039.000000	51.119124
1038.000000	51.914505
1037.000000	52.628852
1036.000000	53.267322
1035.000000	53.831464
1034.000000	54.316999
1033.000000	54.718363
1032.000000	55.038353
1031.000000	55.289460
1030.000000	55.493554
1029.000000	55.674237
1028.000000	55.850284
1027.000000	56.030949
1026.000000	56.208453
1025.000000	56.360325
1024.000000	56.454791
1023.000000	56.458235
1022.000000	56.344530
1021.000000	56.091948
1020.000000	55.685236
1019.000000	55.108533
1018.000000	54.334998
1017.000000	53.327262
1016.000000	52.037622
1015.000000	50.437941
1014.000000	48.560083
1013.000000	46.530842
1012.000000	44.572451
1011.000000	42.932029
1010.000000	41.755788
1009.000000	40.988651
1008.000000	40.402287
1007.000000	39.760889
1006.000000	39.044204
1005.000000	38.529511
1004.000000	38.638847
1003.000000	39.643809
1002.000000	41.450924
1001.000000	43.665661
1000.000000	45.821461
999.000000	47.570831
998.000000	48.741680
997.000000	49.303507
996.000000	49.333839
995.000000	49.006151
994.000000	48.576163
993.000000	48.334275
992.000000	48.523636
991.000000	49.246656
990.000000	50.419516
989.000000	51.830713
988.000000	53.266250
987.000000	54.592412
986.000000	55.762687
985.000000	56.781372
984.000000	57.668245
983.000000	58.442252
982.000000	59.117609
981.000000	59.705322
980.000000	60.219344
979.000000	60.682897
978.000000	61.118897
977.000000	61.541933
976.000000	61.956626
975.000000	62.359914
974.000000	62.744564
973.000000	63.098579
972.000000	63.411177
971.000000	63.680176
970.000000	63.913199
969.000000	64.124473
968.000000	64.330491
967.000000	64.547804
966.000000	64.787843
965.000000	65.050161
964.000000	65.322838
963.000000	65.588851
962.000000	65.832721
961.000000	66.043737
960.000000	66.218304
959.000000	66.363479
958.000000	66.495804
957.000000	66.634368
956.000000	66.793983
955.000000	66.982361
954.000000	67.198762
953.000000	67.432057
952.000000	67.663452
951.000000	67.875604
950.000000	68.059921
949.000000	68.216501
948.000000	68.351488
947.000000	68.477051
946.000000	68.609619
945.000000	68.762105
944.000000	68.937505
943.000000	69.129944
942.000000	69.328990
941.000000	69.521424
940.000000	69.693255
939.000000	69.836893
938.000000	69.956712
937.000000	70.064951
936.000000	70.173737
935.000000	70.292591
934.000000	70.428806
933.000000	70.583485
932.000000	70.748097
931.000000	70.909861
930.000000	71.059721
929.000000	71.193202
928.000000	71.307702
927.000000	71.405247
926.000000	71.496408
925.000000	71.594770
924.000000	71.707198
923.000000	71.832373
922.000000	71.965977
921.000000	72.101974
920.000000	72.230764
919.000000	72.343526
918.000000	72.439287
917.000000	72.523244
916.000000	72.600413
915.000000	72.675986
914.000000	72.758230
913.000000	72.853593
912.000000	72.956867
911.000000	73.054100
910.000000	73.128013
909.000000	73.151224
908.000000	73.076029
907.000000	72.834862
906.000000	72.360144
905.000000	71.596081
904.000000	70.513986
903.000000	69.162822
902.000000	67.729552
901.000000	66.531025
900.000000	65.895324
899.000000	65.991044
898.000000	66.731639
897.000000	67.846949
896.000000	69.038517
895.000000	70.105006
894.000000	70.974594
893.000000	71.656178
892.000000	72.188015
891.000000	72.611387
890.000000	72.963269
889.000000	73.268453
888.000000	73.535919
887.000000	73.751599
886.000000	73.870086
885.000000	73.814784
884.000000	73.508084
883.000000	72.944335
882.000000	72.227487
881.000000	71.514193
880.000000	70.891791
879.000000	70.319174
878.000000	69.711149
877.000000	69.087030
876.000000	68.628416
875.000000	68.566114
874.000000	69.003930
873.000000	69.835270
872.000000	70.819049
871.000000	71.729383
870.000000	72.452441
869.000000	72.986128
868.000000	73.381652
867.000000	73.697165
866.000000	73.978283
865.000000	74.252576
864.000000	74.526259
863.000000	74.790402
862.000000	75.030839
861.000000	75.232245
860.000000	75.382157
859.000000	75.477674
858.000000	75.532516
857.000000	75.571523
856.000000	75.617828
855.000000	75.687962
854.000000	75.792412
853.000000	75.932141
852.000000	76.093546
851.000000	76.253288
850.000000	76.390648
849.000000	76.493865
848.000000	76.559862
847.000000	76.595713
846.000000	76.619421
845.000000	76.652459
844.000000	76.709670
843.000000	76.797507
842.000000	76.916468
841.000000	77.057906
840.000000	77.201618
839.000000	77.325818
838.000000	77.421592
837.000000	77.493616
836.000000	77.549578
835.000000	77.596524
834.000000	77.645063
833.000000	77.707548
832.000000	77.790212
831.000000	77.892223
830.000000	78.011369
829.000000	78.144553
828.000000	78.284336
827.000000	78.422715
826.000000	78.558254
825.000000	78.692527
824.000000	78.821401
823.000000	78.938267
822.000000	79.044461
821.000000	79.147150
820.000000	79.248562
819.000000	79.345974
818.000000	79.439829
817.000000	79.532649
816.000000	79.619908
815.000000	79.690860
814.000000	79.737347
813.000000	79.752256
812.000000	79.722423
811.000000	79.630756
810.000000	79.466678
809.000000	79.226308
808.000000	78.898699
807.000000	78.464390
806.000000	77.898807
805.000000	77.169316
804.000000	76.230998
803.000000	75.027776
802.000000	73.510655
801.000000	71.641617
800.000000	69.396190
799.000000	66.781525
798.000000	63.849322
797.000000	60.697907
796.000000	57.453483
795.000000	54.253863
794.000000	51.235960
793.000000	48.529321
792.000000	46.249892
791.000000	44.493594
790.000000	43.329231
789.000000	42.782038
788.000000	42.831707
787.000000	43.405855
786.000000	44.390953
785.000000	45.654482
784.000000	47.054346
783.000000	48.449143
782.000000	49.705203
781.000000	50.711608
780.000000	51.392205
779.000000	51.718966
778.000000	51.719775
777.000000	51.465903
776.000000	51.036916
775.000000	50.490837
774.000000	49.872760
773.000000	49.247454
772.000000	48.724763
771.000000	48.447848
770.000000	48.552286
769.000000	49.113683
768.000000	50.117007
767.000000	51.465761
766.000000	53.027263
765.000000	54.682851
764.000000	56.344586
763.000000	57.953598
762.000000	59.475716
761.000000	60.895694
760.000000	62.203991
759.000000	63.389844
758.000000	64.449793
757.000000	65.394521
756.000000	66.244519
755.000000	67.023987
754.000000	67.762870
753.000000	68.491056
752.000000	69.222246
751.000000	69.947568
750.000000	70.645036
749.000000	71.289706
748.000000	71.854277
747.000000	72.315978
746.000000	72.673854
745.000000	72.953349
744.000000	73.191474
743.000000	73.422715
742.000000	73.676385
741.000000	73.970459
740.000000	74.296897
739.000000	74.620860
738.000000	74.899907
737.000000	75.099039
736.000000	75.191298
735.000000	75.162567
734.000000	75.026697
733.000000	74.826696
732.000000	74.614156
731.000000	74.431521
730.000000	74.308514
729.000000	74.254742
728.000000	74.246314
727.000000	74.226846
726.000000	74.130214
725.000000	73.904094
724.000000	73.512621
723.000000	72.923953
722.000000	72.096875
721.000000	70.980032
720.000000	69.533345
719.000000	67.768554
718.000000	65.778084
717.000000	63.729902
716.000000	61.834139
715.000000	60.298626
714.000000	59.290081
713.000000	58.897093
712.000000	59.102325
711.000000	59.793942
710.000000	60.824337
709.000000	62.062852
708.000000	63.403630
707.000000	64.759371
706.000000	66.072318
705.000000	67.321451
704.000000	68.500166
703.000000	69.597828
702.000000	70.611193
701.000000	71.549503
700.000000	72.412803
699.000000	73.184213
698.000000	73.853196
697.000000	74.431778
696.000000	74.936978
695.000000	75.376777
694.000000	75.771074
693.000000	76.160053
692.000000	76.571629
691.000000	76.998103
690.000000	77.415550
689.000000	77.806963
688.000000	78.150621
687.000000	78.413686
686.000000	78.584828
685.000000	78.691786
684.000000	78.770095
683.000000	78.840803
682.000000	78.932114
681.000000	79.086321
680.000000	79.313279
679.000000	79.572053
678.000000	79.812440
677.000000	79.997987
676.000000	80.104381
675.000000	80.118384
674.000000	80.072614
673.000000	80.091989
672.000000	80.384375
671.000000	81.122626
670.000000	82.269021
669.000000	83.365516
668.000000	83.645723
667.000000	82.968045
666.000000	82.006563
665.000000	81.274769
664.000000	80.859489
663.000000	80.654852
662.000000	80.547840
661.000000	80.496677
660.000000	80.503976
659.000000	80.584721
658.000000	80.735924
657.000000	80.910817
656.000000	81.050704
655.000000	81.127287
654.000000	81.130727
653.000000	81.053868
652.000000	80.918038
651.000000	80.781719
650.000000	80.693763
649.000000	80.656944
648.000000	80.655553
647.000000	80.683324
646.000000	80.720555
645.000000	80.721390
644.000000	80.648352
643.000000	80.502223
642.000000	80.308640
641.000000	80.093404
640.000000	79.887241
639.000000	79.730361
638.000000	79.641526
637.000000	79.595371
636.000000	79.548268
635.000000	79.468040
634.000000	79.330875
633.000000	79.116986
632.000000	78.831125
631.000000	78.515201
630.000000	78.220254
629.000000	77.971496
628.000000	77.770908
627.000000	77.609376
626.000000	77.456005
625.000000	77.259445
624.000000	76.978819
623.000000	76.607938
622.000000	76.165723
621.000000	75.680610
620.000000	75.189025
619.000000	74.721878
618.000000	74.274072
617.000000	73.802561
616.000000	73.271798
615.000000	72.675635
614.000000	72.000483
613.000000	71.204608
612.000000	70.259133
611.000000	69.187167
610.000000	68.033891
609.000000	66.819050
608.000000	65.547349
607.000000	64.228942
606.000000	62.852379
605.000000	61.367030
604.000000	59.729398
603.000000	57.948339
602.000000	56.051426
601.000000	54.046630
600.000000	51.959328
599.000000	49.866609
598.000000	47.839125
597.000000	45.885155
596.000000	43.999102
595.000000	42.214136
594.000000	40.555120
593.000000	38.991188
592.000000	37.505214
591.000000	36.148996
590.000000	34.965921
589.000000	33.919941
588.000000	32.954543
587.000000	32.056456
586.000000	31.196671
585.000000	30.283736
584.000000	29.254778
583.000000	28.155139
582.000000	27.073918
581.000000	26.072569
580.000000	25.234700
579.000000	24.707832
578.000000	24.597164
577.000000	24.883792
576.000000	25.489440
575.000000	26.329382
574.000000	27.264057
573.000000	28.098228
572.000000	28.723836
571.000000	29.220473
570.000000	29.771450
569.000000	30.522661
568.000000	31.537872
567.000000	32.799284
566.000000	34.182760
565.000000	35.502650
564.000000	36.644076
563.000000	37.615539
562.000000	38.464725
561.000000	39.210470
560.000000	39.880891
559.000000	40.540589
558.000000	41.231371
557.000000	41.936147
556.000000	42.633119
555.000000	43.336261
554.000000	44.046599
553.000000	44.724718
552.000000	45.349698
551.000000	45.955247
550.000000	46.574079
549.000000	47.193893
548.000000	47.802252
547.000000	48.423725
546.000000	49.074315
545.000000	49.721985
544.000000	50.328323
543.000000	50.890567
542.000000	51.417133
541.000000	51.902055
540.000000	52.354342
539.000000	52.812382
538.000000	53.298315
537.000000	53.788360
536.000000	54.250843
535.000000	54.682523
534.000000	55.083200
533.000000	55.433310
532.000000	55.719316
531.000000	55.954483
530.000000	56.151565
529.000000	56.294880
528.000000	56.355042
527.000000	56.313364
526.000000	56.141275
525.000000	55.791092
524.000000	55.241769
523.000000	54.537901
522.000000	53.776080
521.000000	53.055418
520.000000	52.437288
519.000000	51.893933
518.000000	51.248489
517.000000	50.223262
516.000000	48.616746
515.000000	46.458563
514.000000	43.997423
513.000000	41.586611
512.000000	39.589256
511.000000	38.305802
510.000000	37.870472
509.000000	38.219746
508.000000	39.208520
507.000000	40.682165
506.000000	42.449079
505.000000	44.300642
504.000000	46.105647
503.000000	47.837083
502.000000	49.476750
501.000000	50.973282
500.000000	52.306896
499.000000	53.522513
498.000000	54.660713
497.000000	55.711742
496.000000	56.654265
495.000000	57.496944
494.000000	58.268239
493.000000	58.989708
492.000000	59.690243
491.000000	60.412141
490.000000	61.171210
489.000000	61.938231
488.000000	62.665400
487.000000	63.317996
486.000000	63.871954
485.000000	64.311586
484.000000	64.655610
483.000000	64.962351
482.000000	65.290351
481.000000	65.665984
480.000000	66.093953
479.000000	66.566176
478.000000	67.030543
477.000000	67.388757
476.000000	67.548804
475.000000	67.448191
474.000000	67.024988
473.000000	66.215592
472.000000	65.041023
471.000000	63.673096
470.000000	62.355697
469.000000	61.303769
468.000000	60.673377
467.000000	60.486350
466.000000	60.501880
465.000000	60.276618
464.000000	59.447209
463.000000	57.996965
462.000000	56.317965
461.000000	55.005529
460.000000	54.587273
459.000000	55.347339
458.000000	57.170941
457.000000	59.505328
456.000000	61.717369
455.000000	63.517864
454.000000	64.905420
453.000000	65.923807
452.000000	66.616956
451.000000	67.081477
450.000000	67.387283
449.000000	67.484390
448.000000	67.247178
447.000000	66.586361
446.000000	65.521866
445.000000	64.196151
444.000000	62.887337
443.000000	61.961234
442.000000	61.672842
441.000000	62.000165
440.000000	62.750145
439.000000	63.732899
438.000000	64.778396
437.000000	65.712647
436.000000	66.415506
435.000000	66.885613
434.000000	67.186408
433.000000	67.358314
432.000000	67.422047
431.000000	67.425476
430.000000	67.420173
429.000000	67.403704
428.000000	67.345384
427.000000	67.236259
426.000000	67.068164
425.000000	66.803476
424.000000	66.446460
423.000000	66.110216
422.000000	65.905523
421.000000	65.814445
420.000000	65.753075
419.000000	65.720755
418.000000	65.756921
417.000000	65.778724
416.000000	65.694930
415.000000	65.534547
414.000000	65.360729
413.000000	65.197057
412.000000	65.089003
411.000000	65.149227
410.000000	65.441618
409.000000	65.855166
408.000000	66.224359
407.000000	66.499833
406.000000	66.700690
405.000000	66.782779
404.000000	66.714191
403.000000	66.611653
402.000000	66.598284
401.000000	66.669218
400.000000	66.744501
