PE IR       SUBTECH     SPECTRUM    ASCII       PEDS        4.00        
   -1
23ms108_trans.asc
24/10/15
15:40:38.00
24/10/15
15:40:38.00
Administrator
Sample 1271 By Administrator Date Tuesday, October 15 2024
400.000000
#HDR
-1
-1
#GR
cm-1
%T
1.0
0.0
4000.000000
-1.000000
3601
8
124.156007
45.208044
#DATA
4000.000000	110.704765
3999.000000	110.667282
3998.000000	110.640708
3997.000000	110.622762
3996.000000	110.599405
3995.000000	110.561676
3994.000000	110.519082
3993.000000	110.488813
3992.000000	110.472810
3991.000000	110.455788
3990.000000	110.425661
3989.000000	110.386196
3988.000000	110.347635
3987.000000	110.313371
3986.000000	110.280596
3985.000000	110.246994
3984.000000	110.210803
3983.000000	110.168046
3982.000000	110.113402
3981.000000	110.047520
3980.000000	109.981525
3979.000000	109.930065
3978.000000	109.900652
3977.000000	109.892948
3976.000000	109.902110
3975.000000	109.920444
3974.000000	109.940331
3973.000000	109.963198
3972.000000	109.999695
3971.000000	110.054783
3970.000000	110.122511
3969.000000	110.188439
3968.000000	110.240256
3967.000000	110.277120
3966.000000	110.310380
3965.000000	110.353014
3964.000000	110.404556
3963.000000	110.445503
3962.000000	110.455156
3961.000000	110.438932
3960.000000	110.424510
3959.000000	110.425209
3958.000000	110.435265
3957.000000	110.443155
3956.000000	110.446219
3955.000000	110.448916
3954.000000	110.456861
3953.000000	110.480400
3952.000000	110.527486
3951.000000	110.599704
3950.000000	110.680506
3949.000000	110.728284
3948.000000	110.718387
3947.000000	110.703754
3946.000000	110.781872
3945.000000	110.978749
3944.000000	111.198964
3943.000000	111.314887
3942.000000	111.302227
3941.000000	111.265366
3940.000000	111.307804
3939.000000	111.404634
3938.000000	111.466929
3937.000000	111.468082
3936.000000	111.473384
3935.000000	111.547087
3934.000000	111.671749
3933.000000	111.780274
3932.000000	111.815537
3931.000000	111.770138
3930.000000	111.679959
3929.000000	111.610329
3928.000000	111.646085
3927.000000	111.799716
3926.000000	111.948787
3925.000000	111.952127
3924.000000	111.821160
3923.000000	111.701654
3922.000000	111.683818
3921.000000	111.736186
3920.000000	111.824627
3919.000000	111.949066
3918.000000	112.064503
3917.000000	112.085371
3916.000000	112.015581
3915.000000	111.972865
3914.000000	112.043175
3913.000000	112.180137
3912.000000	112.298494
3911.000000	112.325024
3910.000000	112.257825
3909.000000	112.151078
3908.000000	112.099590
3907.000000	112.170373
3906.000000	112.311799
3905.000000	112.369833
3904.000000	112.248788
3903.000000	112.071105
3902.000000	112.076218
3901.000000	112.298491
3900.000000	112.500378
3899.000000	112.494801
3898.000000	112.344218
3897.000000	112.226215
3896.000000	112.243662
3895.000000	112.404976
3894.000000	112.729128
3893.000000	113.124316
3892.000000	113.281160
3891.000000	112.910933
3890.000000	112.290924
3889.000000	112.054216
3888.000000	112.414905
3887.000000	112.979869
3886.000000	113.159071
3885.000000	112.772963
3884.000000	112.336712
3883.000000	112.395773
3882.000000	112.871013
3881.000000	113.244170
3880.000000	113.113018
3879.000000	112.634147
3878.000000	112.366844
3877.000000	112.568884
3876.000000	112.951732
3875.000000	113.046114
3874.000000	112.745708
3873.000000	112.500653
3872.000000	112.716805
3871.000000	113.129498
3870.000000	113.094870
3869.000000	112.525786
3868.000000	112.133883
3867.000000	112.360704
3866.000000	112.855698
3865.000000	113.158168
3864.000000	113.168273
3863.000000	113.019325
3862.000000	112.885768
3861.000000	112.788158
3860.000000	112.675878
3859.000000	112.497740
3858.000000	112.308220
3857.000000	112.286612
3856.000000	112.649667
3855.000000	113.385900
3854.000000	113.863300
3853.000000	113.185574
3852.000000	111.853584
3851.000000	111.277779
3850.000000	111.649788
3849.000000	112.289785
3848.000000	112.802851
3847.000000	113.135572
3846.000000	113.345795
3845.000000	113.458684
3844.000000	113.408890
3843.000000	113.168917
3842.000000	112.944191
3841.000000	112.939903
3840.000000	113.149084
3839.000000	113.355717
3838.000000	113.315691
3837.000000	112.994831
3836.000000	112.663191
3835.000000	112.634387
3834.000000	112.942177
3833.000000	113.315964
3832.000000	113.464088
3831.000000	113.359378
3830.000000	113.253235
3829.000000	113.375261
3828.000000	113.624223
3827.000000	113.638160
3826.000000	113.303964
3825.000000	112.986534
3824.000000	113.130133
3823.000000	113.718084
3822.000000	114.172310
3821.000000	113.808226
3820.000000	112.892761
3819.000000	112.518778
3818.000000	113.045756
3817.000000	113.799656
3816.000000	113.961142
3815.000000	113.471434
3814.000000	113.040359
3813.000000	113.061753
3812.000000	113.261178
3811.000000	113.404271
3810.000000	113.617390
3809.000000	114.036492
3808.000000	114.377927
3807.000000	114.125107
3806.000000	113.353577
3805.000000	112.882621
3804.000000	113.236249
3803.000000	114.049008
3802.000000	114.493018
3801.000000	114.058023
3800.000000	113.303256
3799.000000	113.147910
3798.000000	113.618653
3797.000000	114.117074
3796.000000	114.244436
3795.000000	114.115115
3794.000000	114.048173
3793.000000	114.144644
3792.000000	114.293182
3791.000000	114.391403
3790.000000	114.417635
3789.000000	114.409336
3788.000000	114.425511
3787.000000	114.506029
3786.000000	114.589081
3785.000000	114.541222
3784.000000	114.359323
3783.000000	114.243426
3782.000000	114.368402
3781.000000	114.652590
3780.000000	114.828532
3779.000000	114.716418
3778.000000	114.462992
3777.000000	114.336097
3776.000000	114.358843
3775.000000	114.362674
3774.000000	114.324422
3773.000000	114.401146
3772.000000	114.640034
3771.000000	114.824495
3770.000000	114.720672
3769.000000	114.408191
3768.000000	114.240607
3767.000000	114.366532
3766.000000	114.520136
3765.000000	114.418808
3764.000000	114.172984
3763.000000	114.122688
3762.000000	114.350782
3761.000000	114.620411
3760.000000	114.735605
3759.000000	114.633311
3758.000000	114.337876
3757.000000	113.969802
3756.000000	113.719039
3755.000000	113.699973
3754.000000	113.853174
3753.000000	114.076190
3752.000000	114.311712
3751.000000	114.339677
3750.000000	113.818983
3749.000000	112.944507
3748.000000	112.544387
3747.000000	113.115393
3746.000000	114.287199
3745.000000	115.110845
3744.000000	114.670079
3743.000000	113.512002
3742.000000	113.029393
3741.000000	113.331055
3740.000000	113.780446
3739.000000	114.138800
3738.000000	114.460846
3737.000000	114.719705
3736.000000	114.769589
3735.000000	114.685188
3734.000000	114.709553
3733.000000	114.824729
3732.000000	114.768400
3731.000000	114.517647
3730.000000	114.402797
3729.000000	114.635779
3728.000000	115.028893
3727.000000	115.266354
3726.000000	115.255033
3725.000000	115.187519
3724.000000	115.218854
3723.000000	115.299398
3722.000000	115.327138
3721.000000	115.289117
3720.000000	115.289042
3719.000000	115.335949
3718.000000	115.305699
3717.000000	115.170746
3716.000000	115.076307
3715.000000	115.163107
3714.000000	115.414166
3713.000000	115.689829
3712.000000	115.804046
3711.000000	115.639719
3710.000000	115.340543
3709.000000	115.160651
3708.000000	115.154237
3707.000000	115.231025
3706.000000	115.357551
3705.000000	115.575413
3704.000000	115.882942
3703.000000	116.155543
3702.000000	116.212458
3701.000000	115.993449
3700.000000	115.715558
3699.000000	115.649728
3698.000000	115.765140
3697.000000	115.838669
3696.000000	115.776043
3695.000000	115.662916
3694.000000	115.587366
3693.000000	115.564654
3692.000000	115.624286
3691.000000	115.812094
3690.000000	116.044318
3689.000000	116.025777
3688.000000	115.592477
3687.000000	115.111026
3686.000000	115.046655
3685.000000	115.344408
3684.000000	115.669130
3683.000000	115.859377
3682.000000	115.928579
3681.000000	115.843545
3680.000000	115.546767
3679.000000	115.278509
3678.000000	115.423776
3677.000000	115.967656
3676.000000	116.230832
3675.000000	115.553000
3674.000000	114.560718
3673.000000	114.401593
3672.000000	115.097839
3671.000000	115.879030
3670.000000	116.089375
3669.000000	115.678065
3668.000000	115.244709
3667.000000	115.238022
3666.000000	115.527658
3665.000000	115.818929
3664.000000	116.002010
3663.000000	116.076022
3662.000000	116.016042
3661.000000	115.830029
3660.000000	115.656980
3659.000000	115.701331
3658.000000	115.950747
3657.000000	116.073752
3656.000000	115.715749
3655.000000	115.045462
3654.000000	114.614196
3653.000000	114.641521
3652.000000	114.924715
3651.000000	115.219478
3650.000000	115.355224
3649.000000	115.208033
3648.000000	114.816429
3647.000000	114.425499
3646.000000	114.283334
3645.000000	114.433909
3644.000000	114.743508
3643.000000	115.011852
3642.000000	115.123333
3641.000000	115.111328
3640.000000	115.058601
3639.000000	114.976185
3638.000000	114.843959
3637.000000	114.734324
3636.000000	114.695835
3635.000000	114.592118
3634.000000	114.254927
3633.000000	113.812631
3632.000000	113.635249
3631.000000	113.910253
3630.000000	114.369586
3629.000000	114.359025
3628.000000	113.627513
3627.000000	112.887296
3626.000000	112.736249
3625.000000	112.933359
3624.000000	113.083815
3623.000000	113.132646
3622.000000	113.207913
3621.000000	113.333315
3620.000000	113.348923
3619.000000	113.055132
3618.000000	112.512489
3617.000000	112.087844
3616.000000	112.020979
3615.000000	112.170725
3614.000000	112.234035
3613.000000	112.067732
3612.000000	111.809156
3611.000000	111.691347
3610.000000	111.754725
3609.000000	111.821198
3608.000000	111.724499
3607.000000	111.494623
3606.000000	111.299573
3605.000000	111.229991
3604.000000	111.245193
3603.000000	111.270621
3602.000000	111.236611
3601.000000	111.094213
3600.000000	110.868170
3599.000000	110.643084
3598.000000	110.476211
3597.000000	110.387415
3596.000000	110.329387
3595.000000	110.204888
3594.000000	109.947282
3593.000000	109.600526
3592.000000	109.299033
3591.000000	109.157987
3590.000000	109.185742
3589.000000	109.274788
3588.000000	109.242190
3587.000000	108.974840
3586.000000	108.604560
3585.000000	108.367791
3584.000000	108.325764
3583.000000	108.371323
3582.000000	108.394546
3581.000000	108.360367
3580.000000	108.279493
3579.000000	108.173986
3578.000000	108.058433
3577.000000	107.947801
3576.000000	107.850714
3575.000000	107.746851
3574.000000	107.605630
3573.000000	107.412669
3572.000000	107.197109
3571.000000	107.034877
3570.000000	106.997918
3569.000000	107.078411
3568.000000	107.161031
3567.000000	107.102724
3566.000000	106.905895
3565.000000	106.743139
3564.000000	106.738012
3563.000000	106.851526
3562.000000	106.986441
3561.000000	107.085557
3560.000000	107.140093
3559.000000	107.160495
3558.000000	107.160043
3557.000000	107.154489
3556.000000	107.172104
3555.000000	107.233185
3554.000000	107.317371
3553.000000	107.364945
3552.000000	107.330824
3551.000000	107.247031
3550.000000	107.196917
3549.000000	107.225891
3548.000000	107.309666
3547.000000	107.394961
3546.000000	107.443509
3545.000000	107.458111
3544.000000	107.471572
3543.000000	107.506206
3542.000000	107.557392
3541.000000	107.608032
3540.000000	107.654322
3539.000000	107.701210
3538.000000	107.744196
3537.000000	107.768760
3536.000000	107.761338
3535.000000	107.730264
3534.000000	107.698081
3533.000000	107.680644
3532.000000	107.675580
3531.000000	107.671209
3530.000000	107.653117
3529.000000	107.603232
3528.000000	107.512982
3527.000000	107.405902
3526.000000	107.328477
3525.000000	107.301898
3524.000000	107.296027
3523.000000	107.260101
3522.000000	107.181387
3521.000000	107.093520
3520.000000	107.023635
3519.000000	106.955005
3518.000000	106.855001
3517.000000	106.723457
3516.000000	106.581215
3515.000000	106.432687
3514.000000	106.270667
3513.000000	106.104286
3512.000000	105.949749
3511.000000	105.797949
3510.000000	105.613370
3509.000000	105.375552
3508.000000	105.111624
3507.000000	104.871326
3506.000000	104.674350
3505.000000	104.497915
3504.000000	104.305170
3503.000000	104.076650
3502.000000	103.824630
3501.000000	103.582687
3500.000000	103.376997
3499.000000	103.205157
3498.000000	103.044136
3497.000000	102.874095
3496.000000	102.692235
3495.000000	102.507026
3494.000000	102.329597
3493.000000	102.170481
3492.000000	102.033977
3491.000000	101.917975
3490.000000	101.819087
3489.000000	101.732774
3488.000000	101.652344
3487.000000	101.576095
3486.000000	101.517607
3485.000000	101.497474
3484.000000	101.516321
3483.000000	101.547852
3482.000000	101.566935
3481.000000	101.580041
3480.000000	101.616429
3479.000000	101.693657
3478.000000	101.803879
3477.000000	101.928248
3476.000000	102.052882
3475.000000	102.169898
3474.000000	102.277425
3473.000000	102.382392
3472.000000	102.493076
3471.000000	102.611187
3470.000000	102.738379
3469.000000	102.879484
3468.000000	103.031908
3467.000000	103.181954
3466.000000	103.321919
3465.000000	103.460510
3464.000000	103.605156
3463.000000	103.746553
3462.000000	103.873346
3461.000000	103.993153
3460.000000	104.124499
3459.000000	104.271016
3458.000000	104.419959
3457.000000	104.560755
3456.000000	104.692427
3455.000000	104.820673
3454.000000	104.947589
3453.000000	105.067559
3452.000000	105.175444
3451.000000	105.280797
3450.000000	105.405234
3449.000000	105.553728
3448.000000	105.699011
3447.000000	105.810307
3446.000000	105.898106
3445.000000	106.006299
3444.000000	106.154989
3443.000000	106.316108
3442.000000	106.453037
3441.000000	106.563151
3440.000000	106.668717
3439.000000	106.781850
3438.000000	106.898692
3437.000000	107.016910
3436.000000	107.139863
3435.000000	107.269021
3434.000000	107.396974
3433.000000	107.514422
3432.000000	107.620363
3431.000000	107.722153
3430.000000	107.827675
3429.000000	107.937473
3428.000000	108.046031
3427.000000	108.146268
3426.000000	108.235401
3425.000000	108.319326
3424.000000	108.409476
3423.000000	108.511700
3422.000000	108.618991
3421.000000	108.719362
3420.000000	108.809396
3419.000000	108.897665
3418.000000	108.993766
3417.000000	109.097735
3416.000000	109.202688
3415.000000	109.303608
3414.000000	109.400651
3413.000000	109.496053
3412.000000	109.591174
3411.000000	109.686814
3410.000000	109.784175
3409.000000	109.884251
3408.000000	109.987071
3407.000000	110.089531
3406.000000	110.186852
3405.000000	110.278127
3404.000000	110.367027
3403.000000	110.458222
3402.000000	110.556690
3401.000000	110.670597
3400.000000	110.803510
3399.000000	110.941530
3398.000000	111.060437
3397.000000	111.151185
3396.000000	111.230164
3395.000000	111.318444
3394.000000	111.420351
3393.000000	111.528017
3392.000000	111.637770
3391.000000	111.751822
3390.000000	111.868542
3389.000000	111.981035
3388.000000	112.085538
3387.000000	112.183563
3386.000000	112.276260
3385.000000	112.363546
3384.000000	112.447317
3383.000000	112.532051
3382.000000	112.621164
3381.000000	112.715778
3380.000000	112.814580
3379.000000	112.913765
3378.000000	113.010990
3377.000000	113.108712
3376.000000	113.209756
3375.000000	113.309585
3374.000000	113.399660
3373.000000	113.478855
3372.000000	113.555975
3371.000000	113.640500
3370.000000	113.736687
3369.000000	113.845256
3368.000000	113.963506
3367.000000	114.083853
3366.000000	114.198391
3365.000000	114.306617
3364.000000	114.414725
3363.000000	114.527075
3362.000000	114.642788
3361.000000	114.760896
3360.000000	114.882919
3359.000000	115.008921
3358.000000	115.134982
3357.000000	115.256204
3356.000000	115.369700
3355.000000	115.474735
3354.000000	115.574641
3353.000000	115.678762
3352.000000	115.797324
3351.000000	115.931747
3350.000000	116.073441
3349.000000	116.211212
3348.000000	116.337727
3347.000000	116.450987
3346.000000	116.553579
3345.000000	116.652574
3344.000000	116.753343
3343.000000	116.851856
3342.000000	116.939034
3341.000000	117.013661
3340.000000	117.085852
3339.000000	117.164556
3338.000000	117.245585
3337.000000	117.315081
3336.000000	117.361487
3335.000000	117.382182
3334.000000	117.380701
3333.000000	117.359193
3332.000000	117.314383
3331.000000	117.238320
3330.000000	117.123629
3329.000000	116.968561
3328.000000	116.775448
3327.000000	116.546398
3326.000000	116.279435
3325.000000	115.969023
3324.000000	115.608702
3323.000000	115.190248
3322.000000	114.707372
3321.000000	114.156777
3320.000000	113.531422
3319.000000	112.817069
3318.000000	111.993662
3317.000000	111.044719
3316.000000	109.956437
3315.000000	108.707103
3314.000000	107.271306
3313.000000	105.629605
3312.000000	103.777226
3311.000000	101.721911
3310.000000	99.475622
3309.000000	97.062283
3308.000000	94.520489
3307.000000	91.898775
3306.000000	89.249872
3305.000000	86.622810
3304.000000	84.061331
3303.000000	81.605007
3302.000000	79.294513
3301.000000	77.173409
3300.000000	75.281523
3299.000000	73.645129
3298.000000	72.282113
3297.000000	71.208032
3296.000000	70.420969
3295.000000	69.890095
3294.000000	69.553532
3293.000000	69.334721
3292.000000	69.159944
3291.000000	68.964578
3290.000000	68.710661
3289.000000	68.395370
3288.000000	68.045619
3287.000000	67.702689
3286.000000	67.404832
3285.000000	67.178494
3284.000000	67.029624
3283.000000	66.941628
3282.000000	66.886140
3281.000000	66.835442
3280.000000	66.764548
3279.000000	66.650128
3278.000000	66.477960
3277.000000	66.250799
3276.000000	65.983062
3275.000000	65.690569
3274.000000	65.392432
3273.000000	65.119669
3272.000000	64.912894
3271.000000	64.808301
3270.000000	64.831427
3269.000000	64.999166
3268.000000	65.319625
3267.000000	65.791735
3266.000000	66.401678
3265.000000	67.123750
3264.000000	67.917851
3263.000000	68.725974
3262.000000	69.481748
3261.000000	70.121955
3260.000000	70.588737
3259.000000	70.831337
3258.000000	70.817881
3257.000000	70.536795
3256.000000	69.993100
3255.000000	69.196481
3254.000000	68.158866
3253.000000	66.905813
3252.000000	65.461447
3251.000000	63.840409
3250.000000	62.052906
3249.000000	60.119905
3248.000000	58.087592
3247.000000	56.023048
3246.000000	54.017151
3245.000000	52.187733
3244.000000	50.660978
3243.000000	49.528169
3242.000000	48.814776
3241.000000	48.468220
3240.000000	48.369419
3239.000000	48.374539
3238.000000	48.358792
3237.000000	48.250613
3236.000000	48.032540
3235.000000	47.721992
3234.000000	47.354276
3233.000000	46.964367
3232.000000	46.573636
3231.000000	46.190682
3230.000000	45.828652
3229.000000	45.518106
3228.000000	45.298588
3227.000000	45.208044
3226.000000	45.282031
3225.000000	45.552305
3224.000000	46.038887
3223.000000	46.737535
3222.000000	47.623823
3221.000000	48.660094
3220.000000	49.790801
3219.000000	50.945962
3218.000000	52.057083
3217.000000	53.072750
3216.000000	53.957704
3215.000000	54.690254
3214.000000	55.270990
3213.000000	55.729397
3212.000000	56.110199
3211.000000	56.454429
3210.000000	56.797947
3209.000000	57.175678
3208.000000	57.618298
3207.000000	58.144140
3206.000000	58.760162
3205.000000	59.467008
3204.000000	60.258962
3203.000000	61.122028
3202.000000	62.039485
3201.000000	62.998177
3200.000000	63.983379
3199.000000	64.974988
3198.000000	65.952723
3197.000000	66.902977
3196.000000	67.816790
3195.000000	68.685235
3194.000000	69.499879
3193.000000	70.254791
3192.000000	70.943854
3191.000000	71.557471
3190.000000	72.089982
3189.000000	72.544254
3188.000000	72.926998
3187.000000	73.243852
3186.000000	73.501312
3185.000000	73.711624
3184.000000	73.887304
3183.000000	74.036772
3182.000000	74.168592
3181.000000	74.292400
3180.000000	74.413826
3179.000000	74.531963
3178.000000	74.648217
3177.000000	74.774186
3176.000000	74.925953
3175.000000	75.114283
3174.000000	75.344179
3173.000000	75.619741
3172.000000	75.942204
3171.000000	76.308270
3170.000000	76.713266
3169.000000	77.154634
3168.000000	77.629567
3167.000000	78.130517
3166.000000	78.650116
3165.000000	79.184363
3164.000000	79.728944
3163.000000	80.277419
3162.000000	80.824330
3161.000000	81.365617
3160.000000	81.891899
3159.000000	82.385493
3158.000000	82.823975
3157.000000	83.184775
3156.000000	83.441691
3155.000000	83.563813
3154.000000	83.522019
3153.000000	83.293807
3152.000000	82.873003
3151.000000	82.279656
3150.000000	81.568272
3149.000000	80.819156
3148.000000	80.107121
3147.000000	79.476193
3146.000000	78.932035
3145.000000	78.446638
3144.000000	77.967898
3143.000000	77.434580
3142.000000	76.799362
3141.000000	76.042803
3140.000000	75.167715
3139.000000	74.190257
3138.000000	73.140289
3137.000000	72.064188
3136.000000	71.014494
3135.000000	70.036695
3134.000000	69.168455
3133.000000	68.445695
3132.000000	67.899136
3131.000000	67.548353
3130.000000	67.403938
3129.000000	67.463820
3128.000000	67.712626
3127.000000	68.125149
3126.000000	68.676916
3125.000000	69.348800
3124.000000	70.114906
3123.000000	70.944456
3122.000000	71.812368
3121.000000	72.703848
3120.000000	73.607083
3119.000000	74.504985
3118.000000	75.382717
3117.000000	76.233072
3116.000000	77.050230
3115.000000	77.823647
3114.000000	78.543412
3113.000000	79.205022
3112.000000	79.805496
3111.000000	80.342691
3110.000000	80.817620
3109.000000	81.234269
3108.000000	81.591369
3107.000000	81.882958
3106.000000	82.110161
3105.000000	82.282644
3104.000000	82.412847
3103.000000	82.511482
3102.000000	82.591985
3101.000000	82.675247
3100.000000	82.785883
3099.000000	82.945978
3098.000000	83.172006
3097.000000	83.473308
3096.000000	83.848303
3095.000000	84.287351
3094.000000	84.779344
3093.000000	85.314404
3092.000000	85.880864
3091.000000	86.463796
3090.000000	87.049833
3089.000000	87.628681
3088.000000	88.190993
3087.000000	88.729583
3086.000000	89.243348
3085.000000	89.734519
3084.000000	90.201590
3083.000000	90.639030
3082.000000	91.044526
3081.000000	91.423318
3080.000000	91.782355
3079.000000	92.125041
3078.000000	92.453721
3077.000000	92.771506
3076.000000	93.079491
3075.000000	93.375985
3074.000000	93.660050
3073.000000	93.932563
3072.000000	94.193186
3071.000000	94.440601
3070.000000	94.677040
3069.000000	94.908913
3068.000000	95.140863
3067.000000	95.370916
3066.000000	95.593512
3065.000000	95.805789
3064.000000	96.009912
3063.000000	96.209950
3062.000000	96.407733
3061.000000	96.602165
3060.000000	96.791482
3059.000000	96.975710
3058.000000	97.156463
3057.000000	97.334270
3056.000000	97.506554
3055.000000	97.670311
3054.000000	97.826065
3053.000000	97.977563
3052.000000	98.127952
3051.000000	98.276412
3050.000000	98.418773
3049.000000	98.551406
3048.000000	98.674847
3047.000000	98.794029
3046.000000	98.914437
3045.000000	99.037620
3044.000000	99.160945
3043.000000	99.281395
3042.000000	99.398811
3041.000000	99.513465
3040.000000	99.622411
3039.000000	99.721949
3038.000000	99.812676
3037.000000	99.900350
3036.000000	99.991767
3035.000000	100.091185
3034.000000	100.200048
3033.000000	100.316150
3032.000000	100.432326
3031.000000	100.541153
3030.000000	100.642696
3029.000000	100.743538
3028.000000	100.847342
3027.000000	100.951329
3026.000000	101.053290
3025.000000	101.156143
3024.000000	101.262961
3023.000000	101.372044
3022.000000	101.480071
3021.000000	101.587366
3020.000000	101.697522
3019.000000	101.812809
3018.000000	101.931872
3017.000000	102.051221
3016.000000	102.167121
3015.000000	102.276552
3014.000000	102.377536
3013.000000	102.468704
3012.000000	102.547898
3011.000000	102.611504
3010.000000	102.656373
3009.000000	102.680784
3008.000000	102.682577
3007.000000	102.657051
3006.000000	102.596580
3005.000000	102.493381
3004.000000	102.342086
3003.000000	102.141842
3002.000000	101.896262
3001.000000	101.610459
3000.000000	101.288876
2999.000000	100.932686
2998.000000	100.542252
2997.000000	100.125565
2996.000000	99.709885
2995.000000	99.346105
2994.000000	99.092273
2993.000000	98.982909
2992.000000	99.006821
2991.000000	99.116434
2990.000000	99.257451
2989.000000	99.391683
2988.000000	99.500171
2987.000000	99.576139
2986.000000	99.622403
2985.000000	99.649406
2984.000000	99.670494
2983.000000	99.698348
2982.000000	99.745170
2981.000000	99.821291
2980.000000	99.928771
2979.000000	100.058215
2978.000000	100.195848
2977.000000	100.334486
2976.000000	100.478897
2975.000000	100.642019
2974.000000	100.835947
2973.000000	101.062018
2972.000000	101.305729
2971.000000	101.541160
2970.000000	101.740318
2969.000000	101.880378
2968.000000	101.943754
2967.000000	101.917764
2966.000000	101.796088
2965.000000	101.578322
2964.000000	101.267155
2963.000000	100.865538
2962.000000	100.379992
2961.000000	99.821609
2960.000000	99.201615
2959.000000	98.525845
2958.000000	97.796035
2957.000000	97.022983
2956.000000	96.242908
2955.000000	95.525674
2954.000000	94.955308
2953.000000	94.586204
2952.000000	94.407259
2951.000000	94.351687
2950.000000	94.347741
2949.000000	94.360562
2948.000000	94.396451
2947.000000	94.477782
2946.000000	94.617800
2945.000000	94.806034
2944.000000	95.006679
2943.000000	95.176560
2942.000000	95.294587
2941.000000	95.381624
2940.000000	95.493224
2939.000000	95.692518
2938.000000	96.024025
2937.000000	96.499497
2936.000000	97.097011
2935.000000	97.772694
2934.000000	98.478378
2933.000000	99.175146
2932.000000	99.837018
2931.000000	100.450177
2930.000000	101.011031
2929.000000	101.522206
2928.000000	101.988827
2927.000000	102.417488
2926.000000	102.817379
2925.000000	103.197152
2924.000000	103.559372
2923.000000	103.899429
2922.000000	104.209752
2921.000000	104.483253
2920.000000	104.713070
2919.000000	104.893846
2918.000000	105.024571
2917.000000	105.109085
2916.000000	105.154269
2915.000000	105.168721
2914.000000	105.162729
2913.000000	105.145632
2912.000000	105.123465
2911.000000	105.100837
2910.000000	105.083093
2909.000000	105.075269
2908.000000	105.078055
2907.000000	105.088445
2906.000000	105.104701
2905.000000	105.127142
2904.000000	105.154072
2903.000000	105.181199
2902.000000	105.205657
2901.000000	105.227320
2900.000000	105.246500
2899.000000	105.262084
2898.000000	105.273445
2897.000000	105.279845
2896.000000	105.277194
2895.000000	105.258336
2894.000000	105.217795
2893.000000	105.154045
2892.000000	105.066238
2891.000000	104.952059
2890.000000	104.810304
2889.000000	104.643493
2888.000000	104.456930
2887.000000	104.257665
2886.000000	104.055419
2885.000000	103.861589
2884.000000	103.686003
2883.000000	103.535355
2882.000000	103.415356
2881.000000	103.331669
2880.000000	103.287117
2879.000000	103.280423
2878.000000	103.308284
2877.000000	103.367333
2876.000000	103.453965
2875.000000	103.564391
2874.000000	103.694519
2873.000000	103.837610
2872.000000	103.982634
2871.000000	104.118610
2870.000000	104.241925
2869.000000	104.357115
2868.000000	104.471080
2867.000000	104.588874
2866.000000	104.713865
2865.000000	104.847153
2864.000000	104.985391
2863.000000	105.122871
2862.000000	105.257021
2861.000000	105.389291
2860.000000	105.520307
2859.000000	105.648202
2858.000000	105.773279
2857.000000	105.901189
2856.000000	106.039708
2855.000000	106.194254
2854.000000	106.366383
2853.000000	106.552471
2852.000000	106.741554
2851.000000	106.916979
2850.000000	107.063255
2849.000000	107.171501
2848.000000	107.239990
2847.000000	107.273654
2846.000000	107.284187
2845.000000	107.286935
2844.000000	107.294281
2843.000000	107.311909
2842.000000	107.341751
2841.000000	107.386439
2840.000000	107.448641
2839.000000	107.527716
2838.000000	107.619077
2837.000000	107.716740
2836.000000	107.816174
2835.000000	107.915478
2834.000000	108.014512
2833.000000	108.112781
2832.000000	108.208465
2831.000000	108.299848
2830.000000	108.387028
2829.000000	108.471118
2828.000000	108.552250
2827.000000	108.629821
2826.000000	108.703983
2825.000000	108.775207
2824.000000	108.842761
2823.000000	108.905238
2822.000000	108.962483
2821.000000	109.015474
2820.000000	109.064587
2819.000000	109.109747
2818.000000	109.152035
2817.000000	109.193256
2816.000000	109.233781
2815.000000	109.272333
2814.000000	109.308078
2813.000000	109.341697
2812.000000	109.374509
2811.000000	109.407972
2810.000000	109.443598
2809.000000	109.481717
2808.000000	109.520553
2807.000000	109.558106
2806.000000	109.594764
2805.000000	109.632497
2804.000000	109.671778
2803.000000	109.711175
2802.000000	109.749832
2801.000000	109.788503
2800.000000	109.828047
2799.000000	109.868424
2798.000000	109.909110
2797.000000	109.949025
2796.000000	109.986146
2795.000000	110.018665
2794.000000	110.046584
2793.000000	110.071124
2792.000000	110.093242
2791.000000	110.114184
2790.000000	110.136562
2789.000000	110.162585
2788.000000	110.191427
2787.000000	110.220255
2786.000000	110.247732
2785.000000	110.274694
2784.000000	110.301672
2783.000000	110.328050
2782.000000	110.353853
2781.000000	110.380303
2780.000000	110.408217
2779.000000	110.437557
2778.000000	110.468868
2777.000000	110.503472
2776.000000	110.541645
2775.000000	110.581739
2774.000000	110.621385
2773.000000	110.658544
2772.000000	110.691659
2771.000000	110.720232
2770.000000	110.745339
2769.000000	110.768425
2768.000000	110.789655
2767.000000	110.808240
2766.000000	110.823932
2765.000000	110.836973
2764.000000	110.847252
2763.000000	110.855245
2762.000000	110.863284
2761.000000	110.874142
2760.000000	110.888472
2759.000000	110.905003
2758.000000	110.922629
2757.000000	110.940186
2756.000000	110.954384
2755.000000	110.960161
2754.000000	110.953803
2753.000000	110.934913
2752.000000	110.905462
2751.000000	110.868815
2750.000000	110.829992
2749.000000	110.794903
2748.000000	110.768249
2747.000000	110.752632
2746.000000	110.749451
2745.000000	110.759468
2744.000000	110.782338
2743.000000	110.816253
2742.000000	110.858356
2741.000000	110.905012
2740.000000	110.952044
2739.000000	110.996156
2738.000000	111.036013
2737.000000	111.071368
2736.000000	111.102009
2735.000000	111.128465
2734.000000	111.153135
2733.000000	111.179220
2732.000000	111.208429
2731.000000	111.240364
2730.000000	111.273653
2729.000000	111.306680
2728.000000	111.337606
2727.000000	111.364547
2726.000000	111.385586
2725.000000	111.398649
2724.000000	111.402412
2723.000000	111.398299
2722.000000	111.390638
2721.000000	111.383893
2720.000000	111.380575
2719.000000	111.382160
2718.000000	111.390287
2717.000000	111.405635
2716.000000	111.426698
2715.000000	111.451066
2714.000000	111.477164
2713.000000	111.503721
2712.000000	111.528790
2711.000000	111.550859
2710.000000	111.569986
2709.000000	111.586692
2708.000000	111.600885
2707.000000	111.612992
2706.000000	111.624883
2705.000000	111.638319
2704.000000	111.653646
2703.000000	111.671194
2702.000000	111.692417
2701.000000	111.717889
2700.000000	111.745410
2699.000000	111.771737
2698.000000	111.795060
2697.000000	111.814250
2696.000000	111.827202
2695.000000	111.832337
2694.000000	111.830978
2693.000000	111.826456
2692.000000	111.821538
2691.000000	111.817975
2690.000000	111.817395
2689.000000	111.820655
2688.000000	111.826861
2687.000000	111.834629
2686.000000	111.843484
2685.000000	111.852699
2684.000000	111.860063
2683.000000	111.863699
2682.000000	111.864183
2681.000000	111.863187
2680.000000	111.861121
2679.000000	111.857942
2678.000000	111.855173
2677.000000	111.854950
2676.000000	111.857877
2675.000000	111.863775
2674.000000	111.873834
2673.000000	111.890036
2672.000000	111.912647
2671.000000	111.940079
2670.000000	111.970693
2669.000000	112.003077
2668.000000	112.035449
2667.000000	112.066434
2666.000000	112.096163
2665.000000	112.125383
2664.000000	112.154206
2663.000000	112.183182
2662.000000	112.214397
2661.000000	112.249620
2660.000000	112.287920
2659.000000	112.326506
2658.000000	112.363241
2657.000000	112.397072
2656.000000	112.427097
2655.000000	112.452934
2654.000000	112.475349
2653.000000	112.494853
2652.000000	112.510563
2651.000000	112.521610
2650.000000	112.528574
2649.000000	112.532310
2648.000000	112.532429
2647.000000	112.528834
2646.000000	112.523860
2645.000000	112.521046
2644.000000	112.522530
2643.000000	112.528944
2642.000000	112.540546
2641.000000	112.556675
2640.000000	112.575074
2639.000000	112.593623
2638.000000	112.612198
2637.000000	112.631397
2636.000000	112.650567
2635.000000	112.669095
2634.000000	112.688539
2633.000000	112.711505
2632.000000	112.738908
2631.000000	112.769899
2630.000000	112.803891
2629.000000	112.840674
2628.000000	112.879054
2627.000000	112.916992
2626.000000	112.952796
2625.000000	112.985160
2624.000000	113.012880
2623.000000	113.035698
2622.000000	113.054595
2621.000000	113.070143
2620.000000	113.081409
2619.000000	113.087890
2618.000000	113.091277
2617.000000	113.093784
2616.000000	113.095925
2615.000000	113.097208
2614.000000	113.097972
2613.000000	113.098832
2612.000000	113.099141
2611.000000	113.097785
2610.000000	113.094632
2609.000000	113.089866
2608.000000	113.082865
2607.000000	113.073198
2606.000000	113.061930
2605.000000	113.050486
2604.000000	113.039251
2603.000000	113.028796
2602.000000	113.021332
2601.000000	113.019073
2600.000000	113.021911
2599.000000	113.028032
2598.000000	113.035792
2597.000000	113.043435
2596.000000	113.048067
2595.000000	113.046998
2594.000000	113.039800
2593.000000	113.027842
2592.000000	113.012523
2591.000000	112.995287
2590.000000	112.978152
2589.000000	112.962514
2588.000000	112.948167
2587.000000	112.934797
2586.000000	112.923598
2585.000000	112.916041
2584.000000	112.912056
2583.000000	112.910803
2582.000000	112.912387
2581.000000	112.917160
2580.000000	112.924375
2579.000000	112.933198
2578.000000	112.944033
2577.000000	112.957615
2576.000000	112.973527
2575.000000	112.991101
2574.000000	113.010978
2573.000000	113.034122
2572.000000	113.060392
2571.000000	113.089194
2570.000000	113.120536
2569.000000	113.154223
2568.000000	113.188827
2567.000000	113.222795
2566.000000	113.255466
2565.000000	113.286050
2564.000000	113.313210
2563.000000	113.337079
2562.000000	113.360282
2561.000000	113.385458
2560.000000	113.413051
2559.000000	113.442945
2558.000000	113.476514
2557.000000	113.515172
2556.000000	113.558046
2555.000000	113.602745
2554.000000	113.647324
2553.000000	113.689819
2552.000000	113.727336
2551.000000	113.757765
2550.000000	113.781853
2549.000000	113.802004
2548.000000	113.819947
2547.000000	113.836704
2546.000000	113.853440
2545.000000	113.870805
2544.000000	113.888248
2543.000000	113.905613
2542.000000	113.924392
2541.000000	113.945911
2540.000000	113.969328
2539.000000	113.992765
2538.000000	114.015255
2537.000000	114.036132
2536.000000	114.053617
2535.000000	114.065848
2534.000000	114.072469
2533.000000	114.074212
2532.000000	114.072163
2531.000000	114.068650
2530.000000	114.067536
2529.000000	114.071779
2528.000000	114.081393
2527.000000	114.094787
2526.000000	114.110589
2525.000000	114.126792
2524.000000	114.139712
2523.000000	114.145891
2522.000000	114.144397
2521.000000	114.135849
2520.000000	114.120706
2519.000000	114.099847
2518.000000	114.075521
2517.000000	114.049926
2516.000000	114.023266
2515.000000	113.995002
2514.000000	113.965824
2513.000000	113.936919
2512.000000	113.908413
2511.000000	113.880037
2510.000000	113.852453
2509.000000	113.826304
2508.000000	113.800868
2507.000000	113.775215
2506.000000	113.749794
2505.000000	113.725299
2504.000000	113.700928
2503.000000	113.675559
2502.000000	113.649932
2501.000000	113.626374
2500.000000	113.607033
2499.000000	113.593738
2498.000000	113.588948
2497.000000	113.594476
2496.000000	113.610027
2495.000000	113.633575
2494.000000	113.662403
2493.000000	113.693184
2492.000000	113.722050
2491.000000	113.746658
2490.000000	113.767515
2489.000000	113.786479
2488.000000	113.805336
2487.000000	113.826480
2486.000000	113.853403
2485.000000	113.888599
2484.000000	113.931591
2483.000000	113.980137
2482.000000	114.031915
2481.000000	114.084125
2480.000000	114.133229
2479.000000	114.176875
2478.000000	114.215195
2477.000000	114.249001
2476.000000	114.278099
2475.000000	114.302537
2474.000000	114.324151
2473.000000	114.344960
2472.000000	114.365341
2471.000000	114.384911
2470.000000	114.403857
2469.000000	114.422130
2468.000000	114.438479
2467.000000	114.452019
2466.000000	114.463489
2465.000000	114.473284
2464.000000	114.479542
2463.000000	114.479387
2462.000000	114.471358
2461.000000	114.455587
2460.000000	114.432873
2459.000000	114.405542
2458.000000	114.377733
2457.000000	114.353304
2456.000000	114.333945
2455.000000	114.320213
2454.000000	114.312912
2453.000000	114.311907
2452.000000	114.314933
2451.000000	114.319298
2450.000000	114.324079
2449.000000	114.329055
2448.000000	114.333103
2447.000000	114.335464
2446.000000	114.337640
2445.000000	114.342410
2444.000000	114.351418
2443.000000	114.365094
2442.000000	114.383896
2441.000000	114.407844
2440.000000	114.435744
2439.000000	114.466037
2438.000000	114.497898
2437.000000	114.530485
2436.000000	114.562177
2435.000000	114.591922
2434.000000	114.620082
2433.000000	114.646776
2432.000000	114.670606
2431.000000	114.690576
2430.000000	114.707895
2429.000000	114.724399
2428.000000	114.740191
2427.000000	114.754269
2426.000000	114.766477
2425.000000	114.777032
2424.000000	114.785300
2423.000000	114.790717
2422.000000	114.793859
2421.000000	114.795182
2420.000000	114.793465
2419.000000	114.787385
2418.000000	114.777837
2417.000000	114.767093
2416.000000	114.756750
2415.000000	114.748102
2414.000000	114.743467
2413.000000	114.744739
2412.000000	114.750976
2411.000000	114.759234
2410.000000	114.767403
2409.000000	114.774523
2408.000000	114.778981
2407.000000	114.778547
2406.000000	114.772259
2405.000000	114.760661
2404.000000	114.744473
2403.000000	114.724885
2402.000000	114.704438
2401.000000	114.685544
2400.000000	114.667721
2399.000000	114.647960
2398.000000	114.623848
2397.000000	114.594156
2396.000000	114.556649
2395.000000	114.507655
2394.000000	114.444988
2393.000000	114.369641
2392.000000	114.283692
2391.000000	114.189456
2390.000000	114.091349
2389.000000	113.995275
2388.000000	113.906696
2387.000000	113.828078
2386.000000	113.761163
2385.000000	113.710882
2384.000000	113.680985
2383.000000	113.673875
2382.000000	113.689253
2381.000000	113.724887
2380.000000	113.777416
2379.000000	113.834745
2378.000000	113.883473
2377.000000	113.917774
2376.000000	113.934510
2375.000000	113.931798
2374.000000	113.905702
2373.000000	113.862538
2372.000000	113.819731
2371.000000	113.788528
2370.000000	113.761510
2369.000000	113.744243
2368.000000	113.755655
2367.000000	113.788235
2366.000000	113.810431
2365.000000	113.840125
2364.000000	113.901504
2363.000000	113.954496
2362.000000	113.990414
2361.000000	114.006845
2360.000000	114.020806
2359.000000	114.065976
2358.000000	114.085108
2357.000000	114.076952
2356.000000	114.016425
2355.000000	113.885262
2354.000000	113.739736
2353.000000	113.770583
2352.000000	114.238216
2351.000000	114.976171
2350.000000	115.537216
2349.000000	115.579933
2348.000000	115.141361
2347.000000	114.642341
2346.000000	114.332900
2345.000000	114.284354
2344.000000	114.300187
2343.000000	114.264196
2342.000000	114.239888
2341.000000	114.230019
2340.000000	114.253702
2339.000000	114.260635
2338.000000	114.282332
2337.000000	114.317662
2336.000000	114.394151
2335.000000	114.456207
2334.000000	114.497997
2333.000000	114.453289
2332.000000	114.410769
2331.000000	114.350756
2330.000000	114.351701
2329.000000	114.418353
2328.000000	114.494388
2327.000000	114.559614
2326.000000	114.532629
2325.000000	114.476292
2324.000000	114.396535
2323.000000	114.308828
2322.000000	114.219818
2321.000000	114.101855
2320.000000	114.012591
2319.000000	113.931615
2318.000000	113.896662
2317.000000	113.839183
2316.000000	113.766012
2315.000000	113.645392
2314.000000	113.522177
2313.000000	113.389979
2312.000000	113.267790
2311.000000	113.143112
2310.000000	113.024177
2309.000000	112.902178
2308.000000	112.778280
2307.000000	112.653064
2306.000000	112.538685
2305.000000	112.430643
2304.000000	112.333235
2303.000000	112.237441
2302.000000	112.160974
2301.000000	112.099756
2300.000000	112.059446
2299.000000	112.031267
2298.000000	112.018754
2297.000000	112.015583
2296.000000	112.012798
2295.000000	112.008686
2294.000000	112.000270
2293.000000	111.991266
2292.000000	111.973642
2291.000000	111.951718
2290.000000	111.925092
2289.000000	111.898816
2288.000000	111.869936
2287.000000	111.844021
2286.000000	111.824767
2285.000000	111.811585
2284.000000	111.795442
2283.000000	111.772309
2282.000000	111.747138
2281.000000	111.724895
2280.000000	111.708177
2279.000000	111.698069
2278.000000	111.702167
2277.000000	111.721767
2276.000000	111.756891
2275.000000	111.806803
2274.000000	111.874173
2273.000000	111.957815
2272.000000	112.051210
2271.000000	112.149940
2270.000000	112.252741
2269.000000	112.356268
2268.000000	112.454932
2267.000000	112.545631
2266.000000	112.630285
2265.000000	112.710016
2264.000000	112.781563
2263.000000	112.847358
2262.000000	112.911309
2261.000000	112.978445
2260.000000	113.049352
2259.000000	113.126178
2258.000000	113.213687
2257.000000	113.310314
2256.000000	113.411887
2255.000000	113.513126
2254.000000	113.614308
2253.000000	113.712163
2252.000000	113.803115
2251.000000	113.887473
2250.000000	113.970912
2249.000000	114.057269
2248.000000	114.147294
2247.000000	114.243575
2246.000000	114.349432
2245.000000	114.463352
2244.000000	114.577902
2243.000000	114.687774
2242.000000	114.790994
2241.000000	114.884354
2240.000000	114.962453
2239.000000	115.024158
2238.000000	115.073194
2237.000000	115.112168
2236.000000	115.141424
2235.000000	115.164084
2234.000000	115.186391
2233.000000	115.211540
2232.000000	115.238940
2231.000000	115.269193
2230.000000	115.304381
2229.000000	115.342196
2228.000000	115.376576
2227.000000	115.403889
2226.000000	115.423800
2225.000000	115.433524
2224.000000	115.428475
2223.000000	115.409204
2222.000000	115.381943
2221.000000	115.352061
2220.000000	115.322604
2219.000000	115.299604
2218.000000	115.291243
2217.000000	115.300396
2216.000000	115.322943
2215.000000	115.354167
2214.000000	115.390713
2213.000000	115.426374
2212.000000	115.452944
2211.000000	115.466888
2210.000000	115.470321
2209.000000	115.465414
2208.000000	115.454023
2207.000000	115.442425
2206.000000	115.439351
2205.000000	115.447866
2204.000000	115.464996
2203.000000	115.489270
2202.000000	115.522257
2201.000000	115.562305
2200.000000	115.603998
2199.000000	115.644869
2198.000000	115.686155
2197.000000	115.726297
2196.000000	115.760302
2195.000000	115.786812
2194.000000	115.809398
2193.000000	115.830315
2192.000000	115.849452
2191.000000	115.870091
2190.000000	115.898583
2189.000000	115.936935
2188.000000	115.981385
2187.000000	116.028921
2186.000000	116.078233
2185.000000	116.123864
2184.000000	116.156500
2183.000000	116.171136
2182.000000	116.169536
2181.000000	116.154272
2180.000000	116.127157
2179.000000	116.093933
2178.000000	116.063871
2177.000000	116.042761
2176.000000	116.031622
2175.000000	116.031812
2174.000000	116.044864
2173.000000	116.066770
2172.000000	116.089293
2171.000000	116.107895
2170.000000	116.122403
2169.000000	116.130335
2168.000000	116.126680
2167.000000	116.111258
2166.000000	116.089444
2165.000000	116.065177
2164.000000	116.039796
2163.000000	116.018134
2162.000000	116.008041
2161.000000	116.012738
2160.000000	116.029711
2159.000000	116.057206
2158.000000	116.094467
2157.000000	116.135319
2156.000000	116.169359
2155.000000	116.190985
2154.000000	116.201188
2153.000000	116.200748
2152.000000	116.189708
2151.000000	116.173819
2150.000000	116.163555
2149.000000	116.164959
2148.000000	116.177997
2147.000000	116.203631
2146.000000	116.244215
2145.000000	116.295618
2144.000000	116.347505
2143.000000	116.393105
2142.000000	116.431495
2141.000000	116.460814
2140.000000	116.477259
2139.000000	116.481938
2138.000000	116.480662
2137.000000	116.476174
2136.000000	116.467773
2135.000000	116.458996
2134.000000	116.457313
2133.000000	116.465148
2132.000000	116.478616
2131.000000	116.495665
2130.000000	116.517517
2129.000000	116.540977
2128.000000	116.557400
2127.000000	116.561160
2126.000000	116.552278
2125.000000	116.529967
2124.000000	116.491958
2123.000000	116.441565
2122.000000	116.387725
2121.000000	116.336474
2120.000000	116.289529
2119.000000	116.250870
2118.000000	116.226494
2117.000000	116.216212
2116.000000	116.212823
2115.000000	116.210459
2114.000000	116.206637
2113.000000	116.196497
2112.000000	116.173952
2111.000000	116.140200
2110.000000	116.103536
2109.000000	116.069991
2108.000000	116.040866
2107.000000	116.019210
2106.000000	116.010072
2105.000000	116.013239
2104.000000	116.023225
2103.000000	116.037015
2102.000000	116.055022
2101.000000	116.073880
2100.000000	116.087389
2099.000000	116.094882
2098.000000	116.101038
2097.000000	116.107690
2096.000000	116.112640
2095.000000	116.118290
2094.000000	116.131675
2093.000000	116.154717
2092.000000	116.183687
2091.000000	116.218788
2090.000000	116.264901
2089.000000	116.322109
2088.000000	116.384336
2087.000000	116.448466
2086.000000	116.515285
2085.000000	116.580821
2084.000000	116.637338
2083.000000	116.683890
2082.000000	116.726020
2081.000000	116.764981
2080.000000	116.797397
2079.000000	116.825994
2078.000000	116.859423
2077.000000	116.900202
2076.000000	116.942028
2075.000000	116.981998
2074.000000	117.023449
2073.000000	117.065638
2072.000000	117.103127
2071.000000	117.133813
2070.000000	117.161399
2069.000000	117.187431
2068.000000	117.209504
2067.000000	117.228290
2066.000000	117.248013
2065.000000	117.269283
2064.000000	117.289704
2063.000000	117.311683
2062.000000	117.339501
2061.000000	117.369641
2060.000000	117.393855
2059.000000	117.411965
2058.000000	117.431353
2057.000000	117.453736
2056.000000	117.473840
2055.000000	117.491083
2054.000000	117.510745
2053.000000	117.533273
2052.000000	117.554366
2051.000000	117.573661
2050.000000	117.595314
2049.000000	117.619770
2048.000000	117.642619
2047.000000	117.661929
2046.000000	117.680633
2045.000000	117.698777
2044.000000	117.711766
2043.000000	117.719120
2042.000000	117.727182
2041.000000	117.740427
2040.000000	117.757668
2039.000000	117.778961
2038.000000	117.806696
2037.000000	117.837899
2036.000000	117.864489
2035.000000	117.884020
2034.000000	117.901256
2033.000000	117.917106
2032.000000	117.926965
2031.000000	117.932678
2030.000000	117.943635
2029.000000	117.963719
2028.000000	117.987457
2027.000000	118.010829
2026.000000	118.037632
2025.000000	118.068612
2024.000000	118.098451
2023.000000	118.121621
2022.000000	118.138752
2021.000000	118.150967
2020.000000	118.154239
2019.000000	118.145458
2018.000000	118.128665
2017.000000	118.110798
2016.000000	118.096530
2015.000000	118.090517
2014.000000	118.096371
2013.000000	118.110007
2012.000000	118.121601
2011.000000	118.128507
2010.000000	118.138108
2009.000000	118.153324
2008.000000	118.166010
2007.000000	118.169836
2006.000000	118.168638
2005.000000	118.164256
2004.000000	118.152350
2003.000000	118.131140
2002.000000	118.109042
2001.000000	118.093264
2000.000000	118.082471
1999.000000	118.081076
1998.000000	118.094687
1997.000000	118.122762
1996.000000	118.160038
1995.000000	118.201279
1994.000000	118.238100
1993.000000	118.258658
1992.000000	118.258437
1991.000000	118.248284
1990.000000	118.241810
1989.000000	118.239293
1988.000000	118.233037
1987.000000	118.223099
1986.000000	118.219839
1985.000000	118.230522
1984.000000	118.252984
1983.000000	118.282726
1982.000000	118.318239
1981.000000	118.356492
1980.000000	118.391826
1979.000000	118.423391
1978.000000	118.446999
1977.000000	118.457236
1976.000000	118.455476
1975.000000	118.450187
1974.000000	118.446072
1973.000000	118.442788
1972.000000	118.444352
1971.000000	118.458194
1970.000000	118.483572
1969.000000	118.511522
1968.000000	118.537356
1967.000000	118.564620
1966.000000	118.596505
1965.000000	118.630259
1964.000000	118.659745
1963.000000	118.676551
1962.000000	118.672342
1961.000000	118.649149
1960.000000	118.624870
1959.000000	118.616263
1958.000000	118.620119
1957.000000	118.622856
1956.000000	118.622569
1955.000000	118.629164
1954.000000	118.645018
1953.000000	118.661477
1952.000000	118.671670
1951.000000	118.672137
1950.000000	118.662716
1949.000000	118.638316
1948.000000	118.594080
1947.000000	118.537509
1946.000000	118.480392
1945.000000	118.425974
1944.000000	118.372984
1943.000000	118.328787
1942.000000	118.310150
1941.000000	118.327795
1940.000000	118.379626
1939.000000	118.453474
1938.000000	118.528571
1937.000000	118.586503
1936.000000	118.626904
1935.000000	118.661059
1934.000000	118.690273
1933.000000	118.707373
1932.000000	118.712612
1931.000000	118.716257
1930.000000	118.733658
1929.000000	118.760453
1928.000000	118.786068
1927.000000	118.816638
1926.000000	118.859680
1925.000000	118.909460
1924.000000	118.936219
1923.000000	118.932740
1922.000000	118.926084
1921.000000	118.932242
1920.000000	118.936989
1919.000000	118.923122
1918.000000	118.895520
1917.000000	118.874657
1916.000000	118.868065
1915.000000	118.878096
1914.000000	118.903763
1913.000000	118.930122
1912.000000	118.939926
1911.000000	118.937047
1910.000000	118.938719
1909.000000	118.936657
1908.000000	118.913487
1907.000000	118.876366
1906.000000	118.843099
1905.000000	118.814658
1904.000000	118.763062
1903.000000	118.691301
1902.000000	118.636986
1901.000000	118.605527
1900.000000	118.572247
1899.000000	118.537905
1898.000000	118.525813
1897.000000	118.537670
1896.000000	118.538209
1895.000000	118.515831
1894.000000	118.501832
1893.000000	118.508956
1892.000000	118.508852
1891.000000	118.483098
1890.000000	118.448849
1889.000000	118.427819
1888.000000	118.422851
1887.000000	118.440333
1886.000000	118.491399
1885.000000	118.556251
1884.000000	118.597070
1883.000000	118.615161
1882.000000	118.644456
1881.000000	118.679756
1880.000000	118.685919
1879.000000	118.662565
1878.000000	118.639903
1877.000000	118.631983
1876.000000	118.620817
1875.000000	118.596885
1874.000000	118.585638
1873.000000	118.603394
1872.000000	118.628914
1871.000000	118.646808
1870.000000	118.666798
1869.000000	118.693364
1868.000000	118.713457
1867.000000	118.734491
1866.000000	118.786472
1865.000000	118.862456
1864.000000	118.915142
1863.000000	118.928546
1862.000000	118.942446
1861.000000	118.981041
1860.000000	119.019643
1859.000000	119.047668
1858.000000	119.097925
1857.000000	119.182384
1856.000000	119.264038
1855.000000	119.320599
1854.000000	119.375052
1853.000000	119.427865
1852.000000	119.449476
1851.000000	119.448461
1850.000000	119.444753
1849.000000	119.439170
1848.000000	119.422141
1847.000000	119.413231
1846.000000	119.440032
1845.000000	119.482171
1844.000000	119.510136
1843.000000	119.543127
1842.000000	119.608055
1841.000000	119.683323
1840.000000	119.734164
1839.000000	119.746874
1838.000000	119.739329
1837.000000	119.739338
1836.000000	119.741946
1835.000000	119.744851
1834.000000	119.763207
1833.000000	119.799681
1832.000000	119.846834
1831.000000	119.886060
1830.000000	119.893815
1829.000000	119.890683
1828.000000	119.912556
1827.000000	119.963398
1826.000000	120.019801
1825.000000	120.062563
1824.000000	120.093073
1823.000000	120.121696
1822.000000	120.156195
1821.000000	120.194953
1820.000000	120.224076
1819.000000	120.232186
1818.000000	120.243979
1817.000000	120.294290
1816.000000	120.359294
1815.000000	120.401457
1814.000000	120.428071
1813.000000	120.461006
1812.000000	120.485548
1811.000000	120.464362
1810.000000	120.430561
1809.000000	120.438598
1808.000000	120.464384
1807.000000	120.469408
1806.000000	120.475941
1805.000000	120.509443
1804.000000	120.536145
1803.000000	120.533949
1802.000000	120.540023
1801.000000	120.585705
1800.000000	120.647488
1799.000000	120.682102
1798.000000	120.705903
1797.000000	120.737098
1796.000000	120.745035
1795.000000	120.723404
1794.000000	120.711612
1793.000000	120.728248
1792.000000	120.747017
1791.000000	120.748759
1790.000000	120.772047
1789.000000	120.833834
1788.000000	120.889427
1787.000000	120.903299
1786.000000	120.906758
1785.000000	120.938228
1784.000000	120.972534
1783.000000	120.989146
1782.000000	120.997376
1781.000000	120.993933
1780.000000	120.989258
1779.000000	120.992656
1778.000000	121.021465
1777.000000	121.066804
1776.000000	121.112381
1775.000000	121.177351
1774.000000	121.265407
1773.000000	121.341590
1772.000000	121.387766
1771.000000	121.394042
1770.000000	121.366465
1769.000000	121.362166
1768.000000	121.411765
1767.000000	121.472724
1766.000000	121.510629
1765.000000	121.547435
1764.000000	121.613262
1763.000000	121.680490
1762.000000	121.706574
1761.000000	121.723876
1760.000000	121.774181
1759.000000	121.829295
1758.000000	121.862667
1757.000000	121.862833
1756.000000	121.862682
1755.000000	121.867918
1754.000000	121.837728
1753.000000	121.783859
1752.000000	121.764852
1751.000000	121.796769
1750.000000	121.834821
1749.000000	121.855868
1748.000000	121.873975
1747.000000	121.910762
1746.000000	121.937173
1745.000000	121.935629
1744.000000	121.939800
1743.000000	121.948987
1742.000000	121.945669
1741.000000	121.945739
1740.000000	121.956882
1739.000000	121.941602
1738.000000	121.880521
1737.000000	121.813424
1736.000000	121.802275
1735.000000	121.824266
1734.000000	121.860303
1733.000000	121.932118
1732.000000	121.993493
1731.000000	121.996293
1730.000000	121.970415
1729.000000	121.931712
1728.000000	121.893165
1727.000000	121.871626
1726.000000	121.848569
1725.000000	121.815413
1724.000000	121.773297
1723.000000	121.713791
1722.000000	121.672860
1721.000000	121.680748
1720.000000	121.712008
1719.000000	121.697393
1718.000000	121.650493
1717.000000	121.682887
1716.000000	121.741294
1715.000000	121.724804
1714.000000	121.708209
1713.000000	121.760970
1712.000000	121.811495
1711.000000	121.814204
1710.000000	121.839218
1709.000000	121.928397
1708.000000	122.033744
1707.000000	122.113481
1706.000000	122.192997
1705.000000	122.295863
1704.000000	122.359363
1703.000000	122.389245
1702.000000	122.500979
1701.000000	122.684057
1700.000000	122.820872
1699.000000	122.852203
1698.000000	122.881594
1697.000000	123.003675
1696.000000	123.150805
1695.000000	123.228940
1694.000000	123.275722
1693.000000	123.319430
1692.000000	123.359467
1691.000000	123.387611
1690.000000	123.399837
1689.000000	123.401277
1688.000000	123.424380
1687.000000	123.513032
1686.000000	123.653229
1685.000000	123.728773
1684.000000	123.719786
1683.000000	123.751156
1682.000000	123.822948
1681.000000	123.847883
1680.000000	123.860414
1679.000000	123.906450
1678.000000	123.967708
1677.000000	124.011168
1676.000000	124.046597
1675.000000	124.110957
1674.000000	124.156007
1673.000000	124.130541
1672.000000	124.100175
1671.000000	124.113359
1670.000000	124.133414
1669.000000	124.114008
1668.000000	124.089706
1667.000000	124.098284
1666.000000	124.101345
1665.000000	124.066689
1664.000000	123.992179
1663.000000	123.903061
1662.000000	123.814681
1661.000000	123.681929
1660.000000	123.532217
1659.000000	123.421541
1658.000000	123.301827
1657.000000	123.124737
1656.000000	122.961457
1655.000000	122.889466
1654.000000	122.702514
1653.000000	122.353770
1652.000000	122.031480
1651.000000	121.669179
1650.000000	121.154783
1649.000000	120.539521
1648.000000	119.736055
1647.000000	118.654113
1646.000000	117.398906
1645.000000	116.126348
1644.000000	114.835023
1643.000000	113.484676
1642.000000	112.102951
1641.000000	110.752997
1640.000000	109.566425
1639.000000	108.649138
1638.000000	108.047158
1637.000000	107.762375
1636.000000	107.825061
1635.000000	108.258966
1634.000000	108.910503
1633.000000	109.620986
1632.000000	110.354996
1631.000000	111.148637
1630.000000	112.002878
1629.000000	112.866146
1628.000000	113.687271
1627.000000	114.452342
1626.000000	115.150776
1625.000000	115.778530
1624.000000	116.364851
1623.000000	116.934993
1622.000000	117.448931
1621.000000	117.841748
1620.000000	118.166769
1619.000000	118.536253
1618.000000	118.960765
1617.000000	119.353490
1616.000000	119.681996
1615.000000	119.966460
1614.000000	120.179464
1613.000000	120.301432
1612.000000	120.367037
1611.000000	120.411981
1610.000000	120.383973
1609.000000	120.174559
1608.000000	119.750054
1607.000000	119.126090
1606.000000	118.222572
1605.000000	116.895955
1604.000000	115.137760
1603.000000	113.048205
1602.000000	110.720393
1601.000000	108.236417
1600.000000	105.621709
1599.000000	102.712198
1598.000000	99.094887
1597.000000	94.375135
1596.000000	88.581475
1595.000000	82.287078
1594.000000	76.339931
1593.000000	71.446734
1592.000000	67.999338
1591.000000	66.092289
1590.000000	65.514222
1589.000000	65.766205
1588.000000	66.280464
1587.000000	66.639529
1586.000000	66.589833
1585.000000	66.053843
1584.000000	65.217622
1583.000000	64.456860
1582.000000	64.038907
1581.000000	63.994725
1580.000000	64.272361
1579.000000	64.846559
1578.000000	65.628316
1577.000000	66.395155
1576.000000	66.947077
1575.000000	67.292924
1574.000000	67.525238
1573.000000	67.717217
1572.000000	68.039705
1571.000000	68.762410
1570.000000	70.081970
1569.000000	71.900125
1568.000000	73.987401
1567.000000	76.249920
1566.000000	78.621440
1565.000000	80.915447
1564.000000	82.930363
1563.000000	84.642689
1562.000000	86.176688
1561.000000	87.724163
1560.000000	89.488340
1559.000000	91.595780
1558.000000	93.714731
1557.000000	95.417632
1556.000000	96.771617
1555.000000	98.062217
1554.000000	99.323989
1553.000000	100.426022
1552.000000	101.344891
1551.000000	102.143849
1550.000000	102.867153
1549.000000	103.508928
1548.000000	104.074812
1547.000000	104.624098
1546.000000	105.185917
1545.000000	105.727134
1544.000000	106.237587
1543.000000	106.752251
1542.000000	107.309058
1541.000000	107.884708
1540.000000	108.408163
1539.000000	108.865044
1538.000000	109.230577
1537.000000	109.474328
1536.000000	109.658143
1535.000000	109.859978
1534.000000	110.064836
1533.000000	110.249363
1532.000000	110.450907
1531.000000	110.686695
1530.000000	110.957823
1529.000000	111.243516
1528.000000	111.491400
1527.000000	111.703041
1526.000000	111.913889
1525.000000	112.121222
1524.000000	112.306095
1523.000000	112.454070
1522.000000	112.545688
1521.000000	112.589772
1520.000000	112.622435
1519.000000	112.668853
1518.000000	112.727282
1517.000000	112.786080
1516.000000	112.839276
1515.000000	112.911322
1514.000000	113.023087
1513.000000	113.174771
1512.000000	113.314824
1511.000000	113.382337
1510.000000	113.400536
1509.000000	113.450096
1508.000000	113.515989
1507.000000	113.518972
1506.000000	113.564208
1505.000000	113.708670
1504.000000	113.821905
1503.000000	113.867972
1502.000000	113.916048
1501.000000	114.005856
1500.000000	114.125456
1499.000000	114.234315
1498.000000	114.332554
1497.000000	114.490044
1496.000000	114.708927
1495.000000	114.902695
1494.000000	115.048629
1493.000000	115.183831
1492.000000	115.313520
1491.000000	115.412091
1490.000000	115.514256
1489.000000	115.697002
1488.000000	115.939621
1487.000000	116.179306
1486.000000	116.439681
1485.000000	116.699297
1484.000000	116.903252
1483.000000	117.060051
1482.000000	117.189768
1481.000000	117.296787
1480.000000	117.366894
1479.000000	117.420476
1478.000000	117.494245
1477.000000	117.594143
1476.000000	117.688068
1475.000000	117.801757
1474.000000	118.004262
1473.000000	118.288173
1472.000000	118.592854
1471.000000	118.852246
1470.000000	119.033590
1469.000000	119.124967
1468.000000	119.106202
1467.000000	118.957159
1466.000000	118.640431
1465.000000	118.075974
1464.000000	117.230878
1463.000000	116.096601
1462.000000	114.634830
1461.000000	112.824881
1460.000000	110.672718
1459.000000	108.156566
1458.000000	105.203937
1457.000000	102.080783
1456.000000	99.441282
1455.000000	97.521237
1454.000000	95.972527
1453.000000	94.518506
1452.000000	93.202329
1451.000000	92.227276
1450.000000	91.786402
1449.000000	91.998006
1448.000000	92.838731
1447.000000	94.095056
1446.000000	95.500742
1445.000000	96.956067
1444.000000	98.525586
1443.000000	100.187366
1442.000000	101.793419
1441.000000	103.227630
1440.000000	104.463667
1439.000000	105.507529
1438.000000	106.401608
1437.000000	107.272394
1436.000000	108.208074
1435.000000	109.121133
1434.000000	109.917878
1433.000000	110.659239
1432.000000	111.408194
1431.000000	112.108486
1430.000000	112.684905
1429.000000	113.168448
1428.000000	113.600360
1427.000000	113.962655
1426.000000	114.228925
1425.000000	114.419413
1424.000000	114.609119
1423.000000	114.801166
1422.000000	114.957446
1421.000000	115.100386
1420.000000	115.275028
1419.000000	115.457939
1418.000000	115.616580
1417.000000	115.819537
1416.000000	116.107125
1415.000000	116.406438
1414.000000	116.623501
1413.000000	116.758086
1412.000000	116.871584
1411.000000	116.956364
1410.000000	116.968434
1409.000000	116.941538
1408.000000	116.918449
1407.000000	116.867827
1406.000000	116.721080
1405.000000	116.442972
1404.000000	116.062361
1403.000000	115.593539
1402.000000	115.038737
1401.000000	114.445106
1400.000000	113.878315
1399.000000	113.363728
1398.000000	112.899922
1397.000000	112.537599
1396.000000	112.390578
1395.000000	112.567723
1394.000000	113.057947
1393.000000	113.738719
1392.000000	114.481409
1391.000000	115.176718
1390.000000	115.754367
1389.000000	116.227086
1388.000000	116.675209
1387.000000	117.158147
1386.000000	117.648473
1385.000000	118.068840
1384.000000	118.363380
1383.000000	118.498741
1382.000000	118.483037
1381.000000	118.390323
1380.000000	118.308145
1379.000000	118.279552
1378.000000	118.294651
1377.000000	118.317818
1376.000000	118.300702
1375.000000	118.178117
1374.000000	117.868681
1373.000000	117.307326
1372.000000	116.441563
1371.000000	115.195710
1370.000000	113.494698
1369.000000	111.390241
1368.000000	109.186701
1367.000000	107.321244
1366.000000	106.095211
1365.000000	105.548340
1364.000000	105.542912
1363.000000	105.928656
1362.000000	106.649164
1361.000000	107.719620
1360.000000	109.106003
1359.000000	110.656967
1358.000000	112.155664
1357.000000	113.426130
1356.000000	114.404049
1355.000000	115.118517
1354.000000	115.639477
1353.000000	116.050150
1352.000000	116.411132
1351.000000	116.751300
1350.000000	117.078348
1349.000000	117.389264
1348.000000	117.690900
1347.000000	117.982052
1346.000000	118.245835
1345.000000	118.468177
1344.000000	118.647547
1343.000000	118.780678
1342.000000	118.857795
1341.000000	118.882754
1340.000000	118.885855
1339.000000	118.905731
1338.000000	118.961742
1337.000000	119.057887
1336.000000	119.192428
1335.000000	119.352937
1334.000000	119.519385
1333.000000	119.679244
1332.000000	119.827609
1331.000000	119.952288
1330.000000	120.031896
1329.000000	120.054897
1328.000000	120.021547
1327.000000	119.925251
1326.000000	119.737282
1325.000000	119.409606
1324.000000	118.889114
1323.000000	118.109158
1322.000000	117.009879
1321.000000	115.603313
1320.000000	114.013886
1319.000000	112.439041
1318.000000	111.048697
1317.000000	109.916141
1316.000000	109.039720
1315.000000	108.424818
1314.000000	108.125578
1313.000000	108.198177
1312.000000	108.605157
1311.000000	109.182169
1310.000000	109.748172
1309.000000	110.252982
1308.000000	110.798452
1307.000000	111.520046
1306.000000	112.455219
1305.000000	113.521727
1304.000000	114.585657
1303.000000	115.522621
1302.000000	116.255841
1301.000000	116.775800
1300.000000	117.117599
1299.000000	117.315984
1298.000000	117.388834
1297.000000	117.351125
1296.000000	117.219345
1295.000000	116.987518
1294.000000	116.624871
1293.000000	116.105548
1292.000000	115.423232
1291.000000	114.587493
1290.000000	113.613014
1289.000000	112.506504
1288.000000	111.230536
1287.000000	109.680123
1286.000000	107.760056
1285.000000	105.535044
1284.000000	103.301060
1283.000000	101.490736
1282.000000	100.483092
1281.000000	100.441039
1280.000000	101.279149
1279.000000	102.727442
1278.000000	104.435797
1277.000000	106.094554
1276.000000	107.481258
1275.000000	108.452779
1274.000000	108.974146
1273.000000	109.184390
1272.000000	109.382400
1271.000000	109.858132
1270.000000	110.705677
1269.000000	111.799341
1268.000000	112.931580
1267.000000	113.954867
1266.000000	114.825362
1265.000000	115.569204
1264.000000	116.225877
1263.000000	116.810086
1262.000000	117.313343
1261.000000	117.732502
1260.000000	118.079913
1259.000000	118.366318
1258.000000	118.596574
1257.000000	118.783954
1256.000000	118.952086
1255.000000	119.117464
1254.000000	119.283597
1253.000000	119.456217
1252.000000	119.644915
1251.000000	119.846597
1250.000000	120.043652
1249.000000	120.222793
1248.000000	120.382893
1247.000000	120.519919
1246.000000	120.622931
1245.000000	120.692214
1244.000000	120.743509
1243.000000	120.790228
1242.000000	120.837507
1241.000000	120.896195
1240.000000	120.983856
1239.000000	121.105363
1238.000000	121.247809
1237.000000	121.397518
1236.000000	121.545279
1235.000000	121.673129
1234.000000	121.754971
1233.000000	121.777951
1232.000000	121.747177
1231.000000	121.666324
1230.000000	121.533229
1229.000000	121.351022
1228.000000	121.126549
1227.000000	120.845328
1226.000000	120.456886
1225.000000	119.891101
1224.000000	119.060767
1223.000000	117.868025
1222.000000	116.238489
1221.000000	114.168834
1220.000000	111.756284
1219.000000	109.162663
1218.000000	106.555759
1217.000000	104.066236
1216.000000	101.763997
1215.000000	99.657077
1214.000000	97.720945
1213.000000	95.946818
1212.000000	94.362862
1211.000000	93.011328
1210.000000	91.904858
1209.000000	91.037702
1208.000000	90.419391
1207.000000	90.068391
1206.000000	89.993891
1205.000000	90.177501
1204.000000	90.579670
1203.000000	91.144487
1202.000000	91.811956
1201.000000	92.571577
1200.000000	93.477312
1199.000000	94.602248
1198.000000	95.980699
1197.000000	97.590892
1196.000000	99.376481
1195.000000	101.251454
1194.000000	103.111090
1193.000000	104.867762
1192.000000	106.473064
1191.000000	107.900837
1190.000000	109.133485
1189.000000	110.174980
1188.000000	111.053114
1187.000000	111.800487
1186.000000	112.434740
1185.000000	112.972562
1184.000000	113.439908
1183.000000	113.851265
1182.000000	114.202338
1181.000000	114.480253
1180.000000	114.675833
1179.000000	114.781273
1178.000000	114.790353
1177.000000	114.716646
1176.000000	114.591833
1175.000000	114.444910
1174.000000	114.296222
1173.000000	114.171474
1172.000000	114.104851
1171.000000	114.119143
1170.000000	114.216098
1169.000000	114.390019
1168.000000	114.633475
1167.000000	114.919297
1166.000000	115.196017
1165.000000	115.413426
1164.000000	115.543421
1163.000000	115.579674
1162.000000	115.540861
1161.000000	115.481224
1160.000000	115.474194
1159.000000	115.567928
1158.000000	115.764778
1157.000000	116.045458
1156.000000	116.394825
1155.000000	116.796124
1154.000000	117.220835
1153.000000	117.639383
1152.000000	118.026821
1151.000000	118.351413
1150.000000	118.577761
1149.000000	118.694918
1148.000000	118.724848
1147.000000	118.699151
1146.000000	118.642102
1145.000000	118.575322
1144.000000	118.519348
1143.000000	118.470539
1142.000000	118.393242
1141.000000	118.244957
1140.000000	117.988043
1139.000000	117.582447
1138.000000	116.971191
1137.000000	116.092569
1136.000000	114.893685
1135.000000	113.303935
1134.000000	111.236334
1133.000000	108.602776
1132.000000	105.344872
1131.000000	101.477273
1130.000000	97.130577
1129.000000	92.601182
1128.000000	88.337978
1127.000000	84.819636
1126.000000	82.374621
1125.000000	81.092326
1124.000000	80.828683
1123.000000	81.259097
1122.000000	81.956530
1121.000000	82.491062
1120.000000	82.540618
1119.000000	81.909021
1118.000000	80.531128
1117.000000	78.577956
1116.000000	76.566140
1115.000000	75.282338
1114.000000	75.426497
1113.000000	77.236743
1112.000000	80.397096
1111.000000	84.224610
1110.000000	87.981009
1109.000000	91.116587
1108.000000	93.354870
1107.000000	94.637819
1106.000000	95.035812
1105.000000	94.712095
1104.000000	93.960883
1103.000000	93.230368
1102.000000	93.008143
1101.000000	93.609378
1100.000000	95.024603
1099.000000	96.962519
1098.000000	99.054554
1097.000000	101.041568
1096.000000	102.806105
1095.000000	104.308505
1094.000000	105.549049
1093.000000	106.570847
1092.000000	107.442652
1091.000000	108.222692
1090.000000	108.950099
1089.000000	109.663693
1088.000000	110.404038
1087.000000	111.184480
1086.000000	111.987977
1085.000000	112.789198
1084.000000	113.560684
1083.000000	114.266314
1082.000000	114.870349
1081.000000	115.362932
1080.000000	115.757095
1079.000000	116.061704
1078.000000	116.282124
1077.000000	116.432325
1076.000000	116.527517
1075.000000	116.561905
1074.000000	116.505428
1073.000000	116.332724
1072.000000	116.015903
1071.000000	115.502799
1070.000000	114.719110
1069.000000	113.573389
1068.000000	111.970709
1067.000000	109.791251
1066.000000	106.911310
1065.000000	103.276988
1064.000000	98.949550
1063.000000	94.138852
1062.000000	89.162576
1061.000000	84.348257
1060.000000	79.893582
1059.000000	75.757719
1058.000000	71.708838
1057.000000	67.595375
1056.000000	63.669087
1055.000000	60.626268
1054.000000	59.326890
1053.000000	60.300183
1052.000000	63.442113
1051.000000	68.075006
1050.000000	73.262849
1049.000000	78.237027
1048.000000	82.585240
1047.000000	86.205557
1046.000000	89.178033
1045.000000	91.654656
1044.000000	93.778056
1043.000000	95.629716
1042.000000	97.235744
1041.000000	98.604934
1040.000000	99.766592
1039.000000	100.750727
1038.000000	101.582078
1037.000000	102.296371
1036.000000	102.931537
1035.000000	103.513049
1034.000000	104.049062
1033.000000	104.551085
1032.000000	105.037673
1031.000000	105.512575
1030.000000	105.965464
1029.000000	106.391554
1028.000000	106.796162
1027.000000	107.179851
1026.000000	107.537452
1025.000000	107.875409
1024.000000	108.208867
1023.000000	108.540749
1022.000000	108.862868
1021.000000	109.172967
1020.000000	109.473388
1019.000000	109.747636
1018.000000	109.955402
1017.000000	110.054029
1016.000000	109.990694
1015.000000	109.691042
1014.000000	109.065026
1013.000000	108.032316
1012.000000	106.549887
1011.000000	104.617216
1010.000000	102.306997
1009.000000	99.787056
1008.000000	97.296391
1007.000000	95.101429
1006.000000	93.477371
1005.000000	92.671702
1004.000000	92.797915
1003.000000	93.716381
1002.000000	95.034282
1001.000000	96.283134
1000.000000	97.098537
999.000000	97.266205
998.000000	96.698695
997.000000	95.464908
996.000000	93.847668
995.000000	92.294926
994.000000	91.225276
993.000000	90.832975
992.000000	91.053699
991.000000	91.697815
990.000000	92.615070
989.000000	93.761029
988.000000	95.147365
987.000000	96.734490
986.000000	98.401095
985.000000	100.003048
984.000000	101.439102
983.000000	102.669578
982.000000	103.701222
981.000000	104.572503
980.000000	105.331892
979.000000	106.016116
978.000000	106.639826
977.000000	107.211159
976.000000	107.737164
975.000000	108.212272
974.000000	108.623519
973.000000	108.964818
972.000000	109.243404
971.000000	109.468641
970.000000	109.648001
969.000000	109.799135
968.000000	109.947357
967.000000	110.109871
966.000000	110.290974
965.000000	110.492585
964.000000	110.717154
963.000000	110.957149
962.000000	111.195756
961.000000	111.420495
960.000000	111.624819
959.000000	111.798015
958.000000	111.927243
957.000000	112.012560
956.000000	112.067928
955.000000	112.106080
954.000000	112.136035
953.000000	112.172845
952.000000	112.234839
951.000000	112.328822
950.000000	112.449305
949.000000	112.591565
948.000000	112.751414
947.000000	112.912795
946.000000	113.051251
945.000000	113.151882
944.000000	113.213032
943.000000	113.234893
942.000000	113.220251
941.000000	113.186590
940.000000	113.161197
939.000000	113.162608
938.000000	113.197341
937.000000	113.271744
936.000000	113.390317
935.000000	113.541663
934.000000	113.700930
933.000000	113.848514
932.000000	113.974818
931.000000	114.068806
930.000000	114.118590
929.000000	114.125419
928.000000	114.104069
927.000000	114.069224
926.000000	114.034329
925.000000	114.020069
924.000000	114.047406
923.000000	114.120149
922.000000	114.226233
921.000000	114.353846
920.000000	114.492664
919.000000	114.622770
918.000000	114.720012
917.000000	114.773880
916.000000	114.787771
915.000000	114.764981
914.000000	114.710399
913.000000	114.643774
912.000000	114.593685
911.000000	114.577488
910.000000	114.598811
909.000000	114.660620
908.000000	114.764109
907.000000	114.896064
906.000000	115.033074
905.000000	115.158604
904.000000	115.262959
903.000000	115.331221
902.000000	115.348044
901.000000	115.314027
900.000000	115.240278
899.000000	115.127528
898.000000	114.967611
897.000000	114.762408
896.000000	114.533343
895.000000	114.312962
894.000000	114.129863
893.000000	113.985491
892.000000	113.827602
891.000000	113.568144
890.000000	113.161759
889.000000	112.665692
888.000000	112.196320
887.000000	111.834129
886.000000	111.591630
885.000000	111.460246
884.000000	111.445810
883.000000	111.539490
882.000000	111.696046
881.000000	111.868243
880.000000	112.053211
879.000000	112.291933
878.000000	112.624308
877.000000	113.052555
876.000000	113.530148
875.000000	113.980709
874.000000	114.341976
873.000000	114.599831
872.000000	114.779160
871.000000	114.908690
870.000000	115.007000
869.000000	115.088606
868.000000	115.161053
867.000000	115.211069
866.000000	115.211607
865.000000	115.148705
864.000000	115.030748
863.000000	114.880437
862.000000	114.731605
861.000000	114.627307
860.000000	114.599445
859.000000	114.646753
858.000000	114.743287
857.000000	114.867011
856.000000	115.009388
855.000000	115.162439
854.000000	115.317065
853.000000	115.471439
852.000000	115.625257
851.000000	115.767085
850.000000	115.881637
849.000000	115.966539
848.000000	116.028574
847.000000	116.068976
846.000000	116.087439
845.000000	116.096021
844.000000	116.111836
843.000000	116.140206
842.000000	116.179237
841.000000	116.234117
840.000000	116.309834
839.000000	116.394655
838.000000	116.468367
837.000000	116.523207
836.000000	116.560923
835.000000	116.576661
834.000000	116.564601
833.000000	116.535297
832.000000	116.509344
831.000000	116.496888
830.000000	116.499467
829.000000	116.526073
828.000000	116.587991
827.000000	116.679958
826.000000	116.783620
825.000000	116.885280
824.000000	116.973233
823.000000	117.025943
822.000000	117.026310
821.000000	116.983740
820.000000	116.924197
819.000000	116.864861
818.000000	116.814335
817.000000	116.787291
816.000000	116.796235
815.000000	116.833228
814.000000	116.876463
813.000000	116.908094
812.000000	116.908516
811.000000	116.843025
810.000000	116.682438
809.000000	116.440298
808.000000	116.173399
807.000000	115.945202
806.000000	115.797988
805.000000	115.747522
804.000000	115.782207
803.000000	115.867834
802.000000	115.968861
801.000000	116.066317
800.000000	116.145742
799.000000	116.177833
798.000000	116.124477
797.000000	115.957220
796.000000	115.654074
795.000000	115.191854
794.000000	114.564140
793.000000	113.801092
792.000000	112.963312
791.000000	112.121911
790.000000	111.353390
789.000000	110.734469
788.000000	110.317447
787.000000	110.108659
786.000000	110.079457
785.000000	110.188654
784.000000	110.381638
783.000000	110.587304
782.000000	110.738427
781.000000	110.798466
780.000000	110.763552
779.000000	110.654481
778.000000	110.525094
777.000000	110.459553
776.000000	110.533841
775.000000	110.777206
774.000000	111.174828
773.000000	111.692032
772.000000	112.278256
771.000000	112.866084
770.000000	113.394270
769.000000	113.830276
768.000000	114.160709
767.000000	114.375767
766.000000	114.482772
765.000000	114.520389
764.000000	114.539204
763.000000	114.574814
762.000000	114.651827
761.000000	114.794773
760.000000	115.011816
759.000000	115.278279
758.000000	115.553616
757.000000	115.804321
756.000000	115.997901
755.000000	116.095581
754.000000	116.076726
753.000000	115.960276
752.000000	115.785761
751.000000	115.586963
750.000000	115.398045
749.000000	115.263777
748.000000	115.216651
747.000000	115.253413
746.000000	115.349522
745.000000	115.480051
744.000000	115.609433
743.000000	115.683361
742.000000	115.657317
741.000000	115.522962
740.000000	115.293218
739.000000	114.984120
738.000000	114.629387
737.000000	114.286751
736.000000	114.002225
735.000000	113.781761
734.000000	113.615114
733.000000	113.502499
732.000000	113.436775
731.000000	113.386442
730.000000	113.324592
729.000000	113.255339
728.000000	113.190537
727.000000	113.123248
726.000000	113.048270
725.000000	112.985594
724.000000	112.954626
723.000000	112.948816
722.000000	112.968745
721.000000	113.058443
720.000000	113.269927
719.000000	113.604272
718.000000	114.016557
717.000000	114.456762
716.000000	114.873389
715.000000	115.201472
714.000000	115.388661
713.000000	115.425424
712.000000	115.329075
711.000000	115.121775
710.000000	114.848208
709.000000	114.585417
708.000000	114.402389
707.000000	114.325188
706.000000	114.360421
705.000000	114.521564
704.000000	114.797692
703.000000	115.124067
702.000000	115.424705
701.000000	115.658769
700.000000	115.798845
699.000000	115.809187
698.000000	115.684394
697.000000	115.478633
696.000000	115.254820
695.000000	115.036639
694.000000	114.849667
693.000000	114.756073
692.000000	114.795967
691.000000	114.940898
690.000000	115.149084
689.000000	115.417489
688.000000	115.721493
687.000000	115.962638
686.000000	116.057981
685.000000	116.021605
684.000000	115.895446
683.000000	115.678508
682.000000	115.391434
681.000000	115.135115
680.000000	114.991430
679.000000	114.952650
678.000000	115.000315
677.000000	115.161799
676.000000	115.442080
675.000000	115.755295
674.000000	116.048987
673.000000	116.389934
672.000000	116.847363
671.000000	117.346530
670.000000	117.736578
669.000000	117.766769
668.000000	117.198325
667.000000	116.450272
666.000000	116.036374
665.000000	115.806923
664.000000	115.648184
663.000000	115.673761
662.000000	115.922094
661.000000	116.251416
660.000000	116.511559
659.000000	116.671005
658.000000	116.723832
657.000000	116.617924
656.000000	116.360781
655.000000	116.055721
654.000000	115.790037
653.000000	115.567135
652.000000	115.404274
651.000000	115.372003
650.000000	115.484020
649.000000	115.658012
648.000000	115.832330
647.000000	116.011417
646.000000	116.168417
645.000000	116.223005
644.000000	116.143819
643.000000	115.982966
642.000000	115.788601
641.000000	115.559991
640.000000	115.318319
639.000000	115.136316
638.000000	115.057471
637.000000	115.060040
636.000000	115.127396
635.000000	115.274383
634.000000	115.480122
633.000000	115.670182
632.000000	115.790002
631.000000	115.838000
630.000000	115.810720
629.000000	115.681260
628.000000	115.457936
627.000000	115.205961
626.000000	114.986599
625.000000	114.823837
624.000000	114.741690
623.000000	114.778243
622.000000	114.934416
621.000000	115.151432
620.000000	115.360842
619.000000	115.518933
618.000000	115.591995
617.000000	115.554076
616.000000	115.414066
615.000000	115.211524
614.000000	114.977913
613.000000	114.736462
612.000000	114.535054
611.000000	114.433088
610.000000	114.449929
609.000000	114.555435
608.000000	114.712289
607.000000	114.888606
606.000000	115.032451
605.000000	115.087488
604.000000	115.034930
603.000000	114.889060
602.000000	114.659076
601.000000	114.351625
600.000000	114.004030
599.000000	113.672901
598.000000	113.381315
597.000000	113.113379
596.000000	112.859788
595.000000	112.625720
594.000000	112.386995
593.000000	112.072432
592.000000	111.596737
591.000000	110.902577
590.000000	110.003091
589.000000	109.026501
588.000000	108.195274
587.000000	107.690139
586.000000	107.518644
585.000000	107.558990
584.000000	107.737245
583.000000	108.086721
582.000000	108.634417
581.000000	109.317451
580.000000	110.027054
579.000000	110.673181
578.000000	111.181568
577.000000	111.498974
576.000000	111.632358
575.000000	111.643132
574.000000	111.582307
573.000000	111.470385
572.000000	111.342842
571.000000	111.257529
570.000000	111.240340
569.000000	111.262496
568.000000	111.287887
567.000000	111.285339
566.000000	111.185024
565.000000	110.880281
564.000000	110.298763
563.000000	109.456013
562.000000	108.438624
561.000000	107.372559
560.000000	106.397582
559.000000	105.607225
558.000000	104.988739
557.000000	104.474411
556.000000	104.081295
555.000000	103.945130
554.000000	104.191743
553.000000	104.813298
552.000000	105.680843
551.000000	106.613751
550.000000	107.423208
549.000000	107.978019
548.000000	108.269135
547.000000	108.384058
546.000000	108.413997
545.000000	108.412607
544.000000	108.426185
543.000000	108.497993
542.000000	108.626748
541.000000	108.762418
540.000000	108.862379
539.000000	108.911394
538.000000	108.888355
537.000000	108.763616
536.000000	108.540920
535.000000	108.261404
534.000000	107.960497
533.000000	107.660726
532.000000	107.399263
531.000000	107.227897
530.000000	107.163156
529.000000	107.168286
528.000000	107.195543
527.000000	107.213877
526.000000	107.179362
525.000000	107.031346
524.000000	106.736574
523.000000	106.294266
522.000000	105.709635
521.000000	105.002558
520.000000	104.243794
519.000000	103.534371
518.000000	102.929811
517.000000	102.420333
516.000000	101.993684
515.000000	101.662676
514.000000	101.426887
513.000000	101.265693
512.000000	101.180622
511.000000	101.204848
510.000000	101.346786
509.000000	101.562916
508.000000	101.813107
507.000000	102.110600
506.000000	102.487460
505.000000	102.954958
504.000000	103.522860
503.000000	104.211011
502.000000	105.001858
501.000000	105.816074
500.000000	106.568075
499.000000	107.214365
498.000000	107.729114
497.000000	108.088767
496.000000	108.297581
495.000000	108.392573
494.000000	108.414345
493.000000	108.387428
492.000000	108.353096
491.000000	108.376067
490.000000	108.487598
489.000000	108.660644
488.000000	108.848795
487.000000	109.025984
486.000000	109.158214
485.000000	109.166677
484.000000	108.959875
483.000000	108.488822
482.000000	107.760976
481.000000	106.836358
480.000000	105.846490
479.000000	104.966694
478.000000	104.313889
477.000000	103.888765
476.000000	103.626574
475.000000	103.472185
474.000000	103.387000
473.000000	103.354429
472.000000	103.420478
471.000000	103.665886
470.000000	104.094788
469.000000	104.617656
468.000000	105.159095
467.000000	105.702315
466.000000	106.233029
465.000000	106.718359
464.000000	107.147228
463.000000	107.561409
462.000000	108.003782
461.000000	108.461045
460.000000	108.889999
459.000000	109.255077
458.000000	109.528337
457.000000	109.699979
456.000000	109.790867
455.000000	109.820414
454.000000	109.780816
453.000000	109.666554
452.000000	109.527206
451.000000	109.447432
450.000000	109.460511
449.000000	109.539594
448.000000	109.659874
447.000000	109.814411
446.000000	109.974837
445.000000	110.093745
444.000000	110.138350
443.000000	110.106123
442.000000	110.003325
441.000000	109.839953
440.000000	109.649308
439.000000	109.472603
438.000000	109.327432
437.000000	109.218111
436.000000	109.174669
435.000000	109.225114
434.000000	109.320988
433.000000	109.352536
432.000000	109.249398
431.000000	109.026991
430.000000	108.736844
429.000000	108.402833
428.000000	108.047379
427.000000	107.726027
426.000000	107.470741
425.000000	107.255831
424.000000	107.090054
423.000000	107.064316
422.000000	107.213668
421.000000	107.423974
420.000000	107.558523
419.000000	107.651718
418.000000	107.841372
417.000000	108.107604
416.000000	108.331098
415.000000	108.462803
414.000000	108.503430
413.000000	108.454945
412.000000	108.347207
411.000000	108.260260
410.000000	108.265650
409.000000	108.342459
408.000000	108.434926
407.000000	108.529753
406.000000	108.605779
405.000000	108.593327
404.000000	108.497411
403.000000	108.416818
402.000000	108.420405
401.000000	108.391702
400.000000	108.211357
