PE IR       SUBTECH     SPECTRUM    ASCII       PEDS        4.00        
   -1
23ms240-trans.asc
24/09/24
16:47:33.00
24/09/24
16:47:33.00
Administrator
Sample 1203 By Administrator Date Tuesday, September 24 2024
400.000000
#HDR
-1
-1
#GR
cm-1
%T
1.0
0.0
4000.000000
-1.000000
3601
8
105.422128
37.330944
#DATA
4000.000000	91.536098
3999.000000	91.509146
3998.000000	91.483831
3997.000000	91.459541
3996.000000	91.435803
3995.000000	91.412703
3994.000000	91.390630
3993.000000	91.369668
3992.000000	91.349580
3991.000000	91.329981
3990.000000	91.309810
3989.000000	91.287286
3988.000000	91.260724
3987.000000	91.229170
3986.000000	91.192409
3985.000000	91.150690
3984.000000	91.105046
3983.000000	91.057284
3982.000000	91.009430
3981.000000	90.963422
3980.000000	90.921086
3979.000000	90.884730
3978.000000	90.857938
3977.000000	90.844270
3976.000000	90.845174
3975.000000	90.859134
3974.000000	90.882982
3973.000000	90.914651
3972.000000	90.953586
3971.000000	90.999984
3970.000000	91.052875
3969.000000	91.108707
3968.000000	91.162841
3967.000000	91.211485
3966.000000	91.252752
3965.000000	91.286749
3964.000000	91.314643
3963.000000	91.337133
3962.000000	91.354329
3961.000000	91.365964
3960.000000	91.371563
3959.000000	91.373059
3958.000000	91.374338
3957.000000	91.378701
3956.000000	91.388253
3955.000000	91.403733
3954.000000	91.425723
3953.000000	91.454891
3952.000000	91.492699
3951.000000	91.541986
3950.000000	91.603980
3949.000000	91.676145
3948.000000	91.753624
3947.000000	91.831867
3946.000000	91.907956
3945.000000	91.981148
3944.000000	92.052882
3943.000000	92.122857
3942.000000	92.188867
3941.000000	92.250812
3940.000000	92.308946
3939.000000	92.363067
3938.000000	92.411611
3937.000000	92.451586
3936.000000	92.483696
3935.000000	92.513319
3934.000000	92.548710
3933.000000	92.592646
3932.000000	92.638587
3931.000000	92.677767
3930.000000	92.704819
3929.000000	92.723055
3928.000000	92.738782
3927.000000	92.753578
3926.000000	92.767606
3925.000000	92.781111
3924.000000	92.794409
3923.000000	92.808783
3922.000000	92.824491
3921.000000	92.842828
3920.000000	92.866265
3919.000000	92.895573
3918.000000	92.929407
3917.000000	92.964806
3916.000000	92.999401
3915.000000	93.031200
3914.000000	93.059896
3913.000000	93.090458
3912.000000	93.124668
3911.000000	93.160954
3910.000000	93.197458
3909.000000	93.233562
3908.000000	93.273138
3907.000000	93.315764
3906.000000	93.355947
3905.000000	93.389504
3904.000000	93.419196
3903.000000	93.458580
3902.000000	93.516436
3901.000000	93.583160
3900.000000	93.641647
3899.000000	93.678148
3898.000000	93.691769
3897.000000	93.695933
3896.000000	93.702683
3895.000000	93.721097
3894.000000	93.753954
3893.000000	93.793066
3892.000000	93.819988
3891.000000	93.825678
3890.000000	93.825692
3889.000000	93.833859
3888.000000	93.849037
3887.000000	93.868000
3886.000000	93.881821
3885.000000	93.885809
3884.000000	93.893394
3883.000000	93.918554
3882.000000	93.956055
3881.000000	93.985768
3880.000000	93.991317
3879.000000	93.981419
3878.000000	93.977627
3877.000000	93.984768
3876.000000	93.992722
3875.000000	93.993345
3874.000000	93.991554
3873.000000	93.999164
3872.000000	94.021152
3871.000000	94.051289
3870.000000	94.074023
3869.000000	94.088689
3868.000000	94.109434
3867.000000	94.136817
3866.000000	94.166879
3865.000000	94.195796
3864.000000	94.210089
3863.000000	94.212749
3862.000000	94.215983
3861.000000	94.223056
3860.000000	94.231319
3859.000000	94.239908
3858.000000	94.255502
3857.000000	94.286067
3856.000000	94.339574
3855.000000	94.408502
3854.000000	94.435378
3853.000000	94.390151
3852.000000	94.350643
3851.000000	94.371062
3850.000000	94.411616
3849.000000	94.435229
3848.000000	94.435016
3847.000000	94.421567
3846.000000	94.412023
3845.000000	94.411968
3844.000000	94.416377
3843.000000	94.428098
3842.000000	94.449611
3841.000000	94.481594
3840.000000	94.521002
3839.000000	94.551379
3838.000000	94.561001
3837.000000	94.559046
3836.000000	94.567195
3835.000000	94.593274
3834.000000	94.622844
3833.000000	94.640939
3832.000000	94.643013
3831.000000	94.634681
3830.000000	94.631859
3829.000000	94.643404
3828.000000	94.657071
3827.000000	94.663418
3826.000000	94.668608
3825.000000	94.686226
3824.000000	94.723039
3823.000000	94.771801
3822.000000	94.806780
3821.000000	94.804068
3820.000000	94.790205
3819.000000	94.803001
3818.000000	94.836587
3817.000000	94.864349
3816.000000	94.866142
3815.000000	94.849352
3814.000000	94.845445
3813.000000	94.865516
3812.000000	94.892620
3811.000000	94.915623
3810.000000	94.940202
3809.000000	94.968978
3808.000000	94.990511
3807.000000	94.996313
3806.000000	95.003191
3805.000000	95.040589
3804.000000	95.102614
3803.000000	95.163414
3802.000000	95.193743
3801.000000	95.178510
3800.000000	95.156779
3799.000000	95.168897
3798.000000	95.204734
3797.000000	95.234945
3796.000000	95.245750
3795.000000	95.243971
3794.000000	95.244833
3793.000000	95.254413
3792.000000	95.266003
3791.000000	95.272279
3790.000000	95.275937
3789.000000	95.284187
3788.000000	95.301977
3787.000000	95.328765
3786.000000	95.357935
3785.000000	95.383754
3784.000000	95.405493
3783.000000	95.426629
3782.000000	95.449639
3781.000000	95.472136
3780.000000	95.485851
3779.000000	95.489166
3778.000000	95.492890
3777.000000	95.504538
3776.000000	95.518586
3775.000000	95.529272
3774.000000	95.539459
3773.000000	95.551683
3772.000000	95.562226
3771.000000	95.567159
3770.000000	95.564030
3769.000000	95.557632
3768.000000	95.559288
3767.000000	95.569222
3766.000000	95.579280
3765.000000	95.583284
3764.000000	95.581514
3763.000000	95.581008
3762.000000	95.585516
3761.000000	95.598587
3760.000000	95.613924
3759.000000	95.621686
3758.000000	95.629865
3757.000000	95.647762
3756.000000	95.671768
3755.000000	95.692367
3754.000000	95.711783
3753.000000	95.746424
3752.000000	95.793456
3751.000000	95.822744
3750.000000	95.828276
3749.000000	95.846242
3748.000000	95.897581
3747.000000	95.960119
3746.000000	96.019784
3745.000000	96.056697
3744.000000	96.032935
3743.000000	95.991839
3742.000000	95.991449
3741.000000	96.014281
3740.000000	96.029238
3739.000000	96.029646
3738.000000	96.036118
3737.000000	96.072825
3736.000000	96.149591
3735.000000	96.249182
3734.000000	96.338278
3733.000000	96.399368
3732.000000	96.432320
3731.000000	96.451417
3730.000000	96.473737
3729.000000	96.500931
3728.000000	96.533420
3727.000000	96.572298
3726.000000	96.612910
3725.000000	96.650985
3724.000000	96.688504
3723.000000	96.727013
3722.000000	96.756849
3721.000000	96.777776
3720.000000	96.794740
3719.000000	96.801727
3718.000000	96.795391
3717.000000	96.778538
3716.000000	96.757186
3715.000000	96.741850
3714.000000	96.747774
3713.000000	96.783499
3712.000000	96.830870
3711.000000	96.860519
3710.000000	96.867155
3709.000000	96.861069
3708.000000	96.857767
3707.000000	96.868018
3706.000000	96.892142
3705.000000	96.926329
3704.000000	96.964327
3703.000000	97.000047
3702.000000	97.021941
3701.000000	97.031224
3700.000000	97.039356
3699.000000	97.049096
3698.000000	97.054996
3697.000000	97.058649
3696.000000	97.062009
3695.000000	97.065598
3694.000000	97.072493
3693.000000	97.088149
3692.000000	97.114851
3691.000000	97.143861
3690.000000	97.163102
3689.000000	97.161921
3688.000000	97.151199
3687.000000	97.149814
3686.000000	97.156801
3685.000000	97.157319
3684.000000	97.145851
3683.000000	97.127609
3682.000000	97.107793
3681.000000	97.089040
3680.000000	97.077405
3679.000000	97.081172
3678.000000	97.099640
3677.000000	97.135185
3676.000000	97.164954
3675.000000	97.164275
3674.000000	97.159876
3673.000000	97.170488
3672.000000	97.179000
3671.000000	97.178853
3670.000000	97.161099
3669.000000	97.122611
3668.000000	97.092663
3667.000000	97.083194
3666.000000	97.073145
3665.000000	97.050196
3664.000000	97.018151
3663.000000	96.981643
3662.000000	96.944299
3661.000000	96.906098
3660.000000	96.872753
3659.000000	96.848319
3658.000000	96.826937
3657.000000	96.795875
3656.000000	96.748102
3655.000000	96.699173
3654.000000	96.659291
3653.000000	96.617578
3652.000000	96.573226
3651.000000	96.539925
3650.000000	96.513130
3649.000000	96.475789
3648.000000	96.431482
3647.000000	96.391348
3646.000000	96.345789
3645.000000	96.282125
3644.000000	96.201595
3643.000000	96.115650
3642.000000	96.033895
3641.000000	95.956083
3640.000000	95.881294
3639.000000	95.809674
3638.000000	95.741043
3637.000000	95.672532
3636.000000	95.599894
3635.000000	95.522648
3634.000000	95.442067
3633.000000	95.361201
3632.000000	95.282006
3631.000000	95.209695
3630.000000	95.144853
3629.000000	95.064246
3628.000000	94.961069
3627.000000	94.868578
3626.000000	94.793288
3625.000000	94.710033
3624.000000	94.611017
3623.000000	94.505418
3622.000000	94.402431
3621.000000	94.304356
3620.000000	94.201725
3619.000000	94.080873
3618.000000	93.948352
3617.000000	93.820745
3616.000000	93.698857
3615.000000	93.573998
3614.000000	93.440616
3613.000000	93.303171
3612.000000	93.175629
3611.000000	93.067604
3610.000000	92.973505
3609.000000	92.879304
3608.000000	92.772276
3607.000000	92.649815
3606.000000	92.522124
3605.000000	92.397451
3604.000000	92.276787
3603.000000	92.155190
3602.000000	92.027095
3601.000000	91.895051
3600.000000	91.764145
3599.000000	91.634890
3598.000000	91.506716
3597.000000	91.378825
3596.000000	91.248987
3595.000000	91.114648
3594.000000	90.972211
3593.000000	90.823257
3592.000000	90.672350
3591.000000	90.518027
3590.000000	90.360143
3589.000000	90.204807
3588.000000	90.056206
3587.000000	89.910772
3586.000000	89.768465
3585.000000	89.632131
3584.000000	89.500781
3583.000000	89.370796
3582.000000	89.240985
3581.000000	89.114372
3580.000000	88.991827
3579.000000	88.870461
3578.000000	88.745916
3577.000000	88.620495
3576.000000	88.498924
3575.000000	88.383272
3574.000000	88.272546
3573.000000	88.164842
3572.000000	88.061417
3571.000000	87.962886
3570.000000	87.872803
3569.000000	87.802050
3568.000000	87.760597
3567.000000	87.741115
3566.000000	87.726235
3565.000000	87.705074
3564.000000	87.675515
3563.000000	87.641355
3562.000000	87.609563
3561.000000	87.586527
3560.000000	87.573585
3559.000000	87.566175
3558.000000	87.558929
3557.000000	87.552221
3556.000000	87.551175
3555.000000	87.558929
3554.000000	87.574562
3553.000000	87.594162
3552.000000	87.612676
3551.000000	87.624458
3550.000000	87.625082
3549.000000	87.616678
3548.000000	87.608784
3547.000000	87.611470
3546.000000	87.628016
3545.000000	87.655574
3544.000000	87.688437
3543.000000	87.720024
3542.000000	87.744479
3541.000000	87.759059
3540.000000	87.764347
3539.000000	87.761603
3538.000000	87.754342
3537.000000	87.747814
3536.000000	87.745043
3535.000000	87.742769
3534.000000	87.734538
3533.000000	87.718094
3532.000000	87.695337
3531.000000	87.667502
3530.000000	87.632810
3529.000000	87.590171
3528.000000	87.541346
3527.000000	87.488596
3526.000000	87.433750
3525.000000	87.379798
3524.000000	87.328191
3523.000000	87.273871
3522.000000	87.207925
3521.000000	87.125641
3520.000000	87.029367
3519.000000	86.922840
3518.000000	86.807772
3517.000000	86.685469
3516.000000	86.557868
3515.000000	86.425803
3514.000000	86.288285
3513.000000	86.144721
3512.000000	85.995410
3511.000000	85.838890
3510.000000	85.671921
3509.000000	85.493575
3508.000000	85.305883
3507.000000	85.109843
3506.000000	84.904856
3505.000000	84.693677
3504.000000	84.483663
3503.000000	84.280979
3502.000000	84.085496
3501.000000	83.892893
3500.000000	83.699466
3499.000000	83.504313
3498.000000	83.309945
3497.000000	83.121110
3496.000000	82.941568
3495.000000	82.771460
3494.000000	82.609251
3493.000000	82.455281
3492.000000	82.311162
3491.000000	82.177141
3490.000000	82.053384
3489.000000	81.943683
3488.000000	81.854090
3487.000000	81.787085
3486.000000	81.740081
3485.000000	81.708697
3484.000000	81.688538
3483.000000	81.675576
3482.000000	81.669058
3481.000000	81.674291
3480.000000	81.698240
3479.000000	81.741850
3478.000000	81.799915
3477.000000	81.867926
3476.000000	81.944679
3475.000000	82.028477
3474.000000	82.115492
3473.000000	82.202455
3472.000000	82.288471
3471.000000	82.374468
3470.000000	82.463437
3469.000000	82.560592
3468.000000	82.669480
3467.000000	82.787495
3466.000000	82.907972
3465.000000	83.025932
3464.000000	83.139667
3463.000000	83.248474
3462.000000	83.352981
3461.000000	83.457303
3460.000000	83.566474
3459.000000	83.681343
3458.000000	83.798402
3457.000000	83.913728
3456.000000	84.025666
3455.000000	84.133413
3454.000000	84.236173
3453.000000	84.334531
3452.000000	84.429996
3451.000000	84.524208
3450.000000	84.619544
3449.000000	84.719831
3448.000000	84.827957
3447.000000	84.942371
3446.000000	85.058406
3445.000000	85.172485
3444.000000	85.283187
3443.000000	85.389452
3442.000000	85.490205
3441.000000	85.585720
3440.000000	85.677515
3439.000000	85.766924
3438.000000	85.855413
3437.000000	85.945331
3436.000000	86.039192
3435.000000	86.137161
3434.000000	86.236639
3433.000000	86.335188
3432.000000	86.432230
3431.000000	86.528839
3430.000000	86.626169
3429.000000	86.724293
3428.000000	86.821532
3427.000000	86.914728
3426.000000	87.001582
3425.000000	87.082610
3424.000000	87.160697
3423.000000	87.239041
3422.000000	87.320161
3421.000000	87.405780
3420.000000	87.495931
3419.000000	87.588164
3418.000000	87.678733
3417.000000	87.764973
3416.000000	87.846284
3415.000000	87.923814
3414.000000	88.000079
3413.000000	88.078095
3412.000000	88.159565
3411.000000	88.244137
3410.000000	88.331161
3409.000000	88.421403
3408.000000	88.515456
3407.000000	88.611202
3406.000000	88.704750
3405.000000	88.793539
3404.000000	88.878099
3403.000000	88.961507
3402.000000	89.048555
3401.000000	89.144059
3400.000000	89.248985
3399.000000	89.358440
3398.000000	89.464876
3397.000000	89.563424
3396.000000	89.653473
3395.000000	89.737001
3394.000000	89.818158
3393.000000	89.903345
3392.000000	89.997805
3391.000000	90.100877
3390.000000	90.206421
3389.000000	90.308092
3388.000000	90.403191
3387.000000	90.492166
3386.000000	90.576932
3385.000000	90.659872
3384.000000	90.742691
3383.000000	90.825759
3382.000000	90.909368
3381.000000	90.995163
3380.000000	91.084627
3379.000000	91.177103
3378.000000	91.270828
3377.000000	91.365340
3376.000000	91.460735
3375.000000	91.555020
3374.000000	91.644737
3373.000000	91.728530
3372.000000	91.808726
3371.000000	91.889548
3370.000000	91.975234
3369.000000	92.069232
3368.000000	92.172887
3367.000000	92.284117
3366.000000	92.398655
3365.000000	92.512867
3364.000000	92.625235
3363.000000	92.736171
3362.000000	92.847568
3361.000000	92.961706
3360.000000	93.078853
3359.000000	93.196337
3358.000000	93.311303
3357.000000	93.423709
3356.000000	93.535180
3355.000000	93.646113
3354.000000	93.756149
3353.000000	93.867104
3352.000000	93.982953
3351.000000	94.106211
3350.000000	94.235321
3349.000000	94.365644
3348.000000	94.492184
3347.000000	94.611459
3346.000000	94.722892
3345.000000	94.829043
3344.000000	94.933134
3343.000000	95.035863
3342.000000	95.135121
3341.000000	95.228793
3340.000000	95.316936
3339.000000	95.400994
3338.000000	95.481327
3337.000000	95.555859
3336.000000	95.620064
3335.000000	95.668430
3334.000000	95.696791
3333.000000	95.702681
3332.000000	95.684225
3331.000000	95.638308
3330.000000	95.561008
3329.000000	95.450301
3328.000000	95.306324
3327.000000	95.130379
3326.000000	94.922797
3325.000000	94.680953
3324.000000	94.399681
3323.000000	94.071126
3322.000000	93.687626
3321.000000	93.242653
3320.000000	92.728099
3319.000000	92.134140
3318.000000	91.447987
3317.000000	90.656335
3316.000000	89.744753
3315.000000	88.695188
3314.000000	87.491837
3313.000000	86.123616
3312.000000	84.586373
3311.000000	82.884219
3310.000000	81.029030
3309.000000	79.046358
3308.000000	76.970526
3307.000000	74.837154
3306.000000	72.682439
3305.000000	70.542409
3304.000000	68.452143
3303.000000	66.442728
3302.000000	64.543410
3301.000000	62.785813
3300.000000	61.203297
3299.000000	59.823736
3298.000000	58.669834
3297.000000	57.759148
3296.000000	57.090372
3295.000000	56.637120
3294.000000	56.348904
3293.000000	56.164615
3292.000000	56.025717
3291.000000	55.880379
3290.000000	55.697983
3289.000000	55.475973
3288.000000	55.234958
3287.000000	55.006125
3286.000000	54.817772
3285.000000	54.688590
3284.000000	54.619911
3283.000000	54.594245
3282.000000	54.584362
3281.000000	54.563968
3280.000000	54.510949
3279.000000	54.407145
3278.000000	54.243204
3277.000000	54.023684
3276.000000	53.764028
3275.000000	53.483652
3274.000000	53.205007
3273.000000	52.955856
3272.000000	52.766786
3271.000000	52.664299
3270.000000	52.669060
3269.000000	52.795355
3268.000000	53.046948
3267.000000	53.417114
3266.000000	53.890040
3265.000000	54.443474
3264.000000	55.045579
3263.000000	55.652216
3262.000000	56.213820
3261.000000	56.682744
3260.000000	57.013957
3259.000000	57.166315
3258.000000	57.112010
3257.000000	56.838107
3256.000000	56.345961
3255.000000	55.643506
3254.000000	54.742299
3253.000000	53.663320
3252.000000	52.426173
3251.000000	51.048274
3250.000000	49.550638
3249.000000	47.965374
3248.000000	46.341078
3247.000000	44.737601
3246.000000	43.225701
3245.000000	41.884132
3244.000000	40.785850
3243.000000	39.976220
3242.000000	39.464052
3241.000000	39.216081
3240.000000	39.157546
3239.000000	39.193190
3238.000000	39.233795
3237.000000	39.221201
3236.000000	39.131078
3235.000000	38.963611
3234.000000	38.738014
3233.000000	38.481516
3232.000000	38.215935
3231.000000	37.953192
3230.000000	37.706206
3229.000000	37.499846
3228.000000	37.365360
3227.000000	37.330944
3226.000000	37.420206
3225.000000	37.651754
3224.000000	38.034604
3223.000000	38.560839
3222.000000	39.209882
3221.000000	39.953965
3220.000000	40.754291
3219.000000	41.562205
3218.000000	42.329162
3217.000000	43.017946
3216.000000	43.604540
3215.000000	44.077542
3214.000000	44.441688
3213.000000	44.719212
3212.000000	44.940888
3211.000000	45.136717
3210.000000	45.336277
3209.000000	45.568167
3208.000000	45.854145
3207.000000	46.204790
3206.000000	46.623986
3205.000000	47.112988
3204.000000	47.668187
3203.000000	48.279006
3202.000000	48.932765
3201.000000	49.619858
3200.000000	50.329838
3199.000000	51.049079
3198.000000	51.764439
3197.000000	52.466644
3196.000000	53.147925
3195.000000	53.799614
3194.000000	54.414821
3193.000000	54.989916
3192.000000	55.521046
3191.000000	56.001112
3190.000000	56.425273
3189.000000	56.794530
3188.000000	57.112592
3187.000000	57.383643
3186.000000	57.613219
3185.000000	57.810147
3184.000000	57.982067
3183.000000	58.132521
3182.000000	58.264850
3181.000000	58.383829
3180.000000	58.493531
3179.000000	58.595750
3178.000000	58.694037
3177.000000	58.796728
3176.000000	58.913249
3175.000000	59.050672
3174.000000	59.215499
3173.000000	59.414858
3172.000000	59.652192
3171.000000	59.926391
3170.000000	60.235910
3169.000000	60.581344
3168.000000	60.962317
3167.000000	61.373724
3166.000000	61.809526
3165.000000	62.265385
3164.000000	62.736530
3163.000000	63.216786
3162.000000	63.700910
3161.000000	64.185062
3160.000000	64.661658
3159.000000	65.116872
3158.000000	65.533165
3157.000000	65.892350
3156.000000	66.172496
3155.000000	66.346948
3154.000000	66.390304
3153.000000	66.284088
3152.000000	66.025098
3151.000000	65.631089
3150.000000	65.144141
3149.000000	64.623495
3148.000000	64.122931
3147.000000	63.672937
3146.000000	63.275248
3145.000000	62.907213
3144.000000	62.530214
3143.000000	62.099929
3142.000000	61.582116
3141.000000	60.962043
3140.000000	60.242184
3139.000000	59.438246
3138.000000	58.577388
3137.000000	57.696562
3136.000000	56.834328
3135.000000	56.024607
3134.000000	55.298618
3133.000000	54.687015
3132.000000	54.213577
3131.000000	53.889913
3130.000000	53.720168
3129.000000	53.702111
3128.000000	53.826697
3127.000000	54.076539
3126.000000	54.431232
3125.000000	54.874448
3124.000000	55.388852
3123.000000	55.956576
3122.000000	56.563203
3121.000000	57.198680
3120.000000	57.853332
3119.000000	58.513646
3118.000000	59.167455
3117.000000	59.807050
3116.000000	60.425712
3115.000000	61.014751
3114.000000	61.566851
3113.000000	62.078393
3112.000000	62.546395
3111.000000	62.967618
3110.000000	63.340335
3109.000000	63.665753
3108.000000	63.943289
3107.000000	64.168764
3106.000000	64.340280
3105.000000	64.461182
3104.000000	64.539080
3103.000000	64.583819
3102.000000	64.609835
3101.000000	64.637009
3100.000000	64.685459
3099.000000	64.771275
3098.000000	64.907290
3097.000000	65.104481
3096.000000	65.367993
3095.000000	65.695825
3094.000000	66.081608
3093.000000	66.517242
3092.000000	66.992427
3091.000000	67.493505
3090.000000	68.007341
3089.000000	68.523010
3088.000000	69.030359
3087.000000	69.520846
3086.000000	69.990683
3085.000000	70.440923
3084.000000	70.872516
3083.000000	71.283980
3082.000000	71.674158
3081.000000	72.044501
3080.000000	72.396497
3079.000000	72.730112
3078.000000	73.046400
3077.000000	73.348140
3076.000000	73.637710
3075.000000	73.915866
3074.000000	74.184037
3073.000000	74.445039
3072.000000	74.699350
3071.000000	74.944436
3070.000000	75.178851
3069.000000	75.405080
3068.000000	75.626911
3067.000000	75.845565
3066.000000	76.060494
3065.000000	76.271556
3064.000000	76.478613
3063.000000	76.680599
3062.000000	76.876151
3061.000000	77.064556
3060.000000	77.245236
3059.000000	77.417929
3058.000000	77.584484
3057.000000	77.748281
3056.000000	77.911163
3055.000000	78.072203
3054.000000	78.230002
3053.000000	78.384702
3052.000000	78.536274
3051.000000	78.682948
3050.000000	78.822456
3049.000000	78.953530
3048.000000	79.075959
3047.000000	79.190560
3046.000000	79.300165
3045.000000	79.408859
3044.000000	79.518874
3043.000000	79.629772
3042.000000	79.740758
3041.000000	79.851841
3040.000000	79.961916
3039.000000	80.067910
3038.000000	80.168001
3037.000000	80.264274
3036.000000	80.360996
3035.000000	80.461281
3034.000000	80.565914
3033.000000	80.673770
3032.000000	80.782102
3031.000000	80.888028
3030.000000	80.991039
3029.000000	81.093103
3028.000000	81.196026
3027.000000	81.300258
3026.000000	81.406495
3025.000000	81.516102
3024.000000	81.628767
3023.000000	81.741551
3022.000000	81.851511
3021.000000	81.958061
3020.000000	82.062047
3019.000000	82.163862
3018.000000	82.263584
3017.000000	82.361627
3016.000000	82.457989
3015.000000	82.551736
3014.000000	82.641858
3013.000000	82.727719
3012.000000	82.807902
3011.000000	82.879011
3010.000000	82.936599
3009.000000	82.976038
3008.000000	82.992323
3007.000000	82.980312
3006.000000	82.935110
3005.000000	82.852911
3004.000000	82.730630
3003.000000	82.566751
3002.000000	82.363314
3001.000000	82.124962
3000.000000	81.855750
2999.000000	81.555765
2998.000000	81.224221
2997.000000	80.868729
2996.000000	80.515562
2995.000000	80.211044
2994.000000	80.005914
2993.000000	79.929736
2992.000000	79.972742
2991.000000	80.093225
2990.000000	80.242008
2989.000000	80.382870
2988.000000	80.497273
2987.000000	80.579148
2986.000000	80.631100
2985.000000	80.661364
2984.000000	80.680814
2983.000000	80.700991
2982.000000	80.733612
2981.000000	80.788415
2980.000000	80.868359
2979.000000	80.967817
2978.000000	81.077688
2977.000000	81.193144
2976.000000	81.318296
2975.000000	81.464761
2974.000000	81.644484
2973.000000	81.859501
2972.000000	82.095867
2971.000000	82.328084
2970.000000	82.529141
2969.000000	82.677831
2968.000000	82.758360
2967.000000	82.759134
2966.000000	82.673222
2965.000000	82.498058
2964.000000	82.234471
2963.000000	81.885171
2962.000000	81.456966
2961.000000	80.960222
2960.000000	80.405016
2959.000000	79.797659
2958.000000	79.142599
2957.000000	78.453473
2956.000000	77.765882
2955.000000	77.142902
2954.000000	76.656950
2953.000000	76.352426
2952.000000	76.216600
2951.000000	76.189133
2950.000000	76.205481
2949.000000	76.233254
2948.000000	76.278455
2947.000000	76.365541
2946.000000	76.513316
2945.000000	76.717700
2944.000000	76.948009
2943.000000	77.163553
2942.000000	77.340079
2941.000000	77.486717
2940.000000	77.640423
2939.000000	77.845868
2938.000000	78.136534
2937.000000	78.523797
2936.000000	78.995290
2935.000000	79.522879
2934.000000	80.075036
2933.000000	80.625189
2932.000000	81.153209
2931.000000	81.646095
2930.000000	82.099096
2929.000000	82.513472
2928.000000	82.891633
2927.000000	83.234695
2926.000000	83.544487
2925.000000	83.823547
2924.000000	84.072488
2923.000000	84.289444
2922.000000	84.473334
2921.000000	84.625862
2920.000000	84.749373
2919.000000	84.845824
2918.000000	84.918054
2917.000000	84.970427
2916.000000	85.007130
2915.000000	85.031176
2914.000000	85.045948
2913.000000	85.055422
2912.000000	85.062673
2911.000000	85.069428
2910.000000	85.077462
2909.000000	85.088811
2908.000000	85.103807
2907.000000	85.120884
2906.000000	85.138486
2905.000000	85.156084
2904.000000	85.173113
2903.000000	85.189511
2902.000000	85.207280
2901.000000	85.229266
2900.000000	85.256145
2899.000000	85.284975
2898.000000	85.311280
2897.000000	85.330030
2896.000000	85.335208
2895.000000	85.321208
2894.000000	85.285838
2893.000000	85.230455
2892.000000	85.156507
2891.000000	85.064068
2890.000000	84.954057
2889.000000	84.829713
2888.000000	84.694915
2887.000000	84.553237
2886.000000	84.409741
2885.000000	84.271637
2884.000000	84.146336
2883.000000	84.039735
2882.000000	83.956985
2881.000000	83.902690
2880.000000	83.878700
2879.000000	83.883410
2878.000000	83.913789
2877.000000	83.966971
2876.000000	84.039675
2875.000000	84.128183
2874.000000	84.229524
2873.000000	84.341175
2872.000000	84.459170
2871.000000	84.578332
2870.000000	84.695448
2869.000000	84.810710
2868.000000	84.926111
2867.000000	85.043838
2866.000000	85.165884
2865.000000	85.292966
2864.000000	85.423047
2863.000000	85.552823
2862.000000	85.681030
2861.000000	85.808774
2860.000000	85.936754
2859.000000	86.064356
2858.000000	86.191752
2857.000000	86.320570
2856.000000	86.451766
2855.000000	86.584571
2854.000000	86.717573
2853.000000	86.848578
2852.000000	86.972854
2851.000000	87.083428
2850.000000	87.174442
2849.000000	87.243563
2848.000000	87.291848
2847.000000	87.323598
2846.000000	87.346630
2845.000000	87.370087
2844.000000	87.400509
2843.000000	87.440394
2842.000000	87.490272
2841.000000	87.550634
2840.000000	87.621310
2839.000000	87.700834
2838.000000	87.787267
2837.000000	87.878529
2836.000000	87.971941
2835.000000	88.065051
2834.000000	88.157249
2833.000000	88.249322
2832.000000	88.341271
2831.000000	88.431800
2830.000000	88.520031
2829.000000	88.606039
2828.000000	88.689251
2827.000000	88.767972
2826.000000	88.841052
2825.000000	88.908768
2824.000000	88.971688
2823.000000	89.029824
2822.000000	89.083494
2821.000000	89.133891
2820.000000	89.182162
2819.000000	89.228720
2818.000000	89.273665
2817.000000	89.316974
2816.000000	89.358148
2815.000000	89.396560
2814.000000	89.432377
2813.000000	89.466377
2812.000000	89.498922
2811.000000	89.530010
2810.000000	89.560134
2809.000000	89.589967
2808.000000	89.619454
2807.000000	89.648383
2806.000000	89.677824
2805.000000	89.709727
2804.000000	89.745090
2803.000000	89.783654
2802.000000	89.825124
2801.000000	89.869198
2800.000000	89.914462
2799.000000	89.958717
2798.000000	90.000539
2797.000000	90.039376
2796.000000	90.074330
2795.000000	90.104507
2794.000000	90.130860
2793.000000	90.156259
2792.000000	90.183336
2791.000000	90.213163
2790.000000	90.245849
2789.000000	90.280826
2788.000000	90.316315
2787.000000	90.350023
2786.000000	90.380998
2785.000000	90.410030
2784.000000	90.438215
2783.000000	90.466303
2782.000000	90.495450
2781.000000	90.527150
2780.000000	90.562017
2779.000000	90.599568
2778.000000	90.639302
2777.000000	90.681005
2776.000000	90.723985
2775.000000	90.767196
2774.000000	90.810158
2773.000000	90.852604
2772.000000	90.893201
2771.000000	90.929853
2770.000000	90.961320
2769.000000	90.987526
2768.000000	91.008556
2767.000000	91.024745
2766.000000	91.037893
2765.000000	91.051022
2764.000000	91.066469
2763.000000	91.085132
2762.000000	91.107282
2761.000000	91.132534
2760.000000	91.158707
2759.000000	91.182096
2758.000000	91.199573
2757.000000	91.209670
2756.000000	91.211900
2755.000000	91.206397
2754.000000	91.194570
2753.000000	91.178984
2752.000000	91.161887
2751.000000	91.144583
2750.000000	91.128313
2749.000000	91.114610
2748.000000	91.104626
2747.000000	91.099178
2746.000000	91.099626
2745.000000	91.107770
2744.000000	91.124732
2743.000000	91.150392
2742.000000	91.183727
2741.000000	91.222640
2740.000000	91.263558
2739.000000	91.302847
2738.000000	91.338977
2737.000000	91.372722
2736.000000	91.405754
2735.000000	91.439977
2734.000000	91.477650
2733.000000	91.520086
2732.000000	91.565566
2731.000000	91.609755
2730.000000	91.648588
2729.000000	91.680007
2728.000000	91.703345
2727.000000	91.718774
2726.000000	91.727965
2725.000000	91.734265
2724.000000	91.741213
2723.000000	91.751155
2722.000000	91.764983
2721.000000	91.782009
2720.000000	91.800049
2719.000000	91.816649
2718.000000	91.830757
2717.000000	91.842952
2716.000000	91.854360
2715.000000	91.866154
2714.000000	91.879753
2713.000000	91.896219
2712.000000	91.915259
2711.000000	91.935714
2710.000000	91.957028
2709.000000	91.979534
2708.000000	92.003545
2707.000000	92.029060
2706.000000	92.056184
2705.000000	92.084688
2704.000000	92.113268
2703.000000	92.140215
2702.000000	92.164718
2701.000000	92.186729
2700.000000	92.206015
2699.000000	92.222515
2698.000000	92.237354
2697.000000	92.252342
2696.000000	92.268473
2695.000000	92.285935
2694.000000	92.305086
2693.000000	92.325974
2692.000000	92.346917
2691.000000	92.364823
2690.000000	92.377191
2689.000000	92.383015
2688.000000	92.382190
2687.000000	92.375634
2686.000000	92.365948
2685.000000	92.356589
2684.000000	92.349899
2683.000000	92.346524
2682.000000	92.346529
2681.000000	92.349817
2680.000000	92.355499
2679.000000	92.362250
2678.000000	92.369664
2677.000000	92.378302
2676.000000	92.388495
2675.000000	92.400022
2674.000000	92.412821
2673.000000	92.427012
2672.000000	92.442255
2671.000000	92.458399
2670.000000	92.476804
2669.000000	92.499827
2668.000000	92.529084
2667.000000	92.564926
2666.000000	92.607324
2665.000000	92.655642
2664.000000	92.707114
2663.000000	92.757071
2662.000000	92.801288
2661.000000	92.837649
2660.000000	92.865915
2659.000000	92.887236
2658.000000	92.904281
2657.000000	92.920880
2656.000000	92.940685
2655.000000	92.966012
2654.000000	92.997405
2653.000000	93.033151
2652.000000	93.069339
2651.000000	93.101410
2650.000000	93.126139
2649.000000	93.142270
2648.000000	93.150001
2647.000000	93.150965
2646.000000	93.148350
2645.000000	93.145626
2644.000000	93.144949
2643.000000	93.147167
2642.000000	93.153002
2641.000000	93.163403
2640.000000	93.179018
2639.000000	93.200213
2638.000000	93.227461
2637.000000	93.260506
2636.000000	93.297133
2635.000000	93.333759
2634.000000	93.367138
2633.000000	93.395135
2632.000000	93.416658
2631.000000	93.432342
2630.000000	93.445456
2629.000000	93.461029
2628.000000	93.483624
2627.000000	93.515790
2626.000000	93.557528
2625.000000	93.605856
2624.000000	93.655130
2623.000000	93.699190
2622.000000	93.733892
2621.000000	93.757823
2620.000000	93.771621
2619.000000	93.777751
2618.000000	93.780152
2617.000000	93.782434
2616.000000	93.786227
2615.000000	93.791492
2614.000000	93.798018
2613.000000	93.805726
2612.000000	93.814064
2611.000000	93.822471
2610.000000	93.831184
2609.000000	93.840568
2608.000000	93.849829
2607.000000	93.857209
2606.000000	93.861146
2605.000000	93.860390
2604.000000	93.853907
2603.000000	93.842247
2602.000000	93.828823
2601.000000	93.818574
2600.000000	93.815168
2599.000000	93.819904
2598.000000	93.832334
2597.000000	93.850153
2596.000000	93.868638
2595.000000	93.881933
2594.000000	93.885741
2593.000000	93.878681
2592.000000	93.861845
2591.000000	93.838457
2590.000000	93.813509
2589.000000	93.791976
2588.000000	93.776708
2587.000000	93.768269
2586.000000	93.766228
2585.000000	93.769507
2584.000000	93.776010
2583.000000	93.783512
2582.000000	93.791295
2581.000000	93.799844
2580.000000	93.809213
2579.000000	93.818829
2578.000000	93.828496
2577.000000	93.838482
2576.000000	93.848732
2575.000000	93.859392
2574.000000	93.872234
2573.000000	93.890167
2572.000000	93.915257
2571.000000	93.947739
2570.000000	93.986527
2569.000000	94.029482
2568.000000	94.073016
2567.000000	94.112934
2566.000000	94.146205
2565.000000	94.171754
2564.000000	94.190331
2563.000000	94.204747
2562.000000	94.219929
2561.000000	94.241233
2560.000000	94.272016
2559.000000	94.312870
2558.000000	94.362182
2557.000000	94.416419
2556.000000	94.470610
2555.000000	94.520283
2554.000000	94.563437
2553.000000	94.600083
2552.000000	94.630537
2551.000000	94.655220
2550.000000	94.675639
2549.000000	94.693826
2548.000000	94.710973
2547.000000	94.727640
2546.000000	94.745175
2545.000000	94.765772
2544.000000	94.790822
2543.000000	94.820021
2542.000000	94.851849
2541.000000	94.883873
2540.000000	94.912860
2539.000000	94.935835
2538.000000	94.951423
2537.000000	94.959707
2536.000000	94.961229
2535.000000	94.957524
2534.000000	94.952259
2533.000000	94.950523
2532.000000	94.956372
2531.000000	94.971244
2530.000000	94.994131
2529.000000	95.021922
2528.000000	95.049698
2527.000000	95.072212
2526.000000	95.085855
2525.000000	95.089306
2524.000000	95.082922
2523.000000	95.068621
2522.000000	95.050182
2521.000000	95.031975
2520.000000	95.016972
2519.000000	95.005951
2518.000000	94.998248
2517.000000	94.992429
2516.000000	94.986267
2515.000000	94.977384
2514.000000	94.964256
2513.000000	94.946265
2512.000000	94.923204
2511.000000	94.895351
2510.000000	94.863977
2509.000000	94.830911
2508.000000	94.797735
2507.000000	94.766130
2506.000000	94.738551
2505.000000	94.717601
2504.000000	94.704763
2503.000000	94.700444
2502.000000	94.704320
2501.000000	94.714767
2500.000000	94.728095
2499.000000	94.739771
2498.000000	94.746915
2497.000000	94.749003
2496.000000	94.747268
2495.000000	94.744602
2494.000000	94.745631
2493.000000	94.755327
2492.000000	94.776500
2491.000000	94.809021
2490.000000	94.850671
2489.000000	94.897768
2488.000000	94.945865
2487.000000	94.991254
2486.000000	95.032559
2485.000000	95.070352
2484.000000	95.105516
2483.000000	95.138796
2482.000000	95.171154
2481.000000	95.203384
2480.000000	95.235500
2479.000000	95.267494
2478.000000	95.300462
2477.000000	95.336107
2476.000000	95.375353
2475.000000	95.418134
2474.000000	95.463858
2473.000000	95.510754
2472.000000	95.554939
2471.000000	95.591460
2470.000000	95.616579
2469.000000	95.629204
2468.000000	95.630647
2467.000000	95.624441
2466.000000	95.615942
2465.000000	95.610480
2464.000000	95.611336
2463.000000	95.618873
2462.000000	95.630952
2461.000000	95.643392
2460.000000	95.650965
2459.000000	95.649959
2458.000000	95.639987
2457.000000	95.623148
2456.000000	95.601881
2455.000000	95.578330
2454.000000	95.555087
2453.000000	95.534725
2452.000000	95.518600
2451.000000	95.507094
2450.000000	95.501252
2449.000000	95.502975
2448.000000	95.513697
2447.000000	95.533441
2446.000000	95.560666
2445.000000	95.592292
2444.000000	95.623644
2443.000000	95.649889
2442.000000	95.668061
2441.000000	95.677858
2440.000000	95.681457
2439.000000	95.683270
2438.000000	95.689282
2437.000000	95.704965
2436.000000	95.732920
2435.000000	95.772411
2434.000000	95.820022
2433.000000	95.870211
2432.000000	95.916475
2431.000000	95.953845
2430.000000	95.980812
2429.000000	95.998530
2428.000000	96.008710
2427.000000	96.012761
2426.000000	96.012444
2425.000000	96.009637
2424.000000	96.005752
2423.000000	96.002042
2422.000000	96.000158
2421.000000	96.001754
2420.000000	96.007516
2419.000000	96.017131
2418.000000	96.029527
2417.000000	96.042414
2416.000000	96.052331
2415.000000	96.056421
2414.000000	96.054169
2413.000000	96.047095
2412.000000	96.037527
2411.000000	96.028522
2410.000000	96.023826
2409.000000	96.026154
2408.000000	96.035349
2407.000000	96.048946
2406.000000	96.063971
2405.000000	96.077373
2404.000000	96.085749
2403.000000	96.086577
2402.000000	96.079651
2401.000000	96.066401
2400.000000	96.047940
2399.000000	96.024388
2398.000000	95.995784
2397.000000	95.961770
2396.000000	95.921154
2395.000000	95.872869
2394.000000	95.817284
2393.000000	95.756101
2392.000000	95.690272
2391.000000	95.619827
2390.000000	95.544659
2389.000000	95.463514
2388.000000	95.373751
2387.000000	95.272962
2386.000000	95.162798
2385.000000	95.046783
2384.000000	94.934371
2383.000000	94.824625
2382.000000	94.733470
2381.000000	94.641380
2380.000000	94.593369
2379.000000	94.717267
2378.000000	94.684061
2377.000000	94.674645
2376.000000	94.654769
2375.000000	94.635074
2374.000000	94.608419
2373.000000	94.582804
2372.000000	94.559970
2371.000000	94.542116
2370.000000	94.530472
2369.000000	94.527783
2368.000000	94.536122
2367.000000	94.556360
2366.000000	94.589958
2365.000000	94.637347
2364.000000	94.694046
2363.000000	94.751672
2362.000000	94.805054
2361.000000	94.854701
2360.000000	94.901002
2359.000000	94.940688
2358.000000	94.971524
2357.000000	94.996904
2356.000000	95.022928
2355.000000	95.053589
2354.000000	95.087656
2353.000000	95.113735
2352.000000	95.106983
2351.000000	95.040470
2350.000000	94.909937
2349.000000	94.747475
2348.000000	94.612080
2347.000000	94.560641
2346.000000	94.613932
2345.000000	94.741793
2344.000000	94.887967
2343.000000	95.013354
2342.000000	95.111400
2341.000000	95.192017
2340.000000	95.263804
2339.000000	95.332845
2338.000000	95.405000
2337.000000	95.483301
2336.000000	95.564810
2335.000000	95.643921
2334.000000	95.717474
2333.000000	95.785687
2332.000000	95.849639
2331.000000	95.909198
2330.000000	95.962680
2329.000000	96.007337
2328.000000	96.041082
2327.000000	96.065486
2326.000000	96.082528
2325.000000	96.104235
2324.000000	96.114233
2323.000000	96.143443
2322.000000	96.123937
2321.000000	96.167407
2320.000000	96.015831
2319.000000	94.708278
2318.000000	94.763107
2317.000000	94.682331
2316.000000	94.663650
2315.000000	94.634511
2314.000000	94.628498
2313.000000	94.603320
2312.000000	94.589910
2311.000000	94.574561
2310.000000	94.578580
2309.000000	94.564046
2308.000000	94.544142
2307.000000	94.487729
2306.000000	94.420771
2305.000000	94.327090
2304.000000	94.234552
2303.000000	94.137352
2302.000000	94.058319
2301.000000	93.995700
2300.000000	93.959486
2299.000000	93.940229
2298.000000	93.943219
2297.000000	93.953914
2296.000000	93.975062
2295.000000	93.990448
2294.000000	94.007799
2293.000000	94.012713
2292.000000	94.014186
2291.000000	94.001601
2290.000000	93.984188
2289.000000	93.955957
2288.000000	93.921826
2287.000000	93.878736
2286.000000	93.831025
2285.000000	93.781599
2284.000000	93.735345
2283.000000	93.697995
2282.000000	93.672888
2281.000000	93.661624
2280.000000	93.660622
2279.000000	93.671175
2278.000000	93.693267
2277.000000	93.727664
2276.000000	93.768386
2275.000000	93.815063
2274.000000	93.869590
2273.000000	93.937022
2272.000000	94.019374
2271.000000	94.113926
2270.000000	94.217994
2269.000000	94.325836
2268.000000	94.432361
2267.000000	94.532468
2266.000000	94.624180
2265.000000	94.707359
2264.000000	94.781659
2263.000000	94.846850
2262.000000	94.905849
2261.000000	94.960779
2260.000000	95.016067
2259.000000	95.073862
2258.000000	95.137062
2257.000000	95.207954
2256.000000	95.285637
2255.000000	95.371052
2254.000000	95.462522
2253.000000	95.559437
2252.000000	95.657418
2251.000000	95.753606
2250.000000	95.846262
2249.000000	95.934055
2248.000000	96.017009
2247.000000	96.095768
2246.000000	96.174157
2245.000000	96.254605
2244.000000	96.338376
2243.000000	96.424608
2242.000000	96.512687
2241.000000	96.600193
2240.000000	96.683328
2239.000000	96.758221
2238.000000	96.823131
2237.000000	96.877504
2236.000000	96.921184
2235.000000	96.954992
2234.000000	96.981139
2233.000000	97.002390
2232.000000	97.020854
2231.000000	97.038822
2230.000000	97.058509
2229.000000	97.080992
2228.000000	97.105238
2227.000000	97.129417
2226.000000	97.151605
2225.000000	97.169419
2224.000000	97.180110
2223.000000	97.182443
2222.000000	97.177431
2221.000000	97.167003
2220.000000	97.153157
2219.000000	97.138821
2218.000000	97.128232
2217.000000	97.124832
2216.000000	97.129820
2215.000000	97.142787
2214.000000	97.162864
2213.000000	97.188076
2212.000000	97.215131
2211.000000	97.240771
2210.000000	97.262955
2209.000000	97.280378
2208.000000	97.292280
2207.000000	97.299564
2206.000000	97.304846
2205.000000	97.310638
2204.000000	97.318286
2203.000000	97.329087
2202.000000	97.344909
2201.000000	97.366831
2200.000000	97.394292
2199.000000	97.426488
2198.000000	97.463293
2197.000000	97.503983
2196.000000	97.546179
2195.000000	97.587179
2194.000000	97.625474
2193.000000	97.660493
2192.000000	97.692144
2191.000000	97.721312
2190.000000	97.749681
2189.000000	97.778222
2188.000000	97.806760
2187.000000	97.835394
2186.000000	97.864826
2185.000000	97.894503
2184.000000	97.921630
2183.000000	97.942974
2182.000000	97.956785
2181.000000	97.962448
2180.000000	97.959814
2179.000000	97.949812
2178.000000	97.934974
2177.000000	97.918524
2176.000000	97.903764
2175.000000	97.894380
2174.000000	97.893720
2173.000000	97.902451
2172.000000	97.917540
2171.000000	97.934204
2170.000000	97.948194
2169.000000	97.956397
2168.000000	97.957059
2167.000000	97.950726
2166.000000	97.940138
2165.000000	97.928489
2164.000000	97.918310
2163.000000	97.912008
2162.000000	97.911831
2161.000000	97.918591
2160.000000	97.931398
2159.000000	97.949073
2158.000000	97.970577
2157.000000	97.993801
2156.000000	98.015670
2155.000000	98.034174
2154.000000	98.049044
2153.000000	98.059962
2152.000000	98.065980
2151.000000	98.067582
2150.000000	98.068035
2149.000000	98.071737
2148.000000	98.082211
2147.000000	98.101904
2146.000000	98.131951
2145.000000	98.170730
2144.000000	98.213855
2143.000000	98.256341
2142.000000	98.293937
2141.000000	98.322791
2140.000000	98.340112
2139.000000	98.346259
2138.000000	98.344793
2137.000000	98.339964
2136.000000	98.335237
2135.000000	98.334159
2134.000000	98.340135
2133.000000	98.354078
2132.000000	98.373516
2131.000000	98.394855
2130.000000	98.415303
2129.000000	98.432130
2128.000000	98.442019
2127.000000	98.442496
2126.000000	98.432960
2125.000000	98.413481
2124.000000	98.384115
2123.000000	98.346368
2122.000000	98.304154
2121.000000	98.262427
2120.000000	98.225758
2119.000000	98.197995
2118.000000	98.181429
2117.000000	98.174957
2116.000000	98.173965
2115.000000	98.172816
2114.000000	98.166791
2113.000000	98.152235
2112.000000	98.127298
2111.000000	98.093739
2110.000000	98.056660
2109.000000	98.021721
2108.000000	97.993378
2107.000000	97.975457
2106.000000	97.970890
2105.000000	97.979628
2104.000000	97.998154
2103.000000	98.021807
2102.000000	98.046525
2101.000000	98.068056
2100.000000	98.082132
2099.000000	98.086912
2098.000000	98.084123
2097.000000	98.077310
2096.000000	98.070090
2095.000000	98.067091
2094.000000	98.074110
2093.000000	98.095291
2092.000000	98.131206
2091.000000	98.180088
2090.000000	98.239243
2089.000000	98.304714
2088.000000	98.371542
2087.000000	98.435723
2086.000000	98.494647
2085.000000	98.545535
2084.000000	98.585860
2083.000000	98.616242
2082.000000	98.640597
2081.000000	98.663495
2080.000000	98.688777
2079.000000	98.720051
2078.000000	98.759933
2077.000000	98.807950
2076.000000	98.860704
2075.000000	98.914757
2074.000000	98.967085
2073.000000	99.013195
2072.000000	99.048388
2071.000000	99.070795
2070.000000	99.082250
2069.000000	99.086004
2068.000000	99.085455
2067.000000	99.084988
2066.000000	99.089264
2065.000000	99.100993
2064.000000	99.120671
2063.000000	99.148700
2062.000000	99.184585
2061.000000	99.224333
2060.000000	99.261279
2059.000000	99.290224
2058.000000	99.309384
2057.000000	99.318440
2056.000000	99.318060
2055.000000	99.312032
2054.000000	99.306803
2053.000000	99.307681
2052.000000	99.317367
2051.000000	99.337219
2050.000000	99.367956
2049.000000	99.408359
2048.000000	99.454372
2047.000000	99.500473
2046.000000	99.541961
2045.000000	99.575315
2044.000000	99.597913
2043.000000	99.608968
2042.000000	99.610330
2041.000000	99.605623
2040.000000	99.599388
2039.000000	99.597325
2038.000000	99.605147
2037.000000	99.625698
2036.000000	99.657856
2035.000000	99.698599
2034.000000	99.744422
2033.000000	99.790127
2032.000000	99.829122
2031.000000	99.857194
2030.000000	99.874577
2029.000000	99.883757
2028.000000	99.887201
2027.000000	99.887879
2026.000000	99.890373
2025.000000	99.898822
2024.000000	99.915414
2023.000000	99.940042
2022.000000	99.971727
2021.000000	100.008554
2020.000000	100.046198
2019.000000	100.078399
2018.000000	100.099468
2017.000000	100.106410
2016.000000	100.099752
2015.000000	100.083630
2014.000000	100.063880
2013.000000	100.044876
2012.000000	100.028808
2011.000000	100.018187
2010.000000	100.017079
2009.000000	100.027885
2008.000000	100.048506
2007.000000	100.074310
2006.000000	100.101085
2005.000000	100.123944
2004.000000	100.137058
2003.000000	100.136185
2002.000000	100.122015
2001.000000	100.098835
2000.000000	100.072147
1999.000000	100.050211
1998.000000	100.041123
1997.000000	100.050177
1996.000000	100.079181
1995.000000	100.125645
1994.000000	100.181261
1993.000000	100.233981
1992.000000	100.273935
1991.000000	100.298064
1990.000000	100.308469
1989.000000	100.307564
1988.000000	100.296798
1987.000000	100.278855
1986.000000	100.259036
1985.000000	100.243428
1984.000000	100.236890
1983.000000	100.242734
1982.000000	100.262848
1981.000000	100.297016
1980.000000	100.342731
1979.000000	100.395751
1978.000000	100.447699
1977.000000	100.489131
1976.000000	100.514588
1975.000000	100.523379
1974.000000	100.516882
1973.000000	100.499501
1972.000000	100.481390
1971.000000	100.474834
1970.000000	100.486458
1969.000000	100.515326
1968.000000	100.557123
1967.000000	100.606403
1966.000000	100.656239
1965.000000	100.700045
1964.000000	100.733390
1963.000000	100.752253
1962.000000	100.752952
1961.000000	100.737386
1960.000000	100.715669
1959.000000	100.698644
1958.000000	100.689064
1957.000000	100.683643
1956.000000	100.681185
1955.000000	100.684040
1954.000000	100.693229
1953.000000	100.707493
1952.000000	100.725704
1951.000000	100.745155
1950.000000	100.760501
1949.000000	100.763495
1948.000000	100.747644
1947.000000	100.713753
1946.000000	100.668110
1945.000000	100.617162
1944.000000	100.566762
1943.000000	100.525775
1942.000000	100.506302
1941.000000	100.517294
1940.000000	100.560038
1939.000000	100.626726
1938.000000	100.701106
1937.000000	100.765928
1936.000000	100.812384
1935.000000	100.840394
1934.000000	100.852020
1933.000000	100.850760
1932.000000	100.843960
1931.000000	100.840882
1930.000000	100.849380
1929.000000	100.869389
1928.000000	100.897482
1927.000000	100.934363
1926.000000	100.981030
1925.000000	101.033286
1924.000000	101.078444
1923.000000	101.110067
1922.000000	101.133818
1921.000000	101.153703
1920.000000	101.162159
1919.000000	101.147537
1918.000000	101.109139
1917.000000	101.061049
1916.000000	101.019938
1915.000000	100.998277
1914.000000	101.001764
1913.000000	101.027674
1912.000000	101.066908
1911.000000	101.109502
1910.000000	101.146091
1909.000000	101.162981
1908.000000	101.149489
1907.000000	101.107646
1906.000000	101.048466
1905.000000	100.983042
1904.000000	100.914922
1903.000000	100.852283
1902.000000	100.808810
1901.000000	100.786827
1900.000000	100.777669
1899.000000	100.777348
1898.000000	100.787792
1897.000000	100.805491
1896.000000	100.816502
1895.000000	100.813992
1894.000000	100.806988
1893.000000	100.803007
1892.000000	100.795918
1891.000000	100.777385
1890.000000	100.750148
1889.000000	100.725044
1888.000000	100.711509
1887.000000	100.718371
1886.000000	100.752413
1885.000000	100.807933
1884.000000	100.868841
1883.000000	100.924978
1882.000000	100.974747
1881.000000	101.009206
1880.000000	101.014724
1879.000000	100.990295
1878.000000	100.948572
1877.000000	100.903859
1876.000000	100.863593
1875.000000	100.835431
1874.000000	100.834884
1873.000000	100.872226
1872.000000	100.938327
1871.000000	101.014117
1870.000000	101.083829
1869.000000	101.137184
1868.000000	101.167452
1867.000000	101.178209
1866.000000	101.182553
1865.000000	101.185956
1864.000000	101.183255
1863.000000	101.175781
1862.000000	101.178123
1861.000000	101.200384
1860.000000	101.238200
1859.000000	101.288032
1858.000000	101.355901
1857.000000	101.440883
1856.000000	101.526671
1855.000000	101.598956
1854.000000	101.656078
1853.000000	101.694581
1852.000000	101.708388
1851.000000	101.703984
1850.000000	101.692514
1849.000000	101.684169
1848.000000	101.687949
1847.000000	101.712742
1846.000000	101.759234
1845.000000	101.813824
1844.000000	101.864708
1843.000000	101.914133
1842.000000	101.966346
1841.000000	102.012101
1840.000000	102.037593
1839.000000	102.037400
1838.000000	102.018684
1837.000000	101.993989
1836.000000	101.969679
1835.000000	101.956378
1834.000000	101.969024
1833.000000	102.011619
1832.000000	102.075400
1831.000000	102.144987
1830.000000	102.208496
1829.000000	102.269354
1828.000000	102.333454
1827.000000	102.394182
1826.000000	102.435234
1825.000000	102.447569
1824.000000	102.437888
1823.000000	102.420162
1822.000000	102.406807
1821.000000	102.406494
1820.000000	102.422875
1819.000000	102.453667
1818.000000	102.499519
1817.000000	102.563006
1816.000000	102.633810
1815.000000	102.698492
1814.000000	102.753627
1813.000000	102.798128
1812.000000	102.821899
1811.000000	102.812219
1810.000000	102.781813
1809.000000	102.756064
1808.000000	102.739981
1807.000000	102.730705
1806.000000	102.740749
1805.000000	102.784480
1804.000000	102.854038
1803.000000	102.930546
1802.000000	103.002875
1801.000000	103.064775
1800.000000	103.106787
1799.000000	103.120740
1798.000000	103.117964
1797.000000	103.113829
1796.000000	103.109739
1795.000000	103.104910
1794.000000	103.103947
1793.000000	103.110636
1792.000000	103.124101
1791.000000	103.139973
1790.000000	103.163674
1789.000000	103.200491
1788.000000	103.243360
1787.000000	103.281806
1786.000000	103.314251
1785.000000	103.339284
1784.000000	103.346639
1783.000000	103.335658
1782.000000	103.315954
1781.000000	103.295289
1780.000000	103.285627
1779.000000	103.294283
1778.000000	103.327956
1777.000000	103.388257
1776.000000	103.471297
1775.000000	103.569598
1774.000000	103.661138
1773.000000	103.724353
1772.000000	103.764858
1771.000000	103.790621
1770.000000	103.796935
1769.000000	103.788161
1768.000000	103.776509
1767.000000	103.770946
1766.000000	103.784014
1765.000000	103.830222
1764.000000	103.911103
1763.000000	104.003846
1762.000000	104.078603
1761.000000	104.132299
1760.000000	104.179180
1759.000000	104.218059
1758.000000	104.237584
1757.000000	104.229687
1756.000000	104.213133
1755.000000	104.208772
1754.000000	104.213087
1753.000000	104.220294
1752.000000	104.237173
1751.000000	104.266428
1750.000000	104.294419
1749.000000	104.313735
1748.000000	104.332164
1747.000000	104.357144
1746.000000	104.374509
1745.000000	104.371478
1744.000000	104.356264
1743.000000	104.332175
1742.000000	104.292808
1741.000000	104.240131
1740.000000	104.191038
1739.000000	104.166909
1738.000000	104.180890
1737.000000	104.230641
1736.000000	104.298958
1735.000000	104.353098
1734.000000	104.378651
1733.000000	104.380075
1732.000000	104.358632
1731.000000	104.313286
1730.000000	104.248684
1729.000000	104.170581
1728.000000	104.096098
1727.000000	104.043016
1726.000000	104.009601
1725.000000	103.990776
1724.000000	103.984609
1723.000000	103.988753
1722.000000	104.014245
1721.000000	104.067192
1720.000000	104.126542
1719.000000	104.151069
1718.000000	104.132870
1717.000000	104.108095
1716.000000	104.071882
1715.000000	104.005705
1714.000000	103.938668
1713.000000	103.903395
1712.000000	103.895973
1711.000000	103.910768
1710.000000	103.964344
1709.000000	104.063769
1708.000000	104.187331
1707.000000	104.306480
1706.000000	104.413581
1705.000000	104.515295
1704.000000	104.603316
1703.000000	104.674318
1702.000000	104.734625
1701.000000	104.775918
1700.000000	104.804480
1699.000000	104.833272
1698.000000	104.883340
1697.000000	104.957710
1696.000000	105.032880
1695.000000	105.085114
1694.000000	105.122690
1693.000000	105.153652
1692.000000	105.169889
1691.000000	105.166311
1690.000000	105.150166
1689.000000	105.135557
1688.000000	105.138928
1687.000000	105.167061
1686.000000	105.201078
1685.000000	105.214258
1684.000000	105.236178
1683.000000	105.295600
1682.000000	105.355831
1681.000000	105.380831
1680.000000	105.387504
1679.000000	105.402642
1678.000000	105.422128
1677.000000	105.416580
1676.000000	105.372426
1675.000000	105.312036
1674.000000	105.248181
1673.000000	105.181041
1672.000000	105.127448
1671.000000	105.100894
1670.000000	105.096846
1669.000000	105.095642
1668.000000	105.092012
1667.000000	105.093820
1666.000000	105.087210
1665.000000	105.045304
1664.000000	104.951262
1663.000000	104.816492
1662.000000	104.661315
1661.000000	104.482792
1660.000000	104.296926
1659.000000	104.137852
1658.000000	104.017495
1657.000000	103.932642
1656.000000	103.878312
1655.000000	103.807830
1654.000000	103.582191
1653.000000	103.163462
1652.000000	102.685549
1651.000000	102.244608
1650.000000	101.797673
1649.000000	101.242928
1648.000000	100.452375
1647.000000	99.378248
1646.000000	98.127340
1645.000000	96.852033
1644.000000	95.612141
1643.000000	94.391386
1642.000000	93.177935
1641.000000	92.015043
1640.000000	91.015260
1639.000000	90.267671
1638.000000	89.785768
1637.000000	89.559438
1636.000000	89.631148
1635.000000	90.009446
1634.000000	90.557898
1633.000000	91.166970
1632.000000	91.829645
1631.000000	92.567109
1630.000000	93.373292
1629.000000	94.216510
1628.000000	95.059727
1627.000000	95.859135
1626.000000	96.572518
1625.000000	97.196143
1624.000000	97.767572
1623.000000	98.307036
1622.000000	98.779940
1621.000000	99.159168
1620.000000	99.486588
1619.000000	99.822159
1618.000000	100.187778
1617.000000	100.578024
1616.000000	100.978147
1615.000000	101.346038
1614.000000	101.632932
1613.000000	101.828906
1612.000000	101.959442
1611.000000	102.037350
1610.000000	102.017474
1609.000000	101.831462
1608.000000	101.448561
1607.000000	100.852987
1606.000000	99.985321
1605.000000	98.762872
1604.000000	97.174213
1603.000000	95.288590
1602.000000	93.206545
1601.000000	91.017644
1600.000000	88.720257
1599.000000	86.138463
1598.000000	82.916905
1597.000000	78.733270
1596.000000	73.625074
1595.000000	68.118772
1594.000000	63.001086
1593.000000	58.906157
1592.000000	56.128031
1591.000000	54.671510
1590.000000	54.300993
1589.000000	54.574452
1588.000000	55.015895
1587.000000	55.293090
1586.000000	55.227790
1585.000000	54.796438
1584.000000	54.165934
1583.000000	53.629471
1582.000000	53.402543
1581.000000	53.509084
1580.000000	53.880195
1579.000000	54.462893
1578.000000	55.184165
1577.000000	55.886703
1576.000000	56.405383
1575.000000	56.720490
1574.000000	56.912564
1573.000000	57.043584
1572.000000	57.211924
1571.000000	57.616475
1570.000000	58.452077
1569.000000	59.697086
1568.000000	61.182391
1567.000000	62.836542
1566.000000	64.637750
1565.000000	66.454002
1564.000000	68.099535
1563.000000	69.510597
1562.000000	70.779622
1561.000000	72.072971
1560.000000	73.626745
1559.000000	75.582465
1558.000000	77.527885
1557.000000	79.014128
1556.000000	80.165934
1555.000000	81.241943
1554.000000	82.292151
1553.000000	83.231357
1552.000000	84.023684
1551.000000	84.727715
1550.000000	85.397708
1549.000000	86.026392
1548.000000	86.598575
1547.000000	87.154913
1546.000000	87.740432
1545.000000	88.341247
1544.000000	88.909561
1543.000000	89.427189
1542.000000	89.912074
1541.000000	90.363792
1540.000000	90.747748
1539.000000	91.046760
1538.000000	91.283364
1537.000000	91.494741
1536.000000	91.709081
1535.000000	91.951018
1534.000000	92.231443
1533.000000	92.533099
1532.000000	92.823880
1531.000000	93.095326
1530.000000	93.366717
1529.000000	93.637188
1528.000000	93.874063
1527.000000	94.060028
1526.000000	94.205676
1525.000000	94.325741
1524.000000	94.433526
1523.000000	94.541124
1522.000000	94.656928
1521.000000	94.776167
1520.000000	94.883776
1519.000000	94.986579
1518.000000	95.094543
1517.000000	95.193351
1516.000000	95.258866
1515.000000	95.292032
1514.000000	95.313415
1513.000000	95.334565
1512.000000	95.354403
1511.000000	95.382099
1510.000000	95.439475
1509.000000	95.530625
1508.000000	95.620175
1507.000000	95.687569
1506.000000	95.763936
1505.000000	95.849441
1504.000000	95.936024
1503.000000	96.038517
1502.000000	96.165484
1501.000000	96.305614
1500.000000	96.437079
1499.000000	96.543698
1498.000000	96.625570
1497.000000	96.701769
1496.000000	96.784838
1495.000000	96.883552
1494.000000	97.020798
1493.000000	97.209091
1492.000000	97.436536
1491.000000	97.681215
1490.000000	97.925246
1489.000000	98.146384
1488.000000	98.315931
1487.000000	98.436516
1486.000000	98.543543
1485.000000	98.641689
1484.000000	98.721344
1483.000000	98.798948
1482.000000	98.893586
1481.000000	99.008512
1480.000000	99.139304
1479.000000	99.299663
1478.000000	99.504876
1477.000000	99.742270
1476.000000	99.977172
1475.000000	100.197102
1474.000000	100.406847
1473.000000	100.586568
1472.000000	100.709283
1471.000000	100.769716
1470.000000	100.783506
1469.000000	100.762710
1468.000000	100.709730
1467.000000	100.616754
1466.000000	100.434892
1465.000000	100.065725
1464.000000	99.435844
1463.000000	98.520772
1462.000000	97.298712
1461.000000	95.754000
1460.000000	93.892943
1459.000000	91.695936
1458.000000	89.092086
1457.000000	86.273909
1456.000000	83.823312
1455.000000	82.037569
1454.000000	80.661377
1453.000000	79.409454
1452.000000	78.265546
1451.000000	77.394950
1450.000000	76.963179
1449.000000	77.055587
1448.000000	77.650536
1447.000000	78.582003
1446.000000	79.642599
1445.000000	80.758743
1444.000000	81.980254
1443.000000	83.311127
1442.000000	84.653571
1441.000000	85.900144
1440.000000	87.009461
1439.000000	88.002060
1438.000000	88.939200
1437.000000	89.888069
1436.000000	90.828587
1435.000000	91.662867
1434.000000	92.368963
1433.000000	93.012423
1432.000000	93.625936
1431.000000	94.172402
1430.000000	94.612030
1429.000000	94.961096
1428.000000	95.252908
1427.000000	95.508880
1426.000000	95.750736
1425.000000	96.004759
1424.000000	96.290087
1423.000000	96.588073
1422.000000	96.875316
1421.000000	97.155755
1420.000000	97.428110
1419.000000	97.652480
1418.000000	97.794663
1417.000000	97.884105
1416.000000	97.961197
1415.000000	98.034324
1414.000000	98.105955
1413.000000	98.193554
1412.000000	98.310744
1411.000000	98.442644
1410.000000	98.569276
1409.000000	98.691009
1408.000000	98.797436
1407.000000	98.846085
1406.000000	98.778093
1405.000000	98.539495
1404.000000	98.112825
1403.000000	97.534448
1402.000000	96.884856
1401.000000	96.250861
1400.000000	95.697556
1399.000000	95.258043
1398.000000	94.935137
1397.000000	94.742253
1396.000000	94.741598
1395.000000	95.008971
1394.000000	95.526611
1393.000000	96.167597
1392.000000	96.804060
1391.000000	97.366980
1390.000000	97.838085
1389.000000	98.240308
1388.000000	98.621153
1387.000000	99.010246
1386.000000	99.385884
1385.000000	99.700169
1384.000000	99.924321
1383.000000	100.057597
1382.000000	100.128380
1381.000000	100.183252
1380.000000	100.252473
1379.000000	100.332328
1378.000000	100.396923
1377.000000	100.414522
1376.000000	100.345175
1375.000000	100.137242
1374.000000	99.738242
1373.000000	99.112788
1372.000000	98.232256
1371.000000	97.047256
1370.000000	95.507964
1369.000000	93.662189
1368.000000	91.753071
1367.000000	90.145072
1366.000000	89.105237
1365.000000	88.673035
1364.000000	88.719701
1363.000000	89.093659
1362.000000	89.721700
1361.000000	90.601850
1360.000000	91.715199
1359.000000	92.967958
1358.000000	94.216496
1357.000000	95.333593
1356.000000	96.259727
1355.000000	97.002578
1354.000000	97.603356
1353.000000	98.105854
1352.000000	98.534810
1351.000000	98.896694
1350.000000	99.192036
1349.000000	99.422792
1348.000000	99.598248
1347.000000	99.732678
1346.000000	99.843842
1345.000000	99.952015
1344.000000	100.075957
1343.000000	100.226622
1342.000000	100.404849
1341.000000	100.601647
1340.000000	100.798504
1339.000000	100.972751
1338.000000	101.108552
1337.000000	101.205733
1336.000000	101.274300
1335.000000	101.325168
1334.000000	101.369186
1333.000000	101.417320
1332.000000	101.476615
1331.000000	101.548280
1330.000000	101.629655
1329.000000	101.715815
1328.000000	101.793855
1327.000000	101.837644
1326.000000	101.803392
1325.000000	101.624224
1324.000000	101.217968
1323.000000	100.503193
1322.000000	99.433481
1321.000000	98.041738
1320.000000	96.464353
1319.000000	94.913971
1318.000000	93.584598
1317.000000	92.561631
1316.000000	91.831721
1315.000000	91.375517
1314.000000	91.219729
1313.000000	91.391930
1312.000000	91.838093
1311.000000	92.406965
1310.000000	92.945254
1309.000000	93.405631
1308.000000	93.862929
1307.000000	94.433436
1306.000000	95.172171
1305.000000	96.036898
1304.000000	96.928121
1303.000000	97.748039
1302.000000	98.438685
1301.000000	98.988881
1300.000000	99.412266
1299.000000	99.722871
1298.000000	99.924780
1297.000000	100.010363
1296.000000	99.963428
1295.000000	99.760035
1294.000000	99.378784
1293.000000	98.812900
1292.000000	98.074283
1291.000000	97.201587
1290.000000	96.250427
1289.000000	95.257615
1288.000000	94.193627
1287.000000	92.950131
1286.000000	91.416180
1285.000000	89.607729
1284.000000	87.738616
1283.000000	86.161336
1282.000000	85.210893
1281.000000	85.050427
1280.000000	85.629507
1279.000000	86.737896
1278.000000	88.093191
1277.000000	89.434711
1276.000000	90.563889
1275.000000	91.353190
1274.000000	91.781186
1273.000000	91.983022
1272.000000	92.230954
1271.000000	92.782840
1270.000000	93.707033
1269.000000	94.853302
1268.000000	95.989796
1267.000000	96.959577
1266.000000	97.729342
1265.000000	98.339901
1264.000000	98.843493
1263.000000	99.279278
1262.000000	99.674313
1261.000000	100.048039
1260.000000	100.411202
1259.000000	100.764251
1258.000000	101.101830
1257.000000	101.415139
1256.000000	101.693505
1255.000000	101.927787
1254.000000	102.114081
1253.000000	102.256490
1252.000000	102.364823
1251.000000	102.452753
1250.000000	102.537011
1249.000000	102.633527
1248.000000	102.753063
1247.000000	102.899454
1246.000000	103.070966
1245.000000	103.261543
1244.000000	103.459835
1243.000000	103.650252
1242.000000	103.818193
1241.000000	103.954564
1240.000000	104.056107
1239.000000	104.124786
1238.000000	104.169375
1237.000000	104.203938
1236.000000	104.241706
1235.000000	104.290984
1234.000000	104.354773
1233.000000	104.431347
1232.000000	104.512378
1231.000000	104.581774
1230.000000	104.620547
1229.000000	104.607345
1228.000000	104.516492
1227.000000	104.313542
1226.000000	103.951227
1225.000000	103.373700
1224.000000	102.513131
1223.000000	101.305008
1222.000000	99.717013
1221.000000	97.771543
1220.000000	95.563743
1219.000000	93.240543
1218.000000	90.951436
1217.000000	88.799156
1216.000000	86.819463
1215.000000	84.995341
1214.000000	83.288309
1213.000000	81.675008
1212.000000	80.171175
1211.000000	78.826309
1210.000000	77.682000
1209.000000	76.759860
1208.000000	76.080782
1207.000000	75.666819
1206.000000	75.528324
1205.000000	75.643616
1204.000000	75.971074
1203.000000	76.465085
1202.000000	77.080748
1201.000000	77.802591
1200.000000	78.654859
1199.000000	79.679195
1198.000000	80.895081
1197.000000	82.279547
1196.000000	83.784696
1195.000000	85.349679
1194.000000	86.908188
1193.000000	88.404504
1192.000000	89.806453
1191.000000	91.099347
1190.000000	92.274033
1189.000000	93.324631
1188.000000	94.248118
1187.000000	95.043852
1186.000000	95.707234
1185.000000	96.237088
1184.000000	96.642968
1183.000000	96.936386
1182.000000	97.128139
1181.000000	97.229060
1180.000000	97.258245
1179.000000	97.243095
1178.000000	97.205671
1177.000000	97.158202
1176.000000	97.105645
1175.000000	97.050524
1174.000000	96.995682
1173.000000	96.946691
1172.000000	96.914478
1171.000000	96.912114
1170.000000	96.948479
1169.000000	97.026344
1168.000000	97.144522
1167.000000	97.293959
1166.000000	97.452728
1165.000000	97.591583
1164.000000	97.689129
1163.000000	97.746034
1162.000000	97.787805
1161.000000	97.856686
1160.000000	97.993851
1159.000000	98.216928
1158.000000	98.511061
1157.000000	98.842582
1156.000000	99.182608
1155.000000	99.517539
1154.000000	99.843049
1153.000000	100.156564
1152.000000	100.453788
1151.000000	100.726787
1150.000000	100.964443
1149.000000	101.159316
1148.000000	101.311587
1147.000000	101.425928
1146.000000	101.505591
1145.000000	101.549068
1144.000000	101.553572
1143.000000	101.511179
1142.000000	101.405375
1141.000000	101.216731
1140.000000	100.925032
1139.000000	100.511798
1138.000000	99.946186
1137.000000	99.179766
1136.000000	98.156594
1135.000000	96.806234
1134.000000	95.049762
1133.000000	92.802564
1132.000000	90.002522
1131.000000	86.661461
1130.000000	82.898694
1129.000000	78.965251
1128.000000	75.231056
1127.000000	72.097250
1126.000000	69.849313
1125.000000	68.574602
1124.000000	68.168525
1123.000000	68.384068
1122.000000	68.885563
1121.000000	69.311227
1120.000000	69.363233
1119.000000	68.836867
1118.000000	67.635054
1117.000000	65.866471
1116.000000	63.963186
1115.000000	62.638151
1114.000000	62.560487
1113.000000	63.985798
1112.000000	66.651894
1111.000000	69.952069
1110.000000	73.225310
1109.000000	75.973363
1108.000000	77.934067
1107.000000	79.040743
1106.000000	79.347442
1105.000000	78.999607
1104.000000	78.276354
1103.000000	77.612407
1102.000000	77.471287
1101.000000	78.125005
1100.000000	79.524312
1099.000000	81.371123
1098.000000	83.318701
1097.000000	85.129002
1096.000000	86.695530
1095.000000	87.997346
1094.000000	89.065615
1093.000000	89.964905
1092.000000	90.763621
1091.000000	91.508930
1090.000000	92.224321
1089.000000	92.921898
1088.000000	93.611909
1087.000000	94.297148
1086.000000	94.974329
1085.000000	95.636905
1084.000000	96.272233
1083.000000	96.864205
1082.000000	97.399849
1081.000000	97.875061
1080.000000	98.288177
1079.000000	98.631927
1078.000000	98.900967
1077.000000	99.094652
1076.000000	99.213526
1075.000000	99.256269
1074.000000	99.216111
1073.000000	99.084195
1072.000000	98.833068
1071.000000	98.409625
1070.000000	97.742853
1069.000000	96.739075
1068.000000	95.296664
1067.000000	93.305417
1066.000000	90.671254
1065.000000	87.370205
1064.000000	83.485595
1063.000000	79.239954
1062.000000	74.940653
1061.000000	70.864114
1060.000000	67.134475
1059.000000	63.663683
1058.000000	60.222007
1057.000000	56.672994
1056.000000	53.233983
1055.000000	50.493837
1054.000000	49.168927
1053.000000	49.703897
1052.000000	52.044556
1051.000000	55.685740
1050.000000	59.894676
1049.000000	64.034000
1048.000000	67.727016
1047.000000	70.852550
1046.000000	73.456211
1045.000000	75.651774
1044.000000	77.550372
1043.000000	79.219690
1042.000000	80.682299
1041.000000	81.936496
1040.000000	82.991859
1039.000000	83.867805
1038.000000	84.590870
1037.000000	85.198062
1036.000000	85.728235
1035.000000	86.217580
1034.000000	86.690068
1033.000000	87.159661
1032.000000	87.633143
1031.000000	88.105409
1030.000000	88.563122
1029.000000	88.993738
1028.000000	89.392591
1027.000000	89.762376
1026.000000	90.110120
1025.000000	90.447390
1024.000000	90.785681
1023.000000	91.127961
1022.000000	91.467210
1021.000000	91.789541
1020.000000	92.079293
1019.000000	92.319043
1018.000000	92.488553
1017.000000	92.566415
1016.000000	92.514416
1015.000000	92.273969
1014.000000	91.768490
1013.000000	90.912844
1012.000000	89.640747
1011.000000	87.927474
1010.000000	85.825207
1009.000000	83.477499
1008.000000	81.102402
1007.000000	78.965560
1006.000000	77.356935
1005.000000	76.535339
1004.000000	76.620658
1003.000000	77.489082
1002.000000	78.773161
1001.000000	80.021782
1000.000000	80.873883
999.000000	81.116726
998.000000	80.666940
997.000000	79.586927
996.000000	78.136830
995.000000	76.737339
994.000000	75.785470
993.000000	75.458963
992.000000	75.683064
991.000000	76.266495
990.000000	77.062916
989.000000	78.033326
988.000000	79.202567
987.000000	80.562659
986.000000	82.032130
985.000000	83.489749
984.000000	84.830798
983.000000	85.997903
982.000000	86.976423
981.000000	87.782135
980.000000	88.449313
979.000000	89.021875
978.000000	89.538656
977.000000	90.029060
976.000000	90.510409
975.000000	90.982455
974.000000	91.430158
973.000000	91.829702
972.000000	92.161727
971.000000	92.419574
970.000000	92.610571
969.000000	92.756417
968.000000	92.886886
967.000000	93.030030
966.000000	93.202543
965.000000	93.406662
964.000000	93.634589
963.000000	93.872654
962.000000	94.105495
961.000000	94.321481
960.000000	94.515841
959.000000	94.689327
958.000000	94.844089
957.000000	94.981533
956.000000	95.101567
955.000000	95.201398
954.000000	95.277736
953.000000	95.331722
952.000000	95.373040
951.000000	95.419180
950.000000	95.489946
949.000000	95.601003
948.000000	95.756991
947.000000	95.945969
946.000000	96.140793
945.000000	96.309033
944.000000	96.425246
943.000000	96.478580
942.000000	96.475217
941.000000	96.437003
940.000000	96.395281
939.000000	96.381303
938.000000	96.416504
937.000000	96.507163
936.000000	96.644488
935.000000	96.808028
934.000000	96.971776
933.000000	97.112589
932.000000	97.216845
931.000000	97.282065
930.000000	97.314483
929.000000	97.325199
928.000000	97.325410
927.000000	97.322442
926.000000	97.320156
925.000000	97.322629
924.000000	97.337333
923.000000	97.374552
922.000000	97.443516
921.000000	97.547694
920.000000	97.681452
919.000000	97.829013
918.000000	97.967377
917.000000	98.072587
916.000000	98.126442
915.000000	98.121824
914.000000	98.066576
913.000000	97.983611
912.000000	97.905228
911.000000	97.864254
910.000000	97.884723
909.000000	97.974140
908.000000	98.120100
907.000000	98.293954
906.000000	98.460429
905.000000	98.588240
904.000000	98.656914
903.000000	98.660625
902.000000	98.608638
901.000000	98.520902
900.000000	98.416927
899.000000	98.304182
898.000000	98.176964
897.000000	98.024672
896.000000	97.847823
895.000000	97.668595
894.000000	97.517696
893.000000	97.398356
892.000000	97.259641
891.000000	97.022084
890.000000	96.647321
889.000000	96.183117
888.000000	95.729445
887.000000	95.365531
886.000000	95.116804
885.000000	94.982993
884.000000	94.970891
883.000000	95.077143
882.000000	95.262666
881.000000	95.472037
880.000000	95.684002
879.000000	95.929459
878.000000	96.247810
877.000000	96.637085
876.000000	97.045919
875.000000	97.408189
874.000000	97.683898
873.000000	97.874929
872.000000	98.013085
871.000000	98.134729
870.000000	98.262221
869.000000	98.398928
868.000000	98.534640
867.000000	98.649731
866.000000	98.719475
865.000000	98.724787
864.000000	98.662740
863.000000	98.550969
862.000000	98.421235
861.000000	98.306831
860.000000	98.231048
859.000000	98.201475
858.000000	98.213451
857.000000	98.261879
856.000000	98.351502
855.000000	98.492824
854.000000	98.689863
853.000000	98.930980
852.000000	99.189231
851.000000	99.429048
850.000000	99.615241
849.000000	99.723190
848.000000	99.747188
847.000000	99.702443
846.000000	99.618925
845.000000	99.532749
844.000000	99.477953
843.000000	99.479225
842.000000	99.545872
841.000000	99.670053
840.000000	99.830313
839.000000	99.998045
838.000000	100.145448
837.000000	100.253053
836.000000	100.312740
835.000000	100.325624
834.000000	100.298212
833.000000	100.240597
832.000000	100.166545
831.000000	100.092303
830.000000	100.034888
829.000000	100.011177
828.000000	100.036153
827.000000	100.116782
826.000000	100.244385
825.000000	100.393188
824.000000	100.528373
823.000000	100.618711
822.000000	100.646399
821.000000	100.609954
820.000000	100.521722
819.000000	100.403466
818.000000	100.282143
817.000000	100.186023
816.000000	100.138218
815.000000	100.148389
814.000000	100.207170
813.000000	100.287078
812.000000	100.347918
811.000000	100.344889
810.000000	100.245295
809.000000	100.051468
808.000000	99.809639
807.000000	99.587740
806.000000	99.435813
805.000000	99.363620
804.000000	99.352397
803.000000	99.380362
802.000000	99.434136
801.000000	99.504308
800.000000	99.577769
799.000000	99.633341
798.000000	99.638458
797.000000	99.552233
796.000000	99.335459
795.000000	98.962440
794.000000	98.427977
793.000000	97.748399
792.000000	96.966867
791.000000	96.154296
790.000000	95.396689
789.000000	94.772418
788.000000	94.334284
787.000000	94.101028
786.000000	94.057455
785.000000	94.163465
784.000000	94.364842
783.000000	94.601838
782.000000	94.812492
781.000000	94.942656
780.000000	94.965336
779.000000	94.895412
778.000000	94.787898
777.000000	94.717914
776.000000	94.755027
775.000000	94.942126
774.000000	95.283257
773.000000	95.745840
772.000000	96.274641
771.000000	96.809688
770.000000	97.299636
769.000000	97.708422
768.000000	98.019213
767.000000	98.235763
766.000000	98.378584
765.000000	98.475699
764.000000	98.555483
763.000000	98.643225
762.000000	98.757466
761.000000	98.904632
760.000000	99.076841
759.000000	99.257387
758.000000	99.428586
757.000000	99.576128
756.000000	99.689637
755.000000	99.762312
754.000000	99.790664
753.000000	99.773605
752.000000	99.713573
751.000000	99.620082
750.000000	99.511439
749.000000	99.412258
748.000000	99.346838
747.000000	99.331189
746.000000	99.366055
745.000000	99.432681
744.000000	99.494964
743.000000	99.509675
742.000000	99.441206
741.000000	99.275175
740.000000	99.025577
739.000000	98.731568
738.000000	98.443382
737.000000	98.204355
736.000000	98.037439
735.000000	97.939288
734.000000	97.881721
733.000000	97.820930
732.000000	97.713949
731.000000	97.536958
730.000000	97.295932
729.000000	97.024709
728.000000	96.774133
727.000000	96.591914
726.000000	96.504470
725.000000	96.513549
724.000000	96.601953
723.000000	96.744070
722.000000	96.919515
721.000000	97.123734
720.000000	97.365164
719.000000	97.648402
718.000000	97.959814
717.000000	98.266687
716.000000	98.528728
715.000000	98.713399
714.000000	98.802614
713.000000	98.793753
712.000000	98.703208
711.000000	98.567928
710.000000	98.438047
709.000000	98.361148
708.000000	98.370063
707.000000	98.474380
706.000000	98.653979
705.000000	98.865930
704.000000	99.059469
703.000000	99.193368
702.000000	99.250850
701.000000	99.239246
700.000000	99.182591
699.000000	99.114347
698.000000	99.062936
697.000000	99.043931
696.000000	99.057860
695.000000	99.095219
694.000000	99.149183
693.000000	99.214862
692.000000	99.287323
691.000000	99.363767
690.000000	99.442036
689.000000	99.519834
688.000000	99.586516
687.000000	99.622319
686.000000	99.610203
685.000000	99.544888
684.000000	99.440236
683.000000	99.328664
682.000000	99.252149
681.000000	99.244899
680.000000	99.326260
679.000000	99.481147
678.000000	99.702656
677.000000	99.897597
676.000000	100.073759
675.000000	100.126395
674.000000	100.192210
673.000000	99.819082
672.000000	99.170283
671.000000	99.110881
670.000000	98.968933
669.000000	99.084186
668.000000	99.359670
667.000000	99.675874
666.000000	99.823639
665.000000	99.847098
664.000000	99.838207
663.000000	99.838182
662.000000	99.832145
661.000000	99.807460
660.000000	99.762989
659.000000	99.743321
658.000000	99.691777
657.000000	99.699877
656.000000	99.584409
655.000000	99.781503
654.000000	100.237072
653.000000	100.161082
652.000000	100.262832
651.000000	100.332270
650.000000	100.453488
649.000000	100.524631
648.000000	100.537399
647.000000	100.458646
646.000000	100.300389
645.000000	100.093677
644.000000	99.883248
643.000000	99.714814
642.000000	99.624364
641.000000	99.627920
640.000000	99.719399
639.000000	99.868556
638.000000	100.023725
637.000000	100.130522
636.000000	100.152066
635.000000	100.078540
634.000000	99.930921
633.000000	99.753296
632.000000	99.594655
631.000000	99.489858
630.000000	99.450911
629.000000	99.471130
628.000000	99.534464
627.000000	99.618050
626.000000	99.696800
625.000000	99.756767
624.000000	99.797091
623.000000	99.821954
622.000000	99.829987
621.000000	99.812276
620.000000	99.758225
619.000000	99.663170
618.000000	99.536047
617.000000	99.401209
616.000000	99.290459
615.000000	99.230432
614.000000	99.235446
613.000000	99.308603
612.000000	99.439613
611.000000	99.595190
610.000000	99.722905
609.000000	99.773581
608.000000	99.722549
607.000000	99.573397
606.000000	99.354360
605.000000	99.115580
604.000000	98.913785
603.000000	98.790019
602.000000	98.751869
601.000000	98.772094
600.000000	98.800796
599.000000	98.781461
598.000000	98.667795
597.000000	98.438656
596.000000	98.102290
595.000000	97.684819
594.000000	97.206269
593.000000	96.656807
592.000000	95.991222
591.000000	95.166910
590.000000	94.216155
589.000000	93.291194
588.000000	92.611483
587.000000	92.326118
586.000000	92.408038
585.000000	92.701369
584.000000	93.080864
583.000000	93.521402
582.000000	94.023203
581.000000	94.537482
580.000000	94.988536
579.000000	95.334276
578.000000	95.575971
577.000000	95.738017
576.000000	95.863675
575.000000	96.008043
574.000000	96.203080
573.000000	96.435678
572.000000	96.665778
571.000000	96.848025
570.000000	96.937397
569.000000	96.895362
568.000000	96.711707
567.000000	96.407707
566.000000	96.005608
565.000000	95.502325
564.000000	94.881300
563.000000	94.153461
562.000000	93.372422
561.000000	92.614559
560.000000	91.947769
559.000000	91.396971
558.000000	90.924982
557.000000	90.478381
556.000000	90.083254
555.000000	89.866672
554.000000	89.956216
553.000000	90.368236
552.000000	91.005452
551.000000	91.725706
550.000000	92.396378
549.000000	92.939624
548.000000	93.357042
547.000000	93.699532
546.000000	94.004185
545.000000	94.267829
544.000000	94.471440
543.000000	94.599897
542.000000	94.636383
541.000000	94.563514
540.000000	94.390850
539.000000	94.164179
538.000000	93.938539
537.000000	93.752759
536.000000	93.630188
535.000000	93.580312
534.000000	93.583924
533.000000	93.598013
532.000000	93.584195
531.000000	93.527453
530.000000	93.427196
529.000000	93.287545
528.000000	93.118827
527.000000	92.932406
526.000000	92.717048
525.000000	92.439996
524.000000	92.084779
523.000000	91.665621
522.000000	91.205634
521.000000	90.724000
520.000000	90.250360
519.000000	89.820350
518.000000	89.435778
517.000000	89.052923
516.000000	88.632862
515.000000	88.180528
514.000000	87.725582
513.000000	87.304389
512.000000	86.974887
511.000000	86.818839
510.000000	86.892889
509.000000	87.194514
508.000000	87.689666
507.000000	88.333687
506.000000	89.055706
505.000000	89.772938
504.000000	90.439565
503.000000	91.050036
502.000000	91.592791
501.000000	92.043672
500.000000	92.409826
499.000000	92.740242
498.000000	93.075970
497.000000	93.421727
496.000000	93.766011
495.000000	94.097226
494.000000	94.393923
493.000000	94.623822
492.000000	94.777387
491.000000	94.881093
490.000000	94.960820
489.000000	95.019664
488.000000	95.053207
487.000000	95.062221
486.000000	95.029624
485.000000	94.904388
484.000000	94.636617
483.000000	94.211490
482.000000	93.642257
481.000000	92.963164
480.000000	92.253326
479.000000	91.626644
478.000000	91.148959
477.000000	90.785001
476.000000	90.455446
475.000000	90.123981
474.000000	89.801089
473.000000	89.526540
472.000000	89.392492
471.000000	89.520953
470.000000	89.961472
469.000000	90.644230
468.000000	91.448727
467.000000	92.263905
466.000000	92.998534
465.000000	93.598942
464.000000	94.060699
463.000000	94.417115
462.000000	94.706429
461.000000	94.952184
460.000000	95.174304
459.000000	95.392595
458.000000	95.603265
457.000000	95.778025
456.000000	95.908661
455.000000	96.023135
454.000000	96.144013
453.000000	96.259669
452.000000	96.349963
451.000000	96.415850
450.000000	96.456318
449.000000	96.451671
448.000000	96.396652
447.000000	96.328234
446.000000	96.293000
445.000000	96.306683
444.000000	96.362619
443.000000	96.456792
442.000000	96.576288
441.000000	96.687910
440.000000	96.767185
439.000000	96.809348
438.000000	96.799740
437.000000	96.704937
436.000000	96.522947
435.000000	96.313495
434.000000	96.141105
433.000000	96.016857
432.000000	95.921246
431.000000	95.840812
430.000000	95.757506
429.000000	95.634923
428.000000	95.465341
427.000000	95.303645
426.000000	95.204962
425.000000	95.158394
424.000000	95.134613
423.000000	95.156213
422.000000	95.252082
421.000000	95.394071
420.000000	95.538762
419.000000	95.702163
418.000000	95.902299
417.000000	96.085252
416.000000	96.241581
415.000000	96.425959
414.000000	96.633621
413.000000	96.771117
412.000000	96.767084
411.000000	96.652184
410.000000	96.502100
409.000000	96.354390
408.000000	96.253369
407.000000	96.288474
406.000000	96.483230
405.000000	96.717017
404.000000	96.887888
403.000000	97.026846
402.000000	97.203776
401.000000	97.349082
400.000000	97.369538
