PE IR       SUBTECH     SPECTRUM    ASCII       PEDS        4.00        
   -1
23ms098-trans.asc
24/10/15
16:02:06.00
24/10/15
16:02:06.00
Administrator
Sample 1275 By Administrator Date Tuesday, October 15 2024
400.000000
#HDR
-1
-1
#GR
cm-1
%T
1.0
0.0
4000.000000
-1.000000
3601
8
127.051806
34.813864
#DATA
4000.000000	111.957173
3999.000000	111.910744
3998.000000	111.878397
3997.000000	111.862337
3996.000000	111.843475
3995.000000	111.801920
3994.000000	111.744758
3993.000000	111.700086
3992.000000	111.680136
3991.000000	111.664863
3990.000000	111.629711
3989.000000	111.576042
3988.000000	111.523596
3987.000000	111.483397
3986.000000	111.451156
3985.000000	111.420860
3984.000000	111.390335
3983.000000	111.354837
3982.000000	111.303929
3981.000000	111.231905
3980.000000	111.150587
3979.000000	111.084627
3978.000000	111.051176
3977.000000	111.050366
3976.000000	111.071356
3975.000000	111.099609
3974.000000	111.123425
3973.000000	111.144043
3972.000000	111.179152
3971.000000	111.241965
3970.000000	111.326731
3969.000000	111.412313
3968.000000	111.477301
3967.000000	111.517039
3966.000000	111.548193
3965.000000	111.596095
3964.000000	111.668363
3963.000000	111.738005
3962.000000	111.764563
3961.000000	111.741030
3960.000000	111.709856
3959.000000	111.707264
3958.000000	111.729149
3957.000000	111.750557
3956.000000	111.756846
3955.000000	111.753334
3954.000000	111.750935
3953.000000	111.767706
3952.000000	111.822023
3951.000000	111.920068
3950.000000	112.038223
3949.000000	112.107749
3948.000000	112.067772
3947.000000	111.974103
3946.000000	111.994283
3945.000000	112.229730
3944.000000	112.571991
3943.000000	112.788013
3942.000000	112.767400
3941.000000	112.643021
3940.000000	112.625874
3939.000000	112.740879
3938.000000	112.840998
3937.000000	112.837044
3936.000000	112.811409
3935.000000	112.897132
3934.000000	113.096802
3933.000000	113.288460
3932.000000	113.351138
3931.000000	113.256997
3930.000000	113.072838
3929.000000	112.911239
3928.000000	112.908358
3927.000000	113.122374
3926.000000	113.399555
3925.000000	113.478011
3924.000000	113.287793
3923.000000	113.040029
3922.000000	112.951812
3921.000000	113.025172
3920.000000	113.176597
3919.000000	113.377744
3918.000000	113.572671
3917.000000	113.622978
3916.000000	113.485489
3915.000000	113.329545
3914.000000	113.359351
3913.000000	113.558805
3912.000000	113.772711
3911.000000	113.848897
3910.000000	113.747958
3909.000000	113.554883
3908.000000	113.425005
3907.000000	113.496015
3906.000000	113.735846
3905.000000	113.906487
3904.000000	113.774408
3903.000000	113.430130
3902.000000	113.268041
3901.000000	113.490878
3900.000000	113.804414
3899.000000	113.820671
3898.000000	113.545677
3897.000000	113.277790
3896.000000	113.249924
3895.000000	113.494142
3894.000000	114.020212
3893.000000	114.721750
3892.000000	115.142440
3891.000000	114.711775
3890.000000	113.645803
3889.000000	112.996930
3888.000000	113.402698
3887.000000	114.404142
3886.000000	114.939497
3885.000000	114.419087
3884.000000	113.515974
3883.000000	113.337121
3882.000000	114.042174
3881.000000	114.822640
3880.000000	114.825899
3879.000000	114.063806
3878.000000	113.433771
3877.000000	113.593416
3876.000000	114.252900
3875.000000	114.605409
3874.000000	114.246924
3873.000000	113.752000
3872.000000	113.954653
3871.000000	114.698060
3870.000000	114.884829
3869.000000	113.994338
3868.000000	113.038701
3867.000000	113.112364
3866.000000	113.937055
3865.000000	114.599483
3864.000000	114.708206
3863.000000	114.454410
3862.000000	114.195769
3861.000000	114.019201
3860.000000	113.823955
3859.000000	113.535820
3858.000000	113.239932
3857.000000	113.214565
3856.000000	113.815761
3855.000000	115.093478
3854.000000	116.151096
3853.000000	115.350485
3852.000000	112.958335
3851.000000	111.394372
3850.000000	111.615883
3849.000000	112.643393
3848.000000	113.604791
3847.000000	114.283870
3846.000000	114.746009
3845.000000	115.028569
3844.000000	115.041243
3843.000000	114.700112
3842.000000	114.280020
3841.000000	114.191341
3840.000000	114.523564
3839.000000	114.946572
3838.000000	114.979205
3837.000000	114.447095
3836.000000	113.747742
3835.000000	113.486129
3834.000000	113.865787
3833.000000	114.518895
3832.000000	114.894412
3831.000000	114.799470
3830.000000	114.576661
3829.000000	114.675417
3828.000000	115.084310
3827.000000	115.250980
3826.000000	114.811380
3825.000000	114.206254
3824.000000	114.256101
3823.000000	115.167232
3822.000000	116.117755
3821.000000	115.821081
3820.000000	114.287719
3819.000000	113.287553
3818.000000	113.899020
3817.000000	115.278841
3816.000000	115.870700
3815.000000	115.153115
3814.000000	114.199966
3813.000000	114.010370
3812.000000	114.336708
3811.000000	114.648557
3810.000000	115.007590
3809.000000	115.697952
3808.000000	116.414276
3807.000000	116.242946
3806.000000	114.984462
3805.000000	113.881923
3804.000000	114.139515
3803.000000	115.484159
3802.000000	116.521353
3801.000000	116.053620
3800.000000	114.645404
3799.000000	114.002343
3798.000000	114.602518
3797.000000	115.533681
3796.000000	115.917860
3795.000000	115.746912
3794.000000	115.575477
3793.000000	115.701214
3792.000000	115.973085
3791.000000	116.176152
3790.000000	116.244137
3789.000000	116.231302
3788.000000	116.236915
3787.000000	116.341442
3786.000000	116.485543
3785.000000	116.452570
3784.000000	116.163120
3783.000000	115.893559
3782.000000	115.998900
3781.000000	116.450010
3780.000000	116.825625
3779.000000	116.730440
3778.000000	116.286266
3777.000000	115.970090
3776.000000	115.959028
3775.000000	116.002945
3774.000000	115.955637
3773.000000	116.028902
3772.000000	116.400941
3771.000000	116.797600
3770.000000	116.743227
3769.000000	116.214407
3768.000000	115.791123
3767.000000	115.897426
3766.000000	116.210959
3765.000000	116.152658
3764.000000	115.735520
3763.000000	115.532091
3762.000000	115.849992
3761.000000	116.358026
3760.000000	116.630946
3759.000000	116.511324
3758.000000	116.041063
3757.000000	115.402176
3756.000000	114.906402
3755.000000	114.818947
3754.000000	115.117825
3753.000000	115.584314
3752.000000	116.031048
3751.000000	116.135109
3750.000000	115.354343
3749.000000	113.810690
3748.000000	112.768064
3747.000000	113.350449
3746.000000	115.282960
3745.000000	117.032718
3744.000000	116.716863
3743.000000	114.658619
3742.000000	113.344492
3741.000000	113.600813
3740.000000	114.411768
3739.000000	115.124520
3738.000000	115.746818
3737.000000	116.282437
3736.000000	116.450978
3735.000000	116.237306
3734.000000	116.096345
3733.000000	116.197782
3732.000000	116.127834
3731.000000	115.684010
3730.000000	115.349816
3729.000000	115.624919
3728.000000	116.327879
3727.000000	116.872264
3726.000000	116.943380
3725.000000	116.798147
3724.000000	116.799207
3723.000000	116.933574
3722.000000	117.008767
3721.000000	116.957264
3720.000000	116.919652
3719.000000	116.955746
3718.000000	116.884399
3717.000000	116.617551
3716.000000	116.393277
3715.000000	116.516707
3714.000000	117.010918
3713.000000	117.586866
3712.000000	117.859479
3711.000000	117.594390
3710.000000	117.006649
3709.000000	116.565827
3708.000000	116.450631
3707.000000	116.535235
3706.000000	116.727942
3705.000000	117.079152
3704.000000	117.606564
3703.000000	118.127967
3702.000000	118.324931
3701.000000	118.023965
3700.000000	117.504402
3699.000000	117.277357
3698.000000	117.438884
3697.000000	117.628827
3696.000000	117.581135
3695.000000	117.386766
3694.000000	117.247586
3693.000000	117.218276
3692.000000	117.320650
3691.000000	117.630248
3690.000000	118.069249
3689.000000	118.163568
3688.000000	117.483553
3687.000000	116.488722
3686.000000	116.100646
3685.000000	116.486694
3684.000000	117.096076
3683.000000	117.518183
3682.000000	117.706802
3681.000000	117.659432
3680.000000	117.267577
3679.000000	116.799732
3678.000000	116.923101
3677.000000	117.815950
3676.000000	118.485974
3675.000000	117.572463
3674.000000	115.694423
3673.000000	114.963488
3672.000000	115.939022
3671.000000	117.417414
3670.000000	118.046045
3669.000000	117.451135
3668.000000	116.571879
3667.000000	116.370909
3666.000000	116.807764
3665.000000	117.370790
3664.000000	117.774543
3663.000000	117.984189
3662.000000	117.961709
3661.000000	117.706430
3660.000000	117.411825
3659.000000	117.434700
3658.000000	117.858172
3657.000000	118.204906
3656.000000	117.781229
3655.000000	116.646779
3654.000000	115.731822
3653.000000	115.653892
3652.000000	116.193267
3651.000000	116.837283
3650.000000	117.180923
3649.000000	116.984449
3648.000000	116.308789
3647.000000	115.540359
3646.000000	115.139358
3645.000000	115.289977
3644.000000	115.834392
3643.000000	116.416380
3642.000000	116.750203
3641.000000	116.825674
3640.000000	116.792567
3639.000000	116.713498
3638.000000	116.543507
3637.000000	116.367086
3636.000000	116.312381
3635.000000	116.224742
3634.000000	115.784089
3633.000000	115.078069
3632.000000	114.717860
3631.000000	115.153844
3630.000000	116.063763
3629.000000	116.327052
3628.000000	115.223204
3627.000000	113.766099
3626.000000	113.256791
3625.000000	113.567528
3624.000000	113.959956
3623.000000	114.177019
3622.000000	114.399307
3621.000000	114.725335
3620.000000	114.914786
3619.000000	114.594146
3618.000000	113.758741
3617.000000	112.973210
3616.000000	112.754829
3615.000000	113.015118
3614.000000	113.270647
3613.000000	113.179189
3612.000000	112.858187
3611.000000	112.691178
3610.000000	112.830790
3609.000000	113.022940
3608.000000	112.940904
3607.000000	112.580359
3606.000000	112.236001
3605.000000	112.129016
3604.000000	112.217503
3603.000000	112.362081
3602.000000	112.436017
3601.000000	112.341575
3600.000000	112.069806
3599.000000	111.753250
3598.000000	111.523745
3597.000000	111.438330
3596.000000	111.435050
3595.000000	111.349328
3594.000000	111.043854
3593.000000	110.555164
3592.000000	110.098012
3591.000000	109.897784
3590.000000	110.019550
3589.000000	110.303599
3588.000000	110.417518
3587.000000	110.100358
3586.000000	109.505687
3585.000000	109.070735
3584.000000	108.993675
3583.000000	109.135794
3582.000000	109.286562
3581.000000	109.346206
3580.000000	109.309722
3579.000000	109.211079
3578.000000	109.088768
3577.000000	108.970923
3576.000000	108.873937
3575.000000	108.770069
3574.000000	108.609836
3573.000000	108.361826
3572.000000	108.058911
3571.000000	107.819259
3570.000000	107.781854
3569.000000	107.963031
3568.000000	108.171952
3567.000000	108.129654
3566.000000	107.783774
3565.000000	107.424408
3564.000000	107.334705
3563.000000	107.505777
3562.000000	107.765278
3561.000000	107.978655
3560.000000	108.104134
3559.000000	108.152146
3558.000000	108.152510
3557.000000	108.137389
3556.000000	108.150855
3555.000000	108.232564
3554.000000	108.365321
3553.000000	108.455143
3552.000000	108.404677
3551.000000	108.239013
3550.000000	108.107831
3549.000000	108.125906
3548.000000	108.266906
3547.000000	108.419508
3546.000000	108.493816
3545.000000	108.483654
3544.000000	108.452319
3543.000000	108.457593
3542.000000	108.508136
3541.000000	108.578099
3540.000000	108.648708
3539.000000	108.723811
3538.000000	108.798978
3537.000000	108.848903
3536.000000	108.838593
3535.000000	108.772135
3534.000000	108.697097
3533.000000	108.656583
3532.000000	108.650559
3531.000000	108.652427
3530.000000	108.637977
3529.000000	108.581954
3528.000000	108.462272
3527.000000	108.300110
3526.000000	108.171960
3525.000000	108.132870
3524.000000	108.146095
3523.000000	108.120686
3522.000000	108.020935
3521.000000	107.903201
3520.000000	107.825911
3519.000000	107.770986
3518.000000	107.677211
3517.000000	107.530183
3516.000000	107.362514
3515.000000	107.188820
3514.000000	106.997171
3513.000000	106.798137
3512.000000	106.622820
3511.000000	106.467541
3510.000000	106.276361
3509.000000	106.000264
3508.000000	105.665665
3507.000000	105.359433
3506.000000	105.139666
3505.000000	104.982600
3504.000000	104.813563
3503.000000	104.575051
3502.000000	104.274683
3501.000000	103.974886
3500.000000	103.734700
3499.000000	103.562717
3498.000000	103.423228
3497.000000	103.274616
3496.000000	103.099342
3495.000000	102.905914
3494.000000	102.715578
3493.000000	102.550019
3492.000000	102.418036
3491.000000	102.315465
3490.000000	102.236533
3489.000000	102.173136
3488.000000	102.108069
3487.000000	102.030108
3486.000000	101.959368
3485.000000	101.938449
3484.000000	101.982513
3483.000000	102.054878
3482.000000	102.105885
3481.000000	102.128379
3480.000000	102.161143
3479.000000	102.242085
3478.000000	102.376188
3477.000000	102.541269
3476.000000	102.708702
3475.000000	102.856848
3474.000000	102.980663
3473.000000	103.094773
3472.000000	103.217235
3471.000000	103.351939
3470.000000	103.498066
3469.000000	103.660581
3468.000000	103.836191
3467.000000	104.005358
3466.000000	104.156360
3465.000000	104.304731
3464.000000	104.467113
3463.000000	104.631310
3462.000000	104.773705
3461.000000	104.897140
3460.000000	105.028802
3459.000000	105.183613
3458.000000	105.349588
3457.000000	105.510696
3456.000000	105.659917
3455.000000	105.800847
3454.000000	105.938362
3453.000000	106.066542
3452.000000	106.174500
3451.000000	106.272128
3450.000000	106.397566
3449.000000	106.570415
3448.000000	106.748762
3447.000000	106.866399
3446.000000	106.922960
3445.000000	106.996345
3444.000000	107.144332
3443.000000	107.335336
3442.000000	107.500069
3441.000000	107.618961
3440.000000	107.725686
3439.000000	107.846635
3438.000000	107.975095
3437.000000	108.100788
3436.000000	108.226069
3435.000000	108.356299
3434.000000	108.487064
3433.000000	108.607457
3432.000000	108.713449
3431.000000	108.811355
3430.000000	108.912345
3429.000000	109.021308
3428.000000	109.133220
3427.000000	109.237162
3426.000000	109.326090
3425.000000	109.406345
3424.000000	109.494568
3423.000000	109.600690
3422.000000	109.713689
3421.000000	109.811177
3420.000000	109.883539
3419.000000	109.945430
3418.000000	110.020333
3417.000000	110.116252
3416.000000	110.222402
3415.000000	110.325337
3414.000000	110.421524
3413.000000	110.514766
3412.000000	110.608351
3411.000000	110.703096
3410.000000	110.799627
3409.000000	110.898194
3408.000000	110.997913
3407.000000	111.095975
3406.000000	111.187735
3405.000000	111.271711
3404.000000	111.350453
3403.000000	111.427615
3402.000000	111.508429
3401.000000	111.605162
3400.000000	111.729634
3399.000000	111.871262
3398.000000	111.996727
3397.000000	112.083974
3396.000000	112.149189
3395.000000	112.226174
3394.000000	112.326489
3393.000000	112.433650
3392.000000	112.532014
3391.000000	112.625534
3390.000000	112.724937
3389.000000	112.830223
3388.000000	112.933505
3387.000000	113.030291
3386.000000	113.119115
3385.000000	113.198384
3384.000000	113.268818
3383.000000	113.337448
3382.000000	113.413469
3381.000000	113.500425
3380.000000	113.593889
3379.000000	113.685186
3378.000000	113.770308
3377.000000	113.853453
3376.000000	113.939922
3375.000000	114.026137
3374.000000	114.102840
3373.000000	114.167710
3372.000000	114.228949
3371.000000	114.296325
3370.000000	114.375485
3369.000000	114.469708
3368.000000	114.577562
3367.000000	114.688970
3366.000000	114.791267
3365.000000	114.881592
3364.000000	114.968503
3363.000000	115.060502
3362.000000	115.158213
3361.000000	115.259230
3360.000000	115.364254
3359.000000	115.474935
3358.000000	115.588988
3357.000000	115.699699
3356.000000	115.799716
3355.000000	115.885341
3354.000000	115.960805
3353.000000	116.038565
3352.000000	116.131268
3351.000000	116.240852
3350.000000	116.358088
3349.000000	116.471771
3348.000000	116.574613
3347.000000	116.664552
3346.000000	116.744190
3345.000000	116.820960
3344.000000	116.901266
3343.000000	116.980994
3342.000000	117.048610
3341.000000	117.099763
3340.000000	117.144089
3339.000000	117.193329
3338.000000	117.246095
3337.000000	117.288218
3336.000000	117.305539
3335.000000	117.294536
3334.000000	117.261603
3333.000000	117.212991
3332.000000	117.147019
3331.000000	117.054418
3330.000000	116.925479
3329.000000	116.756146
3328.000000	116.546145
3327.000000	116.296147
3326.000000	116.005129
3325.000000	115.669433
3324.000000	115.283016
3323.000000	114.835502
3322.000000	114.318169
3321.000000	113.727891
3320.000000	113.059253
3319.000000	112.297750
3318.000000	111.420052
3317.000000	110.405694
3316.000000	109.237161
3315.000000	107.885932
3314.000000	106.315103
3313.000000	104.492025
3312.000000	102.402502
3311.000000	100.049537
3310.000000	97.440868
3309.000000	94.597760
3308.000000	91.562414
3307.000000	88.397066
3306.000000	85.175381
3305.000000	81.966676
3304.000000	78.831278
3303.000000	75.822878
3302.000000	72.996115
3301.000000	70.408215
3300.000000	68.109545
3299.000000	66.131499
3298.000000	64.493591
3297.000000	63.211655
3296.000000	62.281109
3295.000000	61.664266
3294.000000	61.286547
3293.000000	61.055085
3292.000000	60.880779
3291.000000	60.687100
3290.000000	60.430374
3289.000000	60.106236
3288.000000	59.741200
3287.000000	59.376821
3286.000000	59.052493
3285.000000	58.795732
3284.000000	58.612157
3283.000000	58.484492
3282.000000	58.385516
3281.000000	58.291102
3280.000000	58.179601
3279.000000	58.028533
3278.000000	57.823451
3277.000000	57.568060
3276.000000	57.278735
3275.000000	56.972760
3274.000000	56.669751
3273.000000	56.401361
3272.000000	56.210296
3271.000000	56.136259
3270.000000	56.209687
3269.000000	56.452278
3268.000000	56.874676
3267.000000	57.476085
3266.000000	58.240739
3265.000000	59.138015
3264.000000	60.119373
3263.000000	61.115086
3262.000000	62.045140
3261.000000	62.832926
3260.000000	63.408002
3259.000000	63.708787
3258.000000	63.697676
3257.000000	63.363461
3256.000000	62.716267
3255.000000	61.771921
3254.000000	60.547818
3253.000000	59.076465
3252.000000	57.389545
3251.000000	55.508094
3250.000000	53.446445
3249.000000	51.229106
3248.000000	48.908462
3247.000000	46.561427
3246.000000	44.292673
3245.000000	42.237752
3244.000000	40.542008
3243.000000	39.309497
3242.000000	38.564770
3241.000000	38.237488
3240.000000	38.178964
3239.000000	38.216902
3238.000000	38.209458
3237.000000	38.081910
3236.000000	37.822247
3235.000000	37.456721
3234.000000	37.031042
3233.000000	36.589574
3232.000000	36.159131
3231.000000	35.749350
3230.000000	35.373354
3229.000000	35.063810
3228.000000	34.863494
3227.000000	34.813864
3226.000000	34.955439
3225.000000	35.326271
3224.000000	35.952384
3223.000000	36.832042
3222.000000	37.938769
3221.000000	39.227787
3220.000000	40.630230
3219.000000	42.058982
3218.000000	43.429891
3217.000000	44.681474
3216.000000	45.772302
3215.000000	46.675755
3214.000000	47.391023
3213.000000	47.953991
3212.000000	48.422092
3211.000000	48.848841
3210.000000	49.278825
3209.000000	49.753092
3208.000000	50.308088
3207.000000	50.967279
3206.000000	51.740635
3205.000000	52.628739
3204.000000	53.623388
3203.000000	54.706726
3202.000000	55.857882
3201.000000	57.060059
3200.000000	58.294005
3199.000000	59.533294
3198.000000	60.750684
3197.000000	61.927926
3196.000000	63.054873
3195.000000	64.123070
3194.000000	65.123440
3193.000000	66.047436
3192.000000	66.885897
3191.000000	67.626603
3190.000000	68.263045
3189.000000	68.798998
3188.000000	69.243434
3187.000000	69.604552
3186.000000	69.890257
3185.000000	70.114532
3184.000000	70.292486
3183.000000	70.436315
3182.000000	70.559940
3181.000000	70.678623
3180.000000	70.801659
3179.000000	70.928533
3178.000000	71.059807
3177.000000	71.208128
3176.000000	71.392744
3175.000000	71.626808
3174.000000	71.914680
3173.000000	72.257738
3172.000000	72.654826
3171.000000	73.102126
3170.000000	73.595852
3169.000000	74.134517
3168.000000	74.715759
3167.000000	75.330900
3166.000000	75.970279
3165.000000	76.627560
3164.000000	77.296120
3163.000000	77.967050
3162.000000	78.632361
3161.000000	79.284697
3160.000000	79.909593
3159.000000	80.482926
3158.000000	80.975431
3157.000000	81.358090
3156.000000	81.597433
3155.000000	81.654801
3154.000000	81.496024
3153.000000	81.099409
3152.000000	80.468397
3151.000000	79.641328
3150.000000	78.696984
3149.000000	77.740059
3148.000000	76.861646
3147.000000	76.108753
3146.000000	75.477124
3145.000000	74.920276
3144.000000	74.364701
3143.000000	73.730860
3142.000000	72.961026
3141.000000	72.035115
3140.000000	70.963196
3139.000000	69.772432
3138.000000	68.504207
3137.000000	67.216263
3136.000000	65.972008
3135.000000	64.826524
3134.000000	63.825014
3133.000000	63.009272
3132.000000	62.414450
3131.000000	62.063833
3130.000000	61.972031
3129.000000	62.137997
3128.000000	62.541906
3127.000000	63.149776
3126.000000	63.929616
3125.000000	64.858510
3124.000000	65.904691
3123.000000	67.027395
3122.000000	68.191027
3121.000000	69.374115
3120.000000	70.561810
3119.000000	71.733627
3118.000000	72.869935
3117.000000	73.959416
3116.000000	74.994089
3115.000000	75.962380
3114.000000	76.854791
3113.000000	77.668250
3112.000000	78.400311
3111.000000	79.048200
3110.000000	79.612945
3109.000000	80.100565
3108.000000	80.510753
3107.000000	80.835126
3106.000000	81.072657
3105.000000	81.233865
3104.000000	81.334879
3103.000000	81.391807
3102.000000	81.424790
3101.000000	81.463360
3100.000000	81.543191
3099.000000	81.698647
3098.000000	81.955632
3097.000000	82.325877
3096.000000	82.802182
3095.000000	83.366454
3094.000000	84.001420
3093.000000	84.693090
3092.000000	85.424227
3091.000000	86.172035
3090.000000	86.916690
3089.000000	87.644278
3088.000000	88.342900
3087.000000	89.002834
3086.000000	89.622655
3085.000000	90.207412
3084.000000	90.759006
3083.000000	91.273677
3082.000000	91.749367
3081.000000	92.192439
3080.000000	92.612566
3079.000000	93.016171
3078.000000	93.407304
3077.000000	93.788909
3076.000000	94.160315
3075.000000	94.517508
3074.000000	94.858595
3073.000000	95.184516
3072.000000	95.494916
3071.000000	95.788544
3070.000000	96.068593
3069.000000	96.343531
3068.000000	96.620149
3067.000000	96.897672
3066.000000	97.169869
3065.000000	97.431284
3064.000000	97.681743
3063.000000	97.925532
3062.000000	98.165880
3061.000000	98.401585
3060.000000	98.629664
3059.000000	98.850655
3058.000000	99.068003
3057.000000	99.281869
3056.000000	99.486627
3055.000000	99.677335
3054.000000	99.856756
3053.000000	100.032136
3052.000000	100.207743
3051.000000	100.381963
3050.000000	100.549235
3049.000000	100.703911
3048.000000	100.844377
3047.000000	100.975740
3046.000000	101.107049
3045.000000	101.243616
3044.000000	101.383725
3043.000000	101.523242
3042.000000	101.661439
3041.000000	101.799186
3040.000000	101.932979
3039.000000	102.057111
3038.000000	102.170395
3037.000000	102.277576
3036.000000	102.385375
3035.000000	102.499284
3034.000000	102.623435
3033.000000	102.757918
3032.000000	102.894623
3031.000000	103.022830
3030.000000	103.142069
3029.000000	103.263379
3028.000000	103.394779
3027.000000	103.531890
3026.000000	103.666740
3025.000000	103.798645
3024.000000	103.931202
3023.000000	104.063586
3022.000000	104.190859
3021.000000	104.311095
3020.000000	104.428289
3019.000000	104.547656
3018.000000	104.670056
3017.000000	104.792026
3016.000000	104.909665
3015.000000	105.021525
3014.000000	105.127514
3013.000000	105.226296
3012.000000	105.314086
3011.000000	105.385246
3010.000000	105.434385
3009.000000	105.456708
3008.000000	105.446852
3007.000000	105.398374
3006.000000	105.303431
3005.000000	105.154435
3004.000000	104.945955
3003.000000	104.677820
3002.000000	104.355647
3001.000000	103.986138
3000.000000	103.573627
2999.000000	103.117246
2998.000000	102.615688
2997.000000	102.081025
2996.000000	101.554603
2995.000000	101.108567
2994.000000	100.817575
2993.000000	100.716376
2992.000000	100.776974
2991.000000	100.929655
2990.000000	101.105133
2989.000000	101.261262
2988.000000	101.382762
2987.000000	101.469086
2986.000000	101.528868
2985.000000	101.576239
2984.000000	101.625211
2983.000000	101.686452
2982.000000	101.768951
2981.000000	101.879412
2980.000000	102.015423
2979.000000	102.162568
2978.000000	102.303889
2977.000000	102.434215
2976.000000	102.566866
2975.000000	102.727071
2974.000000	102.936756
2973.000000	103.199158
2972.000000	103.493118
2971.000000	103.781839
2970.000000	104.027466
2969.000000	104.200959
2968.000000	104.281329
2967.000000	104.253125
2966.000000	104.106705
2965.000000	103.838760
2964.000000	103.451063
2963.000000	102.947040
2962.000000	102.334081
2961.000000	101.624551
2960.000000	100.832427
2959.000000	99.967090
2958.000000	99.033660
2957.000000	98.050226
2956.000000	97.071558
2955.000000	96.198038
2954.000000	95.541295
2953.000000	95.159920
2952.000000	95.017233
2951.000000	95.007880
2950.000000	95.033890
2949.000000	95.058536
2948.000000	95.104564
2947.000000	95.214046
2946.000000	95.410692
2945.000000	95.679451
2944.000000	95.967240
2943.000000	96.211009
2942.000000	96.378825
2941.000000	96.495780
2940.000000	96.634395
2939.000000	96.879871
2938.000000	97.295199
2937.000000	97.900024
2936.000000	98.666975
2935.000000	99.536615
2934.000000	100.442007
2933.000000	101.328365
2932.000000	102.159676
2931.000000	102.918521
2930.000000	103.602533
2929.000000	104.217126
2928.000000	104.769389
2927.000000	105.267324
2926.000000	105.722763
2925.000000	106.148089
2924.000000	106.548762
2923.000000	106.921010
2922.000000	107.257133
2921.000000	107.550634
2920.000000	107.796462
2919.000000	107.991749
2918.000000	108.137419
2917.000000	108.237716
2916.000000	108.298365
2915.000000	108.326342
2914.000000	108.330804
2913.000000	108.320190
2912.000000	108.299121
2911.000000	108.271162
2910.000000	108.242193
2909.000000	108.219426
2908.000000	108.206742
2907.000000	108.203667
2906.000000	108.209843
2905.000000	108.226267
2904.000000	108.251635
2903.000000	108.281953
2902.000000	108.313837
2901.000000	108.345080
2900.000000	108.372533
2899.000000	108.391629
2898.000000	108.399646
2897.000000	108.395007
2896.000000	108.373407
2895.000000	108.328255
2894.000000	108.255985
2893.000000	108.157893
2892.000000	108.035421
2891.000000	107.887186
2890.000000	107.711986
2889.000000	107.512336
2888.000000	107.293883
2887.000000	107.064157
2886.000000	106.832974
2885.000000	106.610991
2884.000000	106.406830
2883.000000	106.226626
2882.000000	106.076925
2881.000000	105.965100
2880.000000	105.895623
2879.000000	105.868777
2878.000000	105.883101
2877.000000	105.937026
2876.000000	106.028096
2875.000000	106.153038
2874.000000	106.307719
2873.000000	106.483756
2872.000000	106.665916
2871.000000	106.837818
2870.000000	106.992269
2869.000000	107.133358
2868.000000	107.269301
2867.000000	107.406429
2866.000000	107.549064
2865.000000	107.699430
2864.000000	107.855260
2863.000000	108.011393
2862.000000	108.165484
2861.000000	108.319470
2860.000000	108.474748
2859.000000	108.630021
2858.000000	108.785500
2857.000000	108.945709
2856.000000	109.116185
2855.000000	109.299672
2854.000000	109.495830
2853.000000	109.700509
2852.000000	109.903180
2851.000000	110.087987
2850.000000	110.240664
2849.000000	110.354174
2848.000000	110.428702
2847.000000	110.470217
2846.000000	110.490373
2845.000000	110.504025
2844.000000	110.523174
2843.000000	110.553204
2842.000000	110.595606
2841.000000	110.652569
2840.000000	110.726565
2839.000000	110.816844
2838.000000	110.918340
2837.000000	111.024169
2836.000000	111.129093
2835.000000	111.231341
2834.000000	111.331678
2833.000000	111.430562
2832.000000	111.526632
2831.000000	111.618385
2830.000000	111.706530
2829.000000	111.793332
2828.000000	111.879974
2827.000000	111.965982
2826.000000	112.050662
2825.000000	112.133409
2824.000000	112.212823
2823.000000	112.287078
2822.000000	112.355236
2821.000000	112.416967
2820.000000	112.471376
2819.000000	112.517787
2818.000000	112.557501
2817.000000	112.593140
2816.000000	112.626244
2815.000000	112.656832
2814.000000	112.685413
2813.000000	112.714298
2812.000000	112.746778
2811.000000	112.785820
2810.000000	112.832763
2809.000000	112.885857
2808.000000	112.940629
2807.000000	112.993150
2806.000000	113.042637
2805.000000	113.089915
2804.000000	113.134371
2803.000000	113.174186
2802.000000	113.208912
2801.000000	113.240140
2800.000000	113.270181
2799.000000	113.301550
2798.000000	113.336783
2797.000000	113.376592
2796.000000	113.418514
2795.000000	113.459043
2794.000000	113.496686
2793.000000	113.531626
2792.000000	113.563646
2791.000000	113.592558
2790.000000	113.619704
2789.000000	113.646453
2788.000000	113.671566
2787.000000	113.692429
2786.000000	113.708823
2785.000000	113.723446
2784.000000	113.739006
2783.000000	113.757204
2782.000000	113.780298
2781.000000	113.810776
2780.000000	113.848780
2779.000000	113.891859
2778.000000	113.937809
2777.000000	113.986018
2776.000000	114.035450
2775.000000	114.083072
2774.000000	114.125214
2773.000000	114.159449
2772.000000	114.184923
2771.000000	114.202388
2770.000000	114.214508
2769.000000	114.225058
2768.000000	114.237129
2767.000000	114.252031
2766.000000	114.269493
2765.000000	114.288104
2764.000000	114.305967
2763.000000	114.322153
2762.000000	114.337342
2761.000000	114.352296
2760.000000	114.366249
2759.000000	114.377708
2758.000000	114.386107
2757.000000	114.391196
2756.000000	114.391366
2755.000000	114.383974
2754.000000	114.367239
2753.000000	114.341231
2752.000000	114.307549
2751.000000	114.269344
2750.000000	114.231399
2749.000000	114.198798
2748.000000	114.175318
2747.000000	114.163466
2746.000000	114.164882
2745.000000	114.179581
2744.000000	114.205604
2743.000000	114.240241
2742.000000	114.281189
2741.000000	114.325983
2740.000000	114.371464
2739.000000	114.415408
2738.000000	114.457497
2737.000000	114.497562
2736.000000	114.534349
2735.000000	114.567437
2734.000000	114.599180
2733.000000	114.632781
2732.000000	114.669006
2731.000000	114.706231
2730.000000	114.742885
2729.000000	114.778112
2728.000000	114.810685
2727.000000	114.838840
2726.000000	114.860966
2725.000000	114.875720
2724.000000	114.882303
2723.000000	114.881994
2722.000000	114.878594
2721.000000	114.875910
2720.000000	114.875535
2719.000000	114.877937
2718.000000	114.884468
2717.000000	114.896705
2716.000000	114.914586
2715.000000	114.936650
2714.000000	114.961644
2713.000000	114.988635
2712.000000	115.016346
2711.000000	115.043749
2710.000000	115.070553
2709.000000	115.096089
2708.000000	115.118654
2707.000000	115.137018
2706.000000	115.151708
2705.000000	115.163985
2704.000000	115.174774
2703.000000	115.185648
2702.000000	115.199425
2701.000000	115.218147
2700.000000	115.241296
2699.000000	115.266982
2698.000000	115.293590
2697.000000	115.319157
2696.000000	115.340730
2695.000000	115.356180
2694.000000	115.365773
2693.000000	115.370831
2692.000000	115.372090
2691.000000	115.370365
2690.000000	115.367429
2689.000000	115.364649
2688.000000	115.361882
2687.000000	115.359111
2686.000000	115.357780
2685.000000	115.359107
2684.000000	115.362495
2683.000000	115.367031
2682.000000	115.373100
2681.000000	115.381019
2680.000000	115.389507
2679.000000	115.397184
2678.000000	115.404230
2677.000000	115.410862
2676.000000	115.415784
2675.000000	115.418201
2674.000000	115.420312
2673.000000	115.425976
2672.000000	115.437704
2671.000000	115.456520
2670.000000	115.483340
2669.000000	115.518315
2668.000000	115.559797
2667.000000	115.605422
2666.000000	115.653601
2665.000000	115.702782
2664.000000	115.750555
2663.000000	115.795413
2662.000000	115.838039
2661.000000	115.879174
2660.000000	115.917357
2659.000000	115.950432
2658.000000	115.978126
2657.000000	116.001730
2656.000000	116.022361
2655.000000	116.041124
2654.000000	116.059937
2653.000000	116.080147
2652.000000	116.101135
2651.000000	116.121412
2650.000000	116.139866
2649.000000	116.154894
2648.000000	116.163834
2647.000000	116.165350
2646.000000	116.161517
2645.000000	116.155996
2644.000000	116.151253
2643.000000	116.148742
2642.000000	116.150239
2641.000000	116.157093
2640.000000	116.169132
2639.000000	116.185868
2638.000000	116.207897
2637.000000	116.235526
2636.000000	116.267099
2635.000000	116.300535
2634.000000	116.335350
2633.000000	116.371843
2632.000000	116.409306
2631.000000	116.446450
2630.000000	116.482772
2629.000000	116.518013
2628.000000	116.551242
2627.000000	116.581733
2626.000000	116.609804
2625.000000	116.635698
2624.000000	116.658986
2623.000000	116.680038
2622.000000	116.700549
2621.000000	116.721339
2620.000000	116.740813
2619.000000	116.757091
2618.000000	116.770181
2617.000000	116.780685
2616.000000	116.787990
2615.000000	116.791183
2614.000000	116.790690
2613.000000	116.787483
2612.000000	116.781612
2611.000000	116.773024
2610.000000	116.762521
2609.000000	116.750863
2608.000000	116.738155
2607.000000	116.725140
2606.000000	116.713781
2605.000000	116.705343
2604.000000	116.699253
2603.000000	116.695001
2602.000000	116.693587
2601.000000	116.695692
2600.000000	116.700044
2599.000000	116.704813
2598.000000	116.708994
2597.000000	116.711081
2596.000000	116.708274
2595.000000	116.698814
2594.000000	116.683901
2593.000000	116.665984
2592.000000	116.646534
2591.000000	116.626856
2590.000000	116.609209
2589.000000	116.595245
2588.000000	116.584613
2587.000000	116.576538
2586.000000	116.571394
2585.000000	116.569424
2584.000000	116.569568
2583.000000	116.570981
2582.000000	116.574288
2581.000000	116.579781
2580.000000	116.586212
2579.000000	116.593087
2578.000000	116.602264
2577.000000	116.615704
2576.000000	116.633071
2575.000000	116.653275
2574.000000	116.676803
2573.000000	116.704394
2572.000000	116.735237
2571.000000	116.768221
2570.000000	116.803656
2569.000000	116.842035
2568.000000	116.882102
2567.000000	116.921800
2566.000000	116.959792
2565.000000	116.994781
2564.000000	117.025230
2563.000000	117.051497
2562.000000	117.076690
2561.000000	117.103719
2560.000000	117.132950
2559.000000	117.164215
2558.000000	117.199131
2557.000000	117.239425
2556.000000	117.284427
2555.000000	117.332095
2554.000000	117.381177
2553.000000	117.430382
2552.000000	117.476967
2551.000000	117.518308
2550.000000	117.554060
2549.000000	117.585178
2548.000000	117.612025
2547.000000	117.634725
2546.000000	117.653956
2545.000000	117.670070
2544.000000	117.682537
2543.000000	117.692047
2542.000000	117.701802
2541.000000	117.715096
2540.000000	117.732783
2539.000000	117.754236
2538.000000	117.779174
2537.000000	117.806891
2536.000000	117.834937
2535.000000	117.860201
2534.000000	117.880370
2533.000000	117.893575
2532.000000	117.898492
2531.000000	117.896251
2530.000000	117.890919
2529.000000	117.886419
2528.000000	117.884102
2527.000000	117.884198
2526.000000	117.887496
2525.000000	117.894034
2524.000000	117.901794
2523.000000	117.908546
2522.000000	117.913756
2521.000000	117.917093
2520.000000	117.916733
2519.000000	117.910685
2518.000000	117.898399
2517.000000	117.879631
2516.000000	117.852825
2515.000000	117.816824
2514.000000	117.772869
2513.000000	117.723495
2512.000000	117.671037
2511.000000	117.618331
2510.000000	117.569675
2509.000000	117.528979
2508.000000	117.497683
2507.000000	117.475463
2506.000000	117.461648
2505.000000	117.454181
2504.000000	117.448671
2503.000000	117.440634
2502.000000	117.427910
2501.000000	117.410365
2500.000000	117.388666
2499.000000	117.364955
2498.000000	117.343701
2497.000000	117.329602
2496.000000	117.325519
2495.000000	117.332764
2494.000000	117.351721
2493.000000	117.381148
2492.000000	117.417858
2491.000000	117.459026
2490.000000	117.503348
2489.000000	117.549085
2488.000000	117.593322
2487.000000	117.634332
2486.000000	117.673232
2485.000000	117.711618
2484.000000	117.749026
2483.000000	117.784167
2482.000000	117.817017
2481.000000	117.848238
2480.000000	117.878314
2479.000000	117.908883
2478.000000	117.943165
2477.000000	117.983118
2476.000000	118.027325
2475.000000	118.073048
2474.000000	118.118817
2473.000000	118.163450
2472.000000	118.204269
2471.000000	118.238185
2470.000000	118.263337
2469.000000	118.278632
2468.000000	118.282910
2467.000000	118.276722
2466.000000	118.263622
2465.000000	118.247848
2464.000000	118.231917
2463.000000	118.216892
2462.000000	118.203658
2461.000000	118.192263
2460.000000	118.181392
2459.000000	118.170368
2458.000000	118.160432
2457.000000	118.152729
2456.000000	118.146216
2455.000000	118.139010
2454.000000	118.130430
2453.000000	118.120308
2452.000000	118.107849
2451.000000	118.093065
2450.000000	118.078339
2449.000000	118.066770
2448.000000	118.060018
2447.000000	118.059152
2446.000000	118.066254
2445.000000	118.083528
2444.000000	118.111043
2443.000000	118.146822
2442.000000	118.188120
2441.000000	118.231286
2440.000000	118.272039
2439.000000	118.307341
2438.000000	118.336710
2437.000000	118.360844
2436.000000	118.380332
2435.000000	118.396664
2434.000000	118.412791
2433.000000	118.430956
2432.000000	118.451069
2431.000000	118.472603
2430.000000	118.496523
2429.000000	118.523632
2428.000000	118.552240
2427.000000	118.579205
2426.000000	118.602405
2425.000000	118.620612
2424.000000	118.632292
2423.000000	118.636548
2422.000000	118.634192
2421.000000	118.626491
2420.000000	118.613390
2419.000000	118.594941
2418.000000	118.573671
2417.000000	118.553638
2416.000000	118.537933
2415.000000	118.528476
2414.000000	118.527257
2413.000000	118.535140
2412.000000	118.549721
2411.000000	118.566261
2410.000000	118.580961
2409.000000	118.591886
2408.000000	118.597280
2407.000000	118.595090
2406.000000	118.584474
2405.000000	118.566144
2404.000000	118.541116
2403.000000	118.510882
2402.000000	118.478310
2401.000000	118.446668
2400.000000	118.416904
2399.000000	118.387190
2398.000000	118.355416
2397.000000	118.319794
2396.000000	118.277257
2395.000000	118.223557
2394.000000	118.155594
2393.000000	118.073413
2392.000000	117.978376
2391.000000	117.872210
2390.000000	117.759222
2389.000000	117.645138
2388.000000	117.535279
2387.000000	117.431855
2386.000000	117.337292
2385.000000	117.259152
2384.000000	117.203547
2383.000000	117.173373
2382.000000	117.165941
2381.000000	117.176433
2380.000000	117.200109
2379.000000	117.226500
2378.000000	117.245325
2377.000000	117.247566
2376.000000	117.227630
2375.000000	117.181836
2374.000000	117.116399
2373.000000	117.047970
2372.000000	116.987117
2371.000000	116.933095
2370.000000	116.882922
2369.000000	116.841925
2368.000000	116.808024
2367.000000	116.776659
2366.000000	116.756914
2365.000000	116.747317
2364.000000	116.747030
2363.000000	116.755859
2362.000000	116.756235
2361.000000	116.751959
2360.000000	116.746729
2359.000000	116.739468
2358.000000	116.745319
2357.000000	116.745977
2356.000000	116.715711
2355.000000	116.622120
2354.000000	116.442617
2353.000000	116.161957
2352.000000	115.819502
2351.000000	115.592006
2350.000000	115.670191
2349.000000	116.109786
2348.000000	116.766831
2347.000000	117.314657
2346.000000	117.507769
2345.000000	117.360272
2344.000000	117.125069
2343.000000	116.988725
2342.000000	116.951780
2341.000000	116.971666
2340.000000	117.002728
2339.000000	117.040521
2338.000000	117.091733
2337.000000	117.168788
2336.000000	117.267719
2335.000000	117.395391
2334.000000	117.543814
2333.000000	117.687521
2332.000000	117.755822
2331.000000	117.757005
2330.000000	117.731244
2329.000000	117.726044
2328.000000	117.764188
2327.000000	117.825982
2326.000000	117.900883
2325.000000	117.931478
2324.000000	117.889280
2323.000000	117.781177
2322.000000	117.638684
2321.000000	117.496609
2320.000000	117.358680
2319.000000	117.252829
2318.000000	117.189828
2317.000000	117.173304
2316.000000	117.161130
2315.000000	117.123672
2314.000000	117.042594
2313.000000	116.928966
2312.000000	116.794535
2311.000000	116.657347
2310.000000	116.525801
2309.000000	116.396875
2308.000000	116.262133
2307.000000	116.124383
2306.000000	115.994662
2305.000000	115.878022
2304.000000	115.769312
2303.000000	115.669847
2302.000000	115.583691
2301.000000	115.516047
2300.000000	115.465166
2299.000000	115.432934
2298.000000	115.419245
2297.000000	115.418041
2296.000000	115.419759
2295.000000	115.419238
2294.000000	115.419483
2293.000000	115.417622
2292.000000	115.408808
2291.000000	115.390447
2290.000000	115.366617
2289.000000	115.336649
2288.000000	115.297791
2287.000000	115.252202
2286.000000	115.208765
2285.000000	115.171911
2284.000000	115.140264
2283.000000	115.112860
2282.000000	115.091554
2281.000000	115.076985
2280.000000	115.068629
2279.000000	115.071136
2278.000000	115.090409
2277.000000	115.127383
2276.000000	115.176593
2275.000000	115.236603
2274.000000	115.310634
2273.000000	115.398723
2272.000000	115.496281
2271.000000	115.600770
2270.000000	115.713868
2269.000000	115.834146
2268.000000	115.956440
2267.000000	116.079493
2266.000000	116.205571
2265.000000	116.332526
2264.000000	116.453290
2263.000000	116.563289
2262.000000	116.664237
2261.000000	116.756462
2260.000000	116.839168
2259.000000	116.916713
2258.000000	116.997321
2257.000000	117.085209
2256.000000	117.178355
2255.000000	117.277396
2254.000000	117.385766
2253.000000	117.503592
2252.000000	117.626434
2251.000000	117.752660
2250.000000	117.884216
2249.000000	118.018600
2248.000000	118.150438
2247.000000	118.277612
2246.000000	118.401735
2245.000000	118.520323
2244.000000	118.627257
2243.000000	118.720995
2242.000000	118.805314
2241.000000	118.881770
2240.000000	118.948955
2239.000000	119.009346
2238.000000	119.068891
2237.000000	119.128907
2236.000000	119.185747
2235.000000	119.238286
2234.000000	119.288411
2233.000000	119.334159
2232.000000	119.370171
2231.000000	119.395736
2230.000000	119.414802
2229.000000	119.428180
2228.000000	119.433337
2227.000000	119.431732
2226.000000	119.428679
2225.000000	119.425345
2224.000000	119.418538
2223.000000	119.408475
2222.000000	119.399145
2221.000000	119.391131
2220.000000	119.381909
2219.000000	119.373578
2218.000000	119.372167
2217.000000	119.378706
2216.000000	119.388454
2215.000000	119.399277
2214.000000	119.412809
2213.000000	119.427240
2212.000000	119.437110
2211.000000	119.441356
2210.000000	119.444266
2209.000000	119.448288
2208.000000	119.453130
2207.000000	119.461700
2206.000000	119.478584
2205.000000	119.501988
2204.000000	119.524978
2203.000000	119.545107
2202.000000	119.565635
2201.000000	119.587618
2200.000000	119.609388
2199.000000	119.633885
2198.000000	119.667718
2197.000000	119.711866
2196.000000	119.760774
2195.000000	119.810912
2194.000000	119.862196
2193.000000	119.911191
2192.000000	119.951986
2191.000000	119.984736
2190.000000	120.015334
2189.000000	120.046054
2188.000000	120.074244
2187.000000	120.100349
2186.000000	120.128130
2185.000000	120.156374
2184.000000	120.178674
2183.000000	120.192564
2182.000000	120.201065
2181.000000	120.204710
2180.000000	120.200531
2179.000000	120.189353
2178.000000	120.176211
2177.000000	120.162652
2176.000000	120.146503
2175.000000	120.129325
2174.000000	120.116113
2173.000000	120.107398
2172.000000	120.099728
2171.000000	120.094088
2170.000000	120.095367
2169.000000	120.103425
2168.000000	120.112824
2167.000000	120.121560
2166.000000	120.131480
2165.000000	120.140128
2164.000000	120.141365
2163.000000	120.134885
2162.000000	120.126575
2161.000000	120.119218
2160.000000	120.111505
2159.000000	120.106252
2158.000000	120.110053
2157.000000	120.123697
2156.000000	120.141670
2155.000000	120.161667
2154.000000	120.186024
2153.000000	120.213457
2152.000000	120.238802
2151.000000	120.261614
2150.000000	120.286268
2149.000000	120.312761
2148.000000	120.336157
2147.000000	120.355732
2146.000000	120.375419
2145.000000	120.394647
2144.000000	120.408513
2143.000000	120.417777
2142.000000	120.429040
2141.000000	120.445003
2140.000000	120.463203
2139.000000	120.484134
2138.000000	120.510797
2137.000000	120.539942
2136.000000	120.563376
2135.000000	120.578737
2134.000000	120.589996
2133.000000	120.597324
2132.000000	120.596428
2131.000000	120.588265
2130.000000	120.579511
2129.000000	120.572282
2128.000000	120.562408
2127.000000	120.548621
2126.000000	120.534259
2125.000000	120.518962
2124.000000	120.498246
2123.000000	120.472204
2122.000000	120.445637
2121.000000	120.419070
2120.000000	120.388984
2119.000000	120.356719
2118.000000	120.327671
2117.000000	120.301489
2116.000000	120.272273
2115.000000	120.238731
2114.000000	120.204827
2113.000000	120.170827
2112.000000	120.133658
2111.000000	120.096350
2110.000000	120.067307
2109.000000	120.049888
2108.000000	120.041365
2107.000000	120.041527
2106.000000	120.052333
2105.000000	120.069431
2104.000000	120.084288
2103.000000	120.094786
2102.000000	120.104685
2101.000000	120.113004
2100.000000	120.114852
2099.000000	120.112044
2098.000000	120.112500
2097.000000	120.119264
2096.000000	120.129325
2095.000000	120.144484
2094.000000	120.171590
2093.000000	120.210910
2092.000000	120.255887
2091.000000	120.304766
2090.000000	120.361391
2089.000000	120.424692
2088.000000	120.488469
2087.000000	120.551998
2086.000000	120.618772
2085.000000	120.685285
2084.000000	120.742760
2083.000000	120.790349
2082.000000	120.834990
2081.000000	120.878584
2080.000000	120.917248
2079.000000	120.953034
2078.000000	120.993752
2077.000000	121.040687
2076.000000	121.088096
2075.000000	121.135840
2074.000000	121.188635
2073.000000	121.243042
2072.000000	121.289705
2071.000000	121.325995
2070.000000	121.357295
2069.000000	121.385145
2068.000000	121.405526
2067.000000	121.419019
2066.000000	121.431030
2065.000000	121.442816
2064.000000	121.452585
2063.000000	121.465381
2062.000000	121.489081
2061.000000	121.521250
2060.000000	121.552206
2059.000000	121.580712
2058.000000	121.613732
2057.000000	121.650761
2056.000000	121.682960
2055.000000	121.707681
2054.000000	121.729809
2053.000000	121.749167
2052.000000	121.760932
2051.000000	121.766614
2050.000000	121.774187
2049.000000	121.787109
2048.000000	121.802403
2047.000000	121.819678
2046.000000	121.843507
2045.000000	121.873681
2044.000000	121.903114
2043.000000	121.928459
2042.000000	121.953377
2041.000000	121.978933
2040.000000	122.000858
2039.000000	122.018781
2038.000000	122.036795
2037.000000	122.053423
2036.000000	122.061987
2035.000000	122.063388
2034.000000	122.066883
2033.000000	122.075743
2032.000000	122.085311
2031.000000	122.097332
2030.000000	122.121356
2029.000000	122.159105
2028.000000	122.200632
2027.000000	122.238191
2026.000000	122.273481
2025.000000	122.305983
2024.000000	122.329584
2023.000000	122.340698
2022.000000	122.344194
2021.000000	122.344779
2020.000000	122.339686
2019.000000	122.326271
2018.000000	122.309109
2017.000000	122.294162
2016.000000	122.283658
2015.000000	122.281201
2014.000000	122.291357
2013.000000	122.310033
2012.000000	122.324894
2011.000000	122.330715
2010.000000	122.334802
2009.000000	122.341330
2008.000000	122.343264
2007.000000	122.336246
2006.000000	122.327141
2005.000000	122.320356
2004.000000	122.311383
2003.000000	122.297420
2002.000000	122.285478
2001.000000	122.279999
2000.000000	122.276702
1999.000000	122.278048
1998.000000	122.289872
1997.000000	122.313036
1996.000000	122.344869
1995.000000	122.382591
1994.000000	122.418824
1993.000000	122.441286
1992.000000	122.445025
1991.000000	122.441256
1990.000000	122.443647
1989.000000	122.450845
1988.000000	122.452763
1987.000000	122.447319
1986.000000	122.442855
1985.000000	122.445702
1984.000000	122.454805
1983.000000	122.468401
1982.000000	122.486729
1981.000000	122.507861
1980.000000	122.529776
1979.000000	122.556012
1978.000000	122.583959
1977.000000	122.606258
1976.000000	122.622767
1975.000000	122.640368
1974.000000	122.659123
1973.000000	122.672685
1972.000000	122.682957
1971.000000	122.698532
1970.000000	122.718019
1969.000000	122.730375
1968.000000	122.732681
1967.000000	122.734660
1966.000000	122.745495
1965.000000	122.766662
1964.000000	122.796318
1963.000000	122.828650
1962.000000	122.851636
1961.000000	122.859167
1960.000000	122.863415
1959.000000	122.878607
1958.000000	122.896847
1957.000000	122.897748
1956.000000	122.877904
1955.000000	122.852158
1954.000000	122.829006
1953.000000	122.805125
1952.000000	122.780679
1951.000000	122.761503
1950.000000	122.751692
1949.000000	122.743195
1948.000000	122.727543
1947.000000	122.711516
1946.000000	122.702699
1945.000000	122.692787
1944.000000	122.668956
1943.000000	122.634059
1942.000000	122.604864
1941.000000	122.593943
1940.000000	122.605315
1939.000000	122.637282
1938.000000	122.678129
1937.000000	122.713093
1936.000000	122.743753
1935.000000	122.784260
1934.000000	122.835994
1933.000000	122.885180
1932.000000	122.922616
1931.000000	122.954303
1930.000000	122.991864
1929.000000	123.025007
1928.000000	123.039458
1927.000000	123.045503
1926.000000	123.059239
1925.000000	123.076462
1924.000000	123.067702
1923.000000	123.033075
1922.000000	123.009292
1921.000000	123.011580
1920.000000	123.018139
1919.000000	123.013062
1918.000000	123.007906
1917.000000	123.016751
1916.000000	123.031037
1915.000000	123.045266
1914.000000	123.062884
1913.000000	123.072508
1912.000000	123.054782
1911.000000	123.016575
1910.000000	122.984304
1909.000000	122.955679
1908.000000	122.912203
1907.000000	122.862345
1906.000000	122.831706
1905.000000	122.820542
1904.000000	122.790823
1903.000000	122.738912
1902.000000	122.702409
1901.000000	122.683471
1900.000000	122.650263
1899.000000	122.603795
1898.000000	122.576362
1897.000000	122.572759
1896.000000	122.554507
1895.000000	122.514328
1894.000000	122.496163
1893.000000	122.515894
1892.000000	122.534617
1891.000000	122.527315
1890.000000	122.514267
1889.000000	122.515518
1888.000000	122.524146
1887.000000	122.543354
1886.000000	122.591068
1885.000000	122.650365
1884.000000	122.678759
1883.000000	122.679343
1882.000000	122.696574
1881.000000	122.730607
1880.000000	122.741510
1879.000000	122.724961
1878.000000	122.714858
1877.000000	122.725752
1876.000000	122.731113
1875.000000	122.717681
1874.000000	122.718288
1873.000000	122.752859
1872.000000	122.790152
1871.000000	122.805744
1870.000000	122.815092
1869.000000	122.831801
1868.000000	122.841288
1867.000000	122.850491
1866.000000	122.898096
1865.000000	122.980973
1864.000000	123.044771
1863.000000	123.067049
1862.000000	123.089016
1861.000000	123.134211
1860.000000	123.169215
1859.000000	123.179189
1858.000000	123.205310
1857.000000	123.268120
1856.000000	123.328770
1855.000000	123.365616
1854.000000	123.409572
1853.000000	123.465572
1852.000000	123.500946
1851.000000	123.519554
1850.000000	123.544521
1849.000000	123.578117
1848.000000	123.600959
1847.000000	123.614926
1846.000000	123.636857
1845.000000	123.651543
1844.000000	123.644045
1843.000000	123.645054
1842.000000	123.682357
1841.000000	123.729238
1840.000000	123.753935
1839.000000	123.754786
1838.000000	123.755656
1837.000000	123.775426
1836.000000	123.799489
1835.000000	123.827635
1834.000000	123.876999
1833.000000	123.939431
1832.000000	123.992847
1831.000000	124.016232
1830.000000	123.999931
1829.000000	123.977456
1828.000000	123.985641
1827.000000	124.020842
1826.000000	124.061630
1825.000000	124.100608
1824.000000	124.139273
1823.000000	124.178973
1822.000000	124.224672
1821.000000	124.280353
1820.000000	124.330894
1819.000000	124.354182
1818.000000	124.370685
1817.000000	124.418031
1816.000000	124.473987
1815.000000	124.499998
1814.000000	124.508977
1813.000000	124.531370
1812.000000	124.550010
1811.000000	124.522303
1810.000000	124.487447
1809.000000	124.507141
1808.000000	124.548847
1807.000000	124.562516
1806.000000	124.576186
1805.000000	124.624732
1804.000000	124.669542
1803.000000	124.674045
1802.000000	124.669634
1801.000000	124.694666
1800.000000	124.729933
1799.000000	124.738789
1798.000000	124.751127
1797.000000	124.790605
1796.000000	124.812088
1795.000000	124.790196
1794.000000	124.763251
1793.000000	124.766501
1792.000000	124.778393
1791.000000	124.767964
1790.000000	124.771033
1789.000000	124.811161
1788.000000	124.846347
1787.000000	124.843736
1786.000000	124.843250
1785.000000	124.885556
1784.000000	124.936084
1783.000000	124.961004
1782.000000	124.966260
1781.000000	124.959304
1780.000000	124.953734
1779.000000	124.953404
1778.000000	124.972424
1777.000000	125.009518
1776.000000	125.054047
1775.000000	125.112455
1774.000000	125.172285
1773.000000	125.214664
1772.000000	125.256511
1771.000000	125.289137
1770.000000	125.291557
1769.000000	125.303929
1768.000000	125.364982
1767.000000	125.437013
1766.000000	125.479159
1765.000000	125.508928
1764.000000	125.556404
1763.000000	125.594307
1762.000000	125.581373
1761.000000	125.561668
1760.000000	125.587676
1759.000000	125.626007
1758.000000	125.639062
1757.000000	125.627011
1756.000000	125.643353
1755.000000	125.689176
1754.000000	125.695730
1753.000000	125.663501
1752.000000	125.665132
1751.000000	125.718466
1750.000000	125.751610
1749.000000	125.725834
1748.000000	125.682213
1747.000000	125.668262
1746.000000	125.654209
1745.000000	125.618602
1744.000000	125.603427
1743.000000	125.609331
1742.000000	125.602779
1741.000000	125.591989
1740.000000	125.608129
1739.000000	125.638018
1738.000000	125.644079
1737.000000	125.621221
1736.000000	125.600013
1735.000000	125.575713
1734.000000	125.568418
1733.000000	125.601206
1732.000000	125.614739
1731.000000	125.557279
1730.000000	125.471686
1729.000000	125.389396
1728.000000	125.330279
1727.000000	125.309165
1726.000000	125.302440
1725.000000	125.296104
1724.000000	125.281053
1723.000000	125.247803
1722.000000	125.237860
1721.000000	125.275720
1720.000000	125.313466
1719.000000	125.272374
1718.000000	125.190567
1717.000000	125.198062
1716.000000	125.222040
1715.000000	125.154145
1714.000000	125.099537
1713.000000	125.145460
1712.000000	125.201985
1711.000000	125.209555
1710.000000	125.249301
1709.000000	125.369057
1708.000000	125.496718
1707.000000	125.567657
1706.000000	125.630521
1705.000000	125.746272
1704.000000	125.844639
1703.000000	125.884069
1702.000000	125.947834
1701.000000	126.067878
1700.000000	126.187565
1699.000000	126.232233
1698.000000	126.260585
1697.000000	126.340489
1696.000000	126.428773
1695.000000	126.464306
1694.000000	126.493329
1693.000000	126.530270
1692.000000	126.559031
1691.000000	126.578936
1690.000000	126.594861
1689.000000	126.616321
1688.000000	126.671841
1687.000000	126.779753
1686.000000	126.891645
1685.000000	126.888261
1684.000000	126.799719
1683.000000	126.785001
1682.000000	126.829160
1681.000000	126.812832
1680.000000	126.785809
1679.000000	126.819835
1678.000000	126.881279
1677.000000	126.907102
1676.000000	126.918112
1675.000000	126.985301
1674.000000	127.051806
1673.000000	127.031789
1672.000000	126.973932
1671.000000	126.935587
1670.000000	126.886706
1669.000000	126.782241
1668.000000	126.679628
1667.000000	126.638719
1666.000000	126.608095
1665.000000	126.528890
1664.000000	126.400271
1663.000000	126.277066
1662.000000	126.181111
1661.000000	126.046478
1660.000000	125.891234
1659.000000	125.783229
1658.000000	125.684019
1657.000000	125.545211
1656.000000	125.416370
1655.000000	125.323594
1654.000000	125.020843
1653.000000	124.495043
1652.000000	124.037888
1651.000000	123.642221
1650.000000	123.126956
1649.000000	122.496588
1648.000000	121.672392
1647.000000	120.579447
1646.000000	119.325670
1645.000000	118.055056
1644.000000	116.752585
1643.000000	115.369975
1642.000000	113.937373
1641.000000	112.534535
1640.000000	111.312415
1639.000000	110.383458
1638.000000	109.780728
1637.000000	109.498854
1636.000000	109.591486
1635.000000	110.099511
1634.000000	110.856300
1633.000000	111.675036
1632.000000	112.504875
1631.000000	113.383315
1630.000000	114.307850
1629.000000	115.215237
1628.000000	116.054666
1627.000000	116.822901
1626.000000	117.503745
1625.000000	118.073198
1624.000000	118.562661
1623.000000	119.034987
1622.000000	119.481305
1621.000000	119.836884
1620.000000	120.140260
1619.000000	120.488196
1618.000000	120.873171
1617.000000	121.196618
1616.000000	121.442163
1615.000000	121.659865
1614.000000	121.817920
1613.000000	121.865862
1612.000000	121.835549
1611.000000	121.784814
1610.000000	121.669602
1609.000000	121.371042
1608.000000	120.861867
1607.000000	120.180880
1606.000000	119.246089
1605.000000	117.887479
1604.000000	116.074029
1603.000000	113.887783
1602.000000	111.392663
1601.000000	108.650114
1600.000000	105.699511
1599.000000	102.399459
1598.000000	98.316225
1597.000000	92.996023
1596.000000	86.442941
1595.000000	79.286561
1594.000000	72.475853
1593.000000	66.797654
1592.000000	62.694971
1591.000000	60.309050
1590.000000	59.460294
1589.000000	59.634533
1588.000000	60.204628
1587.000000	60.679557
1586.000000	60.728501
1585.000000	60.218745
1584.000000	59.339213
1583.000000	58.519397
1582.000000	58.080759
1581.000000	58.071482
1580.000000	58.433836
1579.000000	59.130305
1578.000000	60.042824
1577.000000	60.896410
1576.000000	61.464044
1575.000000	61.801562
1574.000000	62.060992
1573.000000	62.331525
1572.000000	62.817430
1571.000000	63.889660
1570.000000	65.831738
1569.000000	68.481428
1568.000000	71.458294
1567.000000	74.598931
1566.000000	77.834731
1565.000000	80.953754
1564.000000	83.702378
1563.000000	86.032256
1562.000000	88.089202
1561.000000	90.119720
1560.000000	92.433339
1559.000000	95.205510
1558.000000	97.905484
1557.000000	99.969460
1556.000000	101.526752
1555.000000	102.957473
1554.000000	104.351565
1553.000000	105.586055
1552.000000	106.630036
1551.000000	107.552595
1550.000000	108.408787
1549.000000	109.180983
1548.000000	109.855257
1547.000000	110.487723
1546.000000	111.115423
1545.000000	111.704217
1544.000000	112.223414
1543.000000	112.689415
1542.000000	113.149035
1541.000000	113.604929
1540.000000	114.022994
1539.000000	114.431147
1538.000000	114.820163
1537.000000	115.120259
1536.000000	115.357609
1535.000000	115.612591
1534.000000	115.889793
1533.000000	116.158023
1532.000000	116.408060
1531.000000	116.630852
1530.000000	116.842638
1529.000000	117.046833
1528.000000	117.198573
1527.000000	117.302616
1526.000000	117.416920
1525.000000	117.567404
1524.000000	117.738272
1523.000000	117.905422
1522.000000	118.062965
1521.000000	118.223204
1520.000000	118.370862
1519.000000	118.480865
1518.000000	118.553853
1517.000000	118.607640
1516.000000	118.641188
1515.000000	118.658480
1514.000000	118.679294
1513.000000	118.735077
1512.000000	118.807793
1511.000000	118.847796
1510.000000	118.868755
1509.000000	118.938018
1508.000000	119.022124
1507.000000	119.029935
1506.000000	119.078492
1505.000000	119.251658
1504.000000	119.399192
1503.000000	119.450031
1502.000000	119.473026
1501.000000	119.522801
1500.000000	119.596783
1499.000000	119.648009
1498.000000	119.677043
1497.000000	119.777614
1496.000000	119.975282
1495.000000	120.183865
1494.000000	120.371594
1493.000000	120.569530
1492.000000	120.773226
1491.000000	120.941866
1490.000000	121.091473
1489.000000	121.279598
1488.000000	121.471675
1487.000000	121.618730
1486.000000	121.775232
1485.000000	121.933938
1484.000000	122.037584
1483.000000	122.094189
1482.000000	122.137108
1481.000000	122.184018
1480.000000	122.218033
1479.000000	122.247919
1478.000000	122.308098
1477.000000	122.405229
1476.000000	122.492987
1475.000000	122.571299
1474.000000	122.691113
1473.000000	122.852395
1472.000000	123.017834
1471.000000	123.140527
1470.000000	123.199906
1469.000000	123.186497
1468.000000	123.071000
1467.000000	122.812740
1466.000000	122.347755
1465.000000	121.591650
1464.000000	120.533539
1463.000000	119.183178
1462.000000	117.503785
1461.000000	115.474282
1460.000000	113.093131
1459.000000	110.300641
1458.000000	106.972871
1457.000000	103.409147
1456.000000	100.384212
1455.000000	98.173953
1454.000000	96.373212
1453.000000	94.690486
1452.000000	93.226774
1451.000000	92.252447
1450.000000	91.987770
1449.000000	92.529557
1448.000000	93.788438
1447.000000	95.459277
1446.000000	97.228702
1445.000000	99.031553
1444.000000	100.981941
1443.000000	103.060889
1442.000000	105.088822
1441.000000	106.926095
1440.000000	108.534043
1439.000000	109.905575
1438.000000	111.081864
1437.000000	112.201804
1436.000000	113.337914
1435.000000	114.361636
1434.000000	115.178513
1433.000000	115.888805
1432.000000	116.584627
1431.000000	117.210774
1430.000000	117.696451
1429.000000	118.104340
1428.000000	118.509640
1427.000000	118.897601
1426.000000	119.222807
1425.000000	119.502480
1424.000000	119.816728
1423.000000	120.142708
1422.000000	120.399785
1421.000000	120.589059
1420.000000	120.754847
1419.000000	120.866301
1418.000000	120.884386
1417.000000	120.910446
1416.000000	121.030687
1415.000000	121.195591
1414.000000	121.320870
1413.000000	121.416426
1412.000000	121.549167
1411.000000	121.694284
1410.000000	121.777807
1409.000000	121.812701
1408.000000	121.828158
1407.000000	121.771206
1406.000000	121.545387
1405.000000	121.113282
1404.000000	120.541956
1403.000000	119.892581
1402.000000	119.190786
1401.000000	118.490791
1400.000000	117.868708
1399.000000	117.356014
1398.000000	116.945654
1397.000000	116.687942
1396.000000	116.708853
1395.000000	117.108214
1394.000000	117.815866
1393.000000	118.647610
1392.000000	119.461669
1391.000000	120.164417
1390.000000	120.700312
1389.000000	121.094494
1388.000000	121.446355
1387.000000	121.839540
1386.000000	122.260272
1385.000000	122.632626
1384.000000	122.898611
1383.000000	123.022513
1382.000000	123.010639
1381.000000	122.932959
1380.000000	122.868843
1379.000000	122.847886
1378.000000	122.843635
1377.000000	122.805072
1376.000000	122.674031
1375.000000	122.381514
1374.000000	121.849675
1373.000000	121.027924
1372.000000	119.882121
1371.000000	118.343437
1370.000000	116.329628
1369.000000	113.897554
1368.000000	111.398855
1367.000000	109.346622
1366.000000	108.097552
1365.000000	107.694714
1364.000000	107.958555
1363.000000	108.678153
1362.000000	109.746850
1361.000000	111.155881
1360.000000	112.860624
1359.000000	114.692538
1358.000000	116.414625
1357.000000	117.843767
1356.000000	118.925931
1355.000000	119.706979
1354.000000	120.271979
1353.000000	120.713885
1352.000000	121.095157
1351.000000	121.441002
1350.000000	121.754431
1349.000000	122.032153
1348.000000	122.286370
1347.000000	122.523167
1346.000000	122.733177
1345.000000	122.911567
1344.000000	123.067003
1343.000000	123.202146
1342.000000	123.305098
1341.000000	123.368797
1340.000000	123.404776
1339.000000	123.430783
1338.000000	123.455057
1337.000000	123.487106
1336.000000	123.539194
1335.000000	123.610389
1334.000000	123.688522
1333.000000	123.769149
1332.000000	123.855559
1331.000000	123.939080
1330.000000	123.994887
1329.000000	124.003483
1328.000000	123.954865
1327.000000	123.830044
1326.000000	123.586705
1325.000000	123.166918
1324.000000	122.515992
1323.000000	121.570112
1322.000000	120.271170
1321.000000	118.632586
1320.000000	116.783183
1319.000000	114.929979
1318.000000	113.261859
1317.000000	111.887368
1316.000000	110.855967
1315.000000	110.223573
1314.000000	110.064393
1313.000000	110.405020
1312.000000	111.138527
1311.000000	112.024466
1310.000000	112.836967
1309.000000	113.525169
1308.000000	114.214865
1307.000000	115.060496
1306.000000	116.099732
1305.000000	117.241577
1304.000000	118.351047
1303.000000	119.313656
1302.000000	120.066566
1301.000000	120.611988
1300.000000	120.988590
1299.000000	121.222795
1298.000000	121.314694
1297.000000	121.260003
1296.000000	121.062138
1295.000000	120.710329
1294.000000	120.178626
1293.000000	119.456846
1292.000000	118.561904
1291.000000	117.528144
1290.000000	116.390918
1289.000000	115.166182
1288.000000	113.802592
1287.000000	112.154362
1286.000000	110.082605
1285.000000	107.650057
1284.000000	105.213040
1283.000000	103.298938
1282.000000	102.360811
1281.000000	102.570699
1280.000000	103.784802
1279.000000	105.639143
1278.000000	107.696524
1277.000000	109.596876
1276.000000	111.102829
1275.000000	112.078094
1274.000000	112.520028
1273.000000	112.638744
1272.000000	112.826290
1271.000000	113.431575
1270.000000	114.528079
1269.000000	115.906084
1268.000000	117.271409
1267.000000	118.432796
1266.000000	119.347706
1265.000000	120.067163
1264.000000	120.660395
1263.000000	121.167935
1262.000000	121.600095
1261.000000	121.966292
1260.000000	122.286271
1259.000000	122.571216
1258.000000	122.818872
1257.000000	123.031223
1256.000000	123.219963
1255.000000	123.389486
1254.000000	123.532592
1253.000000	123.650605
1252.000000	123.757136
1251.000000	123.858363
1250.000000	123.947587
1249.000000	124.023444
1248.000000	124.096986
1247.000000	124.172326
1246.000000	124.239409
1245.000000	124.294364
1244.000000	124.346694
1243.000000	124.400412
1242.000000	124.447633
1241.000000	124.486922
1240.000000	124.528682
1239.000000	124.575841
1238.000000	124.618465
1237.000000	124.652098
1236.000000	124.681528
1235.000000	124.701691
1234.000000	124.693547
1233.000000	124.646536
1232.000000	124.565050
1231.000000	124.446849
1230.000000	124.278075
1229.000000	124.049220
1228.000000	123.757802
1227.000000	123.382183
1226.000000	122.866791
1225.000000	122.144011
1224.000000	121.138830
1223.000000	119.768171
1222.000000	117.965567
1221.000000	115.726366
1220.000000	113.141614
1219.000000	110.365667
1218.000000	107.561260
1217.000000	104.861120
1216.000000	102.343603
1215.000000	100.023006
1214.000000	97.873163
1213.000000	95.882187
1212.000000	94.082883
1211.000000	92.529542
1210.000000	91.246767
1209.000000	90.241411
1208.000000	89.541012
1207.000000	89.183291
1206.000000	89.189906
1205.000000	89.542268
1204.000000	90.190120
1203.000000	91.057861
1202.000000	92.058976
1201.000000	93.162950
1200.000000	94.419008
1199.000000	95.905495
1198.000000	97.659445
1197.000000	99.653078
1196.000000	101.818106
1195.000000	104.054415
1194.000000	106.245499
1193.000000	108.299657
1192.000000	110.173188
1191.000000	111.845587
1190.000000	113.300312
1189.000000	114.539022
1188.000000	115.584824
1187.000000	116.463093
1186.000000	117.181553
1185.000000	117.750419
1184.000000	118.196296
1183.000000	118.537696
1182.000000	118.777319
1181.000000	118.915257
1180.000000	118.963154
1179.000000	118.936728
1178.000000	118.848024
1177.000000	118.720670
1176.000000	118.588080
1175.000000	118.471620
1174.000000	118.375992
1173.000000	118.309852
1172.000000	118.293281
1171.000000	118.336963
1170.000000	118.432657
1169.000000	118.571609
1168.000000	118.753513
1167.000000	118.965400
1166.000000	119.172781
1165.000000	119.343436
1164.000000	119.464601
1163.000000	119.535281
1162.000000	119.565845
1161.000000	119.594071
1160.000000	119.675975
1159.000000	119.843467
1158.000000	120.085045
1157.000000	120.373921
1156.000000	120.694848
1155.000000	121.034492
1154.000000	121.369919
1153.000000	121.681957
1152.000000	121.961302
1151.000000	122.191403
1150.000000	122.346683
1149.000000	122.421943
1148.000000	122.442207
1147.000000	122.435735
1146.000000	122.415312
1145.000000	122.388816
1144.000000	122.365953
1143.000000	122.334317
1142.000000	122.251136
1141.000000	122.073859
1140.000000	121.774044
1139.000000	121.323706
1138.000000	120.672249
1137.000000	119.757199
1136.000000	118.517554
1135.000000	116.857562
1134.000000	114.644197
1133.000000	111.725929
1132.000000	107.976867
1131.000000	103.363937
1130.000000	98.019637
1129.000000	92.322638
1128.000000	86.882101
1127.000000	82.363986
1126.000000	79.236385
1125.000000	77.635705
1124.000000	77.373363
1123.000000	78.020464
1122.000000	79.026590
1121.000000	79.849284
1120.000000	80.079601
1119.000000	79.453319
1118.000000	77.873733
1117.000000	75.575626
1116.000000	73.261104
1115.000000	71.953953
1114.000000	72.501391
1113.000000	75.115215
1112.000000	79.320811
1111.000000	84.240699
1110.000000	88.976059
1109.000000	92.876722
1108.000000	95.626338
1107.000000	97.167598
1106.000000	97.587198
1105.000000	97.079374
1104.000000	96.022611
1103.000000	95.026522
1102.000000	94.756588
1101.000000	95.614226
1100.000000	97.530601
1099.000000	100.062026
1098.000000	102.698117
1097.000000	105.110214
1096.000000	107.177312
1095.000000	108.888658
1094.000000	110.282065
1093.000000	111.433223
1092.000000	112.427285
1091.000000	113.323048
1090.000000	114.153643
1089.000000	114.951260
1088.000000	115.747828
1087.000000	116.541901
1086.000000	117.302739
1085.000000	118.001785
1084.000000	118.620877
1083.000000	119.143274
1082.000000	119.557116
1081.000000	119.874986
1080.000000	120.124395
1079.000000	120.317991
1078.000000	120.457352
1077.000000	120.549007
1076.000000	120.597683
1075.000000	120.584283
1074.000000	120.466138
1073.000000	120.210959
1072.000000	119.790827
1071.000000	119.158394
1070.000000	118.245766
1069.000000	116.961916
1068.000000	115.198865
1067.000000	112.798649
1066.000000	109.572930
1065.000000	105.394948
1064.000000	100.275806
1063.000000	94.438371
1062.000000	88.289503
1061.000000	82.293434
1060.000000	76.772167
1059.000000	71.743943
1058.000000	66.959943
1057.000000	62.228166
1056.000000	57.820342
1055.000000	54.551350
1054.000000	53.463457
1053.000000	55.214760
1052.000000	59.673105
1051.000000	65.960787
1050.000000	72.856044
1049.000000	79.360251
1048.000000	84.960048
1047.000000	89.561127
1046.000000	93.297809
1045.000000	96.378305
1044.000000	98.982391
1043.000000	101.210083
1042.000000	103.097708
1041.000000	104.662536
1040.000000	105.947861
1039.000000	106.997763
1038.000000	107.850742
1037.000000	108.557946
1036.000000	109.170025
1035.000000	109.720848
1034.000000	110.222561
1033.000000	110.690200
1032.000000	111.146501
1031.000000	111.597234
1030.000000	112.031400
1029.000000	112.441645
1028.000000	112.828956
1027.000000	113.188041
1026.000000	113.508254
1025.000000	113.793197
1024.000000	114.056399
1023.000000	114.298531
1022.000000	114.509923
1021.000000	114.688273
1020.000000	114.836905
1019.000000	114.941050
1018.000000	114.964581
1017.000000	114.872034
1016.000000	114.615151
1015.000000	114.118163
1014.000000	113.284371
1013.000000	112.023688
1012.000000	110.280993
1011.000000	108.040955
1010.000000	105.362630
1009.000000	102.408444
1008.000000	99.432844
1007.000000	96.756595
1006.000000	94.755904
1005.000000	93.791353
1004.000000	94.029924
1003.000000	95.275329
1002.000000	96.992747
1001.000000	98.570810
1000.000000	99.563479
999.000000	99.734508
998.000000	99.008647
997.000000	97.501377
996.000000	95.591087
995.000000	93.848735
994.000000	92.780004
993.000000	92.584807
992.000000	93.139162
991.000000	94.186564
990.000000	95.544189
989.000000	97.164656
988.000000	99.057342
987.000000	101.160220
986.000000	103.317043
985.000000	105.356778
984.000000	107.168845
983.000000	108.714109
982.000000	110.001019
981.000000	111.066963
980.000000	111.955915
979.000000	112.701378
978.000000	113.319210
977.000000	113.827947
976.000000	114.252811
975.000000	114.609318
974.000000	114.907295
973.000000	115.162945
972.000000	115.400819
971.000000	115.637085
970.000000	115.874478
969.000000	116.117363
968.000000	116.371736
967.000000	116.631122
966.000000	116.876678
965.000000	117.094539
964.000000	117.281622
963.000000	117.433471
962.000000	117.544560
961.000000	117.622123
960.000000	117.683903
959.000000	117.741825
958.000000	117.799869
957.000000	117.867323
956.000000	117.957482
955.000000	118.070965
954.000000	118.195834
953.000000	118.324528
952.000000	118.456398
951.000000	118.583937
950.000000	118.693011
949.000000	118.778532
948.000000	118.844767
947.000000	118.890864
946.000000	118.911972
945.000000	118.913740
944.000000	118.910682
943.000000	118.909969
942.000000	118.912057
941.000000	118.926197
940.000000	118.967560
939.000000	119.038175
938.000000	119.126045
937.000000	119.222987
936.000000	119.327036
935.000000	119.428377
934.000000	119.510888
933.000000	119.569366
932.000000	119.610198
931.000000	119.635443
930.000000	119.641842
929.000000	119.635074
928.000000	119.628991
927.000000	119.630787
926.000000	119.642001
925.000000	119.671540
924.000000	119.730447
923.000000	119.814128
922.000000	119.905882
921.000000	119.996387
920.000000	120.084003
919.000000	120.159284
918.000000	120.207866
917.000000	120.228194
916.000000	120.229961
915.000000	120.216787
914.000000	120.187615
913.000000	120.153112
912.000000	120.131958
911.000000	120.131708
910.000000	120.149090
909.000000	120.186249
908.000000	120.248700
907.000000	120.329056
906.000000	120.410508
905.000000	120.484650
904.000000	120.548847
903.000000	120.590160
902.000000	120.589882
901.000000	120.543031
900.000000	120.453608
899.000000	120.312674
898.000000	120.102592
897.000000	119.820920
896.000000	119.492499
895.000000	119.159539
894.000000	118.862521
893.000000	118.610521
892.000000	118.350690
891.000000	117.993832
890.000000	117.510323
889.000000	116.993961
888.000000	116.591005
887.000000	116.372211
886.000000	116.299709
885.000000	116.309003
884.000000	116.377912
883.000000	116.499350
882.000000	116.645769
881.000000	116.795152
880.000000	116.972123
879.000000	117.236189
878.000000	117.627673
877.000000	118.136178
876.000000	118.702548
875.000000	119.243508
874.000000	119.691401
873.000000	120.024353
872.000000	120.256936
871.000000	120.406431
870.000000	120.482441
869.000000	120.497180
868.000000	120.464884
867.000000	120.385560
866.000000	120.248892
865.000000	120.060330
864.000000	119.848739
863.000000	119.653532
862.000000	119.516657
861.000000	119.479162
860.000000	119.560192
859.000000	119.735553
858.000000	119.950826
857.000000	120.159197
856.000000	120.337496
855.000000	120.473368
854.000000	120.562534
853.000000	120.617912
852.000000	120.661558
851.000000	120.704643
850.000000	120.749004
849.000000	120.803350
848.000000	120.879612
847.000000	120.975386
846.000000	121.076934
845.000000	121.177344
844.000000	121.274482
843.000000	121.356246
842.000000	121.407483
841.000000	121.428793
840.000000	121.431609
839.000000	121.418310
838.000000	121.385553
837.000000	121.342885
836.000000	121.308001
835.000000	121.286956
834.000000	121.276740
833.000000	121.283304
832.000000	121.317375
831.000000	121.375313
830.000000	121.442721
829.000000	121.514317
828.000000	121.591478
827.000000	121.663973
826.000000	121.715170
825.000000	121.742538
824.000000	121.752678
823.000000	121.741056
822.000000	121.700017
821.000000	121.641407
820.000000	121.588898
819.000000	121.552145
818.000000	121.527606
817.000000	121.517961
816.000000	121.527869
815.000000	121.545037
814.000000	121.544493
813.000000	121.505898
812.000000	121.408552
811.000000	121.219340
810.000000	120.918121
809.000000	120.540109
808.000000	120.172368
807.000000	119.901301
806.000000	119.769965
805.000000	119.772788
804.000000	119.868361
803.000000	119.998507
802.000000	120.115544
801.000000	120.199962
800.000000	120.245204
799.000000	120.234319
798.000000	120.142764
797.000000	119.954593
796.000000	119.656601
795.000000	119.226945
794.000000	118.651079
793.000000	117.943942
792.000000	117.149555
791.000000	116.327336
790.000000	115.551338
789.000000	114.904873
788.000000	114.451208
787.000000	114.207187
786.000000	114.153445
785.000000	114.258440
784.000000	114.476749
783.000000	114.742718
782.000000	114.988186
781.000000	115.168999
780.000000	115.267201
779.000000	115.284328
778.000000	115.254584
777.000000	115.248349
776.000000	115.336205
775.000000	115.548569
774.000000	115.877255
773.000000	116.300890
772.000000	116.789725
771.000000	117.301739
770.000000	117.799866
769.000000	118.268298
768.000000	118.697954
767.000000	119.067876
766.000000	119.359016
765.000000	119.572833
764.000000	119.720293
763.000000	119.805630
762.000000	119.838812
761.000000	119.848294
760.000000	119.861152
759.000000	119.883822
758.000000	119.916440
757.000000	119.969108
756.000000	120.045296
755.000000	120.126730
754.000000	120.194922
753.000000	120.251409
752.000000	120.299162
751.000000	120.322540
750.000000	120.305444
749.000000	120.252563
748.000000	120.172655
747.000000	120.059719
746.000000	119.911879
745.000000	119.748632
744.000000	119.587787
743.000000	119.425093
742.000000	119.257022
741.000000	119.101307
740.000000	118.972909
739.000000	118.861834
738.000000	118.755478
737.000000	118.656838
736.000000	118.556676
735.000000	118.415027
734.000000	118.198416
733.000000	117.913071
732.000000	117.580988
731.000000	117.216048
730.000000	116.848960
729.000000	116.540918
728.000000	116.347823
727.000000	116.285442
726.000000	116.345924
725.000000	116.527527
724.000000	116.814447
723.000000	117.152253
722.000000	117.480840
721.000000	117.778320
720.000000	118.046944
719.000000	118.277606
718.000000	118.458281
717.000000	118.595374
716.000000	118.696265
715.000000	118.752450
714.000000	118.766006
713.000000	118.767498
712.000000	118.782978
711.000000	118.807843
710.000000	118.839657
709.000000	118.899090
708.000000	118.994821
707.000000	119.101072
706.000000	119.188464
705.000000	119.258236
704.000000	119.315424
703.000000	119.333261
702.000000	119.295438
701.000000	119.231785
700.000000	119.170310
699.000000	119.106779
698.000000	119.040962
697.000000	119.011575
696.000000	119.046018
695.000000	119.106404
694.000000	119.157052
693.000000	119.215965
692.000000	119.289849
691.000000	119.333715
690.000000	119.314481
689.000000	119.273840
688.000000	119.252026
687.000000	119.204686
686.000000	119.095250
685.000000	118.977037
684.000000	118.902471
683.000000	118.842760
682.000000	118.777570
681.000000	118.767089
680.000000	118.847905
679.000000	118.948522
678.000000	119.031615
677.000000	119.131142
676.000000	119.235198
675.000000	119.329938
674.000000	119.411733
673.000000	119.509354
672.000000	119.717410
671.000000	120.150555
670.000000	120.813958
669.000000	121.271170
668.000000	120.876767
667.000000	120.025626
666.000000	119.509940
665.000000	119.311941
664.000000	119.279763
663.000000	119.339761
662.000000	119.444008
661.000000	119.554830
660.000000	119.633865
659.000000	119.655145
658.000000	119.622246
657.000000	119.517655
656.000000	119.318692
655.000000	119.121387
654.000000	118.990947
653.000000	118.876580
652.000000	118.764542
651.000000	118.732630
650.000000	118.801773
649.000000	118.877273
648.000000	118.912609
647.000000	118.968763
646.000000	119.060466
645.000000	119.108976
644.000000	119.075286
643.000000	119.012736
642.000000	118.956737
641.000000	118.863421
640.000000	118.713764
639.000000	118.569951
638.000000	118.470092
637.000000	118.380153
636.000000	118.294439
635.000000	118.269475
634.000000	118.327233
633.000000	118.417953
632.000000	118.506515
631.000000	118.610175
630.000000	118.719029
629.000000	118.765765
628.000000	118.716899
627.000000	118.610185
626.000000	118.471515
625.000000	118.288238
624.000000	118.077201
623.000000	117.906642
622.000000	117.819933
621.000000	117.797947
620.000000	117.817810
619.000000	117.880747
618.000000	117.970172
617.000000	118.045957
616.000000	118.097207
615.000000	118.141779
614.000000	118.162309
613.000000	118.111022
612.000000	117.985436
611.000000	117.834730
610.000000	117.687670
609.000000	117.529438
608.000000	117.362719
607.000000	117.224924
606.000000	117.127017
605.000000	117.051266
604.000000	117.003088
603.000000	117.006297
602.000000	117.044779
601.000000	117.060962
600.000000	117.017014
599.000000	116.908745
598.000000	116.714786
597.000000	116.394001
596.000000	115.945483
595.000000	115.415091
594.000000	114.824432
593.000000	114.133206
592.000000	113.280004
591.000000	112.240836
590.000000	111.078937
589.000000	109.993753
588.000000	109.284562
587.000000	109.154651
586.000000	109.521952
585.000000	110.098379
584.000000	110.678334
583.000000	111.253076
582.000000	111.855778
581.000000	112.438516
580.000000	112.932129
579.000000	113.321408
578.000000	113.603721
577.000000	113.764027
576.000000	113.834113
575.000000	113.900792
574.000000	114.011649
573.000000	114.138983
572.000000	114.258260
571.000000	114.382161
570.000000	114.497112
569.000000	114.537118
568.000000	114.457354
567.000000	114.258324
566.000000	113.916961
565.000000	113.366972
564.000000	112.578944
563.000000	111.615253
562.000000	110.580413
561.000000	109.575438
560.000000	108.706605
559.000000	108.052949
558.000000	107.588377
557.000000	107.218502
556.000000	106.940028
555.000000	106.888645
554.000000	107.194319
553.000000	107.846682
552.000000	108.721830
551.000000	109.656111
550.000000	110.469911
549.000000	111.027161
548.000000	111.320969
547.000000	111.452791
546.000000	111.513301
545.000000	111.533340
544.000000	111.543583
543.000000	111.593705
542.000000	111.689735
541.000000	111.778699
540.000000	111.825495
539.000000	111.839903
538.000000	111.816140
537.000000	111.715620
536.000000	111.531724
535.000000	111.306984
534.000000	111.067891
533.000000	110.807962
532.000000	110.538529
531.000000	110.309757
530.000000	110.151270
529.000000	110.038838
528.000000	109.940817
527.000000	109.853299
526.000000	109.757682
525.000000	109.605019
524.000000	109.370440
523.000000	109.056298
522.000000	108.643344
521.000000	108.098272
520.000000	107.440669
519.000000	106.743331
518.000000	106.048568
517.000000	105.348026
516.000000	104.664330
515.000000	104.073655
514.000000	103.631100
513.000000	103.345864
512.000000	103.238097
511.000000	103.354856
510.000000	103.696133
509.000000	104.185284
508.000000	104.746014
507.000000	105.360587
506.000000	106.020942
505.000000	106.691158
504.000000	107.349787
503.000000	108.005227
502.000000	108.641886
501.000000	109.206709
500.000000	109.676187
499.000000	110.084646
498.000000	110.461064
497.000000	110.802664
496.000000	111.119642
495.000000	111.446543
494.000000	111.790335
493.000000	112.099800
492.000000	112.330563
491.000000	112.490761
490.000000	112.587522
489.000000	112.597124
488.000000	112.506980
487.000000	112.349813
486.000000	112.148534
485.000000	111.864476
484.000000	111.448605
483.000000	110.903940
482.000000	110.260615
481.000000	109.542955
480.000000	108.818618
479.000000	108.203065
478.000000	107.751218
477.000000	107.408456
476.000000	107.105783
475.000000	106.841995
474.000000	106.628705
473.000000	106.454957
472.000000	106.370172
471.000000	106.504254
470.000000	106.916181
469.000000	107.524448
468.000000	108.233881
467.000000	109.007800
466.000000	109.801088
465.000000	110.536621
464.000000	111.164486
463.000000	111.702227
462.000000	112.174549
461.000000	112.558788
460.000000	112.828181
459.000000	112.982552
458.000000	113.026608
457.000000	112.986258
456.000000	112.933733
455.000000	112.927261
454.000000	112.948816
453.000000	112.943613
452.000000	112.919817
451.000000	112.946827
450.000000	113.034551
449.000000	113.119116
448.000000	113.171030
447.000000	113.222656
446.000000	113.275095
445.000000	113.277063
444.000000	113.203558
443.000000	113.093955
442.000000	112.978944
441.000000	112.843519
440.000000	112.699594
439.000000	112.595859
438.000000	112.534057
437.000000	112.455837
436.000000	112.348959
435.000000	112.273184
434.000000	112.234179
433.000000	112.140824
432.000000	111.938428
431.000000	111.685457
430.000000	111.456299
429.000000	111.236847
428.000000	111.006288
427.000000	110.822604
426.000000	110.712376
425.000000	110.583764
424.000000	110.384664
423.000000	110.241734
422.000000	110.273776
421.000000	110.392692
420.000000	110.438959
419.000000	110.456121
418.000000	110.607464
417.000000	110.856791
416.000000	111.091539
415.000000	111.309094
414.000000	111.502869
413.000000	111.582306
412.000000	111.502988
411.000000	111.356913
410.000000	111.243379
409.000000	111.123665
408.000000	110.957545
407.000000	110.836194
406.000000	110.818248
405.000000	110.791237
404.000000	110.709721
403.000000	110.718085
402.000000	110.926297
401.000000	111.152505
400.000000	111.211988
