PE IR       SUBTECH     SPECTRUM    ASCII       PEDS        4.00        
   -1
23MS216trans.asc
24/09/24
17:10:10.00
24/09/24
17:10:10.00
Administrator
Sample 1205 By Administrator Date Tuesday, September 24 2024
400.000000
#HDR
-1
-1
#GR
cm-1
%T
1.0
0.0
4000.000000
-1.000000
3601
8
99.609146
14.874337
#DATA
4000.000000	76.351225
3999.000000	76.303540
3998.000000	76.256663
3997.000000	76.213443
3996.000000	76.174475
3995.000000	76.138211
3994.000000	76.103804
3993.000000	76.072536
3992.000000	76.045780
3991.000000	76.022258
3990.000000	75.997555
3989.000000	75.965982
3988.000000	75.923024
3987.000000	75.867726
3986.000000	75.804174
3985.000000	75.739648
3984.000000	75.679998
3983.000000	75.626411
3982.000000	75.575666
3981.000000	75.523430
3980.000000	75.468045
3979.000000	75.412626
3978.000000	75.364589
3977.000000	75.333041
3976.000000	75.324794
3975.000000	75.340522
3974.000000	75.374855
3973.000000	75.422546
3972.000000	75.483041
3971.000000	75.557782
3970.000000	75.645297
3969.000000	75.737844
3968.000000	75.823209
3967.000000	75.890180
3966.000000	75.935487
3965.000000	75.967228
3964.000000	76.000211
3963.000000	76.044545
3962.000000	76.098087
3961.000000	76.149981
3960.000000	76.190624
3959.000000	76.216677
3958.000000	76.232006
3957.000000	76.243309
3956.000000	76.254320
3955.000000	76.262248
3954.000000	76.262382
3953.000000	76.258677
3952.000000	76.268681
3951.000000	76.320010
3950.000000	76.433251
3949.000000	76.598091
3948.000000	76.768684
3947.000000	76.897101
3946.000000	76.973842
3945.000000	77.033586
3944.000000	77.124490
3943.000000	77.267017
3942.000000	77.440970
3941.000000	77.607609
3940.000000	77.734896
3939.000000	77.803095
3938.000000	77.805628
3937.000000	77.750327
3936.000000	77.665307
3935.000000	77.596001
3934.000000	77.591672
3933.000000	77.683221
3932.000000	77.856844
3931.000000	78.051295
3930.000000	78.186841
3929.000000	78.217254
3928.000000	78.165318
3927.000000	78.100844
3926.000000	78.081289
3925.000000	78.112762
3924.000000	78.163986
3923.000000	78.198570
3922.000000	78.188629
3921.000000	78.134108
3920.000000	78.085700
3919.000000	78.119233
3918.000000	78.269941
3917.000000	78.496883
3916.000000	78.721632
3915.000000	78.884832
3914.000000	78.968678
3913.000000	78.984779
3912.000000	78.962367
3911.000000	78.913917
3910.000000	78.821119
3909.000000	78.650576
3908.000000	78.402065
3907.000000	78.131314
3906.000000	77.929770
3905.000000	77.873729
3904.000000	77.983633
3903.000000	78.235471
3902.000000	78.593027
3901.000000	79.011605
3900.000000	79.426109
3899.000000	79.763894
3898.000000	79.966350
3897.000000	79.991341
3896.000000	79.824730
3895.000000	79.517739
3894.000000	79.216736
3893.000000	79.090209
3892.000000	79.188078
3891.000000	79.367509
3890.000000	79.450257
3889.000000	79.384790
3888.000000	79.245420
3887.000000	79.166999
3886.000000	79.222047
3885.000000	79.349014
3884.000000	79.462309
3883.000000	79.539948
3882.000000	79.618652
3881.000000	79.755538
3880.000000	79.932618
3879.000000	80.051657
3878.000000	80.043314
3877.000000	79.905417
3876.000000	79.689237
3875.000000	79.444765
3874.000000	79.188285
3873.000000	78.969621
3872.000000	78.892812
3871.000000	79.020135
3870.000000	79.279935
3869.000000	79.526112
3868.000000	79.690833
3867.000000	79.762647
3866.000000	79.753552
3865.000000	79.754192
3864.000000	79.868104
3863.000000	80.094866
3862.000000	80.336832
3861.000000	80.461702
3860.000000	80.373680
3859.000000	80.005648
3858.000000	79.337019
3857.000000	78.452475
3856.000000	77.625126
3855.000000	77.292283
3854.000000	77.751273
3853.000000	78.778465
3852.000000	79.898928
3851.000000	80.810164
3850.000000	81.319598
3849.000000	81.383740
3848.000000	81.139198
3847.000000	80.762119
3846.000000	80.386881
3845.000000	80.089018
3844.000000	79.872975
3843.000000	79.682216
3842.000000	79.481155
3841.000000	79.291636
3840.000000	79.184614
3839.000000	79.238296
3838.000000	79.479024
3837.000000	79.835923
3836.000000	80.192599
3835.000000	80.467881
3834.000000	80.649527
3833.000000	80.768999
3832.000000	80.849238
3831.000000	80.887489
3830.000000	80.886971
3829.000000	80.869369
3828.000000	80.844930
3827.000000	80.769177
3826.000000	80.568800
3825.000000	80.226567
3824.000000	79.838466
3823.000000	79.590799
3822.000000	79.636314
3821.000000	79.888688
3820.000000	80.133997
3819.000000	80.296087
3818.000000	80.404865
3817.000000	80.550879
3816.000000	80.805698
3815.000000	81.145591
3814.000000	81.500095
3813.000000	81.724965
3812.000000	81.658342
3811.000000	81.301656
3810.000000	80.836811
3809.000000	80.500667
3808.000000	80.426787
3807.000000	80.530913
3806.000000	80.610733
3805.000000	80.566445
3804.000000	80.436408
3803.000000	80.364647
3802.000000	80.494674
3801.000000	80.787153
3800.000000	81.131209
3799.000000	81.463139
3798.000000	81.714894
3797.000000	81.877410
3796.000000	82.000286
3795.000000	82.118711
3794.000000	82.222982
3793.000000	82.271511
3792.000000	82.247285
3791.000000	82.183369
3790.000000	82.115844
3789.000000	82.052156
3788.000000	81.993864
3787.000000	81.965333
3786.000000	81.986109
3785.000000	82.026672
3784.000000	82.027286
3783.000000	81.965030
3782.000000	81.883090
3781.000000	81.859041
3780.000000	81.949984
3779.000000	82.142105
3778.000000	82.372085
3777.000000	82.562711
3776.000000	82.633064
3775.000000	82.530549
3774.000000	82.280685
3773.000000	81.983562
3772.000000	81.760552
3771.000000	81.688270
3770.000000	81.758971
3769.000000	81.904552
3768.000000	82.074661
3767.000000	82.250154
3766.000000	82.402611
3765.000000	82.475522
3764.000000	82.425138
3763.000000	82.265864
3762.000000	82.054091
3761.000000	81.872783
3760.000000	81.819132
3759.000000	81.916037
3758.000000	82.057273
3757.000000	82.064249
3756.000000	81.815708
3755.000000	81.317409
3754.000000	80.698401
3753.000000	80.197143
3752.000000	80.078231
3751.000000	80.419623
3750.000000	80.960677
3749.000000	81.309567
3748.000000	81.300538
3747.000000	81.073376
3746.000000	80.969502
3745.000000	81.298844
3744.000000	81.952976
3743.000000	82.609158
3742.000000	83.059593
3741.000000	83.100903
3740.000000	82.690134
3739.000000	82.053881
3738.000000	81.510595
3737.000000	81.294214
3736.000000	81.460865
3735.000000	81.916903
3734.000000	82.511874
3733.000000	83.089347
3732.000000	83.501472
3731.000000	83.676645
3730.000000	83.651443
3729.000000	83.513078
3728.000000	83.351231
3727.000000	83.241403
3726.000000	83.221475
3725.000000	83.293416
3724.000000	83.422310
3723.000000	83.559887
3722.000000	83.684103
3721.000000	83.797906
3720.000000	83.907786
3719.000000	83.983450
3718.000000	83.954624
3717.000000	83.760431
3716.000000	83.401335
3715.000000	82.949159
3714.000000	82.545537
3713.000000	82.374345
3712.000000	82.551038
3711.000000	83.017512
3710.000000	83.600380
3709.000000	84.121872
3708.000000	84.446593
3707.000000	84.513696
3706.000000	84.355930
3705.000000	84.082394
3704.000000	83.838610
3703.000000	83.751281
3702.000000	83.861289
3701.000000	84.091710
3700.000000	84.319722
3699.000000	84.464705
3698.000000	84.496537
3697.000000	84.417438
3696.000000	84.242529
3695.000000	83.978840
3694.000000	83.622352
3693.000000	83.195264
3692.000000	82.796064
3691.000000	82.594476
3690.000000	82.749782
3689.000000	83.262736
3688.000000	83.930419
3687.000000	84.515688
3686.000000	84.886701
3685.000000	84.995382
3684.000000	84.868692
3683.000000	84.605361
3682.000000	84.301072
3681.000000	83.962595
3680.000000	83.512152
3679.000000	82.937795
3678.000000	82.409675
3677.000000	82.221082
3676.000000	82.506775
3675.000000	83.011802
3674.000000	83.393167
3673.000000	83.528961
3672.000000	83.475088
3671.000000	83.459101
3670.000000	83.684849
3669.000000	84.111406
3668.000000	84.561700
3667.000000	84.851822
3666.000000	84.886389
3665.000000	84.722301
3664.000000	84.492455
3663.000000	84.287472
3662.000000	84.101448
3661.000000	83.870183
3660.000000	83.563134
3659.000000	83.246343
3658.000000	83.044591
3657.000000	83.027344
3656.000000	83.093084
3655.000000	83.044032
3654.000000	82.737236
3653.000000	82.153558
3652.000000	81.459827
3651.000000	80.982503
3650.000000	80.992565
3649.000000	81.489698
3648.000000	82.216777
3647.000000	82.855274
3646.000000	83.205073
3645.000000	83.234588
3644.000000	83.033854
3643.000000	82.729438
3642.000000	82.420068
3641.000000	82.155052
3640.000000	81.940040
3639.000000	81.744017
3638.000000	81.526478
3637.000000	81.286088
3636.000000	81.050070
3635.000000	80.804856
3634.000000	80.464584
3633.000000	79.954269
3632.000000	79.322906
3631.000000	78.785288
3630.000000	78.636038
3629.000000	78.962972
3628.000000	79.512438
3627.000000	79.971841
3626.000000	80.141246
3625.000000	79.936262
3624.000000	79.426321
3623.000000	78.774042
3622.000000	78.151958
3621.000000	77.707902
3620.000000	77.523927
3619.000000	77.550042
3618.000000	77.624386
3617.000000	77.601667
3616.000000	77.433995
3615.000000	77.164421
3614.000000	76.872229
3613.000000	76.608228
3612.000000	76.380103
3611.000000	76.188568
3610.000000	76.056402
3609.000000	76.013202
3608.000000	76.042789
3607.000000	76.067748
3606.000000	76.000303
3605.000000	75.795302
3604.000000	75.474567
3603.000000	75.110814
3602.000000	74.776351
3601.000000	74.502053
3600.000000	74.272413
3599.000000	74.052179
3598.000000	73.816586
3597.000000	73.582625
3596.000000	73.391474
3595.000000	73.255278
3594.000000	73.125115
3593.000000	72.921257
3592.000000	72.588902
3591.000000	72.144488
3590.000000	71.692675
3589.000000	71.384887
3588.000000	71.309061
3587.000000	71.403332
3586.000000	71.513994
3585.000000	71.515957
3584.000000	71.365486
3583.000000	71.096901
3582.000000	70.784358
3581.000000	70.492917
3580.000000	70.247437
3579.000000	70.037548
3578.000000	69.843323
3577.000000	69.658156
3576.000000	69.486292
3575.000000	69.323277
3574.000000	69.147450
3573.000000	68.925216
3572.000000	68.629477
3571.000000	68.267924
3570.000000	67.910216
3569.000000	67.676025
3568.000000	67.660145
3567.000000	67.839428
3566.000000	68.078321
3565.000000	68.238750
3564.000000	68.260850
3563.000000	68.167985
3562.000000	68.030414
3561.000000	67.913497
3560.000000	67.841319
3559.000000	67.795339
3558.000000	67.742338
3557.000000	67.662960
3556.000000	67.563729
3555.000000	67.470058
3554.000000	67.410450
3553.000000	67.396199
3552.000000	67.406923
3551.000000	67.400868
3550.000000	67.348375
3549.000000	67.259928
3548.000000	67.183648
3547.000000	67.170643
3546.000000	67.232809
3545.000000	67.335451
3544.000000	67.426224
3543.000000	67.466775
3542.000000	67.446254
3541.000000	67.376317
3540.000000	67.279871
3539.000000	67.182010
3538.000000	67.106018
3537.000000	67.066627
3536.000000	67.056446
3535.000000	67.045364
3534.000000	67.001029
3533.000000	66.912947
3532.000000	66.794379
3531.000000	66.667932
3530.000000	66.551854
3529.000000	66.454618
3528.000000	66.372678
3527.000000	66.294235
3526.000000	66.212287
3525.000000	66.132579
3524.000000	66.063200
3523.000000	65.996513
3522.000000	65.911074
3521.000000	65.792418
3520.000000	65.643520
3519.000000	65.474902
3518.000000	65.293454
3517.000000	65.103101
3516.000000	64.905321
3515.000000	64.696434
3514.000000	64.471970
3513.000000	64.236901
3512.000000	64.005535
3511.000000	63.790214
3510.000000	63.590675
3509.000000	63.391868
3508.000000	63.170584
3507.000000	62.909390
3506.000000	62.612827
3505.000000	62.313241
3504.000000	62.051308
3503.000000	61.842751
3502.000000	61.665481
3501.000000	61.480456
3500.000000	61.261971
3499.000000	61.011105
3498.000000	60.750219
3497.000000	60.506417
3496.000000	60.294146
3495.000000	60.107925
3494.000000	59.932378
3493.000000	59.758330
3492.000000	59.586062
3491.000000	59.419647
3490.000000	59.265931
3489.000000	59.135353
3488.000000	59.034697
3487.000000	58.958221
3486.000000	58.892296
3485.000000	58.829783
3484.000000	58.775463
3483.000000	58.739447
3482.000000	58.729869
3481.000000	58.749766
3480.000000	58.793535
3479.000000	58.846693
3478.000000	58.896647
3477.000000	58.944336
3476.000000	59.000404
3475.000000	59.070364
3474.000000	59.148761
3473.000000	59.226677
3472.000000	59.299009
3471.000000	59.365819
3470.000000	59.434157
3469.000000	59.516914
3468.000000	59.622197
3467.000000	59.743643
3466.000000	59.866174
3465.000000	59.979963
3464.000000	60.084610
3463.000000	60.183608
3462.000000	60.281510
3461.000000	60.384099
3460.000000	60.493816
3459.000000	60.605424
3458.000000	60.711604
3457.000000	60.811805
3456.000000	60.910547
3455.000000	61.010089
3454.000000	61.108347
3453.000000	61.201231
3452.000000	61.283228
3451.000000	61.350666
3450.000000	61.410362
3449.000000	61.481936
3448.000000	61.583884
3447.000000	61.715265
3446.000000	61.856743
3445.000000	61.989025
3444.000000	62.105376
3443.000000	62.208936
3442.000000	62.304569
3441.000000	62.394931
3440.000000	62.480225
3439.000000	62.559976
3438.000000	62.636965
3437.000000	62.718141
3436.000000	62.808581
3435.000000	62.906042
3434.000000	63.002982
3433.000000	63.093776
3432.000000	63.178742
3431.000000	63.262429
3430.000000	63.349586
3429.000000	63.441826
3428.000000	63.535967
3427.000000	63.624931
3426.000000	63.702482
3425.000000	63.768148
3424.000000	63.827885
3423.000000	63.890938
3422.000000	63.966336
3421.000000	64.059023
3420.000000	64.165146
3419.000000	64.272132
3418.000000	64.366905
3417.000000	64.444990
3416.000000	64.511555
3415.000000	64.575565
3414.000000	64.644375
3413.000000	64.721433
3412.000000	64.805569
3411.000000	64.892842
3410.000000	64.981266
3409.000000	65.072717
3408.000000	65.168242
3407.000000	65.263085
3406.000000	65.349760
3405.000000	65.425782
3404.000000	65.495751
3403.000000	65.567136
3402.000000	65.647199
3401.000000	65.742162
3400.000000	65.853439
3399.000000	65.973875
3398.000000	66.091428
3397.000000	66.197532
3396.000000	66.290588
3395.000000	66.374348
3394.000000	66.457696
3393.000000	66.553087
3392.000000	66.667704
3391.000000	66.794770
3390.000000	66.918020
3389.000000	67.025878
3388.000000	67.119321
3387.000000	67.207287
3386.000000	67.298405
3385.000000	67.396731
3384.000000	67.500516
3383.000000	67.604078
3382.000000	67.703442
3381.000000	67.800588
3380.000000	67.900031
3379.000000	68.002796
3378.000000	68.107063
3377.000000	68.212615
3376.000000	68.319937
3375.000000	68.425663
3374.000000	68.523968
3373.000000	68.612918
3372.000000	68.696632
3371.000000	68.781905
3370.000000	68.875792
3369.000000	68.984668
3368.000000	69.110641
3367.000000	69.248689
3366.000000	69.390352
3365.000000	69.529922
3364.000000	69.665911
3363.000000	69.799072
3362.000000	69.931923
3361.000000	70.068256
3360.000000	70.209253
3359.000000	70.351499
3358.000000	70.491943
3357.000000	70.632429
3356.000000	70.775456
3355.000000	70.917840
3354.000000	71.053917
3353.000000	71.184570
3352.000000	71.318398
3351.000000	71.463219
3350.000000	71.619317
3349.000000	71.780437
3348.000000	71.938239
3347.000000	72.086404
3346.000000	72.224158
3345.000000	72.356849
3344.000000	72.490455
3343.000000	72.624820
3342.000000	72.754285
3341.000000	72.874491
3340.000000	72.986502
3339.000000	73.094620
3338.000000	73.201829
3337.000000	73.306977
3336.000000	73.403599
3335.000000	73.482095
3334.000000	73.535071
3333.000000	73.559641
3332.000000	73.555139
3331.000000	73.519198
3330.000000	73.448123
3329.000000	73.340302
3328.000000	73.195752
3327.000000	73.014810
3326.000000	72.796680
3325.000000	72.537666
3324.000000	72.230852
3323.000000	71.865932
3322.000000	71.434739
3321.000000	70.933065
3320.000000	70.354378
3319.000000	69.686912
3318.000000	68.913498
3317.000000	68.017159
3316.000000	66.980879
3315.000000	65.783578
3314.000000	64.406724
3313.000000	62.837572
3312.000000	61.071589
3311.000000	59.114733
3310.000000	56.984527
3309.000000	54.716234
3308.000000	52.354896
3307.000000	49.945486
3306.000000	47.533244
3305.000000	45.163537
3304.000000	42.878509
3303.000000	40.712416
3302.000000	38.694746
3301.000000	36.855175
3300.000000	35.221997
3299.000000	33.814119
3298.000000	32.644442
3297.000000	31.723090
3296.000000	31.043662
3295.000000	30.577619
3294.000000	30.277006
3293.000000	30.088254
3292.000000	29.961056
3291.000000	29.846616
3290.000000	29.710927
3289.000000	29.543283
3288.000000	29.352823
3287.000000	29.158000
3286.000000	28.977110
3285.000000	28.825028
3284.000000	28.705728
3283.000000	28.608714
3282.000000	28.516582
3281.000000	28.414635
3280.000000	28.291240
3279.000000	28.135286
3278.000000	27.941345
3277.000000	27.715307
3276.000000	27.469865
3275.000000	27.216784
3274.000000	26.968851
3273.000000	26.746423
3272.000000	26.576193
3271.000000	26.482572
3270.000000	26.485059
3269.000000	26.598329
3268.000000	26.828634
3267.000000	27.174039
3266.000000	27.625603
3265.000000	28.168546
3264.000000	28.776352
3263.000000	29.406260
3262.000000	30.007988
3261.000000	30.533103
3260.000000	30.935315
3259.000000	31.170744
3258.000000	31.208395
3257.000000	31.034217
3256.000000	30.649858
3255.000000	30.063345
3254.000000	29.285854
3253.000000	28.338065
3252.000000	27.239873
3251.000000	26.008863
3250.000000	24.666073
3249.000000	23.242984
3248.000000	21.785061
3247.000000	20.345339
3246.000000	18.984910
3245.000000	17.772332
3244.000000	16.772686
3243.000000	16.029183
3242.000000	15.556143
3241.000000	15.332703
3240.000000	15.299387
3239.000000	15.374059
3238.000000	15.475679
3237.000000	15.548886
3236.000000	15.567836
3235.000000	15.529043
3234.000000	15.447562
3233.000000	15.345443
3232.000000	15.237258
3231.000000	15.126012
3230.000000	15.015895
3229.000000	14.923964
3228.000000	14.874337
3227.000000	14.889378
3226.000000	14.990052
3225.000000	15.196834
3224.000000	15.523678
3223.000000	15.969642
3222.000000	16.522611
3221.000000	17.164264
3220.000000	17.865156
3219.000000	18.583897
3218.000000	19.276592
3217.000000	19.908303
3216.000000	20.454882
3215.000000	20.902496
3214.000000	21.251905
3213.000000	21.520343
3212.000000	21.732966
3211.000000	21.914502
3210.000000	22.090818
3209.000000	22.288613
3208.000000	22.528885
3207.000000	22.822637
3206.000000	23.176015
3205.000000	23.594053
3204.000000	24.076806
3203.000000	24.616490
3202.000000	25.203090
3201.000000	25.829597
3200.000000	26.486947
3199.000000	27.161497
3198.000000	27.839810
3197.000000	28.512201
3196.000000	29.169245
3195.000000	29.799511
3194.000000	30.394623
3193.000000	30.951772
3192.000000	31.468372
3191.000000	31.937451
3190.000000	32.353554
3189.000000	32.716992
3188.000000	33.030255
3187.000000	33.295743
3186.000000	33.518276
3185.000000	33.707401
3184.000000	33.870894
3183.000000	34.011152
3182.000000	34.131224
3181.000000	34.237959
3180.000000	34.338244
3179.000000	34.435070
3178.000000	34.531285
3177.000000	34.633379
3176.000000	34.748248
3175.000000	34.880931
3174.000000	35.038080
3173.000000	35.228934
3172.000000	35.458598
3171.000000	35.726208
3170.000000	36.030889
3169.000000	36.375431
3168.000000	36.761576
3167.000000	37.184548
3166.000000	37.638208
3165.000000	38.119356
3164.000000	38.625011
3163.000000	39.150633
3162.000000	39.692323
3161.000000	40.247030
3160.000000	40.805659
3159.000000	41.349914
3158.000000	41.856595
3157.000000	42.301866
3156.000000	42.658002
3155.000000	42.892855
3154.000000	42.977640
3153.000000	42.893277
3152.000000	42.637970
3151.000000	42.232987
3150.000000	41.727476
3149.000000	41.190625
3148.000000	40.685017
3147.000000	40.245468
3146.000000	39.873280
3145.000000	39.541430
3144.000000	39.203743
3143.000000	38.807245
3142.000000	38.311080
3141.000000	37.697312
3140.000000	36.967235
3139.000000	36.136461
3138.000000	35.233825
3137.000000	34.300096
3136.000000	33.378226
3135.000000	32.505824
3134.000000	31.717645
3133.000000	31.047536
3132.000000	30.521144
3131.000000	30.151070
3130.000000	29.943758
3129.000000	29.900833
3128.000000	30.016576
3127.000000	30.274947
3126.000000	30.655808
3125.000000	31.142573
3124.000000	31.715443
3123.000000	32.351765
3122.000000	33.031818
3121.000000	33.741644
3120.000000	34.469726
3119.000000	35.202549
3118.000000	35.929913
3117.000000	36.646335
3116.000000	37.344603
3115.000000	38.012059
3114.000000	38.636285
3113.000000	39.209463
3112.000000	39.725455
3111.000000	40.179526
3110.000000	40.570537
3109.000000	40.901004
3108.000000	41.169421
3107.000000	41.368530
3106.000000	41.494943
3105.000000	41.553267
3104.000000	41.554051
3103.000000	41.511203
3102.000000	41.445300
3101.000000	41.383919
3100.000000	41.353659
3099.000000	41.375115
3098.000000	41.465935
3097.000000	41.643092
3096.000000	41.915039
3095.000000	42.277793
3094.000000	42.719616
3093.000000	43.227693
3092.000000	43.789483
3091.000000	44.390228
3090.000000	45.016076
3089.000000	45.654593
3088.000000	46.292544
3087.000000	46.917842
3086.000000	47.524285
3085.000000	48.111537
3084.000000	48.678198
3083.000000	49.219583
3082.000000	49.733181
3081.000000	50.222238
3080.000000	50.691048
3079.000000	51.140744
3078.000000	51.571573
3077.000000	51.984119
3076.000000	52.377713
3075.000000	52.750882
3074.000000	53.105812
3073.000000	53.448398
3072.000000	53.781539
3071.000000	54.103387
3070.000000	54.413220
3069.000000	54.715443
3068.000000	55.015440
3067.000000	55.314353
3066.000000	55.610689
3065.000000	55.903394
3064.000000	56.191105
3063.000000	56.471183
3062.000000	56.741415
3061.000000	57.001450
3060.000000	57.251381
3059.000000	57.491655
3058.000000	57.725581
3057.000000	57.958052
3056.000000	58.190034
3055.000000	58.416810
3054.000000	58.633534
3053.000000	58.840478
3052.000000	59.041217
3051.000000	59.238374
3050.000000	59.432233
3049.000000	59.621019
3048.000000	59.801262
3047.000000	59.969795
3046.000000	60.127425
3045.000000	60.278930
3044.000000	60.428751
3043.000000	60.578818
3042.000000	60.730215
3041.000000	60.883397
3040.000000	61.035318
3039.000000	61.180282
3038.000000	61.316210
3037.000000	61.447824
3036.000000	61.582329
3035.000000	61.723944
3034.000000	61.873808
3033.000000	62.032033
3032.000000	62.196913
3031.000000	62.364033
3030.000000	62.528333
3029.000000	62.686345
3028.000000	62.836840
3027.000000	62.981986
3026.000000	63.128174
3025.000000	63.282111
3024.000000	63.444540
3023.000000	63.610087
3022.000000	63.773802
3021.000000	63.935263
3020.000000	64.095859
3019.000000	64.255262
3018.000000	64.412197
3017.000000	64.566312
3016.000000	64.717496
3015.000000	64.865115
3014.000000	65.008863
3013.000000	65.148533
3012.000000	65.281570
3011.000000	65.401545
3010.000000	65.500563
3009.000000	65.571663
3008.000000	65.609202
3007.000000	65.609176
3006.000000	65.568735
3005.000000	65.485341
3004.000000	65.354649
3003.000000	65.171832
3002.000000	64.935698
3001.000000	64.647430
3000.000000	64.304276
2999.000000	63.892418
2998.000000	63.393536
2997.000000	62.808761
2996.000000	62.187251
2995.000000	61.631548
2994.000000	61.258142
2993.000000	61.134517
2992.000000	61.240156
2991.000000	61.488461
2990.000000	61.783314
2989.000000	62.059956
2988.000000	62.289653
2987.000000	62.466005
2986.000000	62.597023
2985.000000	62.699228
2984.000000	62.790541
2983.000000	62.885174
2982.000000	62.993600
2981.000000	63.120907
2980.000000	63.260537
2979.000000	63.393230
2978.000000	63.498465
2977.000000	63.571410
2976.000000	63.632809
2975.000000	63.724500
2974.000000	63.889903
2973.000000	64.148271
2972.000000	64.480515
2971.000000	64.839420
2970.000000	65.173176
2969.000000	65.441919
2968.000000	65.618142
2967.000000	65.683239
2966.000000	65.627280
2965.000000	65.448004
2964.000000	65.148685
2963.000000	64.735040
2962.000000	64.216769
2961.000000	63.603960
2960.000000	62.897849
2959.000000	62.084997
2958.000000	61.145334
2957.000000	60.081878
2956.000000	58.956142
2955.000000	57.902600
2954.000000	57.086044
2953.000000	56.614200
2952.000000	56.470537
2951.000000	56.531495
2950.000000	56.655978
2949.000000	56.763833
2948.000000	56.854679
2947.000000	56.974433
2946.000000	57.170406
2945.000000	57.455978
2944.000000	57.796942
2943.000000	58.131942
2942.000000	58.413187
2941.000000	58.638085
2940.000000	58.849683
2939.000000	59.113823
2938.000000	59.491927
2937.000000	60.018117
2936.000000	60.687090
2935.000000	61.460667
2934.000000	62.287786
2933.000000	63.121478
2932.000000	63.924483
2931.000000	64.671682
2930.000000	65.352174
2929.000000	65.965714
2928.000000	66.515323
2927.000000	67.004333
2926.000000	67.439826
2925.000000	67.831230
2924.000000	68.183876
2923.000000	68.497224
2922.000000	68.770522
2921.000000	69.006031
2920.000000	69.205441
2919.000000	69.368987
2918.000000	69.498986
2917.000000	69.601261
2916.000000	69.681794
2915.000000	69.744816
2914.000000	69.795002
2913.000000	69.837030
2912.000000	69.872641
2911.000000	69.901545
2910.000000	69.925484
2909.000000	69.948522
2908.000000	69.972786
2907.000000	69.997802
2906.000000	70.024292
2905.000000	70.054381
2904.000000	70.087800
2903.000000	70.122001
2902.000000	70.156889
2901.000000	70.195257
2900.000000	70.237398
2899.000000	70.279125
2898.000000	70.315421
2897.000000	70.341453
2896.000000	70.349646
2895.000000	70.330739
2894.000000	70.279866
2893.000000	70.198660
2892.000000	70.090017
2891.000000	69.954803
2890.000000	69.794630
2889.000000	69.614021
2888.000000	69.418099
2887.000000	69.211884
2886.000000	69.003559
2885.000000	68.804583
2884.000000	68.625228
2883.000000	68.472167
2882.000000	68.351437
2881.000000	68.269637
2880.000000	68.229857
2879.000000	68.229935
2878.000000	68.265695
2877.000000	68.333001
2876.000000	68.425963
2875.000000	68.537238
2874.000000	68.661451
2873.000000	68.795314
2872.000000	68.933692
2871.000000	69.069656
2870.000000	69.200611
2869.000000	69.331094
2868.000000	69.468624
2867.000000	69.619499
2866.000000	69.788387
2865.000000	69.976887
2864.000000	70.180103
2863.000000	70.388428
2862.000000	70.594671
2861.000000	70.796994
2860.000000	70.994661
2859.000000	71.185154
2858.000000	71.367283
2857.000000	71.543468
2856.000000	71.716674
2855.000000	71.887748
2854.000000	72.056519
2853.000000	72.222150
2852.000000	72.381083
2851.000000	72.527671
2850.000000	72.658351
2849.000000	72.772769
2848.000000	72.870571
2847.000000	72.950946
2846.000000	73.016871
2845.000000	73.076356
2844.000000	73.137668
2843.000000	73.205397
2842.000000	73.282066
2841.000000	73.370778
2840.000000	73.473888
2839.000000	73.590922
2838.000000	73.719249
2837.000000	73.855358
2836.000000	73.995039
2835.000000	74.134344
2834.000000	74.271257
2833.000000	74.405139
2832.000000	74.534681
2831.000000	74.658205
2830.000000	74.776005
2829.000000	74.890036
2828.000000	75.000857
2827.000000	75.107166
2826.000000	75.208490
2825.000000	75.306031
2824.000000	75.400639
2823.000000	75.492152
2822.000000	75.581015
2821.000000	75.668144
2820.000000	75.752569
2819.000000	75.831450
2818.000000	75.902901
2817.000000	75.966952
2816.000000	76.023789
2815.000000	76.073498
2814.000000	76.118232
2813.000000	76.162514
2812.000000	76.210524
2811.000000	76.264376
2810.000000	76.324527
2809.000000	76.389587
2808.000000	76.455922
2807.000000	76.520091
2806.000000	76.582204
2805.000000	76.644882
2804.000000	76.708835
2803.000000	76.771825
2802.000000	76.832088
2801.000000	76.890133
2800.000000	76.946744
2799.000000	77.001551
2798.000000	77.054161
2797.000000	77.104673
2796.000000	77.152771
2795.000000	77.198316
2794.000000	77.243050
2793.000000	77.289651
2792.000000	77.338822
2791.000000	77.389070
2790.000000	77.439016
2789.000000	77.487545
2788.000000	77.532086
2787.000000	77.569829
2786.000000	77.601432
2785.000000	77.631279
2784.000000	77.663558
2783.000000	77.700159
2782.000000	77.742249
2781.000000	77.790903
2780.000000	77.845283
2779.000000	77.902545
2778.000000	77.960624
2777.000000	78.019497
2776.000000	78.079243
2775.000000	78.138701
2774.000000	78.196492
2773.000000	78.251481
2772.000000	78.301881
2771.000000	78.345788
2770.000000	78.382867
2769.000000	78.413987
2768.000000	78.439504
2767.000000	78.459908
2766.000000	78.478108
2765.000000	78.498639
2764.000000	78.523908
2763.000000	78.552929
2762.000000	78.583574
2761.000000	78.613927
2760.000000	78.641450
2759.000000	78.663424
2758.000000	78.679123
2757.000000	78.689674
2756.000000	78.695438
2755.000000	78.695233
2754.000000	78.688253
2753.000000	78.674994
2752.000000	78.655937
2751.000000	78.631455
2750.000000	78.603713
2749.000000	78.576952
2748.000000	78.555553
2747.000000	78.543407
2746.000000	78.544785
2745.000000	78.563450
2744.000000	78.600183
2743.000000	78.652040
2742.000000	78.714008
2741.000000	78.780113
2740.000000	78.843565
2739.000000	78.898921
2738.000000	78.944749
2737.000000	78.983095
2736.000000	79.016958
2735.000000	79.049701
2734.000000	79.085783
2733.000000	79.128939
2732.000000	79.179073
2731.000000	79.232797
2730.000000	79.287079
2729.000000	79.340553
2728.000000	79.391631
2727.000000	79.437795
2726.000000	79.477219
2725.000000	79.509444
2724.000000	79.534353
2723.000000	79.552343
2722.000000	79.565314
2721.000000	79.575544
2720.000000	79.583923
2719.000000	79.591095
2718.000000	79.600069
2717.000000	79.615558
2716.000000	79.640441
2715.000000	79.674372
2714.000000	79.715432
2713.000000	79.760992
2712.000000	79.807261
2711.000000	79.850596
2710.000000	79.889577
2709.000000	79.924334
2708.000000	79.954279
2707.000000	79.978446
2706.000000	79.997806
2705.000000	80.015209
2704.000000	80.033034
2703.000000	80.052631
2702.000000	80.075596
2701.000000	80.103312
2700.000000	80.135231
2699.000000	80.169492
2698.000000	80.204926
2697.000000	80.240567
2696.000000	80.273739
2695.000000	80.301081
2694.000000	80.321458
2693.000000	80.336104
2692.000000	80.346333
2691.000000	80.353094
2690.000000	80.358423
2689.000000	80.364981
2688.000000	80.374018
2687.000000	80.385649
2686.000000	80.400624
2685.000000	80.419640
2684.000000	80.441237
2683.000000	80.462672
2682.000000	80.482705
2681.000000	80.501392
2680.000000	80.517565
2679.000000	80.529030
2678.000000	80.535399
2677.000000	80.538670
2676.000000	80.541076
2675.000000	80.544444
2674.000000	80.551514
2673.000000	80.565580
2672.000000	80.588425
2671.000000	80.620453
2670.000000	80.662399
2669.000000	80.714655
2668.000000	80.775363
2667.000000	80.840998
2666.000000	80.908853
2665.000000	80.977069
2664.000000	81.042630
2663.000000	81.102134
2662.000000	81.154490
2661.000000	81.200792
2660.000000	81.241858
2659.000000	81.278197
2658.000000	81.312160
2657.000000	81.347625
2656.000000	81.386958
2655.000000	81.429873
2654.000000	81.475213
2653.000000	81.521589
2652.000000	81.566282
2651.000000	81.605534
2650.000000	81.636380
2649.000000	81.657267
2648.000000	81.667350
2647.000000	81.667366
2646.000000	81.661053
2645.000000	81.653555
2644.000000	81.648500
2643.000000	81.647900
2642.000000	81.654129
2641.000000	81.669790
2640.000000	81.695641
2639.000000	81.730486
2638.000000	81.773197
2637.000000	81.822842
2636.000000	81.876974
2635.000000	81.931950
2634.000000	81.984679
2633.000000	82.032787
2632.000000	82.073881
2631.000000	82.106893
2630.000000	82.134144
2629.000000	82.160283
2628.000000	82.189290
2627.000000	82.223691
2626.000000	82.265401
2625.000000	82.314592
2624.000000	82.367970
2623.000000	82.420520
2622.000000	82.469122
2621.000000	82.513019
2620.000000	82.551419
2619.000000	82.583043
2618.000000	82.607608
2617.000000	82.625446
2616.000000	82.635989
2615.000000	82.638457
2614.000000	82.634266
2613.000000	82.626781
2612.000000	82.618538
2611.000000	82.610858
2610.000000	82.605676
2609.000000	82.605521
2608.000000	82.611270
2607.000000	82.621456
2606.000000	82.633802
2605.000000	82.645882
2604.000000	82.654703
2603.000000	82.657764
2602.000000	82.654892
2601.000000	82.647794
2600.000000	82.638155
2599.000000	82.627565
2598.000000	82.618492
2597.000000	82.613069
2596.000000	82.611129
2595.000000	82.611135
2594.000000	82.612640
2593.000000	82.615993
2592.000000	82.620329
2591.000000	82.624013
2590.000000	82.626788
2589.000000	82.629353
2588.000000	82.631007
2587.000000	82.629854
2586.000000	82.625228
2585.000000	82.618004
2584.000000	82.608818
2583.000000	82.598198
2582.000000	82.588530
2581.000000	82.583828
2580.000000	82.587394
2579.000000	82.601173
2578.000000	82.626549
2577.000000	82.663749
2576.000000	82.710072
2575.000000	82.760660
2574.000000	82.811470
2573.000000	82.860050
2572.000000	82.904613
2571.000000	82.944327
2570.000000	82.980371
2569.000000	83.014879
2568.000000	83.048706
2567.000000	83.081650
2566.000000	83.114422
2565.000000	83.148795
2564.000000	83.186162
2563.000000	83.227520
2562.000000	83.274423
2561.000000	83.328117
2560.000000	83.387796
2559.000000	83.451187
2558.000000	83.516072
2557.000000	83.580023
2556.000000	83.639705
2555.000000	83.692516
2554.000000	83.738696
2553.000000	83.780413
2552.000000	83.819527
2551.000000	83.857644
2550.000000	83.897253
2549.000000	83.940394
2548.000000	83.986685
2547.000000	84.034238
2546.000000	84.081766
2545.000000	84.128204
2544.000000	84.171308
2543.000000	84.209086
2542.000000	84.242227
2541.000000	84.273039
2540.000000	84.302491
2539.000000	84.329701
2538.000000	84.353735
2537.000000	84.373911
2536.000000	84.388967
2535.000000	84.398535
2534.000000	84.405185
2533.000000	84.413415
2532.000000	84.426700
2531.000000	84.446646
2530.000000	84.473819
2529.000000	84.507019
2528.000000	84.542096
2527.000000	84.573671
2526.000000	84.598169
2525.000000	84.614325
2524.000000	84.621914
2523.000000	84.622134
2522.000000	84.618534
2521.000000	84.614809
2520.000000	84.611755
2519.000000	84.607414
2518.000000	84.599588
2517.000000	84.586752
2516.000000	84.567096
2515.000000	84.539585
2514.000000	84.505746
2513.000000	84.468653
2512.000000	84.430492
2511.000000	84.392151
2510.000000	84.354620
2509.000000	84.318522
2508.000000	84.282669
2507.000000	84.245319
2506.000000	84.206879
2505.000000	84.169948
2504.000000	84.137235
2503.000000	84.111039
2502.000000	84.093619
2501.000000	84.085932
2500.000000	84.085933
2499.000000	84.090008
2498.000000	84.096267
2497.000000	84.104727
2496.000000	84.115761
2495.000000	84.130246
2494.000000	84.150478
2493.000000	84.178833
2492.000000	84.215035
2491.000000	84.256674
2490.000000	84.301487
2489.000000	84.347453
2488.000000	84.391972
2487.000000	84.433349
2486.000000	84.473299
2485.000000	84.516080
2484.000000	84.565052
2483.000000	84.621430
2482.000000	84.684803
2481.000000	84.752679
2480.000000	84.820080
2479.000000	84.881964
2478.000000	84.936311
2477.000000	84.983807
2476.000000	85.025770
2475.000000	85.064161
2474.000000	85.102626
2473.000000	85.144634
2472.000000	85.190514
2471.000000	85.237545
2470.000000	85.282228
2469.000000	85.321336
2468.000000	85.351785
2467.000000	85.372291
2466.000000	85.384825
2465.000000	85.392432
2464.000000	85.396271
2463.000000	85.395626
2462.000000	85.390022
2461.000000	85.379294
2460.000000	85.362291
2459.000000	85.338491
2458.000000	85.310343
2457.000000	85.282539
2456.000000	85.259116
2455.000000	85.242602
2454.000000	85.234732
2453.000000	85.235349
2452.000000	85.240946
2451.000000	85.246564
2450.000000	85.249663
2449.000000	85.250870
2448.000000	85.252301
2447.000000	85.257132
2446.000000	85.269656
2445.000000	85.293232
2444.000000	85.327350
2443.000000	85.368374
2442.000000	85.412659
2441.000000	85.457484
2440.000000	85.500436
2439.000000	85.540142
2438.000000	85.577754
2437.000000	85.615875
2436.000000	85.656076
2435.000000	85.698610
2434.000000	85.743177
2433.000000	85.788104
2432.000000	85.829649
2431.000000	85.864527
2430.000000	85.892818
2429.000000	85.917153
2428.000000	85.939845
2427.000000	85.962131
2426.000000	85.984971
2425.000000	86.007786
2424.000000	86.027181
2423.000000	86.039098
2422.000000	86.041896
2421.000000	86.036467
2420.000000	86.024408
2419.000000	86.008370
2418.000000	85.993046
2417.000000	85.983143
2416.000000	85.980575
2415.000000	85.985021
2414.000000	85.996139
2413.000000	86.012921
2412.000000	86.032125
2411.000000	86.049935
2410.000000	86.064911
2409.000000	86.077136
2408.000000	86.085375
2407.000000	86.087553
2406.000000	86.083520
2405.000000	86.074740
2404.000000	86.061556
2403.000000	86.043442
2402.000000	86.021408
2401.000000	85.998022
2400.000000	85.974732
2399.000000	85.950798
2398.000000	85.924451
2397.000000	85.892270
2396.000000	85.847972
2395.000000	85.785309
2394.000000	85.697309
2393.000000	85.586783
2392.000000	85.442430
2391.000000	85.280745
2390.000000	85.070962
2389.000000	84.889237
2388.000000	84.940766
2387.000000	84.765674
2386.000000	84.622578
2385.000000	84.473928
2384.000000	84.344255
2383.000000	84.224582
2382.000000	84.123924
2381.000000	84.043063
2380.000000	83.982202
2379.000000	83.938210
2378.000000	83.900613
2377.000000	83.877046
2376.000000	83.837903
2375.000000	83.819625
2374.000000	83.739291
2373.000000	83.776467
2372.000000	84.386273
2371.000000	84.265874
2370.000000	84.221647
2369.000000	84.150148
2368.000000	84.119775
2367.000000	84.106580
2366.000000	84.126451
2365.000000	84.172271
2364.000000	84.246444
2363.000000	84.344379
2362.000000	84.472092
2361.000000	84.631033
2360.000000	84.810109
2359.000000	84.980385
2358.000000	85.090560
2357.000000	85.094210
2356.000000	84.979226
2355.000000	84.806756
2354.000000	84.674082
2353.000000	84.645069
2352.000000	84.705947
2351.000000	84.759071
2350.000000	84.713564
2349.000000	84.562961
2348.000000	84.404193
2347.000000	84.357625
2346.000000	84.461443
2345.000000	84.673420
2344.000000	84.894154
2343.000000	85.053068
2342.000000	85.136596
2341.000000	85.166916
2340.000000	85.171563
2339.000000	85.168157
2338.000000	85.167520
2337.000000	85.169652
2336.000000	85.178719
2335.000000	85.206819
2334.000000	85.275590
2333.000000	85.382622
2332.000000	85.525582
2331.000000	85.675641
2330.000000	85.814584
2329.000000	85.910347
2328.000000	85.949385
2327.000000	85.940953
2326.000000	85.911416
2325.000000	85.892599
2324.000000	85.894130
2323.000000	85.909810
2322.000000	85.921157
2321.000000	85.906665
2320.000000	85.851664
2319.000000	85.744567
2318.000000	85.592596
2317.000000	85.407506
2316.000000	85.216628
2315.000000	85.034293
2314.000000	84.871802
2313.000000	84.718581
2312.000000	84.568978
2311.000000	84.413729
2310.000000	84.255432
2309.000000	84.091085
2308.000000	83.921324
2307.000000	83.743363
2306.000000	83.562311
2305.000000	83.382538
2304.000000	83.214203
2303.000000	83.063718
2302.000000	82.940452
2301.000000	82.846077
2300.000000	82.781560
2299.000000	82.741388
2298.000000	82.721893
2297.000000	82.714665
2296.000000	82.712054
2295.000000	82.707674
2294.000000	82.700291
2293.000000	82.690526
2292.000000	82.679058
2291.000000	82.667028
2290.000000	82.654968
2289.000000	82.640767
2288.000000	82.618564
2287.000000	82.583380
2286.000000	82.532999
2285.000000	82.467436
2284.000000	82.387341
2283.000000	82.297029
2282.000000	82.205537
2281.000000	82.123783
2280.000000	82.060541
2279.000000	82.021739
2278.000000	82.011133
2277.000000	82.028266
2276.000000	82.069293
2275.000000	82.131733
2274.000000	82.217182
2273.000000	82.327683
2272.000000	82.461418
2271.000000	82.613459
2270.000000	82.778543
2269.000000	82.949856
2268.000000	83.119323
2267.000000	83.280665
2266.000000	83.432168
2265.000000	83.574211
2264.000000	83.706498
2263.000000	83.830053
2262.000000	83.947991
2261.000000	84.063772
2260.000000	84.178536
2259.000000	84.293324
2258.000000	84.410695
2257.000000	84.532911
2256.000000	84.660488
2255.000000	84.793577
2254.000000	84.933929
2253.000000	85.082496
2252.000000	85.238145
2251.000000	85.398608
2250.000000	85.562050
2249.000000	85.725419
2248.000000	85.884977
2247.000000	86.038585
2246.000000	86.186725
2245.000000	86.330021
2244.000000	86.467947
2243.000000	86.600754
2242.000000	86.729804
2241.000000	86.855180
2240.000000	86.974661
2239.000000	87.086168
2238.000000	87.188852
2237.000000	87.281204
2236.000000	87.360973
2235.000000	87.427832
2234.000000	87.484090
2233.000000	87.531995
2232.000000	87.572337
2231.000000	87.606410
2230.000000	87.636374
2229.000000	87.662825
2228.000000	87.684437
2227.000000	87.700708
2226.000000	87.713095
2225.000000	87.722420
2224.000000	87.727887
2223.000000	87.729498
2222.000000	87.728992
2221.000000	87.727526
2220.000000	87.724656
2219.000000	87.720586
2218.000000	87.717038
2217.000000	87.715050
2216.000000	87.714332
2215.000000	87.715634
2214.000000	87.721258
2213.000000	87.732096
2212.000000	87.746452
2211.000000	87.762663
2210.000000	87.780620
2209.000000	87.800034
2208.000000	87.819829
2207.000000	87.840223
2206.000000	87.862685
2205.000000	87.886792
2204.000000	87.909550
2203.000000	87.928824
2202.000000	87.945165
2201.000000	87.959953
2200.000000	87.974894
2199.000000	87.994595
2198.000000	88.026164
2197.000000	88.074217
2196.000000	88.137874
2195.000000	88.213303
2194.000000	88.296491
2193.000000	88.382559
2192.000000	88.465853
2191.000000	88.542527
2190.000000	88.611288
2189.000000	88.670753
2188.000000	88.718712
2187.000000	88.755126
2186.000000	88.783139
2185.000000	88.806208
2184.000000	88.826120
2183.000000	88.844237
2182.000000	88.861558
2181.000000	88.876522
2180.000000	88.885510
2179.000000	88.886780
2178.000000	88.882037
2177.000000	88.873583
2176.000000	88.862725
2175.000000	88.851549
2174.000000	88.843270
2173.000000	88.839511
2172.000000	88.839327
2171.000000	88.841579
2170.000000	88.845793
2169.000000	88.850399
2168.000000	88.853117
2167.000000	88.854056
2166.000000	88.855842
2165.000000	88.859985
2164.000000	88.865787
2163.000000	88.873228
2162.000000	88.883647
2161.000000	88.896784
2160.000000	88.910389
2159.000000	88.923807
2158.000000	88.939138
2157.000000	88.958063
2156.000000	88.980606
2155.000000	89.007476
2154.000000	89.040064
2153.000000	89.076880
2152.000000	89.113330
2151.000000	89.146153
2150.000000	89.175379
2149.000000	89.201391
2148.000000	89.223732
2147.000000	89.244036
2146.000000	89.266423
2145.000000	89.293316
2144.000000	89.323751
2143.000000	89.356533
2142.000000	89.391460
2141.000000	89.426678
2140.000000	89.458259
2139.000000	89.483886
2138.000000	89.504173
2137.000000	89.519713
2136.000000	89.530077
2135.000000	89.536532
2134.000000	89.542347
2133.000000	89.549110
2132.000000	89.555698
2131.000000	89.561711
2130.000000	89.568777
2129.000000	89.577329
2128.000000	89.585300
2127.000000	89.591173
2126.000000	89.595260
2125.000000	89.596572
2124.000000	89.591586
2123.000000	89.577199
2122.000000	89.552309
2121.000000	89.516114
2120.000000	89.468315
2119.000000	89.412000
2118.000000	89.353433
2117.000000	89.297827
2116.000000	89.247433
2115.000000	89.203832
2114.000000	89.168413
2113.000000	89.139969
2112.000000	89.115339
2111.000000	89.093578
2110.000000	89.076763
2109.000000	89.066116
2108.000000	89.060383
2107.000000	89.058599
2106.000000	89.060974
2105.000000	89.066241
2104.000000	89.071619
2103.000000	89.076139
2102.000000	89.080979
2101.000000	89.085881
2100.000000	89.089214
2099.000000	89.092416
2098.000000	89.100792
2097.000000	89.118930
2096.000000	89.147853
2095.000000	89.187596
2094.000000	89.238073
2093.000000	89.295988
2092.000000	89.355501
2091.000000	89.413461
2090.000000	89.470676
2089.000000	89.527817
2088.000000	89.584136
2087.000000	89.641039
2086.000000	89.702359
2085.000000	89.769873
2084.000000	89.842237
2083.000000	89.918670
2082.000000	89.999600
2081.000000	90.083383
2080.000000	90.166884
2079.000000	90.249934
2078.000000	90.334554
2077.000000	90.419334
2076.000000	90.499165
2075.000000	90.571285
2074.000000	90.636252
2073.000000	90.693188
2072.000000	90.740001
2071.000000	90.777456
2070.000000	90.809498
2069.000000	90.838403
2068.000000	90.864023
2067.000000	90.888636
2066.000000	90.917735
2065.000000	90.954833
2064.000000	90.998892
2063.000000	91.047854
2062.000000	91.100081
2061.000000	91.151913
2060.000000	91.198603
2059.000000	91.238769
2058.000000	91.274011
2057.000000	91.303747
2056.000000	91.325587
2055.000000	91.340939
2054.000000	91.355248
2053.000000	91.372439
2052.000000	91.393860
2051.000000	91.421392
2050.000000	91.457632
2049.000000	91.502339
2048.000000	91.551844
2047.000000	91.602801
2046.000000	91.654034
2045.000000	91.703203
2044.000000	91.745827
2043.000000	91.779775
2042.000000	91.807010
2041.000000	91.829001
2040.000000	91.844543
2039.000000	91.854140
2038.000000	91.862099
2037.000000	91.872696
2036.000000	91.887777
2035.000000	91.909663
2034.000000	91.941808
2033.000000	91.984118
2032.000000	92.032152
2031.000000	92.082804
2030.000000	92.135826
2029.000000	92.188533
2028.000000	92.234680
2027.000000	92.270328
2026.000000	92.297427
2025.000000	92.318639
2024.000000	92.334112
2023.000000	92.343023
2022.000000	92.346852
2021.000000	92.347795
2020.000000	92.346596
2019.000000	92.345652
2018.000000	92.351113
2017.000000	92.367653
2016.000000	92.393226
2015.000000	92.422133
2014.000000	92.449686
2013.000000	92.471393
2012.000000	92.482091
2011.000000	92.479993
2010.000000	92.468880
2009.000000	92.453008
2008.000000	92.434061
2007.000000	92.415546
2006.000000	92.404677
2005.000000	92.405321
2004.000000	92.414815
2003.000000	92.429556
2002.000000	92.450129
2001.000000	92.476481
2000.000000	92.504402
1999.000000	92.532163
1998.000000	92.559880
1997.000000	92.586351
1996.000000	92.608510
1995.000000	92.623272
1994.000000	92.629511
1993.000000	92.629763
1992.000000	92.629708
1991.000000	92.634749
1990.000000	92.646630
1989.000000	92.663868
1988.000000	92.684958
1987.000000	92.709644
1986.000000	92.737821
1985.000000	92.767839
1984.000000	92.796750
1983.000000	92.822086
1982.000000	92.842478
1981.000000	92.857535
1980.000000	92.868596
1979.000000	92.879072
1978.000000	92.889293
1977.000000	92.899689
1976.000000	92.914959
1975.000000	92.940016
1974.000000	92.973898
1973.000000	93.013682
1972.000000	93.060640
1971.000000	93.115272
1970.000000	93.170772
1969.000000	93.219129
1968.000000	93.260562
1967.000000	93.299677
1966.000000	93.335585
1965.000000	93.362857
1964.000000	93.379075
1963.000000	93.384693
1962.000000	93.380497
1961.000000	93.372321
1960.000000	93.373054
1959.000000	93.390724
1958.000000	93.417907
1957.000000	93.440657
1956.000000	93.453748
1955.000000	93.459175
1954.000000	93.455334
1953.000000	93.438283
1952.000000	93.409894
1951.000000	93.376078
1950.000000	93.341704
1949.000000	93.306489
1948.000000	93.270179
1947.000000	93.237553
1946.000000	93.211082
1945.000000	93.186594
1944.000000	93.162380
1943.000000	93.147545
1942.000000	93.154877
1941.000000	93.187918
1940.000000	93.242494
1939.000000	93.312141
1938.000000	93.386951
1937.000000	93.456786
1936.000000	93.518723
1935.000000	93.574687
1934.000000	93.622990
1933.000000	93.660539
1932.000000	93.689846
1931.000000	93.718789
1930.000000	93.754446
1929.000000	93.792469
1928.000000	93.826009
1927.000000	93.856675
1926.000000	93.885946
1925.000000	93.909132
1924.000000	93.917289
1923.000000	93.918874
1922.000000	93.932795
1921.000000	93.958777
1920.000000	93.978241
1919.000000	93.980925
1918.000000	93.974756
1917.000000	93.969060
1916.000000	93.961421
1915.000000	93.950683
1914.000000	93.939856
1913.000000	93.927652
1912.000000	93.910818
1911.000000	93.895588
1910.000000	93.892493
1909.000000	93.895677
1908.000000	93.890842
1907.000000	93.875853
1906.000000	93.856703
1905.000000	93.830912
1904.000000	93.783295
1903.000000	93.718303
1902.000000	93.658892
1901.000000	93.609003
1900.000000	93.555646
1899.000000	93.500467
1898.000000	93.458826
1897.000000	93.434053
1896.000000	93.411254
1895.000000	93.390126
1894.000000	93.390941
1893.000000	93.417007
1892.000000	93.446120
1891.000000	93.465835
1890.000000	93.487075
1889.000000	93.516952
1888.000000	93.544521
1887.000000	93.565842
1886.000000	93.590700
1885.000000	93.618226
1884.000000	93.637160
1883.000000	93.653442
1882.000000	93.686512
1881.000000	93.733027
1880.000000	93.772204
1879.000000	93.799509
1878.000000	93.825529
1877.000000	93.851634
1876.000000	93.863591
1875.000000	93.857595
1874.000000	93.854433
1873.000000	93.869365
1872.000000	93.890911
1871.000000	93.907745
1870.000000	93.928588
1869.000000	93.963115
1868.000000	94.002474
1867.000000	94.042287
1866.000000	94.094392
1865.000000	94.155795
1864.000000	94.204869
1863.000000	94.237338
1862.000000	94.276311
1861.000000	94.332578
1860.000000	94.388806
1859.000000	94.436729
1858.000000	94.493346
1857.000000	94.564880
1856.000000	94.631790
1855.000000	94.686046
1854.000000	94.745656
1853.000000	94.815579
1852.000000	94.880814
1851.000000	94.940160
1850.000000	94.999441
1849.000000	95.059339
1848.000000	95.115214
1847.000000	95.167076
1846.000000	95.213413
1845.000000	95.240828
1844.000000	95.247336
1843.000000	95.259934
1842.000000	95.301595
1841.000000	95.353802
1840.000000	95.387758
1839.000000	95.399793
1838.000000	95.409217
1837.000000	95.432355
1836.000000	95.463301
1835.000000	95.501876
1834.000000	95.558659
1833.000000	95.631819
1832.000000	95.708146
1831.000000	95.772761
1830.000000	95.816247
1829.000000	95.848087
1828.000000	95.881261
1827.000000	95.914876
1826.000000	95.944298
1825.000000	95.976925
1824.000000	96.022181
1823.000000	96.081248
1822.000000	96.152379
1821.000000	96.231868
1820.000000	96.307659
1819.000000	96.366594
1818.000000	96.418520
1817.000000	96.481281
1816.000000	96.540981
1815.000000	96.576606
1814.000000	96.597697
1813.000000	96.626686
1812.000000	96.661021
1811.000000	96.678670
1810.000000	96.692147
1809.000000	96.726654
1808.000000	96.768329
1807.000000	96.798693
1806.000000	96.832930
1805.000000	96.884160
1804.000000	96.932320
1803.000000	96.965800
1802.000000	97.007721
1801.000000	97.073176
1800.000000	97.134504
1799.000000	97.157271
1798.000000	97.158725
1797.000000	97.169275
1796.000000	97.184589
1795.000000	97.193740
1794.000000	97.204661
1793.000000	97.228643
1792.000000	97.259316
1791.000000	97.286042
1790.000000	97.323128
1789.000000	97.370584
1788.000000	97.398735
1787.000000	97.395018
1786.000000	97.391272
1785.000000	97.416841
1784.000000	97.455736
1783.000000	97.487072
1782.000000	97.509471
1781.000000	97.526467
1780.000000	97.548704
1779.000000	97.578024
1778.000000	97.619296
1777.000000	97.674997
1776.000000	97.744778
1775.000000	97.828513
1774.000000	97.911748
1773.000000	97.985070
1772.000000	98.058734
1771.000000	98.121700
1770.000000	98.156094
1769.000000	98.178899
1768.000000	98.216688
1767.000000	98.266603
1766.000000	98.318836
1765.000000	98.378221
1764.000000	98.449215
1763.000000	98.517421
1762.000000	98.567578
1761.000000	98.617835
1760.000000	98.686852
1759.000000	98.754013
1758.000000	98.797026
1757.000000	98.816912
1756.000000	98.843896
1755.000000	98.877231
1754.000000	98.875946
1753.000000	98.836036
1752.000000	98.808629
1751.000000	98.827581
1750.000000	98.863007
1749.000000	98.882340
1748.000000	98.889224
1747.000000	98.896816
1746.000000	98.892177
1745.000000	98.876722
1744.000000	98.882133
1743.000000	98.907205
1742.000000	98.919009
1741.000000	98.901244
1740.000000	98.863639
1739.000000	98.820535
1738.000000	98.782052
1737.000000	98.741674
1736.000000	98.683219
1735.000000	98.605890
1734.000000	98.550935
1733.000000	98.550708
1732.000000	98.591486
1731.000000	98.629864
1730.000000	98.638952
1729.000000	98.613522
1728.000000	98.572488
1727.000000	98.533624
1726.000000	98.486148
1725.000000	98.425695
1724.000000	98.358621
1723.000000	98.291840
1722.000000	98.251136
1721.000000	98.241263
1720.000000	98.219921
1719.000000	98.141621
1718.000000	98.049278
1717.000000	98.037740
1716.000000	98.079249
1715.000000	98.108790
1714.000000	98.144226
1713.000000	98.200479
1712.000000	98.237838
1711.000000	98.244812
1710.000000	98.267674
1709.000000	98.330959
1708.000000	98.404045
1707.000000	98.457060
1706.000000	98.514269
1705.000000	98.610215
1704.000000	98.716544
1703.000000	98.804478
1702.000000	98.899555
1701.000000	99.021896
1700.000000	99.132381
1699.000000	99.186743
1698.000000	99.238301
1697.000000	99.300567
1696.000000	99.334608
1695.000000	99.330739
1694.000000	99.346657
1693.000000	99.388840
1692.000000	99.396619
1691.000000	99.350380
1690.000000	99.286327
1689.000000	99.245150
1688.000000	99.242105
1687.000000	99.264036
1686.000000	99.280604
1685.000000	99.265506
1684.000000	99.257899
1683.000000	99.296286
1682.000000	99.336909
1681.000000	99.310161
1680.000000	99.239701
1679.000000	99.184196
1678.000000	99.140875
1677.000000	99.066341
1676.000000	98.964083
1675.000000	98.885655
1674.000000	98.825517
1673.000000	98.751712
1672.000000	98.670550
1671.000000	98.587948
1670.000000	98.486527
1669.000000	98.347016
1668.000000	98.209766
1667.000000	98.123745
1666.000000	98.056631
1665.000000	97.946010
1664.000000	97.765894
1663.000000	97.542772
1662.000000	97.301980
1661.000000	97.028086
1660.000000	96.744959
1659.000000	96.495330
1658.000000	96.272018
1657.000000	96.051122
1656.000000	95.827193
1655.000000	95.552865
1654.000000	95.054319
1653.000000	94.287537
1652.000000	93.499562
1651.000000	92.909363
1650.000000	92.388808
1649.000000	91.693787
1648.000000	90.623862
1647.000000	89.134740
1646.000000	87.402715
1645.000000	85.659554
1644.000000	83.988374
1643.000000	82.344613
1642.000000	80.693986
1641.000000	79.096539
1640.000000	77.718521
1639.000000	76.687018
1638.000000	76.015663
1637.000000	75.683997
1636.000000	75.742639
1635.000000	76.199253
1634.000000	76.885609
1633.000000	77.664434
1632.000000	78.502788
1631.000000	79.410577
1630.000000	80.381793
1629.000000	81.381590
1628.000000	82.372783
1627.000000	83.320280
1626.000000	84.187668
1625.000000	84.976796
1624.000000	85.742070
1623.000000	86.514412
1622.000000	87.237485
1621.000000	87.854138
1620.000000	88.404291
1619.000000	88.956647
1618.000000	89.529133
1617.000000	90.094013
1616.000000	90.627867
1615.000000	91.113916
1614.000000	91.512042
1613.000000	91.794993
1612.000000	91.994701
1611.000000	92.148532
1610.000000	92.207458
1609.000000	92.074112
1608.000000	91.704422
1607.000000	91.071157
1606.000000	90.062467
1605.000000	88.526145
1604.000000	86.422861
1603.000000	83.824920
1602.000000	80.844486
1601.000000	77.603842
1600.000000	74.144122
1599.000000	70.308767
1598.000000	65.735179
1597.000000	60.136837
1596.000000	53.692362
1595.000000	47.125058
1594.000000	41.323411
1593.000000	36.834766
1592.000000	33.763359
1591.000000	31.977357
1590.000000	31.233692
1589.000000	31.179643
1588.000000	31.452761
1587.000000	31.785913
1586.000000	31.966230
1585.000000	31.860814
1584.000000	31.534003
1583.000000	31.224787
1582.000000	31.118624
1581.000000	31.226714
1580.000000	31.511766
1579.000000	31.979362
1578.000000	32.583882
1577.000000	33.143043
1576.000000	33.479593
1575.000000	33.633803
1574.000000	33.736859
1573.000000	33.830075
1572.000000	34.002554
1571.000000	34.514812
1570.000000	35.636414
1569.000000	37.326014
1568.000000	39.335928
1567.000000	41.567306
1566.000000	43.995094
1565.000000	46.440372
1564.000000	48.649533
1563.000000	50.531188
1562.000000	52.202607
1561.000000	53.893652
1560.000000	55.956998
1559.000000	58.594667
1558.000000	61.205839
1557.000000	63.195751
1556.000000	64.767281
1555.000000	66.265992
1554.000000	67.751017
1553.000000	69.099301
1552.000000	70.258567
1551.000000	71.309655
1550.000000	72.325072
1549.000000	73.275109
1548.000000	74.108141
1547.000000	74.862184
1546.000000	75.600363
1545.000000	76.326532
1544.000000	77.010194
1543.000000	77.650437
1542.000000	78.279364
1541.000000	78.898927
1540.000000	79.462564
1539.000000	79.948047
1538.000000	80.390756
1537.000000	80.816994
1536.000000	81.219593
1535.000000	81.611157
1534.000000	82.004945
1533.000000	82.384110
1532.000000	82.731442
1531.000000	83.063373
1530.000000	83.408320
1529.000000	83.751644
1528.000000	84.047272
1527.000000	84.298881
1526.000000	84.549662
1525.000000	84.808864
1524.000000	85.054219
1523.000000	85.274324
1522.000000	85.484826
1521.000000	85.697298
1520.000000	85.902572
1519.000000	86.104500
1518.000000	86.294197
1517.000000	86.447492
1516.000000	86.559859
1515.000000	86.662790
1514.000000	86.788547
1513.000000	86.938411
1512.000000	87.087383
1511.000000	87.220164
1510.000000	87.350091
1509.000000	87.486296
1508.000000	87.594816
1507.000000	87.651866
1506.000000	87.691039
1505.000000	87.743025
1504.000000	87.834484
1503.000000	87.959128
1502.000000	88.099497
1501.000000	88.248237
1500.000000	88.392063
1499.000000	88.510931
1498.000000	88.610787
1497.000000	88.739765
1496.000000	88.919723
1495.000000	89.142516
1494.000000	89.414050
1493.000000	89.720387
1492.000000	90.020529
1491.000000	90.292537
1490.000000	90.559084
1489.000000	90.834646
1488.000000	91.080263
1487.000000	91.285667
1486.000000	91.500543
1485.000000	91.725291
1484.000000	91.932989
1483.000000	92.134956
1482.000000	92.346798
1481.000000	92.558264
1480.000000	92.745738
1479.000000	92.920398
1478.000000	93.109368
1477.000000	93.312070
1476.000000	93.503525
1475.000000	93.697280
1474.000000	93.928253
1473.000000	94.181416
1472.000000	94.413230
1471.000000	94.598749
1470.000000	94.738201
1469.000000	94.812261
1468.000000	94.786048
1467.000000	94.627957
1466.000000	94.259793
1465.000000	93.546449
1464.000000	92.421486
1463.000000	90.904760
1462.000000	88.991573
1461.000000	86.647635
1460.000000	83.854003
1459.000000	80.560872
1458.000000	76.666986
1457.000000	72.494361
1456.000000	68.934152
1455.000000	66.394808
1454.000000	64.429431
1453.000000	62.581370
1452.000000	60.851968
1451.000000	59.527766
1450.000000	58.854584
1449.000000	58.908345
1448.000000	59.606794
1447.000000	60.715890
1446.000000	62.006387
1445.000000	63.464818
1444.000000	65.231995
1443.000000	67.332994
1442.000000	69.587897
1441.000000	71.759901
1440.000000	73.694719
1439.000000	75.347768
1438.000000	76.783123
1437.000000	78.135184
1436.000000	79.450027
1435.000000	80.645180
1434.000000	81.700912
1433.000000	82.698819
1432.000000	83.677792
1431.000000	84.578623
1430.000000	85.337797
1429.000000	85.976588
1428.000000	86.532870
1427.000000	87.014459
1426.000000	87.431034
1425.000000	87.821140
1424.000000	88.226733
1423.000000	88.617990
1422.000000	88.947360
1421.000000	89.221654
1420.000000	89.466969
1419.000000	89.674178
1418.000000	89.846761
1417.000000	90.050179
1416.000000	90.307086
1415.000000	90.567516
1414.000000	90.793858
1413.000000	91.004500
1412.000000	91.222906
1411.000000	91.417716
1410.000000	91.553648
1409.000000	91.643977
1408.000000	91.687504
1407.000000	91.630310
1406.000000	91.403736
1405.000000	90.966965
1404.000000	90.331151
1403.000000	89.546185
1402.000000	88.692331
1401.000000	87.858642
1400.000000	87.117015
1399.000000	86.505358
1398.000000	86.033901
1397.000000	85.740897
1396.000000	85.733252
1395.000000	86.127945
1394.000000	86.895001
1393.000000	87.842532
1392.000000	88.773426
1391.000000	89.568071
1390.000000	90.188483
1389.000000	90.680791
1388.000000	91.147494
1387.000000	91.667635
1386.000000	92.227776
1385.000000	92.750760
1384.000000	93.168238
1383.000000	93.445823
1382.000000	93.600037
1381.000000	93.692316
1380.000000	93.779899
1379.000000	93.882782
1378.000000	93.985554
1377.000000	94.047350
1376.000000	93.999152
1375.000000	93.748466
1374.000000	93.200205
1373.000000	92.283435
1372.000000	90.934872
1371.000000	89.052173
1370.000000	86.522579
1369.000000	83.390461
1368.000000	80.032699
1367.000000	77.065306
1366.000000	75.005954
1365.000000	74.038809
1364.000000	74.058869
1363.000000	74.847136
1362.000000	76.206673
1361.000000	78.007656
1360.000000	80.129146
1359.000000	82.386728
1358.000000	84.547691
1357.000000	86.418945
1356.000000	87.921984
1355.000000	89.084568
1354.000000	89.986795
1353.000000	90.716317
1352.000000	91.334701
1351.000000	91.872727
1350.000000	92.343473
1349.000000	92.757674
1348.000000	93.130893
1347.000000	93.469299
1346.000000	93.768442
1345.000000	94.026112
1344.000000	94.245725
1343.000000	94.426765
1342.000000	94.567604
1341.000000	94.680647
1340.000000	94.793681
1339.000000	94.928540
1338.000000	95.085314
1337.000000	95.256110
1336.000000	95.435522
1335.000000	95.615096
1334.000000	95.784540
1333.000000	95.939873
1332.000000	96.081713
1331.000000	96.205991
1330.000000	96.303582
1329.000000	96.369174
1328.000000	96.394787
1327.000000	96.353549
1326.000000	96.188857
1325.000000	95.814541
1324.000000	95.127207
1323.000000	94.014903
1322.000000	92.398024
1321.000000	90.298513
1320.000000	87.878391
1319.000000	85.403649
1318.000000	83.128722
1317.000000	81.199153
1316.000000	79.676476
1315.000000	78.644557
1314.000000	78.231525
1313.000000	78.500654
1312.000000	79.326879
1311.000000	80.411450
1310.000000	81.471977
1309.000000	82.420897
1308.000000	83.372668
1307.000000	84.498344
1306.000000	85.861975
1305.000000	87.375975
1304.000000	88.871455
1303.000000	90.191015
1302.000000	91.249160
1301.000000	92.043334
1300.000000	92.612556
1299.000000	92.993070
1298.000000	93.205362
1297.000000	93.255908
1296.000000	93.138092
1295.000000	92.821939
1294.000000	92.262370
1293.000000	91.418102
1292.000000	90.268111
1291.000000	88.852837
1290.000000	87.293033
1289.000000	85.726900
1288.000000	84.174830
1287.000000	82.461847
1286.000000	80.345079
1285.000000	77.778019
1284.000000	75.059117
1283.000000	72.728976
1282.000000	71.310365
1281.000000	71.069629
1280.000000	71.952711
1279.000000	73.656554
1278.000000	75.752297
1277.000000	77.822294
1276.000000	79.513153
1275.000000	80.546093
1274.000000	80.811918
1273.000000	80.535179
1272.000000	80.294043
1271.000000	80.715679
1270.000000	82.053479
1269.000000	84.048718
1268.000000	86.187391
1267.000000	88.066611
1266.000000	89.552932
1265.000000	90.701961
1264.000000	91.614837
1263.000000	92.367537
1262.000000	93.010708
1261.000000	93.584648
1260.000000	94.116420
1259.000000	94.612633
1258.000000	95.069525
1257.000000	95.480786
1256.000000	95.839151
1255.000000	96.139755
1254.000000	96.386411
1253.000000	96.595483
1252.000000	96.786330
1251.000000	96.972513
1250.000000	97.162661
1249.000000	97.361999
1248.000000	97.569306
1247.000000	97.774951
1246.000000	97.969035
1245.000000	98.151047
1244.000000	98.326910
1243.000000	98.500990
1242.000000	98.675691
1241.000000	98.853567
1240.000000	99.032265
1239.000000	99.199526
1238.000000	99.340874
1237.000000	99.449744
1236.000000	99.526293
1235.000000	99.572889
1234.000000	99.595389
1233.000000	99.605043
1232.000000	99.609146
1231.000000	99.599377
1230.000000	99.555560
1229.000000	99.449059
1228.000000	99.241962
1227.000000	98.881493
1226.000000	98.297931
1225.000000	97.414269
1224.000000	96.137276
1223.000000	94.371471
1222.000000	92.058413
1221.000000	89.212710
1220.000000	85.951573
1219.000000	82.470851
1218.000000	78.987374
1217.000000	75.675950
1216.000000	72.630387
1215.000000	69.863512
1214.000000	67.337855
1213.000000	65.014640
1212.000000	62.891963
1211.000000	61.008217
1210.000000	59.396637
1209.000000	58.074650
1208.000000	57.066017
1207.000000	56.397753
1206.000000	56.084935
1205.000000	56.107589
1204.000000	56.427045
1203.000000	57.001244
1202.000000	57.781961
1201.000000	58.749083
1200.000000	59.926491
1199.000000	61.362280
1198.000000	63.086216
1197.000000	65.082338
1196.000000	67.303679
1195.000000	69.675209
1194.000000	72.098929
1193.000000	74.478858
1192.000000	76.741484
1191.000000	78.832445
1190.000000	80.710691
1189.000000	82.356825
1188.000000	83.774053
1187.000000	84.979897
1186.000000	85.988985
1185.000000	86.818647
1184.000000	87.496667
1183.000000	88.048769
1182.000000	88.495613
1181.000000	88.846187
1180.000000	89.097704
1179.000000	89.240325
1178.000000	89.266046
1177.000000	89.188539
1176.000000	89.042180
1175.000000	88.866858
1174.000000	88.698118
1173.000000	88.566811
1172.000000	88.499581
1171.000000	88.511735
1170.000000	88.604303
1169.000000	88.771213
1168.000000	89.004941
1167.000000	89.288101
1166.000000	89.588184
1165.000000	89.867239
1164.000000	90.094983
1163.000000	90.258983
1162.000000	90.373393
1161.000000	90.482318
1160.000000	90.642042
1159.000000	90.887352
1158.000000	91.216620
1157.000000	91.608620
1156.000000	92.046224
1155.000000	92.520100
1154.000000	93.020013
1153.000000	93.532105
1152.000000	94.036543
1151.000000	94.501879
1150.000000	94.889547
1149.000000	95.174708
1148.000000	95.357903
1147.000000	95.458574
1146.000000	95.503143
1145.000000	95.514531
1144.000000	95.505563
1143.000000	95.463931
1142.000000	95.351185
1141.000000	95.122657
1140.000000	94.735834
1139.000000	94.153543
1138.000000	93.327734
1137.000000	92.196677
1136.000000	90.694547
1135.000000	88.732340
1134.000000	86.205166
1133.000000	82.999951
1132.000000	79.033589
1131.000000	74.321279
1130.000000	69.023796
1129.000000	63.480942
1128.000000	58.188260
1127.000000	53.680937
1126.000000	50.353200
1125.000000	48.356148
1124.000000	47.589370
1123.000000	47.743009
1122.000000	48.356938
1121.000000	48.900432
1120.000000	48.899193
1119.000000	48.006467
1118.000000	46.076896
1117.000000	43.325477
1116.000000	40.439486
1115.000000	38.441515
1114.000000	38.221964
1113.000000	40.086795
1112.000000	43.675778
1111.000000	48.198092
1110.000000	52.780248
1109.000000	56.727296
1108.000000	59.629208
1107.000000	61.322076
1106.000000	61.788762
1105.000000	61.135363
1104.000000	59.710281
1103.000000	58.206821
1102.000000	57.488145
1101.000000	58.165457
1100.000000	60.271808
1099.000000	63.310902
1098.000000	66.615059
1097.000000	69.694349
1096.000000	72.331387
1095.000000	74.498689
1094.000000	76.265564
1093.000000	77.744007
1092.000000	79.042487
1091.000000	80.236253
1090.000000	81.373631
1089.000000	82.496548
1088.000000	83.641410
1087.000000	84.811820
1086.000000	85.979291
1085.000000	87.102678
1084.000000	88.136692
1083.000000	89.040853
1082.000000	89.793409
1081.000000	90.404911
1080.000000	90.902882
1079.000000	91.305679
1078.000000	91.626956
1077.000000	91.880047
1076.000000	92.068955
1075.000000	92.176806
1074.000000	92.165786
1073.000000	91.999249
1072.000000	91.629131
1071.000000	90.984664
1070.000000	89.980315
1069.000000	88.506757
1068.000000	86.441639
1067.000000	83.636331
1066.000000	79.950210
1065.000000	75.335903
1064.000000	69.899046
1063.000000	63.945593
1062.000000	57.921798
1061.000000	52.270081
1060.000000	47.259929
1059.000000	42.885328
1058.000000	38.907930
1057.000000	35.095049
1056.000000	31.512593
1055.000000	28.600278
1054.000000	27.015472
1053.000000	27.274166
1052.000000	29.486863
1051.000000	33.307680
1050.000000	38.059734
1049.000000	43.047692
1048.000000	47.770634
1047.000000	51.979156
1046.000000	55.628722
1045.000000	58.789801
1044.000000	61.566799
1043.000000	64.033181
1042.000000	66.215918
1041.000000	68.117702
1040.000000	69.756496
1039.000000	71.157998
1038.000000	72.350512
1037.000000	73.372454
1036.000000	74.261840
1035.000000	75.051505
1034.000000	75.761541
1033.000000	76.409974
1032.000000	77.018070
1031.000000	77.597947
1030.000000	78.153780
1029.000000	78.689809
1028.000000	79.212909
1027.000000	79.727017
1026.000000	80.232624
1025.000000	80.735006
1024.000000	81.240553
1023.000000	81.744551
1022.000000	82.232820
1021.000000	82.689984
1020.000000	83.101442
1019.000000	83.443417
1018.000000	83.679079
1017.000000	83.767450
1016.000000	83.644809
1015.000000	83.220708
1014.000000	82.385277
1013.000000	81.027766
1012.000000	79.073135
1011.000000	76.497600
1010.000000	73.361259
1009.000000	69.818661
1008.000000	66.107086
1007.000000	62.559014
1006.000000	59.631800
1005.000000	57.841529
1004.000000	57.536379
1003.000000	58.639611
1002.000000	60.599621
1001.000000	62.660704
1000.000000	64.186139
999.000000	64.783955
998.000000	64.283492
997.000000	62.756569
996.000000	60.607485
995.000000	58.523086
994.000000	57.172170
993.000000	56.866710
992.000000	57.483122
991.000000	58.681103
990.000000	60.184249
989.000000	61.896795
988.000000	63.834381
987.000000	65.973723
986.000000	68.197711
985.000000	70.349970
984.000000	72.310130
983.000000	74.025072
982.000000	75.495469
981.000000	76.753349
980.000000	77.838411
979.000000	78.785253
978.000000	79.613130
977.000000	80.336842
976.000000	80.972707
975.000000	81.532980
974.000000	82.029363
973.000000	82.474046
972.000000	82.881803
971.000000	83.264341
970.000000	83.626600
969.000000	83.973479
968.000000	84.309915
967.000000	84.636803
966.000000	84.950578
965.000000	85.248180
964.000000	85.530072
963.000000	85.795859
962.000000	86.043958
961.000000	86.275962
960.000000	86.495554
959.000000	86.703860
958.000000	86.899165
957.000000	87.082381
956.000000	87.257837
955.000000	87.427768
954.000000	87.592443
953.000000	87.754495
952.000000	87.917841
951.000000	88.081685
950.000000	88.239967
949.000000	88.387821
948.000000	88.523248
947.000000	88.643834
946.000000	88.748174
945.000000	88.840093
944.000000	88.926920
943.000000	89.012984
942.000000	89.099379
941.000000	89.189156
940.000000	89.286302
939.000000	89.390241
938.000000	89.496678
937.000000	89.603659
936.000000	89.711542
935.000000	89.817777
934.000000	89.917874
933.000000	90.011190
932.000000	90.100296
931.000000	90.185333
930.000000	90.263940
929.000000	90.336127
928.000000	90.403875
927.000000	90.466964
926.000000	90.524933
925.000000	90.581568
924.000000	90.642297
923.000000	90.708429
922.000000	90.778809
921.000000	90.854682
920.000000	90.936597
919.000000	91.018757
918.000000	91.093004
917.000000	91.157018
916.000000	91.213210
915.000000	91.262658
914.000000	91.306937
913.000000	91.353230
912.000000	91.409820
911.000000	91.477730
910.000000	91.552270
909.000000	91.629890
908.000000	91.707291
907.000000	91.777331
906.000000	91.834202
905.000000	91.879877
904.000000	91.917819
903.000000	91.944241
902.000000	91.951551
901.000000	91.937608
900.000000	91.900487
899.000000	91.823841
898.000000	91.677545
897.000000	91.432101
896.000000	91.082549
895.000000	90.666956
894.000000	90.252129
893.000000	89.870602
892.000000	89.455577
891.000000	88.876517
890.000000	88.085593
889.000000	87.224044
888.000000	86.535889
887.000000	86.173070
886.000000	86.104470
885.000000	86.208736
884.000000	86.407450
883.000000	86.670903
882.000000	86.957421
881.000000	87.212303
880.000000	87.431309
879.000000	87.687516
878.000000	88.068341
877.000000	88.601692
876.000000	89.237425
875.000000	89.884202
874.000000	90.461316
873.000000	90.930719
872.000000	91.296105
871.000000	91.576112
870.000000	91.781984
869.000000	91.914783
868.000000	91.975665
867.000000	91.966102
866.000000	91.884103
865.000000	91.732671
864.000000	91.530287
863.000000	91.313761
862.000000	91.129751
861.000000	91.021912
860.000000	91.015307
859.000000	91.103846
858.000000	91.253993
857.000000	91.428417
856.000000	91.608405
855.000000	91.792011
854.000000	91.980844
853.000000	92.172510
852.000000	92.360596
851.000000	92.535108
850.000000	92.685085
849.000000	92.806339
848.000000	92.905556
847.000000	92.994217
846.000000	93.079816
845.000000	93.165005
844.000000	93.248557
843.000000	93.323422
842.000000	93.378092
841.000000	93.404849
840.000000	93.406759
839.000000	93.394991
838.000000	93.383269
837.000000	93.386244
836.000000	93.416950
835.000000	93.479829
834.000000	93.567010
833.000000	93.663538
832.000000	93.753730
831.000000	93.822174
830.000000	93.856487
829.000000	93.856026
828.000000	93.835792
827.000000	93.816882
826.000000	93.813066
825.000000	93.826948
824.000000	93.853182
823.000000	93.881821
822.000000	93.903697
821.000000	93.917822
820.000000	93.931647
819.000000	93.952462
818.000000	93.981292
817.000000	94.015977
816.000000	94.051632
815.000000	94.074188
814.000000	94.056741
813.000000	93.962706
812.000000	93.749186
811.000000	93.369685
810.000000	92.801208
809.000000	92.093972
808.000000	91.391688
807.000000	90.875076
806.000000	90.661345
805.000000	90.744612
804.000000	91.022017
803.000000	91.367469
802.000000	91.684390
801.000000	91.918032
800.000000	92.044164
799.000000	92.055195
798.000000	91.947674
797.000000	91.714788
796.000000	91.343053
795.000000	90.814889
794.000000	90.118464
793.000000	89.258850
792.000000	88.272463
791.000000	87.231157
790.000000	86.231582
789.000000	85.372350
788.000000	84.728779
787.000000	84.334341
786.000000	84.177538
785.000000	84.214453
784.000000	84.381683
783.000000	84.606900
782.000000	84.817262
781.000000	84.954659
780.000000	84.993592
779.000000	84.950080
778.000000	84.880064
777.000000	84.863064
776.000000	84.974691
775.000000	85.258965
774.000000	85.714413
773.000000	86.302005
772.000000	86.963693
771.000000	87.641297
770.000000	88.290223
769.000000	88.883643
768.000000	89.408024
767.000000	89.855370
766.000000	90.221482
765.000000	90.508829
764.000000	90.728361
763.000000	90.895726
762.000000	91.027040
761.000000	91.138411
760.000000	91.245600
759.000000	91.361543
758.000000	91.492019
757.000000	91.634467
756.000000	91.779986
755.000000	91.915404
754.000000	92.025365
753.000000	92.095028
752.000000	92.113510
751.000000	92.077200
750.000000	91.991321
749.000000	91.869819
748.000000	91.731815
747.000000	91.594575
746.000000	91.467678
745.000000	91.351954
744.000000	91.241866
743.000000	91.127410
742.000000	90.996227
741.000000	90.838251
740.000000	90.651105
739.000000	90.441847
738.000000	90.222622
737.000000	90.002226
736.000000	89.777756
735.000000	89.530878
734.000000	89.234105
733.000000	88.865711
732.000000	88.424284
731.000000	87.934091
730.000000	87.441389
729.000000	87.004088
728.000000	86.676657
727.000000	86.496790
726.000000	86.475404
725.000000	86.592950
724.000000	86.808233
723.000000	87.081651
722.000000	87.396274
721.000000	87.750532
720.000000	88.130340
719.000000	88.500582
718.000000	88.828601
717.000000	89.104081
716.000000	89.331919
715.000000	89.516286
714.000000	89.657978
713.000000	89.761430
712.000000	89.837093
711.000000	89.897591
710.000000	89.955483
709.000000	90.021205
708.000000	90.096567
707.000000	90.172886
706.000000	90.236724
705.000000	90.275570
704.000000	90.281919
703.000000	90.257355
702.000000	90.216169
701.000000	90.182740
700.000000	90.179630
699.000000	90.217439
698.000000	90.291906
697.000000	90.385208
696.000000	90.471708
695.000000	90.527589
694.000000	90.540742
693.000000	90.513696
692.000000	90.459484
691.000000	90.397025
690.000000	90.345203
689.000000	90.313512
688.000000	90.295186
687.000000	90.273023
686.000000	90.233857
685.000000	90.175561
684.000000	90.105647
683.000000	90.041672
682.000000	90.008210
681.000000	90.026235
680.000000	90.097493
679.000000	90.210187
678.000000	90.348808
677.000000	90.481147
676.000000	90.582667
675.000000	90.636778
674.000000	90.620980
673.000000	90.562536
672.000000	90.597476
671.000000	90.913394
670.000000	91.571719
669.000000	92.426999
668.000000	92.933454
667.000000	92.624676
666.000000	91.914339
665.000000	91.376752
664.000000	91.138125
663.000000	91.093111
662.000000	91.111476
661.000000	91.154704
660.000000	91.215798
659.000000	91.280109
658.000000	91.326744
657.000000	91.333314
656.000000	91.293614
655.000000	91.222238
654.000000	91.139173
653.000000	91.070420
652.000000	91.043415
651.000000	91.070397
650.000000	91.142420
649.000000	91.240773
648.000000	91.341338
647.000000	91.409664
646.000000	91.413549
645.000000	91.350984
644.000000	91.254158
643.000000	91.162216
642.000000	91.098752
641.000000	91.073266
640.000000	91.085614
639.000000	91.119802
638.000000	91.147579
637.000000	91.149519
636.000000	91.128088
635.000000	91.097152
634.000000	91.069622
633.000000	91.059218
632.000000	91.078694
631.000000	91.125727
630.000000	91.179009
629.000000	91.213388
628.000000	91.212386
627.000000	91.168743
626.000000	91.087051
625.000000	90.992599
624.000000	90.924001
623.000000	90.904298
622.000000	90.923221
621.000000	90.955060
620.000000	90.984354
619.000000	91.005743
618.000000	91.011040
617.000000	90.989685
616.000000	90.940496
615.000000	90.875404
614.000000	90.813680
613.000000	90.775521
612.000000	90.771709
611.000000	90.791715
610.000000	90.808865
609.000000	90.800561
608.000000	90.759844
607.000000	90.690256
606.000000	90.600995
605.000000	90.509908
604.000000	90.436018
603.000000	90.378707
602.000000	90.311090
601.000000	90.198632
600.000000	90.015786
599.000000	89.744964
598.000000	89.377703
597.000000	88.922759
596.000000	88.403702
595.000000	87.838026
594.000000	87.207886
593.000000	86.432569
592.000000	85.352151
591.000000	83.803121
590.000000	81.815708
589.000000	79.770654
588.000000	78.272740
587.000000	77.762998
586.000000	78.205503
585.000000	79.170808
584.000000	80.241792
583.000000	81.268812
582.000000	82.275093
581.000000	83.266085
580.000000	84.182062
579.000000	84.961332
578.000000	85.575250
577.000000	86.024083
576.000000	86.337246
575.000000	86.566165
574.000000	86.747537
573.000000	86.887407
572.000000	86.983862
571.000000	87.040835
570.000000	87.053580
569.000000	86.998793
568.000000	86.859373
567.000000	86.632609
566.000000	86.297156
565.000000	85.792033
564.000000	85.048194
563.000000	84.052685
562.000000	82.877989
561.000000	81.656954
560.000000	80.526719
559.000000	79.565638
558.000000	78.760364
557.000000	78.060225
556.000000	77.499764
555.000000	77.236468
554.000000	77.439358
553.000000	78.145458
552.000000	79.231006
551.000000	80.476236
550.000000	81.641973
549.000000	82.561304
548.000000	83.197959
547.000000	83.613174
546.000000	83.881196
545.000000	84.048035
544.000000	84.146650
543.000000	84.206674
542.000000	84.238797
541.000000	84.230679
540.000000	84.177958
539.000000	84.097554
538.000000	84.005903
537.000000	83.904541
536.000000	83.793132
535.000000	83.675522
534.000000	83.545657
533.000000	83.387291
532.000000	83.195593
531.000000	82.990807
530.000000	82.799045
529.000000	82.630423
528.000000	82.481732
527.000000	82.341313
526.000000	82.171519
525.000000	81.911920
524.000000	81.516542
523.000000	80.974106
522.000000	80.299637
521.000000	79.525576
520.000000	78.704912
519.000000	77.892569
518.000000	77.105728
517.000000	76.324279
516.000000	75.542374
515.000000	74.796416
514.000000	74.139097
513.000000	73.623126
512.000000	73.314306
511.000000	73.286753
510.000000	73.568517
509.000000	74.110992
508.000000	74.837564
507.000000	75.685278
506.000000	76.596685
505.000000	77.519810
504.000000	78.431323
503.000000	79.330853
502.000000	80.199574
501.000000	80.995984
500.000000	81.699972
499.000000	82.325107
498.000000	82.878386
497.000000	83.351720
496.000000	83.750343
495.000000	84.095852
494.000000	84.399760
493.000000	84.654677
492.000000	84.870343
491.000000	85.078636
490.000000	85.287198
489.000000	85.464701
488.000000	85.574164
487.000000	85.595977
486.000000	85.498567
485.000000	85.217771
484.000000	84.699383
483.000000	83.935261
482.000000	82.953009
481.000000	81.809039
480.000000	80.613029
479.000000	79.507820
478.000000	78.581664
477.000000	77.826354
476.000000	77.199511
475.000000	76.702072
474.000000	76.366925
473.000000	76.229288
472.000000	76.339518
471.000000	76.749242
470.000000	77.457834
469.000000	78.394076
468.000000	79.465478
467.000000	80.584998
466.000000	81.665816
465.000000	82.639493
464.000000	83.478642
463.000000	84.201987
462.000000	84.843425
461.000000	85.417944
460.000000	85.913096
459.000000	86.301986
458.000000	86.563840
457.000000	86.709220
456.000000	86.782509
455.000000	86.824575
454.000000	86.851764
453.000000	86.873400
452.000000	86.915576
451.000000	87.004379
450.000000	87.131337
449.000000	87.264158
448.000000	87.385587
447.000000	87.502787
446.000000	87.619574
445.000000	87.720706
444.000000	87.787844
443.000000	87.823744
442.000000	87.839778
441.000000	87.831944
440.000000	87.789327
439.000000	87.715730
438.000000	87.627110
437.000000	87.535138
436.000000	87.452202
435.000000	87.396953
434.000000	87.367778
433.000000	87.319886
432.000000	87.190568
431.000000	86.952212
430.000000	86.628769
429.000000	86.261575
428.000000	85.894963
427.000000	85.586831
426.000000	85.379907
425.000000	85.270606
424.000000	85.245108
423.000000	85.312658
422.000000	85.459828
421.000000	85.614178
420.000000	85.706667
419.000000	85.790876
418.000000	86.000873
417.000000	86.345028
416.000000	86.729497
415.000000	87.086493
414.000000	87.382256
413.000000	87.591447
412.000000	87.695304
411.000000	87.690864
410.000000	87.583415
409.000000	87.380966
408.000000	87.128964
407.000000	86.920160
406.000000	86.830165
405.000000	86.855942
404.000000	86.962173
403.000000	87.133528
402.000000	87.361549
401.000000	87.579181
400.000000	87.731001
