PE IR       SUBTECH     SPECTRUM    ASCII       PEDS        4.00        
   -1
23ms231_trans.asc
24/09/24
16:00:00.00
24/09/24
16:00:00.00
Administrator
Sample 1196 By Administrator Date Tuesday, September 24 2024
400.000000
#HDR
-1
-1
#GR
cm-1
%T
1.0
0.0
4000.000000
-1.000000
3601
8
95.931507
8.331228
#DATA
4000.000000	63.219705
3999.000000	63.169848
3998.000000	63.119214
3997.000000	63.067522
3996.000000	63.014175
3995.000000	62.958438
3994.000000	62.899598
3993.000000	62.836801
3992.000000	62.769217
3991.000000	62.696742
3990.000000	62.620819
3989.000000	62.544555
3988.000000	62.471632
3987.000000	62.405041
3986.000000	62.346573
3985.000000	62.296995
3984.000000	62.256207
3983.000000	62.223270
3982.000000	62.196475
3981.000000	62.173897
3980.000000	62.154251
3979.000000	62.137419
3978.000000	62.124559
3977.000000	62.117357
3976.000000	62.117440
3975.000000	62.126330
3974.000000	62.145689
3973.000000	62.177927
3972.000000	62.225611
3971.000000	62.290043
3970.000000	62.370337
3969.000000	62.463582
3968.000000	62.566241
3967.000000	62.674954
3966.000000	62.786412
3965.000000	62.897259
3964.000000	63.004182
3963.000000	63.104509
3962.000000	63.196831
3961.000000	63.281122
3960.000000	63.358106
3959.000000	63.428525
3958.000000	63.492680
3957.000000	63.550954
3956.000000	63.604457
3955.000000	63.654409
3954.000000	63.701880
3953.000000	63.747578
3952.000000	63.792129
3951.000000	63.836386
3950.000000	63.881157
3949.000000	63.926897
3948.000000	63.973739
3947.000000	64.022320
3946.000000	64.073748
3945.000000	64.127751
3944.000000	64.180949
3943.000000	64.228558
3942.000000	64.269298
3941.000000	64.306775
3940.000000	64.344568
3939.000000	64.382367
3938.000000	64.416971
3937.000000	64.446726
3936.000000	64.474234
3935.000000	64.503398
3934.000000	64.535853
3933.000000	64.569804
3932.000000	64.602866
3931.000000	64.634668
3930.000000	64.665793
3929.000000	64.697073
3928.000000	64.728881
3927.000000	64.760532
3926.000000	64.788829
3925.000000	64.809409
3924.000000	64.822917
3923.000000	64.835851
3922.000000	64.853372
3921.000000	64.875069
3920.000000	64.897979
3919.000000	64.921001
3918.000000	64.944259
3917.000000	64.966898
3916.000000	64.988430
3915.000000	65.010368
3914.000000	65.034566
3913.000000	65.060980
3912.000000	65.088032
3911.000000	65.115465
3910.000000	65.144361
3909.000000	65.175970
3908.000000	65.211333
3907.000000	65.249199
3906.000000	65.285729
3905.000000	65.315255
3904.000000	65.336673
3903.000000	65.357984
3902.000000	65.388446
3901.000000	65.427932
3900.000000	65.466461
3899.000000	65.495210
3898.000000	65.515554
3897.000000	65.534680
3896.000000	65.556591
3895.000000	65.582091
3894.000000	65.610825
3893.000000	65.641458
3892.000000	65.669118
3891.000000	65.689681
3890.000000	65.707276
3889.000000	65.729818
3888.000000	65.760242
3887.000000	65.791661
3886.000000	65.812498
3885.000000	65.822788
3884.000000	65.836871
3883.000000	65.864366
3882.000000	65.897396
3881.000000	65.919101
3880.000000	65.922894
3879.000000	65.920898
3878.000000	65.929327
3877.000000	65.952419
3876.000000	65.982056
3875.000000	66.005648
3874.000000	66.018564
3873.000000	66.030779
3872.000000	66.054189
3871.000000	66.083472
3870.000000	66.100730
3869.000000	66.104252
3868.000000	66.112577
3867.000000	66.137632
3866.000000	66.170738
3865.000000	66.195118
3864.000000	66.206613
3863.000000	66.216041
3862.000000	66.231495
3861.000000	66.252142
3860.000000	66.274409
3859.000000	66.297167
3858.000000	66.323304
3857.000000	66.356138
3856.000000	66.396262
3855.000000	66.434616
3854.000000	66.454557
3853.000000	66.457970
3852.000000	66.466462
3851.000000	66.484859
3850.000000	66.499475
3849.000000	66.501989
3848.000000	66.495318
3847.000000	66.489567
3846.000000	66.492645
3845.000000	66.505919
3844.000000	66.525064
3843.000000	66.544624
3842.000000	66.564123
3841.000000	66.587493
3840.000000	66.612448
3839.000000	66.630530
3838.000000	66.640422
3837.000000	66.650356
3836.000000	66.668402
3835.000000	66.694335
3834.000000	66.723052
3833.000000	66.749455
3832.000000	66.770281
3831.000000	66.787606
3830.000000	66.808027
3829.000000	66.835774
3828.000000	66.867914
3827.000000	66.896721
3826.000000	66.917818
3825.000000	66.937682
3824.000000	66.966831
3823.000000	67.006664
3822.000000	67.043407
3821.000000	67.061707
3820.000000	67.070125
3819.000000	67.089975
3818.000000	67.126459
3817.000000	67.163504
3816.000000	67.182652
3815.000000	67.188860
3814.000000	67.203204
3813.000000	67.231174
3812.000000	67.259527
3811.000000	67.278717
3810.000000	67.294320
3809.000000	67.317602
3808.000000	67.349168
3807.000000	67.378627
3806.000000	67.402996
3805.000000	67.432902
3804.000000	67.474537
3803.000000	67.519018
3802.000000	67.544592
3801.000000	67.543560
3800.000000	67.537920
3799.000000	67.547099
3798.000000	67.566632
3797.000000	67.581175
3796.000000	67.584728
3795.000000	67.586903
3794.000000	67.599291
3793.000000	67.621425
3792.000000	67.644655
3791.000000	67.664823
3790.000000	67.685057
3789.000000	67.709786
3788.000000	67.740388
3787.000000	67.775311
3786.000000	67.810927
3785.000000	67.842268
3784.000000	67.866251
3783.000000	67.885561
3782.000000	67.905549
3781.000000	67.927815
3780.000000	67.948563
3779.000000	67.965475
3778.000000	67.982935
3777.000000	68.006087
3776.000000	68.032653
3775.000000	68.055251
3774.000000	68.070426
3773.000000	68.081559
3772.000000	68.092550
3771.000000	68.101617
3770.000000	68.105377
3769.000000	68.107329
3768.000000	68.114596
3767.000000	68.127832
3766.000000	68.139948
3765.000000	68.143524
3764.000000	68.140559
3763.000000	68.141163
3762.000000	68.151514
3761.000000	68.168625
3760.000000	68.186596
3759.000000	68.206091
3758.000000	68.230833
3757.000000	68.259440
3756.000000	68.289121
3755.000000	68.320090
3754.000000	68.354293
3753.000000	68.390865
3752.000000	68.426760
3751.000000	68.462191
3750.000000	68.498243
3749.000000	68.531570
3748.000000	68.560029
3747.000000	68.588383
3746.000000	68.619471
3745.000000	68.641503
3744.000000	68.647255
3743.000000	68.654871
3742.000000	68.675807
3741.000000	68.698247
3740.000000	68.709044
3739.000000	68.711113
3738.000000	68.720529
3737.000000	68.746706
3736.000000	68.783594
3735.000000	68.818992
3734.000000	68.849141
3733.000000	68.875605
3732.000000	68.896076
3731.000000	68.908945
3730.000000	68.917623
3729.000000	68.927774
3728.000000	68.941261
3727.000000	68.953418
3726.000000	68.961511
3725.000000	68.970450
3724.000000	68.984917
3723.000000	69.002456
3722.000000	69.018316
3721.000000	69.032880
3720.000000	69.048390
3719.000000	69.065235
3718.000000	69.081354
3717.000000	69.096179
3716.000000	69.113839
3715.000000	69.138197
3714.000000	69.168185
3713.000000	69.199216
3712.000000	69.227204
3711.000000	69.251704
3710.000000	69.275089
3709.000000	69.297820
3708.000000	69.317061
3707.000000	69.329220
3706.000000	69.335578
3705.000000	69.341302
3704.000000	69.350602
3703.000000	69.362612
3702.000000	69.373612
3701.000000	69.382436
3700.000000	69.390974
3699.000000	69.400789
3698.000000	69.410556
3697.000000	69.417552
3696.000000	69.421700
3695.000000	69.427596
3694.000000	69.438866
3693.000000	69.455689
3692.000000	69.475522
3691.000000	69.495246
3690.000000	69.512419
3689.000000	69.527081
3688.000000	69.541659
3687.000000	69.555022
3686.000000	69.563672
3685.000000	69.564783
3684.000000	69.558025
3683.000000	69.547524
3682.000000	69.541692
3681.000000	69.544116
3680.000000	69.549731
3679.000000	69.552861
3678.000000	69.556574
3677.000000	69.565217
3676.000000	69.568802
3675.000000	69.558686
3674.000000	69.543657
3673.000000	69.533140
3672.000000	69.523795
3671.000000	69.504817
3670.000000	69.469204
3669.000000	69.428284
3668.000000	69.399145
3667.000000	69.381046
3666.000000	69.360975
3665.000000	69.331278
3664.000000	69.294001
3663.000000	69.255723
3662.000000	69.220038
3661.000000	69.185310
3660.000000	69.150444
3659.000000	69.116116
3658.000000	69.082098
3657.000000	69.044139
3656.000000	68.998428
3655.000000	68.948196
3654.000000	68.897597
3653.000000	68.846421
3652.000000	68.792250
3651.000000	68.732306
3650.000000	68.665080
3649.000000	68.593830
3648.000000	68.522560
3647.000000	68.448600
3646.000000	68.366197
3645.000000	68.274682
3644.000000	68.177978
3643.000000	68.079990
3642.000000	67.982069
3641.000000	67.885244
3640.000000	67.791455
3639.000000	67.699601
3638.000000	67.605365
3637.000000	67.505776
3636.000000	67.401874
3635.000000	67.295223
3634.000000	67.185324
3633.000000	67.073543
3632.000000	66.963342
3631.000000	66.854977
3630.000000	66.740738
3629.000000	66.613766
3628.000000	66.485180
3627.000000	66.370057
3626.000000	66.262210
3625.000000	66.146328
3624.000000	66.017582
3623.000000	65.882233
3622.000000	65.748033
3621.000000	65.615397
3620.000000	65.478351
3619.000000	65.334047
3618.000000	65.187746
3617.000000	65.045207
3616.000000	64.905761
3615.000000	64.764014
3614.000000	64.615321
3613.000000	64.461513
3612.000000	64.309518
3611.000000	64.162619
3610.000000	64.016753
3609.000000	63.866028
3608.000000	63.708859
3607.000000	63.548729
3606.000000	63.389977
3605.000000	63.233968
3604.000000	63.080012
3603.000000	62.926226
3602.000000	62.770969
3601.000000	62.614786
3600.000000	62.460460
3599.000000	62.309743
3598.000000	62.160058
3597.000000	62.006470
3596.000000	61.845893
3595.000000	61.678429
3594.000000	61.507403
3593.000000	61.339244
3592.000000	61.177716
3591.000000	61.019993
3590.000000	60.858677
3589.000000	60.687176
3588.000000	60.504618
3587.000000	60.318100
3586.000000	60.138157
3585.000000	59.968922
3584.000000	59.805728
3583.000000	59.641718
3582.000000	59.474256
3581.000000	59.305604
3580.000000	59.138517
3579.000000	58.972929
3578.000000	58.807073
3577.000000	58.641501
3576.000000	58.478816
3575.000000	58.321233
3574.000000	58.169443
3573.000000	58.024426
3572.000000	57.886943
3571.000000	57.755833
3570.000000	57.629006
3569.000000	57.505509
3568.000000	57.384433
3567.000000	57.263808
3566.000000	57.143032
3565.000000	57.023391
3564.000000	56.905108
3563.000000	56.787340
3562.000000	56.670515
3561.000000	56.557259
3560.000000	56.449515
3559.000000	56.345932
3558.000000	56.243502
3557.000000	56.141002
3556.000000	56.039028
3555.000000	55.937472
3554.000000	55.835084
3553.000000	55.731568
3552.000000	55.628286
3551.000000	55.525720
3550.000000	55.421806
3549.000000	55.314035
3548.000000	55.202059
3547.000000	55.088604
3546.000000	54.978467
3545.000000	54.876308
3544.000000	54.783307
3543.000000	54.695873
3542.000000	54.608674
3541.000000	54.518527
3540.000000	54.424714
3539.000000	54.327480
3538.000000	54.228853
3537.000000	54.133517
3536.000000	54.045957
3535.000000	53.965952
3534.000000	53.889074
3533.000000	53.811259
3532.000000	53.730732
3531.000000	53.646728
3530.000000	53.558542
3529.000000	53.466291
3528.000000	53.370385
3527.000000	53.270703
3526.000000	53.168240
3525.000000	53.066977
3524.000000	52.971321
3523.000000	52.881587
3522.000000	52.793999
3521.000000	52.704770
3520.000000	52.612067
3519.000000	52.514539
3518.000000	52.411267
3517.000000	52.303325
3516.000000	52.193224
3515.000000	52.082507
3514.000000	51.971710
3513.000000	51.861762
3512.000000	51.752724
3511.000000	51.641931
3510.000000	51.526282
3509.000000	51.406166
3508.000000	51.284268
3507.000000	51.160996
3506.000000	51.034305
3505.000000	50.904290
3504.000000	50.775033
3503.000000	50.651079
3502.000000	50.533576
3501.000000	50.420159
3500.000000	50.307291
3499.000000	50.192887
3498.000000	50.078551
3497.000000	49.968881
3496.000000	49.867380
3495.000000	49.773397
3494.000000	49.684251
3493.000000	49.598841
3492.000000	49.516912
3491.000000	49.436621
3490.000000	49.356208
3489.000000	49.277241
3488.000000	49.203526
3487.000000	49.137198
3486.000000	49.077668
3485.000000	49.022961
3484.000000	48.969543
3483.000000	48.912819
3482.000000	48.851594
3481.000000	48.791536
3480.000000	48.740670
3479.000000	48.701431
3478.000000	48.669675
3477.000000	48.640240
3476.000000	48.610215
3475.000000	48.577685
3474.000000	48.540804
3473.000000	48.498662
3472.000000	48.451532
3471.000000	48.400987
3470.000000	48.351623
3469.000000	48.310918
3468.000000	48.283984
3467.000000	48.268733
3466.000000	48.258281
3465.000000	48.246781
3464.000000	48.231078
3463.000000	48.209299
3462.000000	48.181968
3461.000000	48.153704
3460.000000	48.130152
3459.000000	48.113054
3458.000000	48.100334
3457.000000	48.089859
3456.000000	48.080660
3455.000000	48.071565
3454.000000	48.061631
3453.000000	48.051373
3452.000000	48.041522
3451.000000	48.031451
3450.000000	48.020617
3449.000000	48.010407
3448.000000	48.002437
3447.000000	47.996104
3446.000000	47.989886
3445.000000	47.983732
3444.000000	47.978118
3443.000000	47.972168
3442.000000	47.964711
3441.000000	47.955911
3440.000000	47.946157
3439.000000	47.935021
3438.000000	47.923624
3437.000000	47.916351
3436.000000	47.917493
3435.000000	47.926681
3434.000000	47.939355
3433.000000	47.950791
3432.000000	47.958718
3431.000000	47.963949
3430.000000	47.970113
3429.000000	47.981328
3428.000000	47.997987
3427.000000	48.015968
3426.000000	48.031059
3425.000000	48.042596
3424.000000	48.051845
3423.000000	48.059327
3422.000000	48.065914
3421.000000	48.074356
3420.000000	48.086968
3419.000000	48.102711
3418.000000	48.118429
3417.000000	48.131803
3416.000000	48.141961
3415.000000	48.149445
3414.000000	48.157313
3413.000000	48.170105
3412.000000	48.189701
3411.000000	48.213831
3410.000000	48.240130
3409.000000	48.269331
3408.000000	48.302179
3407.000000	48.335500
3406.000000	48.363971
3405.000000	48.384537
3404.000000	48.397856
3403.000000	48.407827
3402.000000	48.422069
3401.000000	48.449835
3400.000000	48.495260
3399.000000	48.552979
3398.000000	48.612358
3397.000000	48.665113
3396.000000	48.707668
3395.000000	48.739693
3394.000000	48.764839
3393.000000	48.791557
3392.000000	48.828639
3391.000000	48.878746
3390.000000	48.937652
3389.000000	48.999067
3388.000000	49.058522
3387.000000	49.114236
3386.000000	49.167096
3385.000000	49.219521
3384.000000	49.272931
3383.000000	49.326858
3382.000000	49.381327
3381.000000	49.438301
3380.000000	49.499180
3379.000000	49.562865
3378.000000	49.628067
3377.000000	49.695652
3376.000000	49.766362
3375.000000	49.837691
3374.000000	49.905447
3373.000000	49.967716
3372.000000	50.025896
3371.000000	50.083542
3370.000000	50.145832
3369.000000	50.218247
3368.000000	50.302967
3367.000000	50.396945
3366.000000	50.494851
3365.000000	50.592621
3364.000000	50.687797
3363.000000	50.779232
3362.000000	50.868513
3361.000000	50.959769
3360.000000	51.055587
3359.000000	51.154353
3358.000000	51.253227
3357.000000	51.351673
3356.000000	51.450034
3355.000000	51.546743
3354.000000	51.639923
3353.000000	51.731092
3352.000000	51.825168
3351.000000	51.927048
3350.000000	52.038705
3349.000000	52.158026
3348.000000	52.279247
3347.000000	52.396088
3346.000000	52.506639
3345.000000	52.614414
3344.000000	52.723701
3343.000000	52.835083
3342.000000	52.946356
3341.000000	53.056337
3340.000000	53.166363
3339.000000	53.279237
3338.000000	53.397657
3337.000000	53.522154
3336.000000	53.649421
3335.000000	53.773988
3334.000000	53.892431
3333.000000	54.004665
3332.000000	54.110971
3331.000000	54.209664
3330.000000	54.298534
3329.000000	54.376893
3328.000000	54.445102
3327.000000	54.504195
3326.000000	54.556151
3325.000000	54.602117
3324.000000	54.639411
3323.000000	54.661465
3322.000000	54.662420
3321.000000	54.639715
3320.000000	54.591234
3319.000000	54.513467
3318.000000	54.402113
3317.000000	54.253799
3316.000000	54.064296
3315.000000	53.826775
3314.000000	53.534734
3313.000000	53.183380
3312.000000	52.769090
3311.000000	52.290110
3310.000000	51.748272
3309.000000	51.151656
3308.000000	50.510936
3307.000000	49.836544
3306.000000	49.140228
3305.000000	48.434269
3304.000000	47.728853
3303.000000	47.030275
3302.000000	46.345073
3301.000000	45.683747
3300.000000	45.058534
3299.000000	44.479953
3298.000000	43.957978
3297.000000	43.501957
3296.000000	43.113482
3295.000000	42.781840
3294.000000	42.486848
3293.000000	42.205090
3292.000000	41.912066
3291.000000	41.582578
3290.000000	41.196531
3289.000000	40.744751
3288.000000	40.226848
3287.000000	39.645285
3286.000000	39.003600
3285.000000	38.303939
3284.000000	37.544870
3283.000000	36.720254
3282.000000	35.823837
3281.000000	34.856219
3280.000000	33.823270
3279.000000	32.734618
3278.000000	31.606345
3277.000000	30.461489
3276.000000	29.324006
3275.000000	28.210671
3274.000000	27.132158
3273.000000	26.100417
3272.000000	25.133845
3271.000000	24.257107
3270.000000	23.503312
3269.000000	22.912028
3268.000000	22.518647
3267.000000	22.350840
3266.000000	22.423080
3265.000000	22.734545
3264.000000	23.261690
3263.000000	23.951702
3262.000000	24.735403
3261.000000	25.535325
3260.000000	26.270204
3259.000000	26.860285
3258.000000	27.237991
3257.000000	27.351804
3256.000000	27.164620
3255.000000	26.647295
3254.000000	25.779568
3253.000000	24.563917
3252.000000	23.021166
3251.000000	21.197213
3250.000000	19.168079
3249.000000	17.036511
3248.000000	14.922362
3247.000000	12.942815
3246.000000	11.205347
3245.000000	9.806120
3244.000000	8.828320
3243.000000	8.331228
3242.000000	8.352427
3241.000000	8.892538
3240.000000	9.893559
3239.000000	11.246549
3238.000000	12.809362
3237.000000	14.446004
3236.000000	16.047470
3235.000000	17.539167
3234.000000	18.886551
3233.000000	20.081488
3232.000000	21.125049
3231.000000	22.019398
3230.000000	22.774841
3229.000000	23.412245
3228.000000	23.958143
3227.000000	24.436548
3226.000000	24.868022
3225.000000	25.271885
3224.000000	25.659460
3223.000000	26.032606
3222.000000	26.387715
3221.000000	26.718707
3220.000000	27.015314
3219.000000	27.261292
3218.000000	27.441787
3217.000000	27.548073
3216.000000	27.575805
3215.000000	27.525464
3214.000000	27.404875
3213.000000	27.230708
3212.000000	27.021304
3211.000000	26.791134
3210.000000	26.554504
3209.000000	26.326569
3208.000000	26.119210
3207.000000	25.937901
3206.000000	25.785391
3205.000000	25.664711
3204.000000	25.576425
3203.000000	25.517125
3202.000000	25.483406
3201.000000	25.474091
3200.000000	25.485371
3199.000000	25.509550
3198.000000	25.540526
3197.000000	25.577142
3196.000000	25.619366
3195.000000	25.664482
3194.000000	25.710046
3193.000000	25.755351
3192.000000	25.797647
3191.000000	25.831668
3190.000000	25.855902
3189.000000	25.876282
3188.000000	25.901448
3187.000000	25.938011
3186.000000	25.991970
3185.000000	26.068657
3184.000000	26.167650
3183.000000	26.280737
3182.000000	26.397111
3181.000000	26.507424
3180.000000	26.601552
3179.000000	26.668487
3178.000000	26.702473
3177.000000	26.706743
3176.000000	26.689755
3175.000000	26.662143
3174.000000	26.638518
3173.000000	26.637135
3172.000000	26.673930
3171.000000	26.761605
3170.000000	26.914796
3169.000000	27.150638
3168.000000	27.481396
3167.000000	27.906994
3166.000000	28.420948
3165.000000	29.017179
3164.000000	29.691409
3163.000000	30.443202
3162.000000	31.274957
3161.000000	32.188574
3160.000000	33.174575
3159.000000	34.207450
3158.000000	35.253200
3157.000000	36.275443
3156.000000	37.238099
3155.000000	38.108422
3154.000000	38.863298
3153.000000	39.490074
3152.000000	39.984554
3151.000000	40.349125
3150.000000	40.594411
3149.000000	40.739135
3148.000000	40.799038
3147.000000	40.781876
3146.000000	40.685809
3145.000000	40.499558
3144.000000	40.205363
3143.000000	39.780352
3142.000000	39.207998
3141.000000	38.483766
3140.000000	37.612297
3139.000000	36.607957
3138.000000	35.493636
3137.000000	34.302051
3136.000000	33.069763
3135.000000	31.832668
3134.000000	30.630246
3133.000000	29.505775
3132.000000	28.499203
3131.000000	27.639582
3130.000000	26.946140
3129.000000	26.426924
3128.000000	26.076927
3127.000000	25.877768
3126.000000	25.804824
3125.000000	25.835474
3124.000000	25.945547
3123.000000	26.112785
3122.000000	26.323360
3121.000000	26.572240
3120.000000	26.856241
3119.000000	27.166524
3118.000000	27.492951
3117.000000	27.826825
3116.000000	28.156646
3115.000000	28.464372
3114.000000	28.728722
3113.000000	28.928407
3112.000000	29.040952
3111.000000	29.046167
3110.000000	28.930669
3109.000000	28.690763
3108.000000	28.325668
3107.000000	27.834400
3106.000000	27.224211
3105.000000	26.513962
3104.000000	25.732793
3103.000000	24.915991
3102.000000	24.107054
3101.000000	23.356394
3100.000000	22.711475
3099.000000	22.207432
3098.000000	21.866638
3097.000000	21.702726
3096.000000	21.715602
3095.000000	21.892909
3094.000000	22.214906
3093.000000	22.659353
3092.000000	23.202964
3091.000000	23.819318
3090.000000	24.484703
3089.000000	25.177739
3088.000000	25.875624
3087.000000	26.557357
3086.000000	27.210980
3085.000000	27.835304
3084.000000	28.430839
3083.000000	28.994452
3082.000000	29.523941
3081.000000	30.023182
3080.000000	30.499451
3079.000000	30.959649
3078.000000	31.410866
3077.000000	31.859240
3076.000000	32.306781
3075.000000	32.751492
3074.000000	33.192756
3073.000000	33.632810
3072.000000	34.071478
3071.000000	34.504343
3070.000000	34.928049
3069.000000	35.344274
3068.000000	35.756706
3067.000000	36.166907
3066.000000	36.574731
3065.000000	36.979307
3064.000000	37.377775
3063.000000	37.766005
3062.000000	38.141463
3061.000000	38.503701
3060.000000	38.851563
3059.000000	39.183082
3058.000000	39.499178
3057.000000	39.803757
3056.000000	40.099611
3055.000000	40.386516
3054.000000	40.663925
3053.000000	40.933238
3052.000000	41.196003
3051.000000	41.452604
3050.000000	41.702700
3049.000000	41.944400
3048.000000	42.173641
3047.000000	42.386837
3046.000000	42.584962
3045.000000	42.772471
3044.000000	42.952435
3043.000000	43.126079
3042.000000	43.296098
3041.000000	43.466638
3040.000000	43.638900
3039.000000	43.810192
3038.000000	43.978894
3037.000000	44.147825
3036.000000	44.322202
3035.000000	44.506288
3034.000000	44.702027
3033.000000	44.907879
3032.000000	45.118228
3031.000000	45.326567
3030.000000	45.530164
3029.000000	45.730196
3028.000000	45.928223
3027.000000	46.125715
3026.000000	46.326684
3025.000000	46.536627
3024.000000	46.757456
3023.000000	46.985848
3022.000000	47.217438
3021.000000	47.450369
3020.000000	47.684046
3019.000000	47.917065
3018.000000	48.147809
3017.000000	48.375726
3016.000000	48.601258
3015.000000	48.825554
3014.000000	49.050747
3013.000000	49.279273
3012.000000	49.512204
3011.000000	49.748386
3010.000000	49.984927
3009.000000	50.217785
3008.000000	50.442175
3007.000000	50.653535
3006.000000	50.846172
3005.000000	51.009560
3004.000000	51.122290
3003.000000	51.149479
3002.000000	51.050738
3001.000000	50.794137
3000.000000	50.367562
2999.000000	49.772966
2998.000000	49.019229
2997.000000	48.142017
2996.000000	47.248559
2995.000000	46.532179
2994.000000	46.199983
2993.000000	46.353145
2992.000000	46.918755
2991.000000	47.702510
2990.000000	48.504737
2989.000000	49.201568
2988.000000	49.753400
2987.000000	50.171263
2986.000000	50.484270
2985.000000	50.714358
2984.000000	50.865617
2983.000000	50.929852
2982.000000	50.905621
2981.000000	50.806676
2980.000000	50.651706
2979.000000	50.447218
2978.000000	50.186965
2977.000000	49.876712
2976.000000	49.565390
2975.000000	49.352637
2974.000000	49.348221
2973.000000	49.608034
2972.000000	50.097977
2971.000000	50.718399
2970.000000	51.360711
2969.000000	51.948108
2968.000000	52.442660
2967.000000	52.833806
2966.000000	53.124597
2965.000000	53.313954
2964.000000	53.383140
2963.000000	53.287909
2962.000000	52.968092
2961.000000	52.369573
2960.000000	51.466269
2959.000000	50.265638
2958.000000	48.794584
2957.000000	47.109310
2956.000000	45.345155
2955.000000	43.763618
2954.000000	42.692183
2953.000000	42.352672
2952.000000	42.709941
2951.000000	43.488489
2950.000000	44.347406
2949.000000	45.053507
2948.000000	45.548261
2947.000000	45.906464
2946.000000	46.255732
2945.000000	46.697477
2944.000000	47.260225
2943.000000	47.905698
2942.000000	48.571323
2941.000000	49.210375
2940.000000	49.803499
2939.000000	50.353404
2938.000000	50.877442
2937.000000	51.395946
2936.000000	51.918562
2935.000000	52.440532
2934.000000	52.951862
2933.000000	53.444174
2932.000000	53.909700
2931.000000	54.342535
2930.000000	54.743504
2929.000000	55.118542
2928.000000	55.469953
2927.000000	55.794845
2926.000000	56.092669
2925.000000	56.366992
2924.000000	56.618967
2923.000000	56.844996
2922.000000	57.042873
2921.000000	57.214434
2920.000000	57.360699
2919.000000	57.480829
2918.000000	57.576711
2917.000000	57.653533
2916.000000	57.714887
2915.000000	57.762117
2914.000000	57.799173
2913.000000	57.832000
2912.000000	57.862383
2911.000000	57.887422
2910.000000	57.905729
2909.000000	57.919498
2908.000000	57.929745
2907.000000	57.935137
2906.000000	57.936687
2905.000000	57.938596
2904.000000	57.943329
2903.000000	57.949990
2902.000000	57.958865
2901.000000	57.971987
2900.000000	57.988426
2899.000000	58.002989
2898.000000	58.010326
2897.000000	58.006492
2896.000000	57.986693
2895.000000	57.947184
2894.000000	57.891403
2893.000000	57.830184
2892.000000	57.774502
2891.000000	57.731052
2890.000000	57.703870
2889.000000	57.694916
2888.000000	57.701503
2887.000000	57.717783
2886.000000	57.740337
2885.000000	57.768887
2884.000000	57.801430
2883.000000	57.833333
2882.000000	57.861727
2881.000000	57.886116
2880.000000	57.903526
2879.000000	57.906416
2878.000000	57.886448
2877.000000	57.836929
2876.000000	57.753046
2875.000000	57.636242
2874.000000	57.500033
2873.000000	57.365601
2872.000000	57.248183
2871.000000	57.151064
2870.000000	57.074765
2869.000000	57.029668
2868.000000	57.037600
2867.000000	57.123099
2866.000000	57.302042
2865.000000	57.571582
2864.000000	57.907646
2863.000000	58.275428
2862.000000	58.644724
2861.000000	58.995896
2860.000000	59.316743
2859.000000	59.600351
2858.000000	59.847172
2857.000000	60.063717
2856.000000	60.256289
2855.000000	60.429150
2854.000000	60.587558
2853.000000	60.737623
2852.000000	60.882347
2851.000000	61.021773
2850.000000	61.157252
2849.000000	61.291710
2848.000000	61.425358
2847.000000	61.555133
2846.000000	61.679230
2845.000000	61.798314
2844.000000	61.912016
2843.000000	62.018064
2842.000000	62.115867
2841.000000	62.207885
2840.000000	62.296860
2839.000000	62.384496
2838.000000	62.472680
2837.000000	62.562736
2836.000000	62.653336
2835.000000	62.742209
2834.000000	62.829983
2833.000000	62.919367
2832.000000	63.010758
2831.000000	63.102091
2830.000000	63.192751
2829.000000	63.284027
2828.000000	63.375626
2827.000000	63.465393
2826.000000	63.552806
2825.000000	63.639311
2824.000000	63.724851
2823.000000	63.807305
2822.000000	63.885842
2821.000000	63.961603
2820.000000	64.034593
2819.000000	64.103011
2818.000000	64.166068
2817.000000	64.224737
2816.000000	64.279493
2815.000000	64.330097
2814.000000	64.377817
2813.000000	64.425060
2812.000000	64.472602
2811.000000	64.519722
2810.000000	64.566779
2809.000000	64.614734
2808.000000	64.662446
2807.000000	64.707580
2806.000000	64.750181
2805.000000	64.792455
2804.000000	64.835226
2803.000000	64.877833
2802.000000	64.921277
2801.000000	64.968081
2800.000000	65.018978
2799.000000	65.072811
2798.000000	65.129697
2797.000000	65.190947
2796.000000	65.255666
2795.000000	65.320791
2794.000000	65.384863
2793.000000	65.448854
2792.000000	65.513339
2791.000000	65.577807
2790.000000	65.642775
2789.000000	65.709310
2788.000000	65.776118
2787.000000	65.840227
2786.000000	65.900897
2785.000000	65.960143
2784.000000	66.019331
2783.000000	66.078074
2782.000000	66.136368
2781.000000	66.194684
2780.000000	66.251553
2779.000000	66.303956
2778.000000	66.350460
2777.000000	66.391546
2776.000000	66.427287
2775.000000	66.457622
2774.000000	66.484853
2773.000000	66.512774
2772.000000	66.542872
2771.000000	66.574038
2770.000000	66.605763
2769.000000	66.638445
2768.000000	66.670505
2767.000000	66.698266
2766.000000	66.719375
2765.000000	66.733930
2764.000000	66.742323
2763.000000	66.744916
2762.000000	66.743863
2761.000000	66.742448
2760.000000	66.742281
2759.000000	66.743450
2758.000000	66.747359
2757.000000	66.756646
2756.000000	66.772227
2755.000000	66.793189
2754.000000	66.819484
2753.000000	66.851786
2752.000000	66.888843
2751.000000	66.927797
2750.000000	66.967268
2749.000000	67.007636
2748.000000	67.048366
2747.000000	67.087914
2746.000000	67.126179
2745.000000	67.163919
2744.000000	67.199547
2743.000000	67.229226
2742.000000	67.250165
2741.000000	67.261561
2740.000000	67.262956
2739.000000	67.254853
2738.000000	67.241303
2737.000000	67.229332
2736.000000	67.225585
2735.000000	67.235776
2734.000000	67.266351
2733.000000	67.322113
2732.000000	67.401473
2731.000000	67.496613
2730.000000	67.598557
2729.000000	67.700387
2728.000000	67.796258
2727.000000	67.881345
2726.000000	67.954081
2725.000000	68.015970
2724.000000	68.068577
2723.000000	68.112772
2722.000000	68.150308
2721.000000	68.183266
2720.000000	68.212107
2719.000000	68.236636
2718.000000	68.259175
2717.000000	68.284535
2716.000000	68.316575
2715.000000	68.356776
2714.000000	68.405243
2713.000000	68.460040
2712.000000	68.515667
2711.000000	68.565205
2710.000000	68.604661
2709.000000	68.633472
2708.000000	68.651858
2707.000000	68.660557
2706.000000	68.662489
2705.000000	68.661656
2704.000000	68.659996
2703.000000	68.657690
2702.000000	68.656301
2701.000000	68.658526
2700.000000	68.665118
2699.000000	68.674973
2698.000000	68.688147
2697.000000	68.705973
2696.000000	68.728572
2695.000000	68.755158
2694.000000	68.787073
2693.000000	68.827524
2692.000000	68.877572
2691.000000	68.934920
2690.000000	68.996356
2689.000000	69.058813
2688.000000	69.118419
2687.000000	69.171543
2686.000000	69.217369
2685.000000	69.257279
2684.000000	69.291563
2683.000000	69.318990
2682.000000	69.339434
2681.000000	69.354060
2680.000000	69.363152
2679.000000	69.366590
2678.000000	69.366600
2677.000000	69.367919
2676.000000	69.375116
2675.000000	69.391576
2674.000000	69.420347
2673.000000	69.462956
2672.000000	69.517064
2671.000000	69.577920
2670.000000	69.642117
2669.000000	69.707696
2668.000000	69.771745
2667.000000	69.830905
2666.000000	69.884327
2665.000000	69.933579
2664.000000	69.979616
2663.000000	70.022429
2662.000000	70.063370
2661.000000	70.104759
2660.000000	70.146934
2659.000000	70.188329
2658.000000	70.228461
2657.000000	70.268512
2656.000000	70.308904
2655.000000	70.348666
2654.000000	70.387173
2653.000000	70.423829
2652.000000	70.456218
2651.000000	70.481106
2650.000000	70.497590
2649.000000	70.507529
2648.000000	70.513026
2647.000000	70.515888
2646.000000	70.519327
2645.000000	70.527366
2644.000000	70.542220
2643.000000	70.564194
2642.000000	70.593658
2641.000000	70.630774
2640.000000	70.673607
2639.000000	70.718850
2638.000000	70.764604
2637.000000	70.810216
2636.000000	70.853646
2635.000000	70.891437
2634.000000	70.921210
2633.000000	70.942035
2632.000000	70.952896
2631.000000	70.953703
2630.000000	70.947976
2629.000000	70.942610
2628.000000	70.944707
2627.000000	70.959609
2626.000000	70.990554
2625.000000	71.037205
2624.000000	71.094369
2623.000000	71.154847
2622.000000	71.213904
2621.000000	71.269574
2620.000000	71.320199
2619.000000	71.364277
2618.000000	71.402031
2617.000000	71.434337
2616.000000	71.460288
2615.000000	71.477878
2614.000000	71.486944
2613.000000	71.489189
2612.000000	71.485810
2611.000000	71.478024
2610.000000	71.469009
2609.000000	71.462604
2608.000000	71.460012
2607.000000	71.459717
2606.000000	71.460250
2605.000000	71.460455
2604.000000	71.457886
2603.000000	71.450299
2602.000000	71.439152
2601.000000	71.429237
2600.000000	71.425036
2599.000000	71.429302
2598.000000	71.444204
2597.000000	71.470702
2596.000000	71.506224
2595.000000	71.545735
2594.000000	71.585494
2593.000000	71.623907
2592.000000	71.659777
2591.000000	71.692224
2590.000000	71.722221
2589.000000	71.751639
2588.000000	71.780575
2587.000000	71.807686
2586.000000	71.832735
2585.000000	71.856532
2584.000000	71.878851
2583.000000	71.899096
2582.000000	71.918786
2581.000000	71.941002
2580.000000	71.967505
2579.000000	71.998317
2578.000000	72.033314
2577.000000	72.071618
2576.000000	72.109908
2575.000000	72.144233
2574.000000	72.173810
2573.000000	72.201044
2572.000000	72.228365
2571.000000	72.257187
2570.000000	72.289049
2569.000000	72.324734
2568.000000	72.362172
2567.000000	72.397599
2566.000000	72.428954
2565.000000	72.456435
2564.000000	72.480560
2563.000000	72.502305
2562.000000	72.524546
2561.000000	72.550555
2560.000000	72.580831
2559.000000	72.613442
2558.000000	72.647069
2557.000000	72.681680
2556.000000	72.716973
2555.000000	72.752646
2554.000000	72.789863
2553.000000	72.829894
2552.000000	72.871674
2551.000000	72.912994
2550.000000	72.953428
2549.000000	72.993599
2548.000000	73.032146
2547.000000	73.066063
2546.000000	73.093823
2545.000000	73.116103
2544.000000	73.133861
2543.000000	73.148340
2542.000000	73.162307
2541.000000	73.178318
2540.000000	73.195931
2539.000000	73.212699
2538.000000	73.227578
2537.000000	73.240969
2536.000000	73.252090
2535.000000	73.259549
2534.000000	73.264637
2533.000000	73.271488
2532.000000	73.283836
2531.000000	73.303789
2530.000000	73.333042
2529.000000	73.372449
2528.000000	73.419921
2527.000000	73.470999
2526.000000	73.521980
2525.000000	73.570568
2524.000000	73.614203
2523.000000	73.650327
2522.000000	73.678367
2521.000000	73.699148
2520.000000	73.712654
2519.000000	73.717968
2518.000000	73.715135
2517.000000	73.705269
2516.000000	73.688634
2515.000000	73.665349
2514.000000	73.637338
2513.000000	73.607475
2512.000000	73.577387
2511.000000	73.547728
2510.000000	73.520291
2509.000000	73.497371
2508.000000	73.479372
2507.000000	73.465257
2506.000000	73.455183
2505.000000	73.450378
2504.000000	73.451053
2503.000000	73.456907
2502.000000	73.468763
2501.000000	73.487566
2500.000000	73.511742
2499.000000	73.537911
2498.000000	73.564034
2497.000000	73.589417
2496.000000	73.612820
2495.000000	73.633316
2494.000000	73.652726
2493.000000	73.674628
2492.000000	73.700793
2491.000000	73.730732
2490.000000	73.763908
2489.000000	73.799744
2488.000000	73.835983
2487.000000	73.869887
2486.000000	73.901297
2485.000000	73.932351
2484.000000	73.964487
2483.000000	73.998102
2482.000000	74.034381
2481.000000	74.074650
2480.000000	74.117853
2479.000000	74.161083
2478.000000	74.202616
2477.000000	74.242245
2476.000000	74.279201
2475.000000	74.312385
2474.000000	74.342727
2473.000000	74.372890
2472.000000	74.404505
2471.000000	74.437381
2470.000000	74.470872
2469.000000	74.503926
2468.000000	74.534070
2467.000000	74.559014
2466.000000	74.579261
2465.000000	74.597055
2464.000000	74.613206
2463.000000	74.626574
2462.000000	74.636201
2461.000000	74.641652
2460.000000	74.641799
2459.000000	74.636250
2458.000000	74.627838
2457.000000	74.621611
2456.000000	74.621187
2455.000000	74.627844
2454.000000	74.642313
2453.000000	74.664886
2452.000000	74.693894
2451.000000	74.726523
2450.000000	74.761710
2449.000000	74.800123
2448.000000	74.841886
2447.000000	74.886159
2446.000000	74.932359
2445.000000	74.979670
2444.000000	75.025326
2443.000000	75.065605
2442.000000	75.098564
2441.000000	75.124532
2440.000000	75.144612
2439.000000	75.160746
2438.000000	75.176395
2437.000000	75.194630
2436.000000	75.215718
2435.000000	75.237939
2434.000000	75.260100
2433.000000	75.281180
2432.000000	75.298431
2431.000000	75.308639
2430.000000	75.310826
2429.000000	75.306031
2428.000000	75.294994
2427.000000	75.278215
2426.000000	75.257962
2425.000000	75.237534
2424.000000	75.218909
2423.000000	75.202879
2422.000000	75.190935
2421.000000	75.184784
2420.000000	75.184485
2419.000000	75.189162
2418.000000	75.198955
2417.000000	75.214286
2416.000000	75.233602
2415.000000	75.254381
2414.000000	75.275720
2413.000000	75.297742
2412.000000	75.319451
2411.000000	75.339510
2410.000000	75.358621
2409.000000	75.378427
2408.000000	75.398454
2407.000000	75.416352
2406.000000	75.430591
2405.000000	75.440332
2404.000000	75.443306
2403.000000	75.437154
2402.000000	75.422496
2401.000000	75.402520
2400.000000	75.379069
2399.000000	75.350940
2398.000000	75.316038
2397.000000	75.271699
2396.000000	75.213681
2395.000000	75.137155
2394.000000	75.039140
2393.000000	74.919487
2392.000000	74.778863
2391.000000	74.618980
2390.000000	74.443957
2389.000000	74.258409
2388.000000	74.064616
2387.000000	73.862811
2386.000000	73.654929
2385.000000	73.445645
2384.000000	73.239918
2383.000000	73.041902
2382.000000	72.856471
2381.000000	72.688724
2380.000000	72.540973
2379.000000	72.413567
2378.000000	72.307256
2377.000000	72.224476
2376.000000	72.167383
2375.000000	72.137216
2374.000000	72.136520
2373.000000	72.165836
2372.000000	72.218907
2371.000000	72.284778
2370.000000	72.353009
2369.000000	72.414293
2368.000000	72.459210
2367.000000	72.482861
2366.000000	72.485867
2365.000000	72.468053
2364.000000	72.432179
2363.000000	72.380907
2362.000000	72.318623
2361.000000	72.261357
2360.000000	72.218553
2359.000000	72.195509
2358.000000	72.192703
2357.000000	72.203924
2356.000000	72.230011
2355.000000	72.268342
2354.000000	72.310944
2353.000000	72.335915
2352.000000	72.333942
2351.000000	72.328965
2350.000000	72.338783
2349.000000	72.365658
2348.000000	72.386116
2347.000000	72.382709
2346.000000	72.370214
2345.000000	72.380499
2344.000000	72.437027
2343.000000	72.509747
2342.000000	72.562518
2341.000000	72.582405
2340.000000	72.573707
2339.000000	72.547276
2338.000000	72.517999
2337.000000	72.501259
2336.000000	72.508396
2335.000000	72.541087
2334.000000	72.600124
2333.000000	72.679728
2332.000000	72.769184
2331.000000	72.869407
2330.000000	72.974784
2329.000000	73.086309
2328.000000	73.190781
2327.000000	73.278449
2326.000000	73.349883
2325.000000	73.405725
2324.000000	73.454744
2323.000000	73.494057
2322.000000	73.526977
2321.000000	73.551886
2320.000000	73.568220
2319.000000	73.574494
2318.000000	73.568011
2317.000000	73.546017
2316.000000	73.500796
2315.000000	73.429387
2314.000000	73.333618
2313.000000	73.221371
2312.000000	73.097274
2311.000000	72.965264
2310.000000	72.829375
2309.000000	72.695079
2308.000000	72.566618
2307.000000	72.447721
2306.000000	72.344932
2305.000000	72.264556
2304.000000	72.211425
2303.000000	72.189965
2302.000000	72.206166
2301.000000	72.264401
2300.000000	72.360223
2299.000000	72.481502
2298.000000	72.611850
2297.000000	72.734728
2296.000000	72.833534
2295.000000	72.898059
2294.000000	72.928971
2293.000000	72.935636
2292.000000	72.929428
2291.000000	72.919580
2290.000000	72.912785
2289.000000	72.909586
2288.000000	72.902230
2287.000000	72.877731
2286.000000	72.825377
2285.000000	72.738847
2284.000000	72.617069
2283.000000	72.466659
2282.000000	72.306089
2281.000000	72.161365
2280.000000	72.056306
2279.000000	72.004885
2278.000000	72.010336
2277.000000	72.066837
2276.000000	72.162788
2275.000000	72.289762
2274.000000	72.446597
2273.000000	72.634949
2272.000000	72.850055
2271.000000	73.079446
2270.000000	73.309235
2269.000000	73.527578
2268.000000	73.725831
2267.000000	73.900731
2266.000000	74.055785
2265.000000	74.197822
2264.000000	74.331469
2263.000000	74.458991
2262.000000	74.582903
2261.000000	74.704649
2260.000000	74.822454
2259.000000	74.932948
2258.000000	75.035698
2257.000000	75.133201
2256.000000	75.228384
2255.000000	75.324775
2254.000000	75.427602
2253.000000	75.541637
2252.000000	75.667425
2251.000000	75.802344
2250.000000	75.943741
2249.000000	76.088919
2248.000000	76.233579
2247.000000	76.373537
2246.000000	76.507337
2245.000000	76.634903
2244.000000	76.754670
2243.000000	76.864452
2242.000000	76.963873
2241.000000	77.053670
2240.000000	77.133716
2239.000000	77.204330
2238.000000	77.268474
2237.000000	77.329791
2236.000000	77.389470
2235.000000	77.446664
2234.000000	77.500868
2233.000000	77.551263
2232.000000	77.594790
2231.000000	77.627840
2230.000000	77.649085
2229.000000	77.658914
2228.000000	77.657444
2227.000000	77.645556
2226.000000	77.627053
2225.000000	77.607087
2224.000000	77.589129
2223.000000	77.575337
2222.000000	77.568281
2221.000000	77.569480
2220.000000	77.576842
2219.000000	77.586119
2218.000000	77.594070
2217.000000	77.598146
2216.000000	77.594710
2215.000000	77.580752
2214.000000	77.556794
2213.000000	77.525668
2212.000000	77.489266
2211.000000	77.449094
2210.000000	77.409159
2209.000000	77.375512
2208.000000	77.353061
2207.000000	77.344200
2206.000000	77.348655
2205.000000	77.361294
2204.000000	77.371117
2203.000000	77.366047
2202.000000	77.340149
2201.000000	77.296558
2200.000000	77.246377
2199.000000	77.207756
2198.000000	77.202361
2197.000000	77.246140
2196.000000	77.340466
2195.000000	77.472958
2194.000000	77.625857
2193.000000	77.782101
2192.000000	77.927198
2191.000000	78.050671
2190.000000	78.147552
2189.000000	78.216787
2188.000000	78.258893
2187.000000	78.276951
2186.000000	78.278162
2185.000000	78.271653
2184.000000	78.264605
2183.000000	78.261767
2182.000000	78.266663
2181.000000	78.280365
2180.000000	78.299836
2179.000000	78.320226
2178.000000	78.338556
2177.000000	78.353288
2176.000000	78.362065
2175.000000	78.362925
2174.000000	78.357173
2173.000000	78.348686
2172.000000	78.341097
2171.000000	78.337906
2170.000000	78.344007
2169.000000	78.364086
2168.000000	78.399612
2167.000000	78.449209
2166.000000	78.510829
2165.000000	78.581177
2164.000000	78.654378
2163.000000	78.724181
2162.000000	78.787249
2161.000000	78.842671
2160.000000	78.889845
2159.000000	78.929424
2158.000000	78.965157
2157.000000	79.002178
2156.000000	79.043811
2155.000000	79.091396
2154.000000	79.145340
2153.000000	79.203451
2152.000000	79.259429
2151.000000	79.305696
2150.000000	79.337542
2149.000000	79.353175
2148.000000	79.351480
2147.000000	79.332659
2146.000000	79.300032
2145.000000	79.258534
2144.000000	79.211777
2143.000000	79.162303
2142.000000	79.113290
2141.000000	79.067640
2140.000000	79.025916
2139.000000	78.987025
2138.000000	78.950519
2137.000000	78.916718
2136.000000	78.886467
2135.000000	78.863370
2134.000000	78.854601
2133.000000	78.866846
2132.000000	78.901826
2131.000000	78.957213
2130.000000	79.030060
2129.000000	79.116630
2128.000000	79.210597
2127.000000	79.304894
2126.000000	79.394497
2125.000000	79.475073
2124.000000	79.540709
2123.000000	79.585441
2122.000000	79.606222
2121.000000	79.602774
2120.000000	79.576176
2119.000000	79.530323
2118.000000	79.473585
2117.000000	79.415894
2116.000000	79.364183
2115.000000	79.321914
2114.000000	79.290842
2113.000000	79.270626
2112.000000	79.257916
2111.000000	79.248456
2110.000000	79.239561
2109.000000	79.228849
2108.000000	79.212679
2107.000000	79.189054
2106.000000	79.161136
2105.000000	79.135862
2104.000000	79.120197
2103.000000	79.120415
2102.000000	79.142540
2101.000000	79.189254
2100.000000	79.257104
2099.000000	79.339021
2098.000000	79.428310
2097.000000	79.518039
2096.000000	79.598740
2095.000000	79.660477
2094.000000	79.696469
2093.000000	79.703036
2092.000000	79.678354
2091.000000	79.625142
2090.000000	79.554077
2089.000000	79.481437
2088.000000	79.423540
2087.000000	79.394438
2086.000000	79.405147
2085.000000	79.460222
2084.000000	79.554910
2083.000000	79.677887
2082.000000	79.816507
2081.000000	79.958181
2080.000000	80.090428
2079.000000	80.204688
2078.000000	80.299821
2077.000000	80.379574
2076.000000	80.447934
2075.000000	80.508990
2074.000000	80.567738
2073.000000	80.627893
2072.000000	80.689397
2071.000000	80.749628
2070.000000	80.806390
2069.000000	80.857248
2068.000000	80.898450
2067.000000	80.927836
2066.000000	80.947961
2065.000000	80.964068
2064.000000	80.979453
2063.000000	80.995152
2062.000000	81.012660
2061.000000	81.033882
2060.000000	81.059366
2059.000000	81.089095
2058.000000	81.123922
2057.000000	81.163963
2056.000000	81.206774
2055.000000	81.249442
2054.000000	81.291105
2053.000000	81.331627
2052.000000	81.369529
2051.000000	81.403408
2050.000000	81.434488
2049.000000	81.465561
2048.000000	81.497978
2047.000000	81.531756
2046.000000	81.567679
2045.000000	81.606284
2044.000000	81.645640
2043.000000	81.682973
2042.000000	81.717786
2041.000000	81.750776
2040.000000	81.780712
2039.000000	81.805247
2038.000000	81.824126
2037.000000	81.839264
2036.000000	81.852497
2035.000000	81.865780
2034.000000	81.882665
2033.000000	81.906595
2032.000000	81.938142
2031.000000	81.976125
2030.000000	82.019530
2029.000000	82.066497
2028.000000	82.112110
2027.000000	82.150605
2026.000000	82.179048
2025.000000	82.197171
2024.000000	82.205251
2023.000000	82.203401
2022.000000	82.193507
2021.000000	82.178611
2020.000000	82.160890
2019.000000	82.142947
2018.000000	82.130434
2017.000000	82.130109
2016.000000	82.144727
2015.000000	82.172013
2014.000000	82.207742
2013.000000	82.247295
2012.000000	82.285144
2011.000000	82.316951
2010.000000	82.342480
2009.000000	82.364502
2008.000000	82.385388
2007.000000	82.407175
2006.000000	82.432893
2005.000000	82.464497
2004.000000	82.500873
2003.000000	82.538749
2002.000000	82.576804
2001.000000	82.614390
2000.000000	82.649499
1999.000000	82.680954
1998.000000	82.708881
1997.000000	82.733677
1996.000000	82.753691
1995.000000	82.764708
1994.000000	82.762154
1993.000000	82.744117
1992.000000	82.713002
1991.000000	82.674192
1990.000000	82.632239
1989.000000	82.589004
1988.000000	82.545084
1987.000000	82.502094
1986.000000	82.463058
1985.000000	82.430555
1984.000000	82.406611
1983.000000	82.393909
1982.000000	82.395576
1981.000000	82.410965
1980.000000	82.434825
1979.000000	82.460862
1978.000000	82.484010
1977.000000	82.502360
1976.000000	82.517771
1975.000000	82.535781
1974.000000	82.562726
1973.000000	82.602485
1972.000000	82.655038
1971.000000	82.716518
1970.000000	82.780171
1969.000000	82.838623
1968.000000	82.886519
1967.000000	82.921282
1966.000000	82.941216
1965.000000	82.943355
1964.000000	82.924985
1963.000000	82.887299
1962.000000	82.836852
1961.000000	82.783367
1960.000000	82.735187
1959.000000	82.695636
1958.000000	82.662011
1957.000000	82.627643
1956.000000	82.586142
1955.000000	82.535527
1954.000000	82.478058
1953.000000	82.418909
1952.000000	82.364964
1951.000000	82.324001
1950.000000	82.304697
1949.000000	82.311128
1948.000000	82.340628
1947.000000	82.388846
1946.000000	82.452220
1945.000000	82.527440
1944.000000	82.612289
1943.000000	82.708980
1942.000000	82.822741
1941.000000	82.952437
1940.000000	83.087565
1939.000000	83.215356
1938.000000	83.326913
1937.000000	83.418213
1936.000000	83.489012
1935.000000	83.541865
1934.000000	83.580764
1933.000000	83.610963
1932.000000	83.635384
1931.000000	83.653321
1930.000000	83.664211
1929.000000	83.663793
1928.000000	83.647484
1927.000000	83.613696
1926.000000	83.564989
1925.000000	83.505971
1924.000000	83.439167
1923.000000	83.374374
1922.000000	83.327384
1921.000000	83.302519
1920.000000	83.286444
1919.000000	83.263192
1918.000000	83.232838
1917.000000	83.208246
1916.000000	83.194352
1915.000000	83.186131
1914.000000	83.179184
1913.000000	83.172508
1912.000000	83.164310
1911.000000	83.152771
1910.000000	83.141185
1909.000000	83.133492
1908.000000	83.132241
1907.000000	83.139089
1906.000000	83.157456
1905.000000	83.190173
1904.000000	83.231399
1903.000000	83.274993
1902.000000	83.320102
1901.000000	83.362759
1900.000000	83.395604
1899.000000	83.416704
1898.000000	83.433039
1897.000000	83.453406
1896.000000	83.479522
1895.000000	83.513164
1894.000000	83.561169
1893.000000	83.625086
1892.000000	83.695775
1891.000000	83.764918
1890.000000	83.835427
1889.000000	83.914301
1888.000000	83.999154
1887.000000	84.081869
1886.000000	84.158664
1885.000000	84.228399
1884.000000	84.288315
1883.000000	84.338104
1882.000000	84.381673
1881.000000	84.419067
1880.000000	84.447631
1879.000000	84.469146
1878.000000	84.489249
1877.000000	84.512104
1876.000000	84.534524
1875.000000	84.550150
1874.000000	84.558096
1873.000000	84.559266
1872.000000	84.549090
1871.000000	84.521344
1870.000000	84.477658
1869.000000	84.430680
1868.000000	84.394061
1867.000000	84.372348
1866.000000	84.362930
1865.000000	84.358170
1864.000000	84.347767
1863.000000	84.328651
1862.000000	84.310177
1861.000000	84.304450
1860.000000	84.316308
1859.000000	84.347893
1858.000000	84.403503
1857.000000	84.480480
1856.000000	84.564479
1855.000000	84.641169
1854.000000	84.709695
1853.000000	84.772553
1852.000000	84.830113
1851.000000	84.886236
1850.000000	84.944360
1849.000000	85.007868
1848.000000	85.078245
1847.000000	85.156025
1846.000000	85.235653
1845.000000	85.302608
1844.000000	85.348191
1843.000000	85.379155
1842.000000	85.402185
1841.000000	85.411487
1840.000000	85.400941
1839.000000	85.375285
1838.000000	85.352460
1837.000000	85.349950
1836.000000	85.369348
1835.000000	85.406916
1834.000000	85.462965
1833.000000	85.534801
1832.000000	85.614497
1831.000000	85.689663
1830.000000	85.750227
1829.000000	85.797497
1828.000000	85.832745
1827.000000	85.852392
1826.000000	85.857195
1825.000000	85.862383
1824.000000	85.889092
1823.000000	85.944357
1822.000000	86.022111
1821.000000	86.114970
1820.000000	86.217523
1819.000000	86.322893
1818.000000	86.428223
1817.000000	86.533545
1816.000000	86.628314
1815.000000	86.700053
1814.000000	86.746647
1813.000000	86.776502
1812.000000	86.797538
1811.000000	86.810484
1810.000000	86.823656
1809.000000	86.849005
1808.000000	86.885932
1807.000000	86.927537
1806.000000	86.970902
1805.000000	87.012744
1804.000000	87.043371
1803.000000	87.061269
1802.000000	87.076508
1801.000000	87.096086
1800.000000	87.111291
1799.000000	87.105024
1798.000000	87.078614
1797.000000	87.048096
1796.000000	87.025238
1795.000000	87.014635
1794.000000	87.014390
1793.000000	87.021024
1792.000000	87.037715
1791.000000	87.069521
1790.000000	87.116623
1789.000000	87.168265
1788.000000	87.207975
1787.000000	87.229057
1786.000000	87.244038
1785.000000	87.270934
1784.000000	87.309695
1783.000000	87.352405
1782.000000	87.391790
1781.000000	87.425534
1780.000000	87.462398
1779.000000	87.506712
1778.000000	87.557940
1777.000000	87.611039
1776.000000	87.667597
1775.000000	87.738109
1774.000000	87.820970
1773.000000	87.897782
1772.000000	87.956487
1771.000000	87.994220
1770.000000	88.013592
1769.000000	88.033068
1768.000000	88.072093
1767.000000	88.134271
1766.000000	88.206806
1765.000000	88.275308
1764.000000	88.332274
1763.000000	88.372226
1762.000000	88.391335
1761.000000	88.395294
1760.000000	88.386994
1759.000000	88.359940
1758.000000	88.313531
1757.000000	88.253835
1756.000000	88.203049
1755.000000	88.171825
1754.000000	88.146118
1753.000000	88.115731
1752.000000	88.093377
1751.000000	88.098028
1750.000000	88.126448
1749.000000	88.153184
1748.000000	88.156446
1747.000000	88.135741
1746.000000	88.089416
1745.000000	88.018692
1744.000000	87.940398
1743.000000	87.872282
1742.000000	87.820021
1741.000000	87.778927
1740.000000	87.745365
1739.000000	87.728954
1738.000000	87.740012
1737.000000	87.776453
1736.000000	87.829922
1735.000000	87.885887
1734.000000	87.946778
1733.000000	88.017418
1732.000000	88.071566
1731.000000	88.093466
1730.000000	88.098040
1729.000000	88.101318
1728.000000	88.114200
1727.000000	88.137500
1726.000000	88.161520
1725.000000	88.183758
1724.000000	88.209234
1723.000000	88.237020
1722.000000	88.268604
1721.000000	88.302100
1720.000000	88.329790
1719.000000	88.337824
1718.000000	88.335987
1717.000000	88.360265
1716.000000	88.403786
1715.000000	88.435496
1714.000000	88.459750
1713.000000	88.489938
1712.000000	88.519558
1711.000000	88.542714
1710.000000	88.569799
1709.000000	88.607316
1708.000000	88.648599
1707.000000	88.679252
1706.000000	88.691401
1705.000000	88.692457
1704.000000	88.686527
1703.000000	88.684592
1702.000000	88.698694
1701.000000	88.715092
1700.000000	88.722678
1699.000000	88.726422
1698.000000	88.729441
1697.000000	88.736949
1696.000000	88.741478
1695.000000	88.739789
1694.000000	88.736286
1693.000000	88.717547
1692.000000	88.673942
1691.000000	88.606749
1690.000000	88.530537
1689.000000	88.459539
1688.000000	88.405248
1687.000000	88.373670
1686.000000	88.350429
1685.000000	88.303334
1684.000000	88.239610
1683.000000	88.200813
1682.000000	88.170662
1681.000000	88.118447
1680.000000	88.055873
1679.000000	88.006079
1678.000000	87.969682
1677.000000	87.919933
1676.000000	87.838694
1675.000000	87.742734
1674.000000	87.649738
1673.000000	87.552613
1672.000000	87.449849
1671.000000	87.344914
1670.000000	87.239389
1669.000000	87.130435
1668.000000	87.022947
1667.000000	86.925239
1666.000000	86.829994
1665.000000	86.720301
1664.000000	86.581004
1663.000000	86.419055
1662.000000	86.255079
1661.000000	86.087387
1660.000000	85.916818
1659.000000	85.755015
1658.000000	85.605043
1657.000000	85.459062
1656.000000	85.326295
1655.000000	85.208086
1654.000000	85.048513
1653.000000	84.825997
1652.000000	84.594934
1651.000000	84.366964
1650.000000	84.117340
1649.000000	83.819100
1648.000000	83.419944
1647.000000	82.905907
1646.000000	82.324517
1645.000000	81.730681
1644.000000	81.130801
1643.000000	80.522528
1642.000000	79.913180
1641.000000	79.324928
1640.000000	78.807369
1639.000000	78.402860
1638.000000	78.124121
1637.000000	77.960995
1636.000000	77.921940
1635.000000	78.019074
1634.000000	78.200284
1633.000000	78.409015
1632.000000	78.637436
1631.000000	78.906492
1630.000000	79.230525
1629.000000	79.600436
1628.000000	79.991759
1627.000000	80.380316
1626.000000	80.751653
1625.000000	81.113322
1624.000000	81.490468
1623.000000	81.893336
1622.000000	82.289035
1621.000000	82.632846
1620.000000	82.932786
1619.000000	83.236762
1618.000000	83.580606
1617.000000	83.951314
1616.000000	84.284386
1615.000000	84.507223
1614.000000	84.590576
1613.000000	84.546425
1612.000000	84.391988
1611.000000	84.132325
1610.000000	83.737439
1609.000000	83.157337
1608.000000	82.354879
1607.000000	81.304668
1606.000000	79.952040
1605.000000	78.180042
1604.000000	75.863510
1603.000000	72.904047
1602.000000	69.258951
1601.000000	64.982724
1600.000000	60.219298
1599.000000	55.127925
1598.000000	49.748903
1597.000000	44.066267
1596.000000	38.355674
1595.000000	33.419033
1594.000000	30.182590
1593.000000	28.975134
1592.000000	29.388546
1591.000000	30.771375
1590.000000	32.674528
1589.000000	34.838868
1588.000000	37.028131
1587.000000	39.002313
1586.000000	40.621567
1585.000000	41.954789
1584.000000	43.218135
1583.000000	44.581035
1582.000000	46.029502
1581.000000	47.456118
1580.000000	48.847110
1579.000000	50.312356
1578.000000	51.943621
1577.000000	53.671805
1576.000000	55.241494
1575.000000	56.410016
1574.000000	57.166226
1573.000000	57.664750
1572.000000	58.090131
1571.000000	58.628420
1570.000000	59.409957
1569.000000	60.399081
1568.000000	61.472519
1567.000000	62.589373
1566.000000	63.760523
1565.000000	64.929068
1564.000000	65.992894
1563.000000	66.905825
1562.000000	67.715459
1561.000000	68.518109
1560.000000	69.437872
1559.000000	70.550523
1558.000000	71.650624
1557.000000	72.487008
1556.000000	73.119538
1555.000000	73.711919
1554.000000	74.305489
1553.000000	74.851124
1552.000000	75.307775
1551.000000	75.696006
1550.000000	76.050502
1549.000000	76.374097
1548.000000	76.646202
1547.000000	76.872597
1546.000000	77.081231
1545.000000	77.295089
1544.000000	77.525259
1543.000000	77.777072
1542.000000	78.057225
1541.000000	78.367101
1540.000000	78.688351
1539.000000	78.993331
1538.000000	79.256937
1537.000000	79.480794
1536.000000	79.692384
1535.000000	79.924922
1534.000000	80.193777
1533.000000	80.484509
1532.000000	80.765781
1531.000000	81.017695
1530.000000	81.249701
1529.000000	81.468851
1528.000000	81.669842
1527.000000	81.860308
1526.000000	82.053138
1525.000000	82.240884
1524.000000	82.407999
1523.000000	82.551243
1522.000000	82.680288
1521.000000	82.804240
1520.000000	82.916505
1519.000000	83.006762
1518.000000	83.075329
1517.000000	83.130168
1516.000000	83.183228
1515.000000	83.244547
1514.000000	83.311377
1513.000000	83.376066
1512.000000	83.430880
1511.000000	83.473630
1510.000000	83.515345
1509.000000	83.578273
1508.000000	83.687590
1507.000000	83.868894
1506.000000	84.109261
1505.000000	84.320469
1504.000000	84.456667
1503.000000	84.553469
1502.000000	84.650901
1501.000000	84.761452
1500.000000	84.874674
1499.000000	84.978232
1498.000000	85.074430
1497.000000	85.183194
1496.000000	85.310662
1495.000000	85.442091
1494.000000	85.568257
1493.000000	85.687804
1492.000000	85.802909
1491.000000	85.926105
1490.000000	86.084480
1489.000000	86.287905
1488.000000	86.507896
1487.000000	86.718815
1486.000000	86.926460
1485.000000	87.123655
1484.000000	87.296721
1483.000000	87.452973
1482.000000	87.603331
1481.000000	87.746207
1480.000000	87.869017
1479.000000	87.975208
1478.000000	88.080261
1477.000000	88.195014
1476.000000	88.319291
1475.000000	88.465288
1474.000000	88.653455
1473.000000	88.881178
1472.000000	89.120677
1471.000000	89.330643
1470.000000	89.483520
1469.000000	89.574067
1468.000000	89.612564
1467.000000	89.611014
1466.000000	89.546054
1465.000000	89.334713
1464.000000	88.903924
1463.000000	88.244851
1462.000000	87.389155
1461.000000	86.385120
1460.000000	85.299043
1459.000000	84.186464
1458.000000	83.039485
1457.000000	81.874085
1456.000000	80.796028
1455.000000	79.799231
1454.000000	78.675603
1453.000000	77.224217
1452.000000	75.419640
1451.000000	73.352333
1450.000000	70.993914
1449.000000	68.138848
1448.000000	64.735829
1447.000000	61.244974
1446.000000	58.474155
1445.000000	57.140992
1444.000000	57.632215
1443.000000	59.842487
1442.000000	63.129599
1441.000000	66.614830
1440.000000	69.634204
1439.000000	71.928415
1438.000000	73.537862
1437.000000	74.653802
1436.000000	75.533899
1435.000000	76.386796
1434.000000	77.311541
1433.000000	78.344426
1432.000000	79.459622
1431.000000	80.554802
1430.000000	81.519378
1429.000000	82.316964
1428.000000	82.958733
1427.000000	83.466501
1426.000000	83.879835
1425.000000	84.249824
1424.000000	84.609924
1423.000000	84.945576
1422.000000	85.239441
1421.000000	85.511713
1420.000000	85.794910
1419.000000	86.091722
1418.000000	86.379980
1417.000000	86.650726
1416.000000	86.902049
1415.000000	87.125817
1414.000000	87.319447
1413.000000	87.496860
1412.000000	87.671147
1411.000000	87.838204
1410.000000	87.992279
1409.000000	88.138664
1408.000000	88.270107
1407.000000	88.365785
1406.000000	88.414408
1405.000000	88.412403
1404.000000	88.352383
1403.000000	88.225428
1402.000000	88.046894
1401.000000	87.853411
1400.000000	87.677513
1399.000000	87.534803
1398.000000	87.425135
1397.000000	87.342261
1396.000000	87.279493
1395.000000	87.226021
1394.000000	87.141635
1393.000000	86.959120
1392.000000	86.634607
1391.000000	86.186421
1390.000000	85.695210
1389.000000	85.274367
1388.000000	85.038033
1387.000000	85.062668
1386.000000	85.338634
1385.000000	85.773860
1384.000000	86.271121
1383.000000	86.779856
1382.000000	87.293647
1381.000000	87.818694
1380.000000	88.341840
1379.000000	88.829797
1378.000000	89.245244
1377.000000	89.552707
1376.000000	89.708492
1375.000000	89.661988
1374.000000	89.348650
1373.000000	88.656323
1372.000000	87.390314
1371.000000	85.283078
1370.000000	82.092865
1369.000000	77.813675
1368.000000	72.914209
1367.000000	68.320180
1366.000000	65.035354
1365.000000	63.724932
1364.000000	64.531922
1363.000000	67.027159
1362.000000	70.337864
1361.000000	73.614634
1360.000000	76.429403
1359.000000	78.725298
1358.000000	80.582729
1357.000000	82.094425
1356.000000	83.340334
1355.000000	84.379651
1354.000000	85.253814
1353.000000	86.001913
1352.000000	86.656644
1351.000000	87.229048
1350.000000	87.716740
1349.000000	88.126036
1348.000000	88.474194
1347.000000	88.771703
1346.000000	89.024960
1345.000000	89.247990
1344.000000	89.456035
1343.000000	89.648438
1342.000000	89.819096
1341.000000	89.978247
1340.000000	90.146259
1339.000000	90.325976
1338.000000	90.498448
1337.000000	90.649919
1336.000000	90.783592
1335.000000	90.908390
1334.000000	91.035284
1333.000000	91.179020
1332.000000	91.346021
1331.000000	91.521806
1330.000000	91.682517
1329.000000	91.816877
1328.000000	91.921588
1327.000000	91.981801
1326.000000	91.969797
1325.000000	91.854652
1324.000000	91.600993
1323.000000	91.147174
1322.000000	90.401307
1321.000000	89.248025
1320.000000	87.545356
1319.000000	85.175529
1318.000000	82.191394
1317.000000	78.958564
1316.000000	76.116732
1315.000000	74.306493
1314.000000	73.815156
1313.000000	74.453973
1312.000000	75.775512
1311.000000	77.395565
1310.000000	79.136016
1309.000000	80.918425
1308.000000	82.642499
1307.000000	84.203216
1306.000000	85.557304
1305.000000	86.721842
1304.000000	87.713256
1303.000000	88.527322
1302.000000	89.172565
1301.000000	89.681969
1300.000000	90.077684
1299.000000	90.360757
1298.000000	90.522170
1297.000000	90.510880
1296.000000	90.201430
1295.000000	89.450395
1294.000000	88.227624
1293.000000	86.659484
1292.000000	84.945338
1291.000000	83.307491
1290.000000	82.038668
1289.000000	81.471765
1288.000000	81.750643
1287.000000	82.611435
1286.000000	83.496897
1285.000000	83.973750
1284.000000	84.002120
1283.000000	83.829153
1282.000000	83.723406
1281.000000	83.816234
1280.000000	84.078217
1279.000000	84.324298
1278.000000	84.232460
1277.000000	83.405532
1276.000000	81.477268
1275.000000	78.255544
1274.000000	73.964829
1273.000000	69.493877
1272.000000	66.293373
1271.000000	65.656799
1270.000000	67.855028
1269.000000	71.953457
1268.000000	76.487850
1267.000000	80.363428
1266.000000	83.215973
1265.000000	85.187823
1264.000000	86.561475
1263.000000	87.560628
1262.000000	88.326204
1261.000000	88.944661
1260.000000	89.466699
1259.000000	89.921040
1258.000000	90.332928
1257.000000	90.715141
1256.000000	91.064627
1255.000000	91.378588
1254.000000	91.662195
1253.000000	91.922319
1252.000000	92.159683
1251.000000	92.376576
1250.000000	92.583082
1249.000000	92.788301
1248.000000	92.993223
1247.000000	93.197067
1246.000000	93.404026
1245.000000	93.617788
1244.000000	93.834446
1243.000000	94.047591
1242.000000	94.255368
1241.000000	94.456542
1240.000000	94.644553
1239.000000	94.811233
1238.000000	94.953634
1237.000000	95.069792
1236.000000	95.151898
1235.000000	95.191552
1234.000000	95.186018
1233.000000	95.135245
1232.000000	95.034453
1231.000000	94.876036
1230.000000	94.657686
1229.000000	94.375666
1228.000000	94.016844
1227.000000	93.558946
1226.000000	92.971862
1225.000000	92.219332
1224.000000	91.254634
1223.000000	90.035654
1222.000000	88.544272
1221.000000	86.789330
1220.000000	84.812001
1219.000000	82.677374
1218.000000	80.456530
1217.000000	78.203805
1216.000000	75.943961
1215.000000	73.679062
1214.000000	71.392461
1213.000000	69.061190
1212.000000	66.688540
1211.000000	64.340835
1210.000000	62.150063
1209.000000	60.299099
1208.000000	58.980588
1207.000000	58.306478
1206.000000	58.230955
1205.000000	58.558185
1204.000000	59.087202
1203.000000	59.756805
1202.000000	60.650746
1201.000000	61.901978
1200.000000	63.556802
1199.000000	65.520907
1198.000000	67.611951
1197.000000	69.659493
1196.000000	71.581563
1195.000000	73.377559
1194.000000	75.079444
1193.000000	76.715500
1192.000000	78.299220
1191.000000	79.825841
1190.000000	81.277861
1189.000000	82.635800
1188.000000	83.882909
1187.000000	85.009432
1186.000000	86.008865
1185.000000	86.880057
1184.000000	87.628684
1183.000000	88.262505
1182.000000	88.794040
1181.000000	89.235706
1180.000000	89.597892
1179.000000	89.892415
1178.000000	90.132987
1177.000000	90.335610
1176.000000	90.513271
1175.000000	90.676688
1174.000000	90.838938
1173.000000	91.013328
1172.000000	91.208830
1171.000000	91.428691
1170.000000	91.672374
1169.000000	91.934376
1168.000000	92.201431
1167.000000	92.455789
1166.000000	92.682511
1165.000000	92.872591
1164.000000	93.023104
1163.000000	93.141635
1162.000000	93.251079
1161.000000	93.382497
1160.000000	93.558946
1159.000000	93.785749
1158.000000	94.052107
1157.000000	94.336863
1156.000000	94.614483
1155.000000	94.863695
1154.000000	95.074975
1153.000000	95.247928
1152.000000	95.384011
1151.000000	95.486489
1150.000000	95.564647
1149.000000	95.631746
1148.000000	95.696182
1147.000000	95.760057
1146.000000	95.823546
1145.000000	95.882501
1144.000000	95.924683
1143.000000	95.931507
1142.000000	95.885302
1141.000000	95.770888
1140.000000	95.568235
1139.000000	95.256017
1138.000000	94.812893
1137.000000	94.214746
1136.000000	93.435279
1135.000000	92.442763
1134.000000	91.207593
1133.000000	89.693936
1132.000000	87.859722
1131.000000	85.684922
1130.000000	83.189888
1129.000000	80.450853
1128.000000	77.586353
1127.000000	74.708910
1126.000000	71.856838
1125.000000	68.947038
1124.000000	65.844385
1123.000000	62.500761
1122.000000	59.024754
1121.000000	55.562658
1120.000000	52.034124
1119.000000	47.999977
1118.000000	42.946515
1117.000000	36.950840
1116.000000	31.133635
1115.000000	27.367596
1114.000000	27.210501
1113.000000	30.923814
1112.000000	37.375473
1111.000000	44.710420
1110.000000	51.262414
1109.000000	56.097759
1108.000000	58.960706
1107.000000	59.811783
1106.000000	58.481928
1105.000000	54.838032
1104.000000	49.418651
1103.000000	43.851930
1102.000000	40.341907
1101.000000	40.435072
1100.000000	44.121624
1099.000000	50.009443
1098.000000	56.328541
1097.000000	61.896163
1096.000000	66.334765
1095.000000	69.759182
1094.000000	72.423760
1093.000000	74.564803
1092.000000	76.359491
1091.000000	77.924405
1090.000000	79.328471
1089.000000	80.613153
1088.000000	81.807482
1087.000000	82.911519
1086.000000	83.914677
1085.000000	84.817015
1084.000000	85.623427
1083.000000	86.337491
1082.000000	86.965800
1081.000000	87.528705
1080.000000	88.048592
1079.000000	88.534265
1078.000000	88.991194
1077.000000	89.429073
1076.000000	89.852165
1075.000000	90.249668
1074.000000	90.600909
1073.000000	90.885067
1072.000000	91.065634
1071.000000	91.083108
1070.000000	90.873795
1069.000000	90.376061
1068.000000	89.533503
1067.000000	88.281135
1066.000000	86.555383
1065.000000	84.320543
1064.000000	81.565338
1063.000000	78.326636
1062.000000	74.675729
1061.000000	70.674728
1060.000000	66.331741
1059.000000	61.567832
1058.000000	56.281437
1057.000000	50.477530
1056.000000	44.411511
1055.000000	38.622804
1054.000000	33.847504
1053.000000	30.804157
1052.000000	29.986434
1051.000000	31.495419
1050.000000	34.929699
1049.000000	39.556554
1048.000000	44.574882
1047.000000	49.359281
1046.000000	53.587515
1045.000000	57.198318
1044.000000	60.280884
1043.000000	62.941402
1042.000000	65.238480
1041.000000	67.188350
1040.000000	68.811742
1039.000000	70.140783
1038.000000	71.221341
1037.000000	72.115082
1036.000000	72.882890
1035.000000	73.578250
1034.000000	74.236109
1033.000000	74.877168
1032.000000	75.512728
1031.000000	76.139547
1030.000000	76.744462
1029.000000	77.315155
1028.000000	77.852073
1027.000000	78.373822
1026.000000	78.916238
1025.000000	79.522177
1024.000000	80.223406
1023.000000	81.023882
1022.000000	81.897408
1021.000000	82.794784
1020.000000	83.651767
1019.000000	84.394720
1018.000000	84.945899
1017.000000	85.232808
1016.000000	85.168865
1015.000000	84.656988
1014.000000	83.595073
1013.000000	81.872107
1012.000000	79.388922
1011.000000	76.028435
1010.000000	71.658235
1009.000000	66.175467
1008.000000	59.680965
1007.000000	52.752776
1006.000000	46.558027
1005.000000	42.526045
1004.000000	41.650716
1003.000000	43.888898
1002.000000	48.123196
1001.000000	52.772266
1000.000000	56.464613
999.000000	58.322688
998.000000	57.972841
997.000000	55.617201
996.000000	52.198327
995.000000	49.230321
994.000000	48.097738
993.000000	49.290001
992.000000	52.258083
991.000000	55.950281
990.000000	59.504288
989.000000	62.556508
988.000000	65.118077
987.000000	67.302315
986.000000	69.193656
985.000000	70.836206
984.000000	72.256409
983.000000	73.470086
982.000000	74.504872
981.000000	75.403065
980.000000	76.200926
979.000000	76.923019
978.000000	77.585477
977.000000	78.204074
976.000000	78.782682
975.000000	79.306578
974.000000	79.760816
973.000000	80.140725
972.000000	80.449402
971.000000	80.696097
970.000000	80.904610
969.000000	81.113759
968.000000	81.357420
967.000000	81.650344
966.000000	81.991660
965.000000	82.368767
964.000000	82.753153
963.000000	83.104323
962.000000	83.390329
961.000000	83.601509
960.000000	83.743213
959.000000	83.830027
958.000000	83.889745
957.000000	83.958903
956.000000	84.063170
955.000000	84.207024
954.000000	84.385800
953.000000	84.595263
952.000000	84.825477
951.000000	85.058233
950.000000	85.279516
949.000000	85.484787
948.000000	85.666485
947.000000	85.807569
946.000000	85.895958
945.000000	85.934391
944.000000	85.933170
943.000000	85.904819
942.000000	85.873022
941.000000	85.873876
940.000000	85.937360
939.000000	86.072448
938.000000	86.271084
937.000000	86.513664
936.000000	86.764536
935.000000	86.977366
934.000000	87.118157
933.000000	87.179738
932.000000	87.172270
931.000000	87.114582
930.000000	87.038828
929.000000	86.986793
928.000000	86.987850
927.000000	87.046566
926.000000	87.155301
925.000000	87.305138
924.000000	87.478859
923.000000	87.649061
922.000000	87.795382
921.000000	87.913147
920.000000	88.000018
919.000000	88.048300
918.000000	88.058503
917.000000	88.045916
916.000000	88.026466
915.000000	88.009162
914.000000	88.009216
913.000000	88.051882
912.000000	88.152646
911.000000	88.305429
910.000000	88.495779
909.000000	88.708060
908.000000	88.911036
907.000000	89.053677
906.000000	89.090177
905.000000	89.000023
904.000000	88.787843
903.000000	88.490965
902.000000	88.188021
901.000000	87.966891
900.000000	87.860306
899.000000	87.823040
898.000000	87.777932
897.000000	87.656163
896.000000	87.408701
895.000000	87.028020
894.000000	86.547372
893.000000	85.939396
892.000000	84.989668
891.000000	83.419039
890.000000	81.278240
889.000000	79.189981
888.000000	78.009446
887.000000	78.173131
886.000000	79.386140
885.000000	80.954369
884.000000	82.357472
883.000000	83.453021
882.000000	84.307826
881.000000	84.992928
880.000000	85.539932
879.000000	85.977523
878.000000	86.335091
877.000000	86.627368
876.000000	86.862464
875.000000	87.056148
874.000000	87.227351
873.000000	87.397110
872.000000	87.589558
871.000000	87.820687
870.000000	88.082417
869.000000	88.343922
868.000000	88.569657
867.000000	88.729439
866.000000	88.800073
865.000000	88.773560
864.000000	88.665210
863.000000	88.510604
862.000000	88.352003
861.000000	88.227732
860.000000	88.166835
859.000000	88.182200
858.000000	88.267313
857.000000	88.404218
856.000000	88.575465
855.000000	88.765056
854.000000	88.954226
853.000000	89.120924
852.000000	89.243739
851.000000	89.305252
850.000000	89.297576
849.000000	89.228849
848.000000	89.124688
847.000000	89.020774
846.000000	88.952451
845.000000	88.947115
844.000000	89.017862
843.000000	89.158699
842.000000	89.346466
841.000000	89.549083
840.000000	89.731698
839.000000	89.861943
838.000000	89.919649
837.000000	89.905592
836.000000	89.837718
835.000000	89.741022
834.000000	89.643044
833.000000	89.573543
832.000000	89.557084
831.000000	89.601270
830.000000	89.695684
829.000000	89.823091
828.000000	89.968023
827.000000	90.115125
826.000000	90.247304
825.000000	90.347693
824.000000	90.401098
823.000000	90.396283
822.000000	90.335224
821.000000	90.237910
820.000000	90.132263
819.000000	90.038510
818.000000	89.962688
817.000000	89.898376
816.000000	89.812986
815.000000	89.626810
814.000000	89.206249
813.000000	88.372056
812.000000	86.941652
811.000000	84.807968
810.000000	82.069523
809.000000	79.117265
808.000000	76.558343
807.000000	74.953084
806.000000	74.542007
805.000000	75.172137
804.000000	76.457059
803.000000	78.013300
802.000000	79.577475
801.000000	81.008525
800.000000	82.239584
799.000000	83.243360
798.000000	84.017509
797.000000	84.572017
796.000000	84.922054
795.000000	85.089456
794.000000	85.109774
793.000000	85.025829
792.000000	84.881928
791.000000	84.721020
790.000000	84.584601
789.000000	84.507089
788.000000	84.505953
787.000000	84.579467
786.000000	84.711949
785.000000	84.880176
784.000000	85.056441
783.000000	85.212663
782.000000	85.325546
781.000000	85.380231
780.000000	85.373910
779.000000	85.322852
778.000000	85.265909
777.000000	85.253197
776.000000	85.324304
775.000000	85.494091
774.000000	85.752470
773.000000	86.069996
772.000000	86.402913
771.000000	86.703727
770.000000	86.936615
769.000000	87.085962
768.000000	87.154513
767.000000	87.160529
766.000000	87.136447
765.000000	87.119766
764.000000	87.138421
763.000000	87.203962
762.000000	87.316181
761.000000	87.466115
760.000000	87.633496
759.000000	87.790514
758.000000	87.914791
757.000000	87.996414
756.000000	88.032863
755.000000	88.024372
754.000000	87.977366
753.000000	87.905172
752.000000	87.821492
751.000000	87.737838
750.000000	87.668710
749.000000	87.632333
748.000000	87.641552
747.000000	87.697577
746.000000	87.792267
745.000000	87.908346
744.000000	88.014528
743.000000	88.070864
742.000000	88.047347
741.000000	87.937518
740.000000	87.755997
739.000000	87.531770
738.000000	87.304313
737.000000	87.111873
736.000000	86.970333
735.000000	86.859893
734.000000	86.730978
733.000000	86.517958
732.000000	86.151268
731.000000	85.579168
730.000000	84.797572
729.000000	83.864282
728.000000	82.881552
727.000000	81.965953
726.000000	81.228167
725.000000	80.758893
724.000000	80.609294
723.000000	80.777837
722.000000	81.222566
721.000000	81.878197
720.000000	82.658902
719.000000	83.465490
718.000000	84.213729
717.000000	84.854404
716.000000	85.363982
715.000000	85.730458
714.000000	85.954100
713.000000	86.052143
712.000000	86.053339
711.000000	85.993245
710.000000	85.917041
709.000000	85.875131
708.000000	85.903926
707.000000	86.011655
706.000000	86.182834
705.000000	86.387415
704.000000	86.583436
703.000000	86.726767
702.000000	86.792991
701.000000	86.786267
700.000000	86.725536
699.000000	86.632365
698.000000	86.531220
697.000000	86.447023
696.000000	86.391383
695.000000	86.359012
694.000000	86.345972
693.000000	86.359600
692.000000	86.405090
691.000000	86.476950
690.000000	86.568798
689.000000	86.677004
688.000000	86.783540
687.000000	86.850817
686.000000	86.849265
685.000000	86.777651
684.000000	86.652658
683.000000	86.497794
682.000000	86.351257
681.000000	86.265015
680.000000	86.275303
679.000000	86.379947
678.000000	86.554605
677.000000	86.768138
676.000000	86.971554
675.000000	87.110531
674.000000	87.153866
673.000000	87.082061
672.000000	86.852233
671.000000	86.420133
670.000000	85.841766
669.000000	85.357644
668.000000	85.307280
667.000000	85.792125
666.000000	86.457545
665.000000	86.925586
664.000000	87.171700
663.000000	87.306760
662.000000	87.407239
661.000000	87.487626
660.000000	87.542230
659.000000	87.562085
658.000000	87.533567
657.000000	87.449809
656.000000	87.324378
655.000000	87.190917
654.000000	87.088914
653.000000	87.052353
652.000000	87.103760
651.000000	87.244584
650.000000	87.450613
649.000000	87.680489
648.000000	87.887498
647.000000	88.023783
646.000000	88.053121
645.000000	87.972235
644.000000	87.812756
643.000000	87.624940
642.000000	87.462856
641.000000	87.372279
640.000000	87.378031
639.000000	87.475453
638.000000	87.635491
637.000000	87.821145
636.000000	87.997003
635.000000	88.129436
634.000000	88.196384
633.000000	88.199371
632.000000	88.155395
631.000000	88.079711
630.000000	87.983921
629.000000	87.883357
628.000000	87.795301
627.000000	87.733717
626.000000	87.713521
625.000000	87.754076
624.000000	87.866217
623.000000	88.037987
622.000000	88.237882
621.000000	88.426699
620.000000	88.561307
619.000000	88.601477
618.000000	88.533649
617.000000	88.384267
616.000000	88.199017
615.000000	88.020269
614.000000	87.893405
613.000000	87.870793
612.000000	87.983769
611.000000	88.213583
610.000000	88.505609
609.000000	88.802410
608.000000	89.050562
607.000000	89.196563
606.000000	89.211283
605.000000	89.112677
604.000000	88.941868
603.000000	88.730369
602.000000	88.504035
601.000000	88.295268
600.000000	88.119100
599.000000	87.945766
598.000000	87.719392
597.000000	87.377612
596.000000	86.831797
595.000000	85.932179
594.000000	84.430319
593.000000	81.952925
592.000000	78.053961
591.000000	72.570810
590.000000	66.146132
589.000000	60.346932
588.000000	56.996854
587.000000	57.107262
586.000000	60.213678
585.000000	64.752088
584.000000	69.209758
583.000000	72.866975
582.000000	75.681222
581.000000	77.834739
580.000000	79.474254
579.000000	80.687028
578.000000	81.540077
577.000000	82.100577
576.000000	82.452994
575.000000	82.702394
574.000000	82.927680
573.000000	83.164558
572.000000	83.433131
571.000000	83.751614
570.000000	84.113156
569.000000	84.473031
568.000000	84.781217
567.000000	85.006495
566.000000	85.124510
565.000000	85.106865
564.000000	84.932423
563.000000	84.609852
562.000000	84.183787
561.000000	83.724405
560.000000	83.312165
559.000000	83.012837
558.000000	82.849922
557.000000	82.811041
556.000000	82.893055
555.000000	83.116850
554.000000	83.486285
553.000000	83.949166
552.000000	84.411222
551.000000	84.778097
550.000000	84.991459
549.000000	85.052841
548.000000	85.022749
547.000000	84.991257
546.000000	85.036248
545.000000	85.196107
544.000000	85.468380
543.000000	85.816928
542.000000	86.178736
541.000000	86.481225
540.000000	86.667994
539.000000	86.712892
538.000000	86.621710
537.000000	86.428206
536.000000	86.181219
535.000000	85.930743
534.000000	85.717626
533.000000	85.571661
532.000000	85.511485
531.000000	85.541122
530.000000	85.643958
529.000000	85.786970
528.000000	85.927693
527.000000	86.011392
526.000000	85.965536
525.000000	85.719738
524.000000	85.231963
523.000000	84.485226
522.000000	83.481597
521.000000	82.233091
520.000000	80.757395
519.000000	79.072983
518.000000	77.208226
517.000000	75.250602
516.000000	73.395639
515.000000	71.914448
514.000000	71.033041
513.000000	70.849067
512.000000	71.322887
511.000000	72.310391
510.000000	73.597113
509.000000	74.972102
508.000000	76.317357
507.000000	77.595737
506.000000	78.792531
505.000000	79.902685
504.000000	80.953067
503.000000	81.981392
502.000000	82.981651
501.000000	83.894022
500.000000	84.654817
499.000000	85.235150
498.000000	85.627799
497.000000	85.843527
496.000000	85.917038
495.000000	85.898466
494.000000	85.845212
493.000000	85.820700
492.000000	85.891794
491.000000	86.100451
490.000000	86.431606
489.000000	86.821329
488.000000	87.183758
487.000000	87.421304
486.000000	87.424948
485.000000	87.091999
484.000000	86.369933
483.000000	85.261920
482.000000	83.799249
481.000000	82.010213
480.000000	79.894046
479.000000	77.427081
478.000000	74.601779
477.000000	71.539046
476.000000	68.580709
475.000000	66.244135
474.000000	64.997648
473.000000	65.053917
472.000000	66.287149
471.000000	68.295760
470.000000	70.633310
469.000000	72.978559
468.000000	75.151009
467.000000	77.054822
466.000000	78.664346
465.000000	80.031860
464.000000	81.243110
463.000000	82.361779
462.000000	83.401686
461.000000	84.338623
460.000000	85.121480
459.000000	85.696818
458.000000	86.039680
457.000000	86.173150
456.000000	86.152124
455.000000	86.036244
454.000000	85.911681
453.000000	85.893491
452.000000	86.062873
451.000000	86.406003
450.000000	86.846425
449.000000	87.314938
448.000000	87.747831
447.000000	88.065690
446.000000	88.211262
445.000000	88.187952
444.000000	88.032341
443.000000	87.792918
442.000000	87.545159
441.000000	87.374216
440.000000	87.318270
439.000000	87.364101
438.000000	87.501051
437.000000	87.743551
436.000000	88.080556
435.000000	88.437275
434.000000	88.720793
433.000000	88.871995
432.000000	88.847373
431.000000	88.618215
430.000000	88.226603
429.000000	87.784319
428.000000	87.393458
427.000000	87.113181
426.000000	86.996168
425.000000	87.098149
424.000000	87.421994
423.000000	87.873869
422.000000	88.323141
421.000000	88.686038
420.000000	88.902119
419.000000	88.912575
418.000000	88.767321
417.000000	88.609759
416.000000	88.494995
415.000000	88.395592
414.000000	88.332834
413.000000	88.398273
412.000000	88.633113
411.000000	88.953018
410.000000	89.218240
409.000000	89.315505
408.000000	89.163018
407.000000	88.742736
406.000000	88.208955
405.000000	87.844407
404.000000	87.811941
403.000000	88.021626
402.000000	88.267133
401.000000	88.426954
400.000000	88.508892
