PE IR       SUBTECH     SPECTRUM    ASCII       PEDS        4.00        
   -1
23ms082-trans.asc
24/10/15
16:49:13.00
24/10/15
16:49:13.00
Administrator
Sample 1283 By Administrator Date Tuesday, October 15 2024
400.000000
#HDR
-1
-1
#GR
cm-1
%T
1.0
0.0
4000.000000
-1.000000
3601
8
113.433072
11.985987
#DATA
4000.000000	82.039814
3999.000000	81.989289
3998.000000	81.943798
3997.000000	81.901783
3996.000000	81.861032
3995.000000	81.820400
3994.000000	81.780571
3993.000000	81.742403
3992.000000	81.705371
3991.000000	81.667200
3990.000000	81.624138
3989.000000	81.573464
3988.000000	81.515716
3987.000000	81.453398
3986.000000	81.387933
3985.000000	81.318369
3984.000000	81.243300
3983.000000	81.162128
3982.000000	81.075367
3981.000000	80.985897
3980.000000	80.899325
3979.000000	80.823686
3978.000000	80.768543
3977.000000	80.740518
3976.000000	80.740421
3975.000000	80.764488
3974.000000	80.808517
3973.000000	80.871222
3972.000000	80.951435
3971.000000	81.046483
3970.000000	81.150569
3969.000000	81.254983
3968.000000	81.352272
3967.000000	81.437920
3966.000000	81.510168
3965.000000	81.569371
3964.000000	81.616412
3963.000000	81.650426
3962.000000	81.670903
3961.000000	81.678948
3960.000000	81.676645
3959.000000	81.671521
3958.000000	81.672235
3957.000000	81.683227
3956.000000	81.706812
3955.000000	81.744630
3954.000000	81.799226
3953.000000	81.870934
3952.000000	81.958715
3951.000000	82.062579
3950.000000	82.179311
3949.000000	82.303946
3948.000000	82.436049
3947.000000	82.579565
3946.000000	82.735448
3945.000000	82.897500
3944.000000	83.055726
3943.000000	83.196536
3942.000000	83.313867
3941.000000	83.418208
3940.000000	83.520662
3939.000000	83.624399
3938.000000	83.721856
3937.000000	83.801217
3936.000000	83.864780
3935.000000	83.927773
3934.000000	84.007902
3933.000000	84.102943
3932.000000	84.191712
3931.000000	84.258008
3930.000000	84.299092
3929.000000	84.333020
3928.000000	84.376948
3927.000000	84.426860
3926.000000	84.471017
3925.000000	84.499435
3924.000000	84.511036
3923.000000	84.516261
3922.000000	84.525693
3921.000000	84.548350
3920.000000	84.587311
3919.000000	84.638135
3918.000000	84.697378
3917.000000	84.764313
3916.000000	84.839000
3915.000000	84.914217
3914.000000	84.984286
3913.000000	85.057389
3912.000000	85.131379
3911.000000	85.200764
3910.000000	85.266139
3909.000000	85.335820
3908.000000	85.427187
3907.000000	85.534242
3906.000000	85.629004
3905.000000	85.687306
3904.000000	85.716532
3903.000000	85.765826
3902.000000	85.868639
3901.000000	86.004036
3900.000000	86.129625
3899.000000	86.207680
3898.000000	86.233834
3897.000000	86.241935
3896.000000	86.262337
3895.000000	86.315816
3894.000000	86.396913
3893.000000	86.469025
3892.000000	86.485752
3891.000000	86.446838
3890.000000	86.408598
3889.000000	86.410099
3888.000000	86.458612
3887.000000	86.540675
3886.000000	86.605641
3885.000000	86.624092
3884.000000	86.629217
3883.000000	86.666012
3882.000000	86.729555
3881.000000	86.762201
3880.000000	86.725596
3879.000000	86.663892
3878.000000	86.647146
3877.000000	86.690113
3876.000000	86.752137
3875.000000	86.782505
3874.000000	86.775178
3873.000000	86.766940
3872.000000	86.792726
3871.000000	86.849371
3870.000000	86.893488
3869.000000	86.917217
3868.000000	86.947773
3867.000000	86.995278
3866.000000	87.069124
3865.000000	87.142695
3864.000000	87.153594
3863.000000	87.116176
3862.000000	87.087905
3861.000000	87.095409
3860.000000	87.126134
3859.000000	87.161380
3858.000000	87.220671
3857.000000	87.339047
3856.000000	87.528956
3855.000000	87.704622
3854.000000	87.697681
3853.000000	87.541355
3852.000000	87.475464
3851.000000	87.542333
3850.000000	87.607336
3849.000000	87.618976
3848.000000	87.584486
3847.000000	87.533130
3846.000000	87.504443
3845.000000	87.500167
3844.000000	87.495881
3843.000000	87.496801
3842.000000	87.513492
3841.000000	87.562339
3840.000000	87.644751
3839.000000	87.715732
3838.000000	87.744236
3837.000000	87.746904
3836.000000	87.760987
3835.000000	87.796571
3834.000000	87.830378
3833.000000	87.844912
3832.000000	87.835210
3831.000000	87.811982
3830.000000	87.812014
3829.000000	87.850556
3828.000000	87.887292
3827.000000	87.893830
3826.000000	87.882612
3825.000000	87.891124
3824.000000	87.952196
3823.000000	88.055227
3822.000000	88.122470
3821.000000	88.092319
3820.000000	88.037307
3819.000000	88.053080
3818.000000	88.145715
3817.000000	88.254196
3816.000000	88.302185
3815.000000	88.284892
3814.000000	88.268003
3813.000000	88.285472
3812.000000	88.315922
3811.000000	88.344622
3810.000000	88.388137
3809.000000	88.447644
3808.000000	88.489044
3807.000000	88.490031
3806.000000	88.484807
3805.000000	88.540550
3804.000000	88.663790
3803.000000	88.814804
3802.000000	88.907642
3801.000000	88.887087
3800.000000	88.838288
3799.000000	88.850585
3798.000000	88.912739
3797.000000	88.963572
3796.000000	88.966793
3795.000000	88.941926
3794.000000	88.936751
3793.000000	88.972314
3792.000000	89.024154
3791.000000	89.061655
3790.000000	89.085048
3789.000000	89.110181
3788.000000	89.147768
3787.000000	89.193462
3786.000000	89.231022
3785.000000	89.253493
3784.000000	89.269434
3783.000000	89.296293
3782.000000	89.344480
3781.000000	89.400780
3780.000000	89.429556
3779.000000	89.422496
3778.000000	89.413118
3777.000000	89.425410
3776.000000	89.447806
3775.000000	89.466617
3774.000000	89.486483
3773.000000	89.509227
3772.000000	89.526054
3771.000000	89.531378
3770.000000	89.519602
3769.000000	89.499454
3768.000000	89.496113
3767.000000	89.513098
3766.000000	89.535617
3765.000000	89.544046
3764.000000	89.534374
3763.000000	89.530832
3762.000000	89.553489
3761.000000	89.603975
3760.000000	89.637233
3759.000000	89.619475
3758.000000	89.590891
3757.000000	89.591719
3756.000000	89.621452
3755.000000	89.665785
3754.000000	89.735758
3753.000000	89.850193
3752.000000	89.960667
3751.000000	89.995088
3750.000000	89.982173
3749.000000	90.016897
3748.000000	90.119653
3747.000000	90.250048
3746.000000	90.394447
3745.000000	90.485241
3744.000000	90.444615
3743.000000	90.380065
3742.000000	90.373518
3741.000000	90.388524
3740.000000	90.399431
3739.000000	90.403915
3738.000000	90.435421
3737.000000	90.522135
3736.000000	90.663470
3735.000000	90.808618
3734.000000	90.903531
3733.000000	90.959603
3732.000000	90.994553
3731.000000	91.009776
3730.000000	91.009651
3729.000000	91.006166
3728.000000	91.026713
3727.000000	91.071015
3726.000000	91.111870
3725.000000	91.139536
3724.000000	91.172194
3723.000000	91.217294
3722.000000	91.244687
3721.000000	91.258174
3720.000000	91.275105
3719.000000	91.284498
3718.000000	91.284644
3717.000000	91.289515
3716.000000	91.324261
3715.000000	91.405833
3714.000000	91.529713
3713.000000	91.662417
3712.000000	91.745412
3711.000000	91.764418
3710.000000	91.769670
3709.000000	91.797622
3708.000000	91.840161
3707.000000	91.875210
3706.000000	91.899499
3705.000000	91.929705
3704.000000	91.973039
3703.000000	92.010348
3702.000000	92.013528
3701.000000	91.995644
3700.000000	91.995924
3699.000000	92.016667
3698.000000	92.042523
3697.000000	92.070834
3696.000000	92.093442
3695.000000	92.103814
3694.000000	92.115809
3693.000000	92.156367
3692.000000	92.227979
3691.000000	92.298520
3690.000000	92.334650
3689.000000	92.340685
3688.000000	92.365321
3687.000000	92.427119
3686.000000	92.482155
3685.000000	92.501480
3684.000000	92.496235
3683.000000	92.479253
3682.000000	92.456705
3681.000000	92.426827
3680.000000	92.411778
3679.000000	92.430214
3678.000000	92.482693
3677.000000	92.563934
3676.000000	92.605458
3675.000000	92.571903
3674.000000	92.543199
3673.000000	92.567694
3672.000000	92.632713
3671.000000	92.707781
3670.000000	92.712352
3669.000000	92.628608
3668.000000	92.555392
3667.000000	92.539478
3666.000000	92.530454
3665.000000	92.495982
3664.000000	92.441092
3663.000000	92.377682
3662.000000	92.313758
3661.000000	92.244821
3660.000000	92.187522
3659.000000	92.156714
3658.000000	92.135347
3657.000000	92.084426
3656.000000	91.989325
3655.000000	91.891848
3654.000000	91.813965
3653.000000	91.743838
3652.000000	91.690427
3651.000000	91.650579
3650.000000	91.576542
3649.000000	91.455297
3648.000000	91.351956
3647.000000	91.302203
3646.000000	91.255020
3645.000000	91.169094
3644.000000	91.054543
3643.000000	90.937243
3642.000000	90.821565
3641.000000	90.692562
3640.000000	90.552911
3639.000000	90.415329
3638.000000	90.286068
3637.000000	90.156781
3636.000000	90.017278
3635.000000	89.868102
3634.000000	89.711495
3633.000000	89.557744
3632.000000	89.423531
3631.000000	89.322836
3630.000000	89.218870
3629.000000	89.037438
3628.000000	88.804613
3627.000000	88.621071
3626.000000	88.485733
3625.000000	88.336220
3624.000000	88.159369
3623.000000	87.975474
3622.000000	87.803652
3621.000000	87.644556
3620.000000	87.462706
3619.000000	87.223724
3618.000000	86.963037
3617.000000	86.738100
3616.000000	86.557634
3615.000000	86.397824
3614.000000	86.231636
3613.000000	86.050343
3612.000000	85.872587
3611.000000	85.718089
3610.000000	85.586553
3609.000000	85.464923
3608.000000	85.328631
3607.000000	85.163223
3606.000000	84.978632
3605.000000	84.789647
3604.000000	84.605038
3603.000000	84.414682
3602.000000	84.202779
3601.000000	83.976418
3600.000000	83.752672
3599.000000	83.533148
3598.000000	83.320050
3597.000000	83.113466
3596.000000	82.904509
3595.000000	82.681102
3594.000000	82.434438
3593.000000	82.179684
3592.000000	81.940181
3591.000000	81.722200
3590.000000	81.522955
3589.000000	81.335827
3588.000000	81.139224
3587.000000	80.917881
3586.000000	80.690479
3585.000000	80.485642
3584.000000	80.306507
3583.000000	80.134785
3582.000000	79.957847
3581.000000	79.780014
3580.000000	79.610835
3579.000000	79.449718
3578.000000	79.291454
3577.000000	79.140278
3576.000000	78.999450
3575.000000	78.866295
3574.000000	78.735463
3573.000000	78.606729
3572.000000	78.487648
3571.000000	78.382933
3570.000000	78.298593
3569.000000	78.248039
3568.000000	78.232980
3567.000000	78.230411
3566.000000	78.222658
3565.000000	78.214735
3564.000000	78.215270
3563.000000	78.226609
3562.000000	78.248322
3561.000000	78.281757
3560.000000	78.327000
3559.000000	78.378633
3558.000000	78.430916
3557.000000	78.487477
3556.000000	78.555808
3555.000000	78.634900
3554.000000	78.716846
3553.000000	78.793715
3552.000000	78.863115
3551.000000	78.925928
3550.000000	78.984126
3549.000000	79.046403
3548.000000	79.123241
3547.000000	79.214729
3546.000000	79.310310
3545.000000	79.402333
3544.000000	79.489054
3543.000000	79.568779
3542.000000	79.638387
3541.000000	79.698947
3540.000000	79.753772
3539.000000	79.800793
3538.000000	79.839068
3537.000000	79.871882
3536.000000	79.902331
3535.000000	79.925278
3534.000000	79.933540
3533.000000	79.929814
3532.000000	79.920280
3531.000000	79.903262
3530.000000	79.869119
3529.000000	79.813960
3528.000000	79.743692
3527.000000	79.664970
3526.000000	79.581590
3525.000000	79.498170
3524.000000	79.414610
3523.000000	79.319795
3522.000000	79.201734
3521.000000	79.060931
3520.000000	78.905800
3519.000000	78.735932
3518.000000	78.543587
3517.000000	78.327021
3516.000000	78.092842
3515.000000	77.846538
3514.000000	77.588242
3513.000000	77.318976
3512.000000	77.041527
3511.000000	76.753086
3510.000000	76.446687
3509.000000	76.122862
3508.000000	75.789893
3507.000000	75.451842
3506.000000	75.105775
3505.000000	74.751601
3504.000000	74.395406
3503.000000	74.043456
3502.000000	73.698650
3501.000000	73.363153
3500.000000	73.037980
3499.000000	72.720293
3498.000000	72.408179
3497.000000	72.105983
3496.000000	71.820690
3495.000000	71.554765
3494.000000	71.308117
3493.000000	71.084308
3492.000000	70.887995
3491.000000	70.718307
3490.000000	70.571519
3489.000000	70.449590
3488.000000	70.358339
3487.000000	70.298886
3486.000000	70.268787
3485.000000	70.267591
3484.000000	70.294252
3483.000000	70.342483
3482.000000	70.407323
3481.000000	70.494934
3480.000000	70.616014
3479.000000	70.770957
3478.000000	70.949535
3477.000000	71.143770
3476.000000	71.351386
3475.000000	71.568695
3474.000000	71.790477
3473.000000	72.015163
3472.000000	72.244187
3471.000000	72.478043
3470.000000	72.718240
3469.000000	72.970819
3468.000000	73.239703
3467.000000	73.518573
3466.000000	73.796729
3465.000000	74.069384
3464.000000	74.336578
3463.000000	74.596108
3462.000000	74.846317
3461.000000	75.093281
3460.000000	75.345034
3459.000000	75.601397
3458.000000	75.855933
3457.000000	76.104969
3456.000000	76.351169
3455.000000	76.596862
3454.000000	76.841551
3453.000000	77.085562
3452.000000	77.329106
3451.000000	77.571283
3450.000000	77.812030
3449.000000	78.053981
3448.000000	78.298609
3447.000000	78.542651
3446.000000	78.783802
3445.000000	79.025681
3444.000000	79.271616
3443.000000	79.517069
3442.000000	79.753404
3441.000000	79.977894
3440.000000	80.194978
3439.000000	80.409470
3438.000000	80.623919
3437.000000	80.840709
3436.000000	81.063351
3435.000000	81.291192
3434.000000	81.517543
3433.000000	81.735970
3432.000000	81.944961
3431.000000	82.148483
3430.000000	82.351420
3429.000000	82.556077
3428.000000	82.760869
3427.000000	82.961334
3426.000000	83.154628
3425.000000	83.342263
3424.000000	83.528279
3423.000000	83.714887
3422.000000	83.901767
3421.000000	84.088395
3420.000000	84.274842
3419.000000	84.460351
3418.000000	84.643183
3417.000000	84.822704
3416.000000	84.999998
3415.000000	85.176996
3414.000000	85.355849
3413.000000	85.538257
3412.000000	85.723972
3411.000000	85.910749
3410.000000	86.097265
3409.000000	86.285226
3408.000000	86.475913
3407.000000	86.666302
3406.000000	86.851729
3405.000000	87.030646
3404.000000	87.205878
3403.000000	87.382263
3402.000000	87.566146
3401.000000	87.764116
3400.000000	87.976561
3399.000000	88.194431
3398.000000	88.405717
3397.000000	88.605210
3396.000000	88.795172
3395.000000	88.979330
3394.000000	89.161231
3393.000000	89.346456
3392.000000	89.539675
3391.000000	89.738724
3390.000000	89.936261
3389.000000	90.127203
3388.000000	90.311611
3387.000000	90.491151
3386.000000	90.667214
3385.000000	90.841643
3384.000000	91.015844
3383.000000	91.189189
3382.000000	91.361095
3381.000000	91.533467
3380.000000	91.707529
3379.000000	91.881104
3378.000000	92.052130
3377.000000	92.222975
3376.000000	92.396431
3375.000000	92.569488
3374.000000	92.736287
3373.000000	92.896108
3372.000000	93.054434
3371.000000	93.217328
3370.000000	93.388721
3369.000000	93.571157
3368.000000	93.764483
3367.000000	93.963978
3366.000000	94.163766
3365.000000	94.361590
3364.000000	94.558269
3363.000000	94.754881
3362.000000	94.953391
3361.000000	95.157639
3360.000000	95.369448
3359.000000	95.585175
3358.000000	95.799556
3357.000000	96.011105
3356.000000	96.220130
3355.000000	96.424705
3354.000000	96.623524
3353.000000	96.821313
3352.000000	97.026100
3351.000000	97.241020
3350.000000	97.461589
3349.000000	97.680252
3348.000000	97.891186
3347.000000	98.091133
3346.000000	98.280726
3345.000000	98.464450
3344.000000	98.645401
3343.000000	98.820454
3342.000000	98.983116
3341.000000	99.130702
3340.000000	99.265406
3339.000000	99.388512
3338.000000	99.495921
3337.000000	99.580221
3336.000000	99.633652
3335.000000	99.649441
3334.000000	99.623027
3333.000000	99.550692
3332.000000	99.427901
3331.000000	99.247313
3330.000000	99.000607
3329.000000	98.683023
3328.000000	98.291762
3327.000000	97.824107
3326.000000	97.276500
3325.000000	96.643593
3324.000000	95.918846
3323.000000	95.091615
3322.000000	94.151289
3321.000000	93.089023
3320.000000	91.891909
3319.000000	90.542401
3318.000000	89.016532
3317.000000	87.289672
3316.000000	85.335374
3315.000000	83.120907
3314.000000	80.620005
3313.000000	77.819958
3312.000000	74.726004
3311.000000	71.362372
3310.000000	67.771081
3309.000000	64.020308
3308.000000	60.194779
3307.000000	56.379314
3306.000000	52.653971
3305.000000	49.091784
3304.000000	45.753101
3303.000000	42.681211
3302.000000	39.905889
3301.000000	37.448989
3300.000000	35.326742
3299.000000	33.542115
3298.000000	32.092866
3297.000000	30.977717
3296.000000	30.177814
3295.000000	29.649581
3294.000000	29.325255
3293.000000	29.128324
3292.000000	28.987384
3291.000000	28.838447
3290.000000	28.644076
3289.000000	28.401298
3288.000000	28.133179
3287.000000	27.873743
3286.000000	27.655550
3285.000000	27.504226
3284.000000	27.426803
3283.000000	27.407795
3282.000000	27.420943
3281.000000	27.441973
3280.000000	27.449705
3279.000000	27.423567
3278.000000	27.351023
3277.000000	27.235280
3276.000000	27.089798
3275.000000	26.929814
3274.000000	26.774364
3273.000000	26.651126
3272.000000	26.591818
3271.000000	26.622104
3270.000000	26.760810
3269.000000	27.021126
3268.000000	27.405625
3267.000000	27.906198
3266.000000	28.507759
3265.000000	29.190670
3264.000000	29.922718
3263.000000	30.653493
3262.000000	31.324058
3261.000000	31.878628
3260.000000	32.265463
3259.000000	32.438154
3258.000000	32.368731
3257.000000	32.051078
3256.000000	31.498531
3255.000000	30.733872
3254.000000	29.786518
3253.000000	28.696516
3252.000000	27.497843
3251.000000	26.213213
3250.000000	24.861180
3249.000000	23.465436
3248.000000	22.058440
3247.000000	20.676910
3246.000000	19.366512
3245.000000	18.183139
3244.000000	17.179407
3243.000000	16.384708
3242.000000	15.800448
3241.000000	15.398711
3240.000000	15.122043
3239.000000	14.899871
3238.000000	14.672452
3237.000000	14.410136
3236.000000	14.109266
3235.000000	13.780346
3234.000000	13.445489
3233.000000	13.129685
3232.000000	12.845932
3231.000000	12.591158
3230.000000	12.362164
3229.000000	12.171244
3228.000000	12.039416
3227.000000	11.985987
3226.000000	12.029746
3225.000000	12.190364
3224.000000	12.481875
3223.000000	12.903303
3222.000000	13.443524
3221.000000	14.086279
3220.000000	14.802677
3219.000000	15.549808
3218.000000	16.281829
3217.000000	16.962380
3216.000000	17.564875
3215.000000	18.071532
3214.000000	18.480938
3213.000000	18.811576
3212.000000	19.091190
3211.000000	19.346455
3210.000000	19.605176
3209.000000	19.897445
3208.000000	20.247445
3207.000000	20.667512
3206.000000	21.164377
3205.000000	21.743344
3204.000000	22.403579
3203.000000	23.134821
3202.000000	23.924493
3201.000000	24.763954
3200.000000	25.641698
3199.000000	26.540409
3198.000000	27.443578
3197.000000	28.340260
3196.000000	29.220279
3195.000000	30.070271
3194.000000	30.878882
3193.000000	31.639485
3192.000000	32.344641
3191.000000	32.982132
3190.000000	33.543185
3189.000000	34.026761
3188.000000	34.433715
3187.000000	34.764954
3186.000000	35.026160
3185.000000	35.231753
3184.000000	35.396359
3183.000000	35.528875
3182.000000	35.638494
3181.000000	35.737128
3180.000000	35.834645
3179.000000	35.935630
3178.000000	36.046066
3177.000000	36.177959
3176.000000	36.343018
3175.000000	36.547053
3174.000000	36.793914
3173.000000	37.088561
3172.000000	37.431144
3171.000000	37.816079
3170.000000	38.238421
3169.000000	38.697145
3168.000000	39.189644
3167.000000	39.707612
3166.000000	40.244199
3165.000000	40.797130
3164.000000	41.362551
3163.000000	41.931772
3162.000000	42.496598
3161.000000	43.051383
3160.000000	43.585444
3159.000000	44.079295
3158.000000	44.508656
3157.000000	44.849043
3156.000000	45.069902
3155.000000	45.133204
3154.000000	45.003807
3153.000000	44.658509
3152.000000	44.097322
3151.000000	43.351557
3150.000000	42.489378
3149.000000	41.604144
3148.000000	40.779821
3147.000000	40.064104
3146.000000	39.461521
3145.000000	38.939466
3144.000000	38.438756
3143.000000	37.891424
3142.000000	37.246679
3141.000000	36.485017
3140.000000	35.612038
3139.000000	34.650077
3138.000000	33.637178
3137.000000	32.623808
3136.000000	31.658940
3135.000000	30.780995
3134.000000	30.022450
3133.000000	29.414961
3132.000000	28.981079
3131.000000	28.728576
3130.000000	28.659278
3129.000000	28.770729
3128.000000	29.053469
3127.000000	29.488185
3126.000000	30.053449
3125.000000	30.733757
3124.000000	31.509861
3123.000000	32.358379
3122.000000	33.259326
3121.000000	34.198887
3120.000000	35.163455
3119.000000	36.134281
3118.000000	37.095751
3117.000000	38.039338
3116.000000	38.957068
3115.000000	39.837535
3114.000000	40.672141
3113.000000	41.458093
3112.000000	42.192472
3111.000000	42.871195
3110.000000	43.493988
3109.000000	44.066052
3108.000000	44.589182
3107.000000	45.058630
3106.000000	45.471908
3105.000000	45.832361
3104.000000	46.145388
3103.000000	46.416362
3102.000000	46.657188
3101.000000	46.888908
3100.000000	47.133287
3099.000000	47.406937
3098.000000	47.724226
3097.000000	48.098819
3096.000000	48.536204
3095.000000	49.030663
3094.000000	49.571796
3093.000000	50.150324
3092.000000	50.756202
3091.000000	51.376068
3090.000000	51.997941
3089.000000	52.613575
3088.000000	53.215255
3087.000000	53.795672
3086.000000	54.352420
3085.000000	54.887819
3084.000000	55.401878
3083.000000	55.890369
3082.000000	56.351152
3081.000000	56.788054
3080.000000	57.205791
3079.000000	57.606450
3078.000000	57.992836
3077.000000	58.368655
3076.000000	58.734561
3075.000000	59.087629
3074.000000	59.427140
3073.000000	59.756529
3072.000000	60.077232
3071.000000	60.387199
3070.000000	60.686746
3069.000000	60.981225
3068.000000	61.275392
3067.000000	61.568573
3066.000000	61.858184
3065.000000	62.143715
3064.000000	62.424831
3063.000000	62.699525
3062.000000	62.966349
3061.000000	63.225942
3060.000000	63.478706
3059.000000	63.723918
3058.000000	63.962927
3057.000000	64.198867
3056.000000	64.432183
3055.000000	64.659630
3054.000000	64.878982
3053.000000	65.092111
3052.000000	65.301031
3051.000000	65.504906
3050.000000	65.702150
3049.000000	65.892101
3048.000000	66.073931
3047.000000	66.246717
3046.000000	66.412513
3045.000000	66.576072
3044.000000	66.739905
3043.000000	66.903348
3042.000000	67.066707
3041.000000	67.232046
3040.000000	67.398542
3039.000000	67.561043
3038.000000	67.716381
3037.000000	67.867486
3036.000000	68.019370
3035.000000	68.174448
3034.000000	68.333087
3033.000000	68.495155
3032.000000	68.658699
3031.000000	68.820548
3030.000000	68.980096
3029.000000	69.139343
3028.000000	69.298557
3027.000000	69.455831
3026.000000	69.611760
3025.000000	69.770075
3024.000000	69.931877
3023.000000	70.093353
3022.000000	70.250860
3021.000000	70.404913
3020.000000	70.557571
3019.000000	70.708936
3018.000000	70.857974
3017.000000	71.003687
3016.000000	71.143751
3015.000000	71.274707
3014.000000	71.394506
3013.000000	71.502419
3012.000000	71.595628
3011.000000	71.667910
3010.000000	71.713065
3009.000000	71.725512
3008.000000	71.696910
3007.000000	71.615943
3006.000000	71.471815
3005.000000	71.258249
3004.000000	70.972514
3003.000000	70.615675
3002.000000	70.195802
3001.000000	69.726489
3000.000000	69.220690
2999.000000	68.684265
2998.000000	68.119657
2997.000000	67.537377
2996.000000	66.968829
2995.000000	66.469739
2994.000000	66.103218
2993.000000	65.908064
2992.000000	65.873870
2991.000000	65.949768
2990.000000	66.075643
2989.000000	66.206342
2988.000000	66.315250
2987.000000	66.389210
2986.000000	66.429107
2985.000000	66.448019
2984.000000	66.464467
2983.000000	66.497797
2982.000000	66.568036
2981.000000	66.692622
2980.000000	66.876412
2979.000000	67.107621
2978.000000	67.367121
2977.000000	67.640838
2976.000000	67.925848
2975.000000	68.228601
2974.000000	68.558357
2973.000000	68.915055
2972.000000	69.279369
2971.000000	69.616204
2970.000000	69.887267
2969.000000	70.060718
2968.000000	70.109577
2967.000000	70.012064
2966.000000	69.756167
2965.000000	69.341193
2964.000000	68.774815
2963.000000	68.069469
2962.000000	67.246853
2961.000000	66.336761
2960.000000	65.368498
2959.000000	64.363019
2958.000000	63.334557
2957.000000	62.302612
2956.000000	61.303713
2955.000000	60.399020
2954.000000	59.660167
2953.000000	59.132938
2952.000000	58.804833
2951.000000	58.614534
2950.000000	58.500919
2949.000000	58.441291
2948.000000	58.452057
2947.000000	58.560075
2946.000000	58.773934
2945.000000	59.066095
2944.000000	59.373448
2943.000000	59.627657
2942.000000	59.798413
2941.000000	59.917642
2940.000000	60.065960
2939.000000	60.335991
2938.000000	60.797765
2937.000000	61.476318
2936.000000	62.346052
2935.000000	63.346650
2934.000000	64.409559
2933.000000	65.476027
2932.000000	66.500369
2931.000000	67.451731
2930.000000	68.317017
2929.000000	69.096585
2928.000000	69.794867
2927.000000	70.416168
2926.000000	70.969135
2925.000000	71.466103
2924.000000	71.915921
2923.000000	72.320652
2922.000000	72.680284
2921.000000	72.996058
2920.000000	73.267958
2919.000000	73.495570
2918.000000	73.681954
2917.000000	73.833728
2916.000000	73.956610
2915.000000	74.054305
2914.000000	74.132182
2913.000000	74.196558
2912.000000	74.250695
2911.000000	74.295192
2910.000000	74.332750
2909.000000	74.368517
2908.000000	74.404929
2907.000000	74.441431
2906.000000	74.478815
2905.000000	74.520152
2904.000000	74.565441
2903.000000	74.611845
2902.000000	74.658302
2901.000000	74.705135
2900.000000	74.750862
2899.000000	74.790141
2898.000000	74.818195
2897.000000	74.831112
2896.000000	74.822220
2895.000000	74.782511
2894.000000	74.705893
2893.000000	74.590451
2892.000000	74.433688
2891.000000	74.231694
2890.000000	73.984393
2889.000000	73.698140
2888.000000	73.382377
2887.000000	73.048212
2886.000000	72.711088
2885.000000	72.389467
2884.000000	72.099313
2883.000000	71.851659
2882.000000	71.656112
2881.000000	71.521760
2880.000000	71.452555
2879.000000	71.446644
2878.000000	71.500697
2877.000000	71.611223
2876.000000	71.771049
2875.000000	71.969198
2874.000000	72.194793
2873.000000	72.437356
2872.000000	72.683585
2871.000000	72.919513
2870.000000	73.138392
2869.000000	73.342324
2868.000000	73.536423
2867.000000	73.725115
2866.000000	73.913143
2865.000000	74.104111
2864.000000	74.296142
2863.000000	74.483797
2862.000000	74.665364
2861.000000	74.844143
2860.000000	75.022241
2859.000000	75.198544
2858.000000	75.373789
2857.000000	75.552412
2856.000000	75.737838
2855.000000	75.930138
2854.000000	76.128780
2853.000000	76.332265
2852.000000	76.533490
2851.000000	76.720260
2850.000000	76.882984
2849.000000	77.019106
2848.000000	77.130350
2847.000000	77.220698
2846.000000	77.298278
2845.000000	77.374109
2844.000000	77.456189
2843.000000	77.547006
2842.000000	77.647576
2841.000000	77.760773
2840.000000	77.889151
2839.000000	78.032554
2838.000000	78.189060
2837.000000	78.355729
2836.000000	78.527978
2835.000000	78.700947
2834.000000	78.872026
2833.000000	79.040078
2832.000000	79.202815
2831.000000	79.357735
2830.000000	79.505378
2829.000000	79.648464
2828.000000	79.787797
2827.000000	79.922114
2826.000000	80.051422
2825.000000	80.176904
2824.000000	80.297643
2823.000000	80.410812
2822.000000	80.515391
2821.000000	80.612539
2820.000000	80.702248
2819.000000	80.783179
2818.000000	80.855986
2817.000000	80.923500
2816.000000	80.987288
2815.000000	81.047023
2814.000000	81.103604
2813.000000	81.159968
2812.000000	81.218498
2811.000000	81.280412
2810.000000	81.347473
2809.000000	81.420986
2808.000000	81.499048
2807.000000	81.577926
2806.000000	81.656252
2805.000000	81.735026
2804.000000	81.813613
2803.000000	81.889057
2802.000000	81.959599
2801.000000	82.025828
2800.000000	82.088410
2799.000000	82.147671
2798.000000	82.205245
2797.000000	82.262906
2796.000000	82.319641
2795.000000	82.372704
2794.000000	82.421446
2793.000000	82.467271
2792.000000	82.510381
2791.000000	82.550002
2790.000000	82.587447
2789.000000	82.625307
2788.000000	82.663551
2787.000000	82.699843
2786.000000	82.733787
2785.000000	82.767602
2784.000000	82.802680
2783.000000	82.839159
2782.000000	82.879024
2781.000000	82.925732
2780.000000	82.980111
2779.000000	83.039731
2778.000000	83.102665
2777.000000	83.168722
2776.000000	83.236567
2775.000000	83.302920
2774.000000	83.365428
2773.000000	83.423573
2772.000000	83.476453
2771.000000	83.522696
2770.000000	83.562987
2769.000000	83.599943
2768.000000	83.635064
2767.000000	83.667928
2766.000000	83.698363
2765.000000	83.726766
2764.000000	83.752394
2763.000000	83.774287
2762.000000	83.793754
2761.000000	83.813249
2760.000000	83.832923
2759.000000	83.850934
2758.000000	83.866777
2757.000000	83.880914
2756.000000	83.891258
2755.000000	83.893208
2754.000000	83.883534
2753.000000	83.861875
2752.000000	83.828605
2751.000000	83.784671
2750.000000	83.734101
2749.000000	83.683594
2748.000000	83.639063
2747.000000	83.604820
2746.000000	83.585576
2745.000000	83.586150
2744.000000	83.608798
2743.000000	83.652634
2742.000000	83.715540
2741.000000	83.794066
2740.000000	83.881779
2739.000000	83.971476
2738.000000	84.058929
2737.000000	84.142316
2736.000000	84.219221
2735.000000	84.287197
2734.000000	84.346886
2733.000000	84.401221
2732.000000	84.451298
2731.000000	84.495929
2730.000000	84.535064
2729.000000	84.570258
2728.000000	84.601858
2727.000000	84.628500
2726.000000	84.649415
2725.000000	84.665025
2724.000000	84.675455
2723.000000	84.681379
2722.000000	84.686139
2721.000000	84.694082
2720.000000	84.706874
2719.000000	84.723698
2718.000000	84.744365
2717.000000	84.769502
2716.000000	84.798379
2715.000000	84.829542
2714.000000	84.863369
2713.000000	84.901102
2712.000000	84.941706
2711.000000	84.982633
2710.000000	85.023019
2709.000000	85.063287
2708.000000	85.102230
2707.000000	85.137642
2706.000000	85.169666
2705.000000	85.200718
2704.000000	85.232505
2703.000000	85.265753
2702.000000	85.302090
2701.000000	85.342951
2700.000000	85.386906
2699.000000	85.430712
2698.000000	85.472428
2697.000000	85.510871
2696.000000	85.543051
2695.000000	85.565787
2694.000000	85.579341
2693.000000	85.586457
2692.000000	85.588513
2691.000000	85.585533
2690.000000	85.579507
2689.000000	85.574195
2688.000000	85.571603
2687.000000	85.571643
2686.000000	85.574713
2685.000000	85.581584
2684.000000	85.591187
2683.000000	85.601598
2682.000000	85.612846
2681.000000	85.625938
2680.000000	85.639737
2679.000000	85.651922
2678.000000	85.662556
2677.000000	85.673430
2676.000000	85.684615
2675.000000	85.695078
2674.000000	85.706357
2673.000000	85.722370
2672.000000	85.745535
2671.000000	85.776250
2670.000000	85.815661
2669.000000	85.865357
2668.000000	85.924536
2667.000000	85.990233
2666.000000	86.060510
2665.000000	86.134699
2664.000000	86.210765
2663.000000	86.285829
2662.000000	86.358814
2661.000000	86.429661
2660.000000	86.496371
2659.000000	86.555818
2658.000000	86.607321
2657.000000	86.652858
2656.000000	86.694045
2655.000000	86.731542
2654.000000	86.767093
2653.000000	86.802679
2652.000000	86.837820
2651.000000	86.869987
2650.000000	86.897268
2649.000000	86.918744
2648.000000	86.933108
2647.000000	86.940036
2646.000000	86.942505
2645.000000	86.944954
2644.000000	86.949763
2643.000000	86.957707
2642.000000	86.970542
2641.000000	86.990144
2640.000000	87.015951
2639.000000	87.046276
2638.000000	87.081571
2637.000000	87.123322
2636.000000	87.170540
2635.000000	87.220854
2634.000000	87.274103
2633.000000	87.331839
2632.000000	87.393745
2631.000000	87.457525
2630.000000	87.522155
2629.000000	87.587977
2628.000000	87.654017
2627.000000	87.718047
2626.000000	87.778884
2625.000000	87.835935
2624.000000	87.887288
2623.000000	87.930945
2622.000000	87.967340
2621.000000	87.998139
2620.000000	88.023010
2619.000000	88.040688
2618.000000	88.052314
2617.000000	88.060597
2616.000000	88.066554
2615.000000	88.069617
2614.000000	88.070594
2613.000000	88.071523
2612.000000	88.072809
2611.000000	88.073441
2610.000000	88.073381
2609.000000	88.073271
2608.000000	88.072415
2607.000000	88.069678
2606.000000	88.065793
2605.000000	88.062169
2604.000000	88.058269
2603.000000	88.052909
2602.000000	88.047310
2601.000000	88.044001
2600.000000	88.043406
2599.000000	88.044079
2598.000000	88.045343
2597.000000	88.046794
2596.000000	88.046285
2595.000000	88.041487
2594.000000	88.032824
2593.000000	88.022059
2592.000000	88.008764
2591.000000	87.991273
2590.000000	87.970089
2589.000000	87.947297
2588.000000	87.923512
2587.000000	87.898482
2586.000000	87.874066
2585.000000	87.853480
2584.000000	87.838136
2583.000000	87.828012
2582.000000	87.824537
2581.000000	87.829813
2580.000000	87.843830
2579.000000	87.865548
2578.000000	87.895462
2577.000000	87.934396
2576.000000	87.980209
2575.000000	88.029030
2574.000000	88.079356
2573.000000	88.131520
2572.000000	88.184484
2571.000000	88.236257
2570.000000	88.286916
2569.000000	88.338150
2568.000000	88.390079
2567.000000	88.441601
2566.000000	88.493274
2565.000000	88.546967
2564.000000	88.603350
2563.000000	88.662331
2562.000000	88.725239
2561.000000	88.793577
2560.000000	88.866244
2559.000000	88.940866
2558.000000	89.016894
2557.000000	89.094741
2556.000000	89.172850
2555.000000	89.248436
2554.000000	89.320404
2553.000000	89.388760
2552.000000	89.452235
2551.000000	89.509382
2550.000000	89.561389
2549.000000	89.610832
2548.000000	89.658656
2547.000000	89.704701
2546.000000	89.749787
2545.000000	89.794629
2544.000000	89.837637
2543.000000	89.877063
2542.000000	89.914304
2541.000000	89.952126
2540.000000	89.990788
2539.000000	90.028623
2538.000000	90.065293
2537.000000	90.101371
2536.000000	90.135614
2535.000000	90.166002
2534.000000	90.192526
2533.000000	90.216297
2532.000000	90.236978
2531.000000	90.254013
2530.000000	90.269513
2529.000000	90.286549
2528.000000	90.305381
2527.000000	90.324128
2526.000000	90.341925
2525.000000	90.358442
2524.000000	90.371187
2523.000000	90.376849
2522.000000	90.375074
2521.000000	90.367694
2520.000000	90.355220
2519.000000	90.336586
2518.000000	90.311608
2517.000000	90.280929
2516.000000	90.243530
2515.000000	90.197829
2514.000000	90.144565
2513.000000	90.086264
2512.000000	90.024950
2511.000000	89.962537
2510.000000	89.902655
2509.000000	89.848836
2508.000000	89.801480
2507.000000	89.759132
2506.000000	89.721722
2505.000000	89.689527
2504.000000	89.660261
2503.000000	89.630823
2502.000000	89.601108
2501.000000	89.573552
2500.000000	89.549651
2499.000000	89.530141
2498.000000	89.518142
2497.000000	89.517855
2496.000000	89.531043
2495.000000	89.556995
2494.000000	89.594988
2493.000000	89.644078
2492.000000	89.700500
2491.000000	89.759313
2490.000000	89.818092
2489.000000	89.876700
2488.000000	89.935091
2487.000000	89.993795
2486.000000	90.055762
2485.000000	90.124136
2484.000000	90.198492
2483.000000	90.275979
2482.000000	90.354859
2481.000000	90.434296
2480.000000	90.512199
2479.000000	90.586639
2478.000000	90.658525
2477.000000	90.729634
2476.000000	90.798890
2475.000000	90.863515
2474.000000	90.923058
2473.000000	90.978841
2472.000000	91.030509
2471.000000	91.076082
2470.000000	91.114648
2469.000000	91.146539
2468.000000	91.171138
2467.000000	91.187844
2466.000000	91.198304
2465.000000	91.204615
2464.000000	91.206435
2463.000000	91.201851
2462.000000	91.190611
2461.000000	91.173871
2460.000000	91.151683
2459.000000	91.124204
2458.000000	91.094002
2457.000000	91.064534
2456.000000	91.037002
2455.000000	91.011352
2454.000000	90.989268
2453.000000	90.973017
2452.000000	90.962421
2451.000000	90.955995
2450.000000	90.954496
2449.000000	90.959824
2448.000000	90.971693
2447.000000	90.988571
2446.000000	91.010991
2445.000000	91.041085
2444.000000	91.078813
2443.000000	91.121989
2442.000000	91.169248
2441.000000	91.219918
2440.000000	91.272199
2439.000000	91.324261
2438.000000	91.376821
2437.000000	91.431820
2436.000000	91.489122
2435.000000	91.547401
2434.000000	91.606850
2433.000000	91.668052
2432.000000	91.729069
2431.000000	91.786814
2430.000000	91.840399
2429.000000	91.890150
2428.000000	91.934363
2427.000000	91.970136
2426.000000	91.997131
2425.000000	92.017115
2424.000000	92.030884
2423.000000	92.038610
2422.000000	92.042123
2421.000000	92.043996
2420.000000	92.044412
2419.000000	92.042286
2418.000000	92.038852
2417.000000	92.037081
2416.000000	92.038290
2415.000000	92.042197
2414.000000	92.049529
2413.000000	92.061084
2412.000000	92.074619
2411.000000	92.085946
2410.000000	92.092829
2409.000000	92.094977
2408.000000	92.091195
2407.000000	92.080058
2406.000000	92.063386
2405.000000	92.045488
2404.000000	92.028797
2403.000000	92.013163
2402.000000	91.998495
2401.000000	91.984552
2400.000000	91.967865
2399.000000	91.942045
2398.000000	91.902027
2397.000000	91.844456
2396.000000	91.765251
2395.000000	91.660676
2394.000000	91.530858
2393.000000	91.380742
2392.000000	91.215669
2391.000000	91.040313
2390.000000	90.861661
2389.000000	90.687510
2388.000000	90.523162
2387.000000	90.370380
2386.000000	90.232425
2385.000000	90.117030
2384.000000	90.029961
2383.000000	89.973806
2382.000000	89.948590
2381.000000	89.952690
2380.000000	89.980408
2379.000000	90.018737
2378.000000	90.054683
2377.000000	90.076753
2376.000000	90.075371
2375.000000	90.043063
2374.000000	89.984736
2373.000000	89.916770
2372.000000	89.850590
2371.000000	89.788812
2370.000000	89.734983
2369.000000	89.696939
2368.000000	89.672310
2367.000000	89.656755
2366.000000	89.657983
2365.000000	89.670486
2364.000000	89.688270
2363.000000	89.711690
2362.000000	89.728285
2361.000000	89.742749
2360.000000	89.754846
2359.000000	89.761709
2358.000000	89.782855
2357.000000	89.802968
2356.000000	89.797102
2355.000000	89.728468
2354.000000	89.561540
2353.000000	89.264158
2352.000000	88.869771
2351.000000	88.580932
2350.000000	88.625715
2349.000000	89.087158
2348.000000	89.819520
2347.000000	90.473869
2346.000000	90.782885
2345.000000	90.733849
2344.000000	90.563668
2343.000000	90.453845
2342.000000	90.420586
2341.000000	90.442040
2340.000000	90.484782
2339.000000	90.547426
2338.000000	90.628276
2337.000000	90.738529
2336.000000	90.873643
2335.000000	91.043372
2334.000000	91.236193
2333.000000	91.432074
2332.000000	91.557703
2331.000000	91.615701
2330.000000	91.626003
2329.000000	91.636111
2328.000000	91.676137
2327.000000	91.738509
2326.000000	91.819562
2325.000000	91.864811
2324.000000	91.847862
2323.000000	91.767635
2322.000000	91.647895
2321.000000	91.519187
2320.000000	91.380139
2319.000000	91.255546
2318.000000	91.152592
2317.000000	91.085820
2316.000000	91.019853
2315.000000	90.930865
2314.000000	90.794871
2313.000000	90.623502
2312.000000	90.424341
2311.000000	90.214621
2310.000000	89.999608
2309.000000	89.782070
2308.000000	89.555784
2307.000000	89.323640
2306.000000	89.093052
2305.000000	88.872822
2304.000000	88.661154
2303.000000	88.461823
2302.000000	88.277251
2301.000000	88.115551
2300.000000	87.975986
2299.000000	87.861364
2298.000000	87.771593
2297.000000	87.705362
2296.000000	87.655187
2295.000000	87.614004
2294.000000	87.580736
2293.000000	87.552129
2292.000000	87.523371
2291.000000	87.488646
2290.000000	87.448668
2289.000000	87.402111
2288.000000	87.346543
2287.000000	87.281527
2286.000000	87.214512
2285.000000	87.152802
2284.000000	87.099305
2283.000000	87.053755
2282.000000	87.017236
2281.000000	86.991476
2280.000000	86.977770
2279.000000	86.980540
2278.000000	87.005263
2277.000000	87.054431
2276.000000	87.123374
2275.000000	87.209039
2274.000000	87.312864
2273.000000	87.435759
2272.000000	87.573752
2271.000000	87.722485
2270.000000	87.882052
2269.000000	88.051897
2268.000000	88.227252
2267.000000	88.404420
2266.000000	88.583477
2265.000000	88.763284
2264.000000	88.938375
2263.000000	89.103646
2262.000000	89.260541
2261.000000	89.411012
2260.000000	89.555213
2259.000000	89.695447
2258.000000	89.838409
2257.000000	89.989877
2256.000000	90.149277
2255.000000	90.315919
2254.000000	90.491622
2253.000000	90.677635
2252.000000	90.870645
2251.000000	91.068060
2250.000000	91.271167
2249.000000	91.479484
2248.000000	91.688952
2247.000000	91.895728
2246.000000	92.099483
2245.000000	92.298323
2244.000000	92.486572
2243.000000	92.660444
2242.000000	92.821397
2241.000000	92.971028
2240.000000	93.107829
2239.000000	93.231736
2238.000000	93.346686
2237.000000	93.454893
2236.000000	93.553892
2235.000000	93.641561
2234.000000	93.719600
2233.000000	93.789195
2232.000000	93.848260
2231.000000	93.896476
2230.000000	93.937815
2229.000000	93.975426
2228.000000	94.008357
2227.000000	94.035793
2226.000000	94.059666
2225.000000	94.080208
2224.000000	94.093892
2223.000000	94.098803
2222.000000	94.097297
2221.000000	94.091360
2220.000000	94.080315
2219.000000	94.066080
2218.000000	94.055382
2217.000000	94.053533
2216.000000	94.060424
2215.000000	94.074977
2214.000000	94.098516
2213.000000	94.130789
2212.000000	94.167835
2211.000000	94.206806
2210.000000	94.248577
2209.000000	94.293330
2208.000000	94.338447
2207.000000	94.383058
2206.000000	94.429086
2205.000000	94.475337
2204.000000	94.516038
2203.000000	94.548217
2202.000000	94.575611
2201.000000	94.603098
2200.000000	94.633010
2199.000000	94.669513
2198.000000	94.720052
2197.000000	94.788432
2196.000000	94.870923
2195.000000	94.961915
2194.000000	95.058152
2193.000000	95.154976
2192.000000	95.244918
2191.000000	95.323754
2190.000000	95.393258
2189.000000	95.455155
2188.000000	95.507554
2187.000000	95.550011
2186.000000	95.586061
2185.000000	95.617758
2184.000000	95.642883
2183.000000	95.660648
2182.000000	95.674670
2181.000000	95.687265
2180.000000	95.696246
2179.000000	95.700242
2178.000000	95.702056
2177.000000	95.703595
2176.000000	95.702817
2175.000000	95.698535
2174.000000	95.693111
2173.000000	95.687666
2172.000000	95.679994
2171.000000	95.670000
2170.000000	95.661747
2169.000000	95.657482
2168.000000	95.654845
2167.000000	95.652617
2166.000000	95.653435
2165.000000	95.657981
2164.000000	95.662364
2163.000000	95.664672
2162.000000	95.668532
2161.000000	95.677307
2160.000000	95.690279
2159.000000	95.707264
2158.000000	95.730757
2157.000000	95.760170
2156.000000	95.789865
2155.000000	95.816283
2154.000000	95.841734
2153.000000	95.868431
2152.000000	95.894979
2151.000000	95.921842
2150.000000	95.954164
2149.000000	95.995298
2148.000000	96.042810
2147.000000	96.094083
2146.000000	96.149921
2145.000000	96.209462
2144.000000	96.267985
2143.000000	96.323243
2142.000000	96.377907
2141.000000	96.433348
2140.000000	96.486480
2139.000000	96.535333
2138.000000	96.581285
2137.000000	96.623303
2136.000000	96.656326
2135.000000	96.678423
2134.000000	96.693542
2133.000000	96.704327
2132.000000	96.708546
2131.000000	96.705311
2130.000000	96.698480
2129.000000	96.690470
2128.000000	96.678556
2127.000000	96.660358
2126.000000	96.637204
2125.000000	96.608885
2124.000000	96.571401
2123.000000	96.523312
2122.000000	96.468586
2121.000000	96.410504
2120.000000	96.348950
2119.000000	96.286008
2118.000000	96.227722
2117.000000	96.177019
2116.000000	96.130496
2115.000000	96.085154
2114.000000	96.042257
2113.000000	96.002200
2112.000000	95.962258
2111.000000	95.922662
2110.000000	95.888971
2109.000000	95.865471
2108.000000	95.851709
2107.000000	95.847605
2106.000000	95.855238
2105.000000	95.872672
2104.000000	95.892525
2103.000000	95.909498
2102.000000	95.923976
2101.000000	95.935718
2100.000000	95.941718
2099.000000	95.942686
2098.000000	95.945230
2097.000000	95.955058
2096.000000	95.973197
2095.000000	96.002601
2094.000000	96.050124
2093.000000	96.118021
2092.000000	96.201186
2091.000000	96.295656
2090.000000	96.402339
2089.000000	96.519972
2088.000000	96.642092
2087.000000	96.764564
2086.000000	96.887906
2085.000000	97.009552
2084.000000	97.122005
2083.000000	97.221862
2082.000000	97.312866
2081.000000	97.397371
2080.000000	97.473105
2079.000000	97.541068
2078.000000	97.608190
2077.000000	97.678805
2076.000000	97.750538
2075.000000	97.822859
2074.000000	97.899532
2073.000000	97.980129
2072.000000	98.058945
2071.000000	98.132593
2070.000000	98.203462
2069.000000	98.272194
2068.000000	98.334447
2067.000000	98.387856
2066.000000	98.435005
2065.000000	98.478081
2064.000000	98.516950
2063.000000	98.554878
2062.000000	98.597609
2061.000000	98.644609
2060.000000	98.689462
2059.000000	98.731030
2058.000000	98.775544
2057.000000	98.825406
2056.000000	98.875676
2055.000000	98.923885
2054.000000	98.973326
2053.000000	99.024436
2052.000000	99.072989
2051.000000	99.117413
2050.000000	99.161316
2049.000000	99.206604
2048.000000	99.250101
2047.000000	99.289464
2046.000000	99.327632
2045.000000	99.366488
2044.000000	99.402271
2043.000000	99.432156
2042.000000	99.459897
2041.000000	99.490452
2040.000000	99.524495
2039.000000	99.562287
2038.000000	99.605776
2037.000000	99.653223
2036.000000	99.698617
2035.000000	99.740483
2034.000000	99.784188
2033.000000	99.831687
2032.000000	99.877822
2031.000000	99.921057
2030.000000	99.967333
2029.000000	100.019451
2028.000000	100.071113
2027.000000	100.116092
2026.000000	100.156379
2025.000000	100.194270
2024.000000	100.227472
2023.000000	100.252908
2022.000000	100.274115
2021.000000	100.296539
2020.000000	100.318926
2019.000000	100.336441
2018.000000	100.348894
2017.000000	100.360116
2016.000000	100.372666
2015.000000	100.388462
2014.000000	100.408710
2013.000000	100.428519
2012.000000	100.437441
2011.000000	100.431334
2010.000000	100.417985
2009.000000	100.405215
2008.000000	100.391309
2007.000000	100.374243
2006.000000	100.360716
2005.000000	100.356290
2004.000000	100.358308
2003.000000	100.361866
2002.000000	100.369831
2001.000000	100.385142
2000.000000	100.403822
1999.000000	100.426154
1998.000000	100.454687
1997.000000	100.489857
1996.000000	100.530046
1995.000000	100.572646
1994.000000	100.610618
1993.000000	100.634141
1992.000000	100.641524
1991.000000	100.645830
1990.000000	100.661893
1989.000000	100.689952
1988.000000	100.719929
1987.000000	100.746914
1986.000000	100.776249
1985.000000	100.813027
1984.000000	100.855074
1983.000000	100.898054
1982.000000	100.941289
1981.000000	100.984281
1980.000000	101.025338
1979.000000	101.066550
1978.000000	101.106255
1977.000000	101.140957
1976.000000	101.172283
1975.000000	101.206400
1974.000000	101.244269
1973.000000	101.281858
1972.000000	101.320050
1971.000000	101.363744
1970.000000	101.410330
1969.000000	101.449642
1968.000000	101.476874
1967.000000	101.498513
1966.000000	101.525273
1965.000000	101.563905
1964.000000	101.614527
1963.000000	101.669284
1962.000000	101.715584
1961.000000	101.748229
1960.000000	101.776752
1959.000000	101.810859
1958.000000	101.843613
1957.000000	101.860317
1956.000000	101.858767
1955.000000	101.849195
1954.000000	101.836975
1953.000000	101.820149
1952.000000	101.798966
1951.000000	101.775770
1950.000000	101.753623
1949.000000	101.728415
1948.000000	101.694103
1947.000000	101.654687
1946.000000	101.617373
1945.000000	101.579676
1944.000000	101.532331
1943.000000	101.475256
1942.000000	101.425387
1941.000000	101.403181
1940.000000	101.418183
1939.000000	101.465534
1938.000000	101.528361
1937.000000	101.590939
1936.000000	101.653641
1935.000000	101.726596
1934.000000	101.809497
1933.000000	101.892297
1932.000000	101.968551
1931.000000	102.040157
1930.000000	102.115339
1929.000000	102.186005
1928.000000	102.240349
1927.000000	102.284397
1926.000000	102.330346
1925.000000	102.377365
1924.000000	102.398371
1923.000000	102.387046
1922.000000	102.374585
1921.000000	102.383564
1920.000000	102.401831
1919.000000	102.408615
1918.000000	102.405291
1917.000000	102.410620
1916.000000	102.428758
1915.000000	102.455721
1914.000000	102.487734
1913.000000	102.512230
1912.000000	102.512680
1911.000000	102.490072
1910.000000	102.462002
1909.000000	102.427864
1908.000000	102.377346
1907.000000	102.317203
1906.000000	102.264455
1905.000000	102.220255
1904.000000	102.154449
1903.000000	102.062577
1902.000000	101.976446
1901.000000	101.903846
1900.000000	101.825022
1899.000000	101.741812
1898.000000	101.680611
1897.000000	101.649787
1896.000000	101.618835
1895.000000	101.575928
1894.000000	101.554426
1893.000000	101.573676
1892.000000	101.605809
1891.000000	101.621091
1890.000000	101.622805
1889.000000	101.627828
1888.000000	101.640640
1887.000000	101.667312
1886.000000	101.718761
1885.000000	101.779290
1884.000000	101.814644
1883.000000	101.825992
1882.000000	101.849479
1881.000000	101.888558
1880.000000	101.913598
1879.000000	101.919339
1878.000000	101.929795
1877.000000	101.957881
1876.000000	101.983782
1875.000000	101.992602
1874.000000	102.006343
1873.000000	102.043823
1872.000000	102.086063
1871.000000	102.113768
1870.000000	102.133301
1869.000000	102.154533
1868.000000	102.174128
1867.000000	102.204281
1866.000000	102.278469
1865.000000	102.396161
1864.000000	102.512372
1863.000000	102.602609
1862.000000	102.694119
1861.000000	102.805814
1860.000000	102.911765
1859.000000	102.996453
1858.000000	103.088634
1857.000000	103.204214
1856.000000	103.312188
1855.000000	103.391227
1854.000000	103.463947
1853.000000	103.535924
1852.000000	103.584744
1851.000000	103.617245
1850.000000	103.651947
1849.000000	103.691446
1848.000000	103.721954
1847.000000	103.749413
1846.000000	103.792126
1845.000000	103.836245
1844.000000	103.867184
1843.000000	103.913148
1842.000000	103.999618
1841.000000	104.102055
1840.000000	104.186323
1839.000000	104.238382
1838.000000	104.271934
1837.000000	104.308714
1836.000000	104.344117
1835.000000	104.380148
1834.000000	104.434741
1833.000000	104.510191
1832.000000	104.596206
1831.000000	104.667431
1830.000000	104.697458
1829.000000	104.712828
1828.000000	104.758528
1827.000000	104.841356
1826.000000	104.937003
1825.000000	105.027808
1824.000000	105.115036
1823.000000	105.204545
1822.000000	105.298907
1821.000000	105.395623
1820.000000	105.479569
1819.000000	105.532009
1818.000000	105.570415
1817.000000	105.631769
1816.000000	105.703393
1815.000000	105.754264
1814.000000	105.791164
1813.000000	105.838924
1812.000000	105.887596
1811.000000	105.898922
1810.000000	105.900837
1809.000000	105.948790
1808.000000	106.022943
1807.000000	106.080153
1806.000000	106.134173
1805.000000	106.209121
1804.000000	106.272818
1803.000000	106.296718
1802.000000	106.309128
1801.000000	106.349133
1800.000000	106.408709
1799.000000	106.452067
1798.000000	106.495064
1797.000000	106.556982
1796.000000	106.604903
1795.000000	106.619975
1794.000000	106.630022
1793.000000	106.658002
1792.000000	106.689267
1791.000000	106.706088
1790.000000	106.740187
1789.000000	106.809115
1788.000000	106.873460
1787.000000	106.896943
1786.000000	106.906760
1785.000000	106.946243
1784.000000	107.001939
1783.000000	107.053792
1782.000000	107.099471
1781.000000	107.132479
1780.000000	107.162941
1779.000000	107.200175
1778.000000	107.262098
1777.000000	107.342220
1776.000000	107.422993
1775.000000	107.514082
1774.000000	107.616753
1773.000000	107.709522
1772.000000	107.792399
1771.000000	107.854823
1770.000000	107.885028
1769.000000	107.930168
1768.000000	108.032288
1767.000000	108.161040
1766.000000	108.273388
1765.000000	108.374918
1764.000000	108.489861
1763.000000	108.594254
1762.000000	108.646605
1761.000000	108.684012
1760.000000	108.757194
1759.000000	108.842362
1758.000000	108.909715
1757.000000	108.949254
1756.000000	109.000123
1755.000000	109.064206
1754.000000	109.083597
1753.000000	109.058616
1752.000000	109.055257
1751.000000	109.104190
1750.000000	109.161440
1749.000000	109.186355
1748.000000	109.187538
1747.000000	109.198558
1746.000000	109.202092
1745.000000	109.184018
1744.000000	109.178003
1743.000000	109.185150
1742.000000	109.184312
1741.000000	109.186310
1740.000000	109.206872
1739.000000	109.220548
1738.000000	109.193920
1737.000000	109.132369
1736.000000	109.079428
1735.000000	109.020989
1734.000000	108.973357
1733.000000	109.001520
1732.000000	109.062337
1731.000000	109.072335
1730.000000	109.039382
1729.000000	108.982273
1728.000000	108.925910
1727.000000	108.891460
1726.000000	108.858648
1725.000000	108.816938
1724.000000	108.764496
1723.000000	108.695651
1722.000000	108.646391
1721.000000	108.639802
1720.000000	108.642595
1719.000000	108.581772
1718.000000	108.475164
1717.000000	108.461453
1716.000000	108.512421
1715.000000	108.512166
1714.000000	108.516430
1713.000000	108.598935
1712.000000	108.696832
1711.000000	108.760788
1710.000000	108.852719
1709.000000	109.017922
1708.000000	109.213462
1707.000000	109.390916
1706.000000	109.571838
1705.000000	109.783233
1704.000000	109.951694
1703.000000	110.052774
1702.000000	110.204483
1701.000000	110.450551
1700.000000	110.711792
1699.000000	110.875138
1698.000000	110.974017
1697.000000	111.112528
1696.000000	111.288030
1695.000000	111.442410
1694.000000	111.584448
1693.000000	111.701458
1692.000000	111.789976
1691.000000	111.865900
1690.000000	111.939140
1689.000000	112.002421
1688.000000	112.067283
1687.000000	112.167155
1686.000000	112.316620
1685.000000	112.442373
1684.000000	112.535572
1683.000000	112.685393
1682.000000	112.846140
1681.000000	112.913006
1680.000000	112.940210
1679.000000	112.993504
1678.000000	113.054423
1677.000000	113.086470
1676.000000	113.115253
1675.000000	113.204435
1674.000000	113.303242
1673.000000	113.328294
1672.000000	113.326137
1671.000000	113.361363
1670.000000	113.412623
1669.000000	113.424761
1668.000000	113.419407
1667.000000	113.433072
1666.000000	113.426133
1665.000000	113.361916
1664.000000	113.239597
1663.000000	113.093351
1662.000000	112.941786
1661.000000	112.732825
1660.000000	112.481652
1659.000000	112.251203
1658.000000	112.004725
1657.000000	111.687482
1656.000000	111.326588
1655.000000	110.960786
1654.000000	110.335730
1653.000000	109.424700
1652.000000	108.594444
1651.000000	107.854714
1650.000000	106.954293
1649.000000	105.796303
1648.000000	104.187061
1647.000000	102.005826
1646.000000	99.481806
1645.000000	96.950334
1644.000000	94.472666
1643.000000	91.964256
1642.000000	89.420279
1641.000000	86.956571
1640.000000	84.812762
1639.000000	83.167646
1638.000000	82.077171
1637.000000	81.559749
1636.000000	81.708633
1635.000000	82.553100
1634.000000	83.821245
1633.000000	85.233274
1632.000000	86.715231
1631.000000	88.296363
1630.000000	89.965546
1629.000000	91.652686
1628.000000	93.276268
1627.000000	94.774999
1626.000000	96.112346
1625.000000	97.317489
1624.000000	98.476547
1623.000000	99.626275
1622.000000	100.685740
1621.000000	101.558889
1620.000000	102.302117
1619.000000	103.055293
1618.000000	103.876226
1617.000000	104.715387
1616.000000	105.511257
1615.000000	106.200108
1614.000000	106.703373
1613.000000	107.012772
1612.000000	107.193585
1611.000000	107.282649
1610.000000	107.192059
1609.000000	106.777792
1608.000000	105.978226
1607.000000	104.764317
1606.000000	102.991801
1605.000000	100.456168
1604.000000	97.129498
1603.000000	93.171436
1602.000000	88.824064
1601.000000	84.344012
1600.000000	79.854448
1599.000000	75.171899
1598.000000	69.787109
1597.000000	63.235004
1596.000000	55.594439
1595.000000	47.606922
1594.000000	40.282643
1593.000000	34.371656
1592.000000	30.210319
1591.000000	27.814732
1590.000000	26.902818
1589.000000	26.912634
1588.000000	27.248228
1587.000000	27.506320
1586.000000	27.433634
1585.000000	26.915749
1584.000000	26.092440
1583.000000	25.321167
1582.000000	24.881056
1581.000000	24.798475
1580.000000	24.998788
1579.000000	25.456137
1578.000000	26.111209
1577.000000	26.764321
1576.000000	27.215188
1575.000000	27.480684
1574.000000	27.659486
1573.000000	27.781922
1572.000000	27.967345
1571.000000	28.509274
1570.000000	29.681367
1569.000000	31.430402
1568.000000	33.522953
1567.000000	35.893413
1566.000000	38.529055
1565.000000	41.229762
1564.000000	43.708823
1563.000000	45.868459
1562.000000	47.838743
1561.000000	49.881065
1560.000000	52.353789
1559.000000	55.453400
1558.000000	58.605235
1557.000000	61.160144
1556.000000	63.224153
1555.000000	65.194145
1554.000000	67.156286
1553.000000	68.941718
1552.000000	70.476102
1551.000000	71.848089
1550.000000	73.143049
1549.000000	74.337143
1548.000000	75.402449
1547.000000	76.408745
1546.000000	77.424291
1545.000000	78.418362
1544.000000	79.336716
1543.000000	80.192837
1542.000000	81.051491
1541.000000	81.919487
1540.000000	82.732952
1539.000000	83.491514
1538.000000	84.192602
1537.000000	84.784947
1536.000000	85.298498
1535.000000	85.814238
1534.000000	86.331439
1533.000000	86.804974
1532.000000	87.240744
1531.000000	87.667687
1530.000000	88.112998
1529.000000	88.563989
1528.000000	88.968353
1527.000000	89.332951
1526.000000	89.703920
1525.000000	90.084203
1524.000000	90.450398
1523.000000	90.793684
1522.000000	91.104515
1521.000000	91.376537
1520.000000	91.623887
1519.000000	91.864842
1518.000000	92.091268
1517.000000	92.275876
1516.000000	92.409716
1515.000000	92.540806
1514.000000	92.710789
1513.000000	92.926570
1512.000000	93.151904
1511.000000	93.342546
1510.000000	93.510018
1509.000000	93.702548
1508.000000	93.893702
1507.000000	94.008153
1506.000000	94.163375
1505.000000	94.442643
1504.000000	94.708435
1503.000000	94.898193
1502.000000	95.064268
1501.000000	95.239534
1500.000000	95.420682
1499.000000	95.586798
1498.000000	95.751531
1497.000000	95.990177
1496.000000	96.329507
1495.000000	96.709843
1494.000000	97.092294
1493.000000	97.478851
1492.000000	97.864549
1491.000000	98.228893
1490.000000	98.581691
1489.000000	98.958902
1488.000000	99.337091
1487.000000	99.681981
1486.000000	100.034538
1485.000000	100.378104
1484.000000	100.667432
1483.000000	100.924827
1482.000000	101.176298
1481.000000	101.417778
1480.000000	101.630986
1479.000000	101.841492
1478.000000	102.083048
1477.000000	102.342374
1476.000000	102.570448
1475.000000	102.790175
1474.000000	103.071881
1473.000000	103.409238
1472.000000	103.758657
1471.000000	104.079559
1470.000000	104.329047
1469.000000	104.462340
1468.000000	104.440492
1467.000000	104.217387
1466.000000	103.675477
1465.000000	102.621350
1464.000000	100.967027
1463.000000	98.721361
1462.000000	95.847691
1461.000000	92.316424
1460.000000	88.170097
1459.000000	83.434227
1458.000000	78.059188
1457.000000	72.527499
1456.000000	67.985435
1455.000000	64.864481
1454.000000	62.537678
1453.000000	60.450561
1452.000000	58.605011
1451.000000	57.308218
1450.000000	56.842056
1449.000000	57.357996
1448.000000	58.827416
1447.000000	60.931959
1446.000000	63.233793
1445.000000	65.530926
1444.000000	67.885375
1443.000000	70.317018
1442.000000	72.695741
1441.000000	74.887116
1440.000000	76.851226
1439.000000	78.620282
1438.000000	80.297674
1437.000000	82.040167
1436.000000	83.869516
1435.000000	85.594593
1434.000000	87.089349
1433.000000	88.438452
1432.000000	89.723863
1431.000000	90.888654
1430.000000	91.855073
1429.000000	92.664301
1428.000000	93.381769
1427.000000	94.018578
1426.000000	94.575182
1425.000000	95.084663
1424.000000	95.604136
1423.000000	96.110383
1422.000000	96.556798
1421.000000	96.971784
1420.000000	97.403221
1419.000000	97.816360
1418.000000	98.166259
1417.000000	98.522784
1416.000000	98.937486
1415.000000	99.356612
1414.000000	99.709287
1413.000000	100.000573
1412.000000	100.277007
1411.000000	100.520724
1410.000000	100.686147
1409.000000	100.791218
1408.000000	100.843057
1407.000000	100.766730
1406.000000	100.446424
1405.000000	99.800037
1404.000000	98.845911
1403.000000	97.668531
1402.000000	96.384086
1401.000000	95.125759
1400.000000	94.005510
1399.000000	93.070105
1398.000000	92.315344
1397.000000	91.793946
1396.000000	91.680866
1395.000000	92.179212
1394.000000	93.277302
1393.000000	94.707203
1392.000000	96.169503
1391.000000	97.466748
1390.000000	98.515811
1389.000000	99.354490
1388.000000	100.107058
1387.000000	100.878160
1386.000000	101.661729
1385.000000	102.372016
1384.000000	102.937076
1383.000000	103.320013
1382.000000	103.535749
1381.000000	103.659546
1380.000000	103.767286
1379.000000	103.883180
1378.000000	103.980231
1377.000000	104.003851
1376.000000	103.870351
1375.000000	103.462532
1374.000000	102.652377
1373.000000	101.354484
1372.000000	99.506710
1371.000000	97.010772
1370.000000	93.790838
1369.000000	90.004112
1368.000000	86.205894
1367.000000	83.123349
1366.000000	81.195774
1365.000000	80.382020
1364.000000	80.362462
1363.000000	80.882278
1362.000000	81.938328
1361.000000	83.661404
1360.000000	86.041847
1359.000000	88.818115
1358.000000	91.594007
1357.000000	94.029880
1356.000000	95.972620
1355.000000	97.449161
1354.000000	98.579492
1353.000000	99.499925
1352.000000	100.299820
1351.000000	101.016898
1350.000000	101.664493
1349.000000	102.247787
1348.000000	102.780770
1347.000000	103.273666
1346.000000	103.727203
1345.000000	104.141429
1344.000000	104.519623
1343.000000	104.859517
1342.000000	105.153958
1341.000000	105.402545
1340.000000	105.616458
1339.000000	105.812652
1338.000000	106.002795
1337.000000	106.195196
1336.000000	106.394293
1335.000000	106.596198
1334.000000	106.795826
1333.000000	106.995750
1332.000000	107.199419
1331.000000	107.399440
1330.000000	107.576895
1329.000000	107.711797
1328.000000	107.776869
1327.000000	107.724318
1326.000000	107.472064
1325.000000	106.894163
1324.000000	105.841154
1323.000000	104.163793
1322.000000	101.776617
1321.000000	98.757186
1320.000000	95.401356
1319.000000	92.156550
1318.000000	89.413844
1317.000000	87.321293
1316.000000	85.810660
1315.000000	84.807057
1314.000000	84.362968
1313.000000	84.573053
1312.000000	85.374161
1311.000000	86.473340
1310.000000	87.543652
1309.000000	88.485369
1308.000000	89.477963
1307.000000	90.784743
1306.000000	92.504554
1305.000000	94.500948
1304.000000	96.518385
1303.000000	98.323710
1302.000000	99.785576
1301.000000	100.887448
1300.000000	101.677255
1299.000000	102.203946
1298.000000	102.490511
1297.000000	102.539940
1296.000000	102.346900
1295.000000	101.884519
1294.000000	101.111972
1293.000000	100.007505
1292.000000	98.584191
1291.000000	96.890759
1290.000000	94.975282
1289.000000	92.834003
1288.000000	90.366234
1287.000000	87.387583
1286.000000	83.778018
1285.000000	79.694684
1284.000000	75.658655
1283.000000	72.403971
1282.000000	70.569350
1281.000000	70.420387
1280.000000	71.805365
1279.000000	74.283332
1278.000000	77.291416
1277.000000	80.318056
1276.000000	82.977335
1275.000000	85.022721
1274.000000	86.395532
1273.000000	87.293717
1272.000000	88.132401
1271.000000	89.310194
1270.000000	90.955108
1269.000000	92.889422
1268.000000	94.822874
1267.000000	96.555506
1266.000000	98.036777
1265.000000	99.307959
1264.000000	100.424981
1263.000000	101.421904
1262.000000	102.312744
1261.000000	103.111517
1260.000000	103.836779
1259.000000	104.498119
1258.000000	105.096119
1257.000000	105.632738
1256.000000	106.114758
1255.000000	106.545699
1254.000000	106.924077
1253.000000	107.255854
1252.000000	107.554310
1251.000000	107.828796
1250.000000	108.083190
1249.000000	108.324251
1248.000000	108.563563
1247.000000	108.806585
1246.000000	109.050399
1245.000000	109.295710
1244.000000	109.548258
1243.000000	109.806865
1242.000000	110.062329
1241.000000	110.310101
1240.000000	110.552593
1239.000000	110.787248
1238.000000	111.005244
1237.000000	111.202283
1236.000000	111.378181
1235.000000	111.525831
1234.000000	111.630368
1233.000000	111.683147
1232.000000	111.682724
1231.000000	111.619460
1230.000000	111.475343
1229.000000	111.227813
1228.000000	110.847049
1227.000000	110.275458
1226.000000	109.411459
1225.000000	108.125558
1224.000000	106.260954
1223.000000	103.664525
1222.000000	100.252831
1221.000000	96.075830
1220.000000	91.357339
1219.000000	86.437172
1218.000000	81.656165
1217.000000	77.253716
1216.000000	73.328091
1215.000000	69.859225
1214.000000	66.772427
1213.000000	64.012064
1212.000000	61.581378
1211.000000	59.526550
1210.000000	57.860919
1209.000000	56.560010
1208.000000	55.614530
1207.000000	55.043955
1206.000000	54.877270
1205.000000	55.107274
1204.000000	55.686729
1203.000000	56.534246
1202.000000	57.547084
1201.000000	58.680997
1200.000000	59.997032
1199.000000	61.622389
1198.000000	63.655462
1197.000000	66.103112
1196.000000	68.899398
1195.000000	71.924565
1194.000000	75.025488
1193.000000	78.060159
1192.000000	80.932673
1191.000000	83.585970
1190.000000	85.981447
1189.000000	88.102374
1188.000000	89.956196
1187.000000	91.562688
1186.000000	92.930424
1185.000000	94.068926
1184.000000	95.002540
1183.000000	95.747948
1182.000000	96.306972
1181.000000	96.673624
1180.000000	96.856607
1179.000000	96.885207
1178.000000	96.793390
1177.000000	96.620895
1176.000000	96.410509
1175.000000	96.199619
1174.000000	96.017180
1173.000000	95.890391
1172.000000	95.848756
1171.000000	95.912369
1170.000000	96.082467
1169.000000	96.348723
1168.000000	96.697750
1167.000000	97.100597
1166.000000	97.503117
1165.000000	97.842043
1164.000000	98.071173
1163.000000	98.181137
1162.000000	98.211955
1161.000000	98.253748
1160.000000	98.413818
1159.000000	98.758329
1158.000000	99.283985
1157.000000	99.943498
1156.000000	100.688088
1155.000000	101.480853
1154.000000	102.288143
1153.000000	103.077572
1152.000000	103.814626
1151.000000	104.454113
1150.000000	104.948526
1149.000000	105.279743
1148.000000	105.469681
1147.000000	105.560087
1146.000000	105.590243
1145.000000	105.585510
1144.000000	105.553958
1143.000000	105.466517
1142.000000	105.257335
1141.000000	104.855892
1140.000000	104.198712
1139.000000	103.230379
1138.000000	101.877567
1137.000000	100.047392
1136.000000	97.644324
1135.000000	94.547757
1134.000000	90.629882
1133.000000	85.778048
1132.000000	79.952845
1131.000000	73.274572
1130.000000	66.071367
1129.000000	58.883849
1128.000000	52.387158
1127.000000	47.209396
1126.000000	43.706259
1125.000000	41.894274
1124.000000	41.510955
1123.000000	42.115385
1122.000000	43.172279
1121.000000	44.136022
1120.000000	44.598457
1119.000000	44.338548
1118.000000	43.314633
1117.000000	41.717365
1116.000000	40.028587
1115.000000	38.956395
1114.000000	39.153217
1113.000000	40.930605
1112.000000	44.172777
1111.000000	48.396791
1110.000000	52.903186
1109.000000	56.981106
1108.000000	60.114292
1107.000000	62.079592
1106.000000	62.911979
1105.000000	62.828292
1104.000000	62.203468
1103.000000	61.559539
1102.000000	61.447671
1101.000000	62.251665
1100.000000	64.043828
1099.000000	66.597060
1098.000000	69.535231
1097.000000	72.510200
1096.000000	75.287257
1095.000000	77.745437
1094.000000	79.858634
1093.000000	81.678393
1092.000000	83.298955
1091.000000	84.809846
1090.000000	86.275365
1089.000000	87.746621
1088.000000	89.269382
1087.000000	90.857645
1086.000000	92.481983
1085.000000	94.086403
1084.000000	95.606373
1083.000000	96.982109
1082.000000	98.169880
1081.000000	99.161283
1080.000000	99.977326
1079.000000	100.638895
1078.000000	101.162951
1077.000000	101.561652
1076.000000	101.836289
1075.000000	101.965063
1074.000000	101.896320
1073.000000	101.577940
1072.000000	100.944048
1071.000000	99.899540
1070.000000	98.324830
1069.000000	96.065311
1068.000000	92.959230
1067.000000	88.832577
1066.000000	83.550615
1065.000000	77.132044
1064.000000	69.821836
1063.000000	62.114550
1062.000000	54.629095
1061.000000	47.898910
1060.000000	42.178703
1059.000000	37.376686
1058.000000	33.151933
1057.000000	29.221581
1056.000000	25.688108
1055.000000	23.062079
1054.000000	22.024623
1053.000000	23.019295
1052.000000	26.023434
1051.000000	30.569068
1050.000000	35.909966
1049.000000	41.347098
1048.000000	46.428761
1047.000000	50.973169
1046.000000	54.981765
1045.000000	58.536885
1044.000000	61.733031
1043.000000	64.624486
1042.000000	67.215489
1041.000000	69.492433
1040.000000	71.474491
1039.000000	73.200536
1038.000000	74.709753
1037.000000	76.045690
1036.000000	77.251214
1035.000000	78.362589
1034.000000	79.395511
1033.000000	80.359378
1032.000000	81.271550
1031.000000	82.142905
1030.000000	82.972467
1029.000000	83.757242
1028.000000	84.502007
1027.000000	85.212706
1026.000000	85.889023
1025.000000	86.535549
1024.000000	87.164080
1023.000000	87.778669
1022.000000	88.371559
1021.000000	88.931224
1020.000000	89.447762
1019.000000	89.896254
1018.000000	90.224549
1017.000000	90.366547
1016.000000	90.227738
1015.000000	89.681775
1014.000000	88.578428
1013.000000	86.775863
1012.000000	84.200969
1011.000000	80.883385
1010.000000	77.003544
1009.000000	72.903776
1008.000000	69.023846
1007.000000	65.791042
1006.000000	63.544052
1005.000000	62.489617
1004.000000	62.647576
1003.000000	63.785446
1002.000000	65.418516
1001.000000	66.976587
1000.000000	67.989285
999.000000	68.149676
998.000000	67.311196
997.000000	65.543454
996.000000	63.213773
995.000000	60.921886
994.000000	59.235697
993.000000	58.432348
992.000000	58.462081
991.000000	59.126692
990.000000	60.276545
989.000000	61.876988
988.000000	63.950290
987.000000	66.440221
986.000000	69.163959
985.000000	71.884863
984.000000	74.417155
983.000000	76.675737
982.000000	78.651065
981.000000	80.374532
980.000000	81.891910
979.000000	83.245991
978.000000	84.458538
977.000000	85.540938
976.000000	86.505675
975.000000	87.359919
974.000000	88.107232
973.000000	88.751206
972.000000	89.306221
971.000000	89.792042
970.000000	90.222882
969.000000	90.614181
968.000000	90.985248
967.000000	91.352651
966.000000	91.722740
965.000000	92.095828
964.000000	92.474653
963.000000	92.860396
962.000000	93.248351
961.000000	93.633237
960.000000	94.012665
959.000000	94.381410
958.000000	94.727181
957.000000	95.038763
956.000000	95.312991
955.000000	95.548371
954.000000	95.741618
953.000000	95.893911
952.000000	96.016117
951.000000	96.123352
950.000000	96.227893
949.000000	96.341908
948.000000	96.478783
947.000000	96.646525
946.000000	96.844132
945.000000	97.067109
944.000000	97.310252
943.000000	97.562988
942.000000	97.809857
941.000000	98.039650
940.000000	98.247855
939.000000	98.429288
938.000000	98.576388
937.000000	98.687819
936.000000	98.771801
935.000000	98.836884
934.000000	98.888412
933.000000	98.935930
932.000000	98.995424
931.000000	99.079896
930.000000	99.193924
929.000000	99.339350
928.000000	99.518318
927.000000	99.727065
926.000000	99.953154
925.000000	100.183100
924.000000	100.406290
923.000000	100.610193
922.000000	100.779901
921.000000	100.906797
920.000000	100.991192
919.000000	101.036672
918.000000	101.049076
917.000000	101.040938
916.000000	101.030290
915.000000	101.032009
914.000000	101.056174
913.000000	101.114022
912.000000	101.216991
911.000000	101.367222
910.000000	101.556612
909.000000	101.775224
908.000000	102.012839
907.000000	102.253347
906.000000	102.476763
905.000000	102.668546
904.000000	102.819316
903.000000	102.918113
902.000000	102.952709
901.000000	102.918684
900.000000	102.814680
899.000000	102.626041
898.000000	102.327741
897.000000	101.906415
896.000000	101.390172
895.000000	100.855927
894.000000	100.391361
893.000000	100.021968
892.000000	99.659612
891.000000	99.151730
890.000000	98.418947
889.000000	97.547170
888.000000	96.721515
887.000000	96.082919
886.000000	95.666600
885.000000	95.457196
884.000000	95.444927
883.000000	95.590300
882.000000	95.792393
881.000000	95.953101
880.000000	96.082478
879.000000	96.314704
878.000000	96.796399
877.000000	97.572234
876.000000	98.557646
875.000000	99.599728
874.000000	100.565455
873.000000	101.390024
872.000000	102.068424
871.000000	102.614527
870.000000	103.035473
869.000000	103.327993
868.000000	103.483135
867.000000	103.482666
866.000000	103.305731
865.000000	102.956155
864.000000	102.479591
863.000000	101.963384
862.000000	101.518447
861.000000	101.249112
860.000000	101.215881
859.000000	101.412297
858.000000	101.775904
857.000000	102.229160
856.000000	102.714719
855.000000	103.196919
854.000000	103.653005
853.000000	104.067462
852.000000	104.427284
851.000000	104.717522
850.000000	104.927049
849.000000	105.058402
848.000000	105.126522
847.000000	105.148696
846.000000	105.141103
845.000000	105.125119
844.000000	105.124701
843.000000	105.157263
842.000000	105.232946
841.000000	105.360283
840.000000	105.542327
839.000000	105.767400
838.000000	106.013046
837.000000	106.259687
836.000000	106.492440
835.000000	106.692489
834.000000	106.839551
833.000000	106.924712
832.000000	106.952671
831.000000	106.931145
830.000000	106.869661
829.000000	106.787192
828.000000	106.710104
827.000000	106.660324
826.000000	106.652132
825.000000	106.698145
824.000000	106.806088
823.000000	106.968513
822.000000	107.165736
821.000000	107.380516
820.000000	107.599751
819.000000	107.805445
818.000000	107.975923
817.000000	108.096505
816.000000	108.158974
815.000000	108.154083
814.000000	108.074234
813.000000	107.919310
812.000000	107.690374
811.000000	107.379908
810.000000	106.988628
809.000000	106.558374
808.000000	106.177069
807.000000	105.938734
806.000000	105.893265
805.000000	106.023971
804.000000	106.261592
803.000000	106.518907
802.000000	106.723581
801.000000	106.830980
800.000000	106.812111
799.000000	106.639338
798.000000	106.283575
797.000000	105.721013
796.000000	104.928837
795.000000	103.883446
794.000000	102.578760
793.000000	101.046508
792.000000	99.367676
791.000000	97.665819
790.000000	96.089427
789.000000	94.780274
788.000000	93.837207
787.000000	93.293359
786.000000	93.122548
785.000000	93.261503
784.000000	93.618097
783.000000	94.077758
782.000000	94.519641
781.000000	94.846858
780.000000	95.011510
779.000000	95.025824
778.000000	94.966567
777.000000	94.954657
776.000000	95.106248
775.000000	95.486149
774.000000	96.096350
773.000000	96.896963
772.000000	97.827554
771.000000	98.822605
770.000000	99.829186
769.000000	100.814307
768.000000	101.753237
767.000000	102.616100
766.000000	103.375407
765.000000	104.016932
764.000000	104.535490
763.000000	104.927941
762.000000	105.201251
761.000000	105.378913
760.000000	105.486945
759.000000	105.543361
758.000000	105.566641
757.000000	105.584011
756.000000	105.619255
755.000000	105.680703
754.000000	105.771025
753.000000	105.896929
752.000000	106.058787
751.000000	106.240161
750.000000	106.418054
749.000000	106.574137
748.000000	106.686399
747.000000	106.722866
746.000000	106.658575
745.000000	106.488753
744.000000	106.216893
743.000000	105.844654
742.000000	105.386445
741.000000	104.880990
740.000000	104.374567
739.000000	103.904160
738.000000	103.502849
737.000000	103.199392
736.000000	102.990948
735.000000	102.828466
734.000000	102.646575
733.000000	102.399200
732.000000	102.061675
731.000000	101.628355
730.000000	101.132765
729.000000	100.651834
728.000000	100.272272
727.000000	100.050154
726.000000	100.003167
725.000000	100.126136
724.000000	100.390288
723.000000	100.742326
722.000000	101.133803
721.000000	101.551120
720.000000	102.004475
719.000000	102.497238
718.000000	103.019464
717.000000	103.553851
716.000000	104.068218
715.000000	104.517925
714.000000	104.873614
713.000000	105.134592
712.000000	105.305824
711.000000	105.382578
710.000000	105.374318
709.000000	105.315519
708.000000	105.239218
707.000000	105.161442
706.000000	105.097194
705.000000	105.075951
704.000000	105.118432
703.000000	105.211089
702.000000	105.338356
701.000000	105.509587
700.000000	105.725821
699.000000	105.960366
698.000000	106.184095
697.000000	106.392145
696.000000	106.575535
695.000000	106.691375
694.000000	106.715792
693.000000	106.674958
692.000000	106.591813
691.000000	106.455967
690.000000	106.266821
689.000000	106.077391
688.000000	105.936594
687.000000	105.824491
686.000000	105.719137
685.000000	105.657376
684.000000	105.670124
683.000000	105.726670
682.000000	105.802456
681.000000	105.931483
680.000000	106.129044
679.000000	106.328994
678.000000	106.496282
677.000000	106.651746
676.000000	106.783664
675.000000	106.891950
674.000000	106.979429
673.000000	107.067573
672.000000	107.248195
671.000000	107.660173
670.000000	108.362798
669.000000	108.976608
668.000000	108.768519
667.000000	107.975931
666.000000	107.476251
665.000000	107.381301
664.000000	107.503543
663.000000	107.709469
662.000000	107.930060
661.000000	108.136530
660.000000	108.303623
659.000000	108.403978
658.000000	108.432863
657.000000	108.374214
656.000000	108.208061
655.000000	108.017258
654.000000	107.866042
653.000000	107.725660
652.000000	107.592520
651.000000	107.534476
650.000000	107.574719
649.000000	107.641649
648.000000	107.699661
647.000000	107.799670
646.000000	107.954681
645.000000	108.097595
644.000000	108.187019
643.000000	108.253824
642.000000	108.314227
641.000000	108.317962
640.000000	108.234777
639.000000	108.107257
638.000000	107.967772
637.000000	107.794989
636.000000	107.594033
635.000000	107.427899
634.000000	107.338612
633.000000	107.309290
632.000000	107.330200
631.000000	107.429161
630.000000	107.601839
629.000000	107.781353
628.000000	107.918387
627.000000	108.022865
626.000000	108.096897
625.000000	108.106908
624.000000	108.040247
623.000000	107.933894
622.000000	107.818599
621.000000	107.685893
620.000000	107.532067
619.000000	107.379887
618.000000	107.242113
617.000000	107.112909
616.000000	107.011484
615.000000	106.981217
614.000000	107.026299
613.000000	107.103202
612.000000	107.187214
611.000000	107.290013
610.000000	107.404752
609.000000	107.484284
608.000000	107.494288
607.000000	107.437023
606.000000	107.306955
605.000000	107.087653
604.000000	106.793802
603.000000	106.471012
602.000000	106.141869
601.000000	105.792221
600.000000	105.416070
599.000000	105.028982
598.000000	104.621782
597.000000	104.153940
596.000000	103.611739
595.000000	103.023466
594.000000	102.394980
593.000000	101.666078
592.000000	100.743539
591.000000	99.561054
590.000000	98.134203
589.000000	96.615629
588.000000	95.281124
587.000000	94.367392
586.000000	93.894972
585.000000	93.720673
584.000000	93.784112
583.000000	94.182524
582.000000	94.979774
581.000000	96.067001
580.000000	97.251724
579.000000	98.395630
578.000000	99.406726
577.000000	100.207530
576.000000	100.780917
575.000000	101.183894
574.000000	101.462166
573.000000	101.606985
572.000000	101.621818
571.000000	101.555651
570.000000	101.437449
569.000000	101.229669
568.000000	100.896727
567.000000	100.438403
566.000000	99.813069
565.000000	98.904141
564.000000	97.618539
563.000000	95.998920
562.000000	94.205514
561.000000	92.437109
560.000000	90.877221
559.000000	89.620138
558.000000	88.592138
557.000000	87.641679
556.000000	86.791720
555.000000	86.320000
554.000000	86.525445
553.000000	87.463895
552.000000	88.942817
551.000000	90.659737
550.000000	92.289315
549.000000	93.586781
548.000000	94.499613
547.000000	95.136709
546.000000	95.607472
545.000000	95.944448
544.000000	96.175116
543.000000	96.359508
542.000000	96.517923
541.000000	96.594072
540.000000	96.544974
539.000000	96.393358
538.000000	96.163412
537.000000	95.842063
536.000000	95.440321
535.000000	95.024719
534.000000	94.643592
533.000000	94.293357
532.000000	93.977296
531.000000	93.742346
530.000000	93.609054
529.000000	93.522511
528.000000	93.410685
527.000000	93.241720
526.000000	92.977103
525.000000	92.544139
524.000000	91.906761
523.000000	91.091132
522.000000	90.129715
521.000000	89.042766
520.000000	87.896748
519.000000	86.802999
518.000000	85.810337
517.000000	84.865436
516.000000	83.926020
515.000000	83.032535
514.000000	82.239387
513.000000	81.574990
512.000000	81.102445
511.000000	80.941948
510.000000	81.161694
509.000000	81.708546
508.000000	82.496118
507.000000	83.483694
506.000000	84.626151
505.000000	85.844378
504.000000	87.098832
503.000000	88.408297
502.000000	89.741426
501.000000	90.977317
500.000000	92.024332
499.000000	92.899521
498.000000	93.648191
497.000000	94.282595
496.000000	94.825319
495.000000	95.330112
494.000000	95.826589
493.000000	96.283376
492.000000	96.678122
491.000000	97.038391
490.000000	97.362576
489.000000	97.590091
488.000000	97.677818
487.000000	97.651008
486.000000	97.518323
485.000000	97.187898
484.000000	96.540761
483.000000	95.538026
482.000000	94.218954
481.000000	92.673197
480.000000	91.099118
479.000000	89.787934
478.000000	88.922208
477.000000	88.434884
476.000000	88.123080
475.000000	87.837884
474.000000	87.505436
473.000000	87.116443
472.000000	86.817243
471.000000	86.883211
470.000000	87.461375
469.000000	88.452397
468.000000	89.694780
467.000000	91.088909
466.000000	92.519145
465.000000	93.832423
464.000000	94.941756
463.000000	95.883265
462.000000	96.713709
461.000000	97.418512
460.000000	97.981716
459.000000	98.453440
458.000000	98.880462
457.000000	99.249028
456.000000	99.550356
455.000000	99.811690
454.000000	100.032127
453.000000	100.166748
452.000000	100.218221
451.000000	100.268793
450.000000	100.352381
449.000000	100.412739
448.000000	100.424797
447.000000	100.452484
446.000000	100.536494
445.000000	100.636109
444.000000	100.717784
443.000000	100.815808
442.000000	100.943602
441.000000	101.040977
440.000000	101.079505
439.000000	101.099065
438.000000	101.099590
437.000000	101.000831
436.000000	100.779455
435.000000	100.530771
434.000000	100.305199
433.000000	100.012827
432.000000	99.577305
431.000000	99.063184
430.000000	98.572835
429.000000	98.115340
428.000000	97.703925
427.000000	97.452949
426.000000	97.410330
425.000000	97.431367
424.000000	97.391326
423.000000	97.385245
422.000000	97.515771
421.000000	97.660830
420.000000	97.659728
419.000000	97.651678
418.000000	97.913670
417.000000	98.380494
416.000000	98.844171
415.000000	99.293595
414.000000	99.761027
413.000000	100.154962
412.000000	100.399188
411.000000	100.565093
410.000000	100.714891
409.000000	100.735591
408.000000	100.560677
407.000000	100.363169
406.000000	100.294883
405.000000	100.229794
404.000000	100.054171
403.000000	99.922321
402.000000	100.012936
401.000000	100.155572
400.000000	100.130416
