PE IR       SUBTECH     SPECTRUM    ASCII       PEDS        4.00        
   -1
23ms073_trans.asc
24/10/15
15:11:22.00
24/10/15
15:11:22.00
Administrator
Sample 1267 By Administrator Date Tuesday, October 15 2024
400.000000
#HDR
-1
-1
#GR
cm-1
%T
1.0
0.0
4000.000000
-1.000000
3601
8
98.509633
8.419987
#DATA
4000.000000	63.879047
3999.000000	63.816840
3998.000000	63.763993
3997.000000	63.718475
3996.000000	63.671793
3995.000000	63.618478
3994.000000	63.563134
3993.000000	63.514002
3992.000000	63.470193
3991.000000	63.421059
3990.000000	63.358425
3989.000000	63.284346
3988.000000	63.205654
3987.000000	63.125612
3986.000000	63.043440
3985.000000	62.958339
3984.000000	62.870451
3983.000000	62.779635
3982.000000	62.685682
3981.000000	62.592000
3980.000000	62.507961
3979.000000	62.444564
3978.000000	62.408049
3977.000000	62.398992
3976.000000	62.414700
3975.000000	62.451522
3974.000000	62.506215
3973.000000	62.579336
3972.000000	62.673744
3971.000000	62.787110
3970.000000	62.911256
3969.000000	63.034721
3968.000000	63.148300
3967.000000	63.249033
3966.000000	63.340147
3965.000000	63.425934
3964.000000	63.504354
3963.000000	63.564248
3962.000000	63.595253
3961.000000	63.602844
3960.000000	63.605821
3959.000000	63.615591
3958.000000	63.632525
3957.000000	63.653049
3956.000000	63.678449
3955.000000	63.714116
3954.000000	63.765116
3953.000000	63.837161
3952.000000	63.933015
3951.000000	64.050937
3950.000000	64.178833
3949.000000	64.291401
3948.000000	64.374341
3947.000000	64.457317
3946.000000	64.593720
3945.000000	64.795056
3944.000000	65.003929
3943.000000	65.146552
3942.000000	65.211006
3941.000000	65.260401
3940.000000	65.355835
3939.000000	65.482193
3938.000000	65.586184
3937.000000	65.651472
3936.000000	65.716164
3935.000000	65.816883
3934.000000	65.940266
3933.000000	66.043475
3932.000000	66.093788
3931.000000	66.093091
3930.000000	66.069263
3929.000000	66.061978
3928.000000	66.115997
3927.000000	66.233289
3926.000000	66.342397
3925.000000	66.364916
3924.000000	66.310298
3923.000000	66.264320
3922.000000	66.280225
3921.000000	66.338899
3920.000000	66.416277
3919.000000	66.508871
3918.000000	66.592811
3917.000000	66.624401
3916.000000	66.609695
3915.000000	66.617609
3914.000000	66.698320
3913.000000	66.825466
3912.000000	66.947746
3911.000000	67.021243
3910.000000	67.045041
3909.000000	67.050481
3908.000000	67.088941
3907.000000	67.194024
3906.000000	67.332820
3905.000000	67.416431
3904.000000	67.390271
3903.000000	67.324812
3902.000000	67.358229
3901.000000	67.511514
3900.000000	67.650214
3899.000000	67.669925
3898.000000	67.611687
3897.000000	67.581955
3896.000000	67.638144
3895.000000	67.777125
3894.000000	68.000700
3893.000000	68.252049
3892.000000	68.356112
3891.000000	68.155120
3890.000000	67.815533
3889.000000	67.703837
3888.000000	67.940086
3887.000000	68.289325
3886.000000	68.405269
3885.000000	68.189603
3884.000000	67.949646
3883.000000	68.002637
3882.000000	68.292743
3881.000000	68.508223
3880.000000	68.420375
3879.000000	68.137969
3878.000000	67.996888
3877.000000	68.142704
3876.000000	68.394442
3875.000000	68.470356
3874.000000	68.310724
3873.000000	68.183448
3872.000000	68.327845
3871.000000	68.588047
3870.000000	68.584544
3869.000000	68.265468
3868.000000	68.049419
3867.000000	68.200976
3866.000000	68.516091
3865.000000	68.714784
3864.000000	68.731591
3863.000000	68.653036
3862.000000	68.592337
3861.000000	68.562269
3860.000000	68.525167
3859.000000	68.444660
3858.000000	68.349201
3857.000000	68.342931
3856.000000	68.554836
3855.000000	68.981593
3854.000000	69.257306
3853.000000	68.867353
3852.000000	68.107155
3851.000000	67.794754
3850.000000	68.038676
3849.000000	68.436811
3848.000000	68.755073
3847.000000	68.966780
3846.000000	69.111346
3845.000000	69.202150
3844.000000	69.195823
3843.000000	69.074169
3842.000000	68.955914
3841.000000	68.960747
3840.000000	69.086862
3839.000000	69.212035
3838.000000	69.196846
3837.000000	69.022120
3836.000000	68.843255
3835.000000	68.840757
3834.000000	69.033198
3833.000000	69.263679
3832.000000	69.364793
3831.000000	69.323229
3830.000000	69.286274
3829.000000	69.385614
3828.000000	69.558092
3827.000000	69.590661
3826.000000	69.417908
3825.000000	69.253986
3824.000000	69.360008
3823.000000	69.725679
3822.000000	70.007151
3821.000000	69.802168
3820.000000	69.271865
3819.000000	69.062167
3818.000000	69.388413
3817.000000	69.851630
3816.000000	69.964704
3815.000000	69.693634
3814.000000	69.460690
3813.000000	69.502773
3812.000000	69.655797
3811.000000	69.771924
3810.000000	69.921967
3809.000000	70.192780
3808.000000	70.425363
3807.000000	70.315515
3806.000000	69.899186
3805.000000	69.652125
3804.000000	69.885542
3803.000000	70.388208
3802.000000	70.672717
3801.000000	70.440010
3800.000000	70.019468
3799.000000	69.951973
3798.000000	70.251325
3797.000000	70.559701
3796.000000	70.643804
3795.000000	70.581044
3794.000000	70.567259
3793.000000	70.659781
3792.000000	70.783398
3791.000000	70.871180
3790.000000	70.912726
3789.000000	70.935527
3788.000000	70.975610
3787.000000	71.053368
3786.000000	71.129651
3785.000000	71.126000
3784.000000	71.042234
3783.000000	70.997680
3782.000000	71.095709
3781.000000	71.285729
3780.000000	71.405844
3779.000000	71.349771
3778.000000	71.208710
3777.000000	71.145497
3776.000000	71.174414
3775.000000	71.192365
3774.000000	71.181565
3773.000000	71.233974
3772.000000	71.379407
3771.000000	71.490746
3770.000000	71.428687
3769.000000	71.241564
3768.000000	71.142693
3767.000000	71.221516
3766.000000	71.316919
3765.000000	71.258867
3764.000000	71.116206
3763.000000	71.096400
3762.000000	71.250152
3761.000000	71.431165
3760.000000	71.515528
3759.000000	71.466611
3758.000000	71.306333
3757.000000	71.108972
3756.000000	70.982886
3755.000000	70.993710
3754.000000	71.109398
3753.000000	71.271013
3752.000000	71.441438
3751.000000	71.488453
3750.000000	71.212491
3749.000000	70.727547
3748.000000	70.517633
3747.000000	70.876916
3746.000000	71.592272
3745.000000	72.103089
3744.000000	71.866916
3743.000000	71.214870
3742.000000	70.981539
3741.000000	71.228640
3740.000000	71.562321
3739.000000	71.832943
3738.000000	72.080538
3737.000000	72.291746
3736.000000	72.363518
3735.000000	72.325451
3734.000000	72.335057
3733.000000	72.408395
3732.000000	72.400527
3731.000000	72.291535
3730.000000	72.270504
3729.000000	72.459182
3728.000000	72.739711
3727.000000	72.916087
3726.000000	72.930830
3725.000000	72.905795
3724.000000	72.941257
3723.000000	73.006409
3722.000000	73.034934
3721.000000	73.023974
3720.000000	73.044337
3719.000000	73.102836
3718.000000	73.117394
3717.000000	73.063199
3716.000000	73.028022
3715.000000	73.104139
3714.000000	73.290134
3713.000000	73.496707
3712.000000	73.600604
3711.000000	73.525325
3710.000000	73.360756
3709.000000	73.264851
3708.000000	73.273206
3707.000000	73.335003
3706.000000	73.429525
3705.000000	73.581140
3704.000000	73.786020
3703.000000	73.967303
3702.000000	74.013986
3701.000000	73.892978
3700.000000	73.738982
3699.000000	73.717758
3698.000000	73.809518
3697.000000	73.876061
3696.000000	73.858781
3695.000000	73.809994
3694.000000	73.786307
3693.000000	73.792582
3692.000000	73.841477
3691.000000	73.959634
3690.000000	74.104537
3689.000000	74.103816
3688.000000	73.857155
3687.000000	73.583566
3686.000000	73.562264
3685.000000	73.760339
3684.000000	73.972889
3683.000000	74.102911
3682.000000	74.160205
3681.000000	74.125931
3680.000000	73.961856
3679.000000	73.808633
3678.000000	73.900532
3677.000000	74.232154
3676.000000	74.387579
3675.000000	73.960625
3674.000000	73.337299
3673.000000	73.227723
3672.000000	73.649643
3671.000000	74.121105
3670.000000	74.231313
3669.000000	73.954836
3668.000000	73.670481
3667.000000	73.656694
3666.000000	73.827060
3665.000000	73.993961
3664.000000	74.089808
3663.000000	74.117501
3662.000000	74.063726
3661.000000	73.931885
3660.000000	73.803558
3659.000000	73.800352
3658.000000	73.913106
3657.000000	73.941389
3656.000000	73.675691
3655.000000	73.225283
3654.000000	72.926325
3653.000000	72.907100
3652.000000	73.034692
3651.000000	73.151450
3650.000000	73.153654
3649.000000	72.975639
3648.000000	72.649175
3647.000000	72.325367
3646.000000	72.156384
3645.000000	72.171945
3644.000000	72.290573
3643.000000	72.385855
3642.000000	72.383037
3641.000000	72.301720
3640.000000	72.194408
3639.000000	72.069929
3638.000000	71.915700
3637.000000	71.772035
3636.000000	71.664906
3635.000000	71.513134
3634.000000	71.219544
3633.000000	70.863290
3632.000000	70.663379
3631.000000	70.721929
3630.000000	70.863176
3629.000000	70.698521
3628.000000	70.108332
3627.000000	69.539857
3626.000000	69.345110
3625.000000	69.363919
3624.000000	69.348686
3623.000000	69.263632
3622.000000	69.185905
3621.000000	69.128445
3620.000000	68.995181
3619.000000	68.677997
3618.000000	68.229844
3617.000000	67.871501
3616.000000	67.730860
3615.000000	67.708573
3614.000000	67.622726
3613.000000	67.398240
3612.000000	67.126637
3611.000000	66.943294
3610.000000	66.860038
3609.000000	66.764125
3608.000000	66.562478
3607.000000	66.284958
3606.000000	66.036600
3605.000000	65.870050
3604.000000	65.755222
3603.000000	65.642334
3602.000000	65.488641
3601.000000	65.268555
3600.000000	64.999756
3599.000000	64.732200
3598.000000	64.497901
3597.000000	64.302750
3596.000000	64.114684
3595.000000	63.878951
3594.000000	63.567392
3593.000000	63.216342
3592.000000	62.907361
3591.000000	62.698542
3590.000000	62.578952
3589.000000	62.472885
3588.000000	62.275651
3587.000000	61.940836
3586.000000	61.561910
3585.000000	61.278659
3584.000000	61.118797
3583.000000	61.012520
3582.000000	60.892337
3581.000000	60.739387
3580.000000	60.563967
3579.000000	60.381163
3578.000000	60.200001
3577.000000	60.028037
3576.000000	59.869817
3575.000000	59.714666
3574.000000	59.548111
3573.000000	59.365199
3572.000000	59.183640
3571.000000	59.042028
3570.000000	58.971906
3569.000000	58.959798
3568.000000	58.938073
3567.000000	58.834306
3566.000000	58.663212
3565.000000	58.528617
3564.000000	58.497578
3563.000000	58.541403
3562.000000	58.599834
3561.000000	58.640220
3560.000000	58.660921
3559.000000	58.670299
3558.000000	58.675516
3557.000000	58.683463
3556.000000	58.706790
3555.000000	58.753145
3554.000000	58.809599
3553.000000	58.845432
3552.000000	58.840367
3551.000000	58.814629
3550.000000	58.812432
3549.000000	58.853628
3548.000000	58.917993
3547.000000	58.971323
3546.000000	58.994637
3545.000000	58.997578
3544.000000	59.004868
3543.000000	59.029244
3542.000000	59.064807
3541.000000	59.099445
3540.000000	59.129542
3539.000000	59.156166
3538.000000	59.175492
3537.000000	59.179807
3536.000000	59.163561
3535.000000	59.133073
3534.000000	59.101236
3533.000000	59.075797
3532.000000	59.053168
3531.000000	59.024362
3530.000000	58.980604
3529.000000	58.913145
3528.000000	58.818065
3527.000000	58.706766
3526.000000	58.602365
3525.000000	58.516038
3524.000000	58.433331
3523.000000	58.329693
3522.000000	58.200621
3521.000000	58.064165
3520.000000	57.931822
3519.000000	57.790852
3518.000000	57.622553
3517.000000	57.428242
3516.000000	57.220533
3515.000000	57.002349
3514.000000	56.770867
3513.000000	56.532345
3512.000000	56.294789
3511.000000	56.050145
3510.000000	55.777819
3509.000000	55.470388
3508.000000	55.147805
3507.000000	54.838059
3506.000000	54.548289
3505.000000	54.262343
3504.000000	53.960049
3503.000000	53.635053
3502.000000	53.300465
3501.000000	52.979453
3500.000000	52.686651
3499.000000	52.417669
3498.000000	52.157832
3497.000000	51.897746
3496.000000	51.638871
3495.000000	51.387554
3494.000000	51.150461
3493.000000	50.934456
3492.000000	50.743003
3491.000000	50.574225
3490.000000	50.424617
3489.000000	50.292031
3488.000000	50.175747
3487.000000	50.077677
3486.000000	50.005535
3485.000000	49.968652
3484.000000	49.964643
3483.000000	49.976951
3482.000000	49.991528
3481.000000	50.013393
3480.000000	50.060370
3479.000000	50.142624
3478.000000	50.255147
3477.000000	50.386196
3476.000000	50.525850
3475.000000	50.667443
3474.000000	50.808800
3473.000000	50.953293
3472.000000	51.104229
3471.000000	51.260586
3470.000000	51.422836
3469.000000	51.595775
3468.000000	51.780495
3467.000000	51.969856
3466.000000	52.157960
3465.000000	52.347455
3464.000000	52.540350
3463.000000	52.729489
3462.000000	52.907733
3461.000000	53.080245
3460.000000	53.258772
3459.000000	53.446094
3458.000000	53.635467
3457.000000	53.821580
3456.000000	54.004153
3455.000000	54.185351
3454.000000	54.365365
3453.000000	54.541647
3452.000000	54.712388
3451.000000	54.882598
3450.000000	55.063183
3449.000000	55.256657
3448.000000	55.448048
3447.000000	55.619631
3446.000000	55.776318
3445.000000	55.942529
3444.000000	56.130167
3443.000000	56.324088
3442.000000	56.504383
3441.000000	56.670325
3440.000000	56.834076
3439.000000	57.000686
3438.000000	57.166696
3437.000000	57.331678
3436.000000	57.499580
3435.000000	57.672185
3434.000000	57.845106
3433.000000	58.012471
3432.000000	58.172193
3431.000000	58.326411
3430.000000	58.479473
3429.000000	58.634512
3428.000000	58.791363
3427.000000	58.946496
3426.000000	59.097255
3425.000000	59.246086
3424.000000	59.398332
3423.000000	59.555459
3422.000000	59.712608
3421.000000	59.864247
3420.000000	60.010197
3419.000000	60.155594
3418.000000	60.305304
3417.000000	60.459319
3416.000000	60.613976
3415.000000	60.766546
3414.000000	60.918008
3413.000000	61.071334
3412.000000	61.227905
3411.000000	61.386723
3410.000000	61.546733
3409.000000	61.708155
3408.000000	61.871150
3407.000000	62.033515
3406.000000	62.192082
3405.000000	62.346181
3404.000000	62.497290
3403.000000	62.647433
3402.000000	62.800969
3401.000000	62.966575
3400.000000	63.149870
3399.000000	63.343351
3398.000000	63.530754
3397.000000	63.703452
3396.000000	63.867460
3395.000000	64.032345
3394.000000	64.200122
3393.000000	64.368214
3392.000000	64.537697
3391.000000	64.712794
3390.000000	64.894283
3389.000000	65.077838
3388.000000	65.258817
3387.000000	65.435443
3386.000000	65.607814
3385.000000	65.776910
3384.000000	65.944125
3383.000000	66.111075
3382.000000	66.279151
3381.000000	66.449613
3380.000000	66.622536
3379.000000	66.796269
3378.000000	66.970154
3377.000000	67.146195
3376.000000	67.325672
3375.000000	67.505085
3374.000000	67.679321
3373.000000	67.848057
3372.000000	68.016117
3371.000000	68.188797
3370.000000	68.370050
3369.000000	68.562957
3368.000000	68.767304
3367.000000	68.977821
3366.000000	69.188532
3365.000000	69.398275
3364.000000	69.609619
3363.000000	69.823837
3362.000000	70.040198
3361.000000	70.259413
3360.000000	70.483675
3359.000000	70.713345
3358.000000	70.946098
3357.000000	71.179104
3356.000000	71.410234
3355.000000	71.637951
3354.000000	71.863151
3353.000000	72.090639
3352.000000	72.325793
3351.000000	72.569239
3350.000000	72.816791
3349.000000	73.063116
3348.000000	73.304072
3347.000000	73.537410
3346.000000	73.763639
3345.000000	73.986578
3344.000000	74.209123
3343.000000	74.428280
3342.000000	74.637799
3341.000000	74.835278
3340.000000	75.023971
3339.000000	75.206561
3338.000000	75.379114
3337.000000	75.532576
3336.000000	75.657999
3335.000000	75.750437
3334.000000	75.809086
3333.000000	75.832767
3332.000000	75.817093
3331.000000	75.754456
3330.000000	75.637406
3329.000000	75.461801
3328.000000	75.224264
3327.000000	74.921154
3326.000000	74.548322
3325.000000	74.100934
3324.000000	73.573929
3323.000000	72.958761
3322.000000	72.247190
3321.000000	71.432719
3320.000000	70.504559
3319.000000	69.446683
3318.000000	68.237664
3317.000000	66.858020
3316.000000	65.289695
3315.000000	63.509818
3314.000000	61.500186
3313.000000	59.255720
3312.000000	56.789666
3311.000000	54.131089
3310.000000	51.318664
3309.000000	48.405936
3308.000000	45.457492
3307.000000	42.537936
3306.000000	39.706019
3305.000000	37.011204
3304.000000	34.490688
3303.000000	32.170115
3302.000000	30.068768
3301.000000	28.203351
3300.000000	26.587636
3299.000000	25.224987
3298.000000	24.114040
3297.000000	23.253758
3296.000000	22.629762
3295.000000	22.208385
3294.000000	21.937048
3293.000000	21.756585
3292.000000	21.612416
3291.000000	21.456507
3290.000000	21.260530
3289.000000	21.020889
3288.000000	20.752571
3287.000000	20.478834
3286.000000	20.222339
3285.000000	20.000067
3284.000000	19.814934
3283.000000	19.653866
3282.000000	19.497665
3281.000000	19.331076
3280.000000	19.142620
3279.000000	18.922770
3278.000000	18.669853
3277.000000	18.394786
3276.000000	18.114726
3275.000000	17.844950
3274.000000	17.600416
3273.000000	17.400144
3272.000000	17.264200
3271.000000	17.206469
3270.000000	17.236137
3269.000000	17.360865
3268.000000	17.583557
3267.000000	17.901568
3266.000000	18.307114
3265.000000	18.787774
3264.000000	19.320521
3263.000000	19.867443
3262.000000	20.383392
3261.000000	20.823584
3260.000000	21.142932
3259.000000	21.297969
3258.000000	21.259441
3257.000000	21.016247
3256.000000	20.572804
3255.000000	19.940702
3254.000000	19.138050
3253.000000	18.195855
3252.000000	17.146813
3251.000000	16.021454
3250.000000	14.853381
3249.000000	13.684039
3248.000000	12.559126
3247.000000	11.518315
3246.000000	10.594898
3245.000000	9.819528
3244.000000	9.217802
3243.000000	8.801221
3242.000000	8.567685
3241.000000	8.497732
3240.000000	8.548125
3239.000000	8.660296
3238.000000	8.777410
3237.000000	8.862530
3236.000000	8.899752
3235.000000	8.888342
3234.000000	8.841071
3233.000000	8.776415
3232.000000	8.705886
3231.000000	8.630121
3230.000000	8.550400
3229.000000	8.478192
3228.000000	8.429896
3227.000000	8.419987
3226.000000	8.462955
3225.000000	8.574574
3224.000000	8.765416
3223.000000	9.034409
3222.000000	9.373878
3221.000000	9.774054
3220.000000	10.217294
3219.000000	10.676001
3218.000000	11.120855
3217.000000	11.529218
3216.000000	11.883817
3215.000000	12.172016
3214.000000	12.392699
3213.000000	12.559557
3212.000000	12.691883
3211.000000	12.805937
3210.000000	12.918050
3209.000000	13.047380
3208.000000	13.210238
3207.000000	13.414961
3206.000000	13.666165
3205.000000	13.968148
3204.000000	14.321035
3203.000000	14.718057
3202.000000	15.151305
3201.000000	15.616386
3200.000000	16.106716
3199.000000	16.610844
3198.000000	17.118310
3197.000000	17.623978
3196.000000	18.123427
3195.000000	18.608490
3194.000000	19.071118
3193.000000	19.506656
3192.000000	19.910354
3191.000000	20.274676
3190.000000	20.595146
3189.000000	20.873226
3188.000000	21.111120
3187.000000	21.309065
3186.000000	21.469643
3185.000000	21.601398
3184.000000	21.712614
3183.000000	21.807047
3182.000000	21.888451
3181.000000	21.962431
3180.000000	22.032183
3179.000000	22.096758
3178.000000	22.158191
3177.000000	22.225986
3176.000000	22.311112
3175.000000	22.420010
3174.000000	22.557140
3173.000000	22.728250
3172.000000	22.936540
3171.000000	23.182063
3170.000000	23.466337
3169.000000	23.793808
3168.000000	24.166416
3167.000000	24.579331
3166.000000	25.027379
3165.000000	25.508226
3164.000000	26.017765
3163.000000	26.548580
3162.000000	27.094060
3161.000000	27.649646
3160.000000	28.205369
3159.000000	28.742515
3158.000000	29.238579
3157.000000	29.671582
3156.000000	30.015926
3155.000000	30.241388
3154.000000	30.321171
3153.000000	30.237887
3152.000000	29.990017
3151.000000	29.597021
3150.000000	29.104249
3149.000000	28.575463
3148.000000	28.067214
3147.000000	27.610287
3146.000000	27.206350
3145.000000	26.833173
3144.000000	26.451788
3143.000000	26.017214
3142.000000	25.496761
3141.000000	24.880067
3140.000000	24.174093
3139.000000	23.397076
3138.000000	22.577850
3137.000000	21.754197
3136.000000	20.962450
3135.000000	20.230524
3134.000000	19.581810
3133.000000	19.039096
3132.000000	18.618592
3131.000000	18.325943
3130.000000	18.162733
3129.000000	18.127095
3128.000000	18.211123
3127.000000	18.400238
3126.000000	18.680693
3125.000000	19.044275
3124.000000	19.478657
3123.000000	19.966957
3122.000000	20.495415
3121.000000	21.056545
3120.000000	21.643254
3119.000000	22.243303
3118.000000	22.846154
3117.000000	23.446315
3116.000000	24.037152
3115.000000	24.607292
3114.000000	25.146426
3113.000000	25.648794
3112.000000	26.108121
3111.000000	26.516714
3110.000000	26.870029
3109.000000	27.168509
3108.000000	27.410185
3107.000000	27.588798
3106.000000	27.702969
3105.000000	27.758457
3104.000000	27.763520
3103.000000	27.725959
3102.000000	27.658732
3101.000000	27.583445
3100.000000	27.523788
3099.000000	27.500009
3098.000000	27.529712
3097.000000	27.627832
3096.000000	27.800061
3095.000000	28.042357
3094.000000	28.347498
3093.000000	28.708432
3092.000000	29.114689
3091.000000	29.550362
3090.000000	30.001042
3089.000000	30.456524
3088.000000	30.906684
3087.000000	31.341363
3086.000000	31.756113
3085.000000	32.153205
3084.000000	32.534287
3083.000000	32.897214
3082.000000	33.241682
3081.000000	33.572876
3080.000000	33.896529
3079.000000	34.215452
3078.000000	34.532961
3077.000000	34.853693
3076.000000	35.178658
3075.000000	35.504222
3074.000000	35.828102
3073.000000	36.151699
3072.000000	36.475214
3071.000000	36.795706
3070.000000	37.112252
3069.000000	37.428213
3068.000000	37.746040
3067.000000	38.063670
3066.000000	38.377907
3065.000000	38.687648
3064.000000	38.992108
3063.000000	39.289519
3062.000000	39.579082
3061.000000	39.861520
3060.000000	40.136579
3059.000000	40.403082
3058.000000	40.662144
3057.000000	40.916515
3056.000000	41.166155
3055.000000	41.408427
3054.000000	41.643149
3053.000000	41.873550
3052.000000	42.101115
3051.000000	42.323192
3050.000000	42.536694
3049.000000	42.740758
3048.000000	42.935250
3047.000000	43.120137
3046.000000	43.297722
3045.000000	43.472093
3044.000000	43.645211
3043.000000	43.816488
3042.000000	43.986634
3041.000000	44.157971
3040.000000	44.330169
3039.000000	44.499973
3038.000000	44.666080
3037.000000	44.831072
3036.000000	44.997817
3035.000000	45.167329
3034.000000	45.340765
3033.000000	45.519030
3032.000000	45.699210
3031.000000	45.876236
3030.000000	46.049581
3029.000000	46.223834
3028.000000	46.401502
3027.000000	46.580189
3026.000000	46.758169
3025.000000	46.937421
3024.000000	47.119114
3023.000000	47.300709
3022.000000	47.479891
3021.000000	47.657635
3020.000000	47.835520
3019.000000	48.012811
3018.000000	48.187827
3017.000000	48.359530
3016.000000	48.526281
3015.000000	48.685763
3014.000000	48.837084
3013.000000	48.980588
3012.000000	49.114610
3011.000000	49.234283
3010.000000	49.334844
3009.000000	49.412438
3008.000000	49.460910
3007.000000	49.470597
3006.000000	49.429654
3005.000000	49.325851
3004.000000	49.144689
3003.000000	48.871016
3002.000000	48.496936
3001.000000	48.029169
3000.000000	47.491353
2999.000000	46.915493
2998.000000	46.331871
2997.000000	45.766482
2996.000000	45.252195
2995.000000	44.841423
2994.000000	44.595408
2993.000000	44.549282
2992.000000	44.681446
2991.000000	44.923534
2990.000000	45.198831
2989.000000	45.452670
2988.000000	45.656962
2987.000000	45.801762
2986.000000	45.890334
2985.000000	45.933055
2984.000000	45.940841
2983.000000	45.925661
2982.000000	45.907762
2981.000000	45.915675
2980.000000	45.973351
2979.000000	46.087526
2978.000000	46.248910
2977.000000	46.443524
2976.000000	46.665198
2975.000000	46.921592
2974.000000	47.228143
2973.000000	47.590232
2972.000000	47.988012
2971.000000	48.380817
2970.000000	48.724359
2969.000000	48.983914
2968.000000	49.133834
2967.000000	49.155990
2966.000000	49.040860
2965.000000	48.784289
2964.000000	48.380999
2963.000000	47.820576
2962.000000	47.097170
2961.000000	46.221200
2960.000000	45.225899
2959.000000	44.163332
2958.000000	43.090371
2957.000000	42.056794
2956.000000	41.106090
2955.000000	40.293023
2954.000000	39.684302
2953.000000	39.324725
2952.000000	39.195369
2951.000000	39.216650
2950.000000	39.301444
2949.000000	39.402975
2948.000000	39.524069
2947.000000	39.693176
2946.000000	39.935842
2945.000000	40.250783
2944.000000	40.600188
2943.000000	40.929610
2942.000000	41.205227
2941.000000	41.438267
2940.000000	41.677883
2939.000000	41.986092
2938.000000	42.414680
2937.000000	42.988154
2936.000000	43.695462
2935.000000	44.498324
2934.000000	45.350500
2933.000000	46.210960
2932.000000	47.045271
2931.000000	47.827772
2930.000000	48.546493
2929.000000	49.200845
2928.000000	49.792849
2927.000000	50.323861
2926.000000	50.800001
2925.000000	51.231873
2924.000000	51.626772
2923.000000	51.985452
2922.000000	52.307729
2921.000000	52.595647
2920.000000	52.849506
2919.000000	53.067681
2918.000000	53.251310
2917.000000	53.405008
2916.000000	53.532160
2915.000000	53.634057
2914.000000	53.714800
2913.000000	53.781131
2912.000000	53.837083
2911.000000	53.883507
2910.000000	53.922851
2909.000000	53.960250
2908.000000	53.998339
2907.000000	54.036215
2906.000000	54.074453
2905.000000	54.115867
2904.000000	54.160505
2903.000000	54.204730
2902.000000	54.246329
2901.000000	54.285725
2900.000000	54.321357
2899.000000	54.348397
2898.000000	54.363219
2897.000000	54.363958
2896.000000	54.346213
2895.000000	54.303275
2894.000000	54.231942
2893.000000	54.133833
2892.000000	54.009666
2891.000000	53.857309
2890.000000	53.676676
2889.000000	53.472383
2888.000000	53.250434
2887.000000	53.017227
2886.000000	52.783119
2885.000000	52.561733
2884.000000	52.364072
2883.000000	52.196111
2882.000000	52.063020
2881.000000	51.970748
2880.000000	51.921515
2879.000000	51.912532
2878.000000	51.940182
2877.000000	52.001687
2876.000000	52.092215
2875.000000	52.205292
2874.000000	52.336969
2873.000000	52.485085
2872.000000	52.643722
2871.000000	52.803586
2870.000000	52.960145
2869.000000	53.117274
2868.000000	53.282390
2867.000000	53.461776
2866.000000	53.660155
2865.000000	53.878663
2864.000000	54.110852
2863.000000	54.345310
2862.000000	54.573814
2861.000000	54.793818
2860.000000	55.003904
2859.000000	55.202477
2858.000000	55.391976
2857.000000	55.579033
2856.000000	55.768632
2855.000000	55.962015
2854.000000	56.160054
2853.000000	56.362955
2852.000000	56.565326
2851.000000	56.756590
2850.000000	56.928361
2849.000000	57.078177
2848.000000	57.206446
2847.000000	57.315181
2846.000000	57.410809
2845.000000	57.502931
2844.000000	57.598114
2843.000000	57.697920
2842.000000	57.803616
2841.000000	57.918934
2840.000000	58.046737
2839.000000	58.186694
2838.000000	58.337291
2837.000000	58.496805
2836.000000	58.661643
2835.000000	58.827155
2834.000000	58.990786
2833.000000	59.151765
2832.000000	59.307988
2831.000000	59.456691
2830.000000	59.598334
2829.000000	59.736130
2828.000000	59.871228
2827.000000	60.001898
2826.000000	60.127370
2825.000000	60.248634
2824.000000	60.365170
2823.000000	60.474550
2822.000000	60.575965
2821.000000	60.670838
2820.000000	60.759565
2819.000000	60.841180
2818.000000	60.916537
2817.000000	60.988312
2816.000000	61.057408
2815.000000	61.122617
2814.000000	61.184301
2813.000000	61.245128
2812.000000	61.306752
2811.000000	61.369043
2810.000000	61.432774
2809.000000	61.499612
2808.000000	61.569160
2807.000000	61.639328
2806.000000	61.709956
2805.000000	61.782796
2804.000000	61.857628
2803.000000	61.931813
2802.000000	62.004102
2801.000000	62.075592
2800.000000	62.146656
2799.000000	62.216177
2798.000000	62.284066
2797.000000	62.351329
2796.000000	62.417265
2795.000000	62.479708
2794.000000	62.538292
2793.000000	62.594527
2792.000000	62.648685
2791.000000	62.699838
2790.000000	62.748818
2789.000000	62.797647
2788.000000	62.845896
2787.000000	62.891049
2786.000000	62.932865
2785.000000	62.974285
2784.000000	63.017837
2783.000000	63.064450
2782.000000	63.115729
2781.000000	63.173675
2780.000000	63.237579
2779.000000	63.304338
2778.000000	63.372108
2777.000000	63.440622
2776.000000	63.507846
2775.000000	63.569769
2774.000000	63.624222
2773.000000	63.672028
2772.000000	63.714163
2771.000000	63.750907
2770.000000	63.783925
2769.000000	63.815917
2768.000000	63.847761
2767.000000	63.878450
2766.000000	63.907899
2765.000000	63.936903
2764.000000	63.964401
2763.000000	63.988154
2762.000000	64.008388
2761.000000	64.027860
2760.000000	64.048149
2759.000000	64.068652
2758.000000	64.089050
2757.000000	64.109383
2756.000000	64.127483
2755.000000	64.139387
2754.000000	64.142714
2753.000000	64.137412
2752.000000	64.123455
2751.000000	64.101079
2750.000000	64.073451
2749.000000	64.045972
2748.000000	64.022774
2747.000000	64.006531
2746.000000	64.001133
2745.000000	64.011110
2744.000000	64.038099
2743.000000	64.080260
2742.000000	64.135116
2741.000000	64.200119
2740.000000	64.270776
2739.000000	64.342122
2738.000000	64.412130
2737.000000	64.481097
2736.000000	64.548361
2735.000000	64.612581
2734.000000	64.674884
2733.000000	64.738068
2732.000000	64.802395
2731.000000	64.865291
2730.000000	64.925128
2729.000000	64.982015
2728.000000	65.034843
2727.000000	65.080635
2726.000000	65.117270
2725.000000	65.144692
2724.000000	65.163447
2723.000000	65.174945
2722.000000	65.182978
2721.000000	65.192045
2720.000000	65.204259
2719.000000	65.219964
2718.000000	65.240561
2717.000000	65.267879
2716.000000	65.301372
2715.000000	65.338978
2714.000000	65.380389
2713.000000	65.426413
2712.000000	65.475529
2711.000000	65.524280
2710.000000	65.570603
2709.000000	65.613922
2708.000000	65.652687
2707.000000	65.685015
2706.000000	65.711485
2705.000000	65.734485
2704.000000	65.755359
2703.000000	65.775084
2702.000000	65.796963
2701.000000	65.825031
2700.000000	65.859958
2699.000000	65.899356
2698.000000	65.941306
2697.000000	65.984418
2696.000000	66.025275
2695.000000	66.059721
2694.000000	66.086730
2693.000000	66.108189
2692.000000	66.125365
2691.000000	66.138518
2690.000000	66.149383
2689.000000	66.160542
2688.000000	66.172504
2687.000000	66.184454
2686.000000	66.197118
2685.000000	66.211706
2684.000000	66.226726
2683.000000	66.239331
2682.000000	66.249473
2681.000000	66.259354
2680.000000	66.269339
2679.000000	66.277990
2678.000000	66.285948
2677.000000	66.296187
2676.000000	66.310598
2675.000000	66.329511
2674.000000	66.354314
2673.000000	66.387277
2672.000000	66.428489
2671.000000	66.476120
2670.000000	66.529398
2669.000000	66.588236
2668.000000	66.650782
2667.000000	66.714396
2666.000000	66.778957
2665.000000	66.846129
2664.000000	66.915615
2663.000000	66.985457
2662.000000	67.055293
2661.000000	67.125956
2660.000000	67.196188
2659.000000	67.262952
2658.000000	67.324752
2657.000000	67.381831
2656.000000	67.433580
2655.000000	67.478869
2654.000000	67.518726
2653.000000	67.555174
2652.000000	67.587971
2651.000000	67.615235
2650.000000	67.636660
2649.000000	67.653424
2648.000000	67.665439
2647.000000	67.672183
2646.000000	67.675977
2645.000000	67.681086
2644.000000	67.689973
2643.000000	67.703237
2642.000000	67.722355
2641.000000	67.749197
2640.000000	67.783327
2639.000000	67.822871
2638.000000	67.867767
2637.000000	67.918810
2636.000000	67.973970
2635.000000	68.029326
2634.000000	68.083195
2633.000000	68.136415
2632.000000	68.189050
2631.000000	68.240105
2630.000000	68.290430
2629.000000	68.342508
2628.000000	68.397422
2627.000000	68.454672
2626.000000	68.514398
2625.000000	68.576633
2624.000000	68.638771
2623.000000	68.696744
2622.000000	68.748438
2621.000000	68.793405
2620.000000	68.829872
2619.000000	68.855561
2618.000000	68.870991
2617.000000	68.878866
2616.000000	68.880882
2615.000000	68.877603
2614.000000	68.871098
2613.000000	68.864414
2612.000000	68.858419
2611.000000	68.852339
2610.000000	68.846648
2609.000000	68.842541
2608.000000	68.839076
2607.000000	68.834005
2606.000000	68.827309
2605.000000	68.821058
2604.000000	68.816225
2603.000000	68.812621
2602.000000	68.811552
2601.000000	68.815133
2600.000000	68.823141
2599.000000	68.833288
2598.000000	68.844200
2597.000000	68.855251
2596.000000	68.863985
2595.000000	68.867035
2594.000000	68.863729
2593.000000	68.856215
2592.000000	68.846197
2591.000000	68.834230
2590.000000	68.821574
2589.000000	68.809862
2588.000000	68.799209
2587.000000	68.789157
2586.000000	68.781039
2585.000000	68.776894
2584.000000	68.776750
2583.000000	68.779490
2582.000000	68.785778
2581.000000	68.797329
2580.000000	68.814379
2579.000000	68.836782
2578.000000	68.866166
2577.000000	68.904243
2576.000000	68.949501
2575.000000	68.998583
2574.000000	69.050152
2573.000000	69.104097
2572.000000	69.158588
2571.000000	69.211204
2570.000000	69.262187
2569.000000	69.313458
2568.000000	69.365014
2567.000000	69.415660
2566.000000	69.466440
2565.000000	69.520019
2564.000000	69.577363
2563.000000	69.637935
2562.000000	69.702415
2561.000000	69.771925
2560.000000	69.845163
2559.000000	69.919528
2558.000000	69.994253
2557.000000	70.069671
2556.000000	70.144408
2555.000000	70.216437
2554.000000	70.286051
2553.000000	70.354545
2552.000000	70.420758
2551.000000	70.482135
2550.000000	70.538592
2549.000000	70.591901
2548.000000	70.642140
2547.000000	70.687720
2546.000000	70.728266
2545.000000	70.764767
2544.000000	70.797370
2543.000000	70.826358
2542.000000	70.854498
2541.000000	70.885178
2540.000000	70.918804
2539.000000	70.953624
2538.000000	70.989262
2537.000000	71.026428
2536.000000	71.063906
2535.000000	71.099203
2534.000000	71.131622
2533.000000	71.161999
2532.000000	71.190229
2531.000000	71.216015
2530.000000	71.241297
2529.000000	71.268620
2528.000000	71.297580
2527.000000	71.325591
2526.000000	71.351158
2525.000000	71.373635
2524.000000	71.390554
2523.000000	71.398652
2522.000000	71.397372
2521.000000	71.388220
2520.000000	71.371851
2519.000000	71.348183
2518.000000	71.318510
2517.000000	71.284565
2516.000000	71.245399
2515.000000	71.198789
2514.000000	71.144896
2513.000000	71.086029
2512.000000	71.024089
2511.000000	70.961007
2510.000000	70.901036
2509.000000	70.848920
2508.000000	70.805918
2507.000000	70.770250
2506.000000	70.740837
2505.000000	70.717330
2504.000000	70.697443
2503.000000	70.678029
2502.000000	70.658411
2501.000000	70.640302
2500.000000	70.624818
2499.000000	70.612605
2498.000000	70.606569
2497.000000	70.610618
2496.000000	70.626508
2495.000000	70.654039
2494.000000	70.693317
2493.000000	70.744116
2492.000000	70.803115
2491.000000	70.865634
2490.000000	70.929290
2489.000000	70.993468
2488.000000	71.056981
2487.000000	71.119129
2486.000000	71.182361
2485.000000	71.250250
2484.000000	71.323158
2483.000000	71.398946
2482.000000	71.476656
2481.000000	71.556355
2480.000000	71.636431
2479.000000	71.714507
2478.000000	71.790452
2477.000000	71.865160
2476.000000	71.937011
2475.000000	72.002631
2474.000000	72.060880
2473.000000	72.112855
2472.000000	72.158958
2471.000000	72.198746
2470.000000	72.232873
2469.000000	72.262583
2468.000000	72.287327
2467.000000	72.306020
2466.000000	72.319735
2465.000000	72.330208
2464.000000	72.336909
2463.000000	72.337884
2462.000000	72.332926
2461.000000	72.323081
2460.000000	72.307995
2459.000000	72.287414
2458.000000	72.264135
2457.000000	72.242529
2456.000000	72.224557
2455.000000	72.210039
2454.000000	72.199886
2453.000000	72.195728
2452.000000	72.197093
2451.000000	72.202153
2450.000000	72.211199
2449.000000	72.226048
2448.000000	72.247020
2447.000000	72.273323
2446.000000	72.305525
2445.000000	72.344856
2444.000000	72.390080
2443.000000	72.438326
2442.000000	72.488278
2441.000000	72.539630
2440.000000	72.590599
2439.000000	72.638935
2438.000000	72.685046
2437.000000	72.731194
2436.000000	72.778153
2435.000000	72.825421
2434.000000	72.873664
2433.000000	72.923871
2432.000000	72.974597
2431.000000	73.023008
2430.000000	73.067875
2429.000000	73.108942
2428.000000	73.144333
2427.000000	73.171523
2426.000000	73.190604
2425.000000	73.203570
2424.000000	73.211474
2423.000000	73.214898
2422.000000	73.215909
2421.000000	73.216775
2420.000000	73.217158
2419.000000	73.215802
2418.000000	73.214118
2417.000000	73.215135
2416.000000	73.219855
2415.000000	73.227663
2414.000000	73.239291
2413.000000	73.255721
2412.000000	73.274683
2411.000000	73.291539
2410.000000	73.303391
2409.000000	73.309493
2408.000000	73.308659
2407.000000	73.299591
2406.000000	73.283706
2405.000000	73.264221
2404.000000	73.242482
2403.000000	73.218205
2402.000000	73.192225
2401.000000	73.165825
2400.000000	73.137072
2399.000000	73.100435
2398.000000	73.050518
2397.000000	72.982693
2396.000000	72.891474
2395.000000	72.772278
2394.000000	72.624789
2393.000000	72.453245
2392.000000	72.262708
2391.000000	72.058666
2390.000000	71.849239
2389.000000	71.643105
2388.000000	71.446086
2387.000000	71.261144
2386.000000	71.093047
2385.000000	70.949543
2384.000000	70.836792
2383.000000	70.759258
2382.000000	70.721202
2381.000000	70.725709
2380.000000	70.768756
2379.000000	70.835876
2378.000000	70.913176
2377.000000	70.990253
2376.000000	71.057401
2375.000000	71.103363
2374.000000	71.120268
2373.000000	71.115526
2372.000000	71.101547
2371.000000	71.081724
2370.000000	71.056534
2369.000000	71.042509
2368.000000	71.049872
2367.000000	71.059040
2366.000000	71.063824
2365.000000	71.087577
2364.000000	71.119317
2363.000000	71.144060
2362.000000	71.159977
2361.000000	71.167437
2360.000000	71.198492
2359.000000	71.233039
2358.000000	71.243532
2357.000000	71.219121
2356.000000	71.119201
2355.000000	70.942324
2354.000000	70.756419
2353.000000	70.788321
2352.000000	71.146327
2351.000000	71.650489
2350.000000	72.034150
2349.000000	72.128523
2348.000000	72.043122
2347.000000	71.939403
2346.000000	71.897544
2345.000000	71.906668
2344.000000	71.870927
2343.000000	71.832573
2342.000000	71.803305
2341.000000	71.805256
2340.000000	71.822078
2339.000000	71.842077
2338.000000	71.883962
2337.000000	71.959828
2336.000000	72.071009
2335.000000	72.180055
2334.000000	72.260826
2333.000000	72.307297
2332.000000	72.356712
2331.000000	72.388539
2330.000000	72.477753
2329.000000	72.568186
2328.000000	72.674074
2327.000000	72.717114
2326.000000	72.708897
2325.000000	72.673911
2324.000000	72.614955
2323.000000	72.546797
2322.000000	72.448905
2321.000000	72.344977
2320.000000	72.245228
2319.000000	72.150090
2318.000000	72.055722
2317.000000	71.926049
2316.000000	71.769411
2315.000000	71.566820
2314.000000	71.360226
2313.000000	71.135467
2312.000000	70.923426
2311.000000	70.698368
2310.000000	70.486127
2309.000000	70.268066
2308.000000	70.063764
2307.000000	69.858784
2306.000000	69.669866
2305.000000	69.487199
2304.000000	69.319770
2303.000000	69.157839
2302.000000	69.018688
2301.000000	68.896292
2300.000000	68.800877
2299.000000	68.717871
2298.000000	68.656718
2297.000000	68.603649
2296.000000	68.560969
2295.000000	68.514955
2294.000000	68.471208
2293.000000	68.426945
2292.000000	68.384670
2291.000000	68.342149
2290.000000	68.301722
2289.000000	68.264291
2288.000000	68.226271
2287.000000	68.186319
2286.000000	68.144046
2285.000000	68.100925
2284.000000	68.052600
2283.000000	68.001343
2282.000000	67.955092
2281.000000	67.926381
2280.000000	67.920625
2279.000000	67.941361
2278.000000	67.990967
2277.000000	68.068626
2276.000000	68.169254
2275.000000	68.286846
2274.000000	68.422117
2273.000000	68.574939
2272.000000	68.741562
2271.000000	68.915658
2270.000000	69.094959
2269.000000	69.278190
2268.000000	69.461995
2267.000000	69.642738
2266.000000	69.821680
2265.000000	69.999068
2264.000000	70.172410
2263.000000	70.338357
2262.000000	70.496888
2261.000000	70.650820
2260.000000	70.799665
2259.000000	70.946279
2258.000000	71.095676
2257.000000	71.253397
2256.000000	71.419861
2255.000000	71.594465
2254.000000	71.779857
2253.000000	71.976612
2252.000000	72.182181
2251.000000	72.391752
2250.000000	72.604832
2249.000000	72.819665
2248.000000	73.032816
2247.000000	73.240735
2246.000000	73.443751
2245.000000	73.641537
2244.000000	73.830576
2243.000000	74.007924
2242.000000	74.174399
2241.000000	74.331322
2240.000000	74.477156
2239.000000	74.611003
2238.000000	74.734778
2237.000000	74.849374
2236.000000	74.951805
2235.000000	75.039561
2234.000000	75.113980
2233.000000	75.177179
2232.000000	75.228724
2231.000000	75.269050
2230.000000	75.302086
2229.000000	75.331671
2228.000000	75.358365
2227.000000	75.381823
2226.000000	75.403273
2225.000000	75.422244
2224.000000	75.435121
2223.000000	75.439436
2222.000000	75.437019
2221.000000	75.430384
2220.000000	75.419928
2219.000000	75.407121
2218.000000	75.396749
2217.000000	75.392760
2216.000000	75.395125
2215.000000	75.403166
2214.000000	75.418384
2213.000000	75.441187
2212.000000	75.468500
2211.000000	75.497577
2210.000000	75.529025
2209.000000	75.563768
2208.000000	75.600618
2207.000000	75.639172
2206.000000	75.680736
2205.000000	75.723580
2204.000000	75.761176
2203.000000	75.788478
2202.000000	75.807046
2201.000000	75.822393
2200.000000	75.840608
2199.000000	75.870036
2198.000000	75.920597
2197.000000	75.996947
2196.000000	76.094682
2195.000000	76.205565
2194.000000	76.322699
2193.000000	76.438686
2192.000000	76.544712
2191.000000	76.635668
2190.000000	76.713040
2189.000000	76.779683
2188.000000	76.835384
2187.000000	76.880076
2186.000000	76.916706
2185.000000	76.947812
2184.000000	76.972850
2183.000000	76.991948
2182.000000	77.008232
2181.000000	77.023501
2180.000000	77.035458
2179.000000	77.041998
2178.000000	77.044668
2177.000000	77.045084
2176.000000	77.042030
2175.000000	77.034963
2174.000000	77.026696
2173.000000	77.019968
2172.000000	77.015090
2171.000000	77.013444
2170.000000	77.018993
2169.000000	77.033551
2168.000000	77.054195
2167.000000	77.077943
2166.000000	77.104816
2165.000000	77.133871
2164.000000	77.160999
2163.000000	77.183895
2162.000000	77.205160
2161.000000	77.227733
2160.000000	77.251513
2159.000000	77.276944
2158.000000	77.307071
2157.000000	77.342758
2156.000000	77.380186
2155.000000	77.416019
2154.000000	77.450998
2153.000000	77.485904
2152.000000	77.518859
2151.000000	77.549629
2150.000000	77.582056
2149.000000	77.618902
2148.000000	77.658335
2147.000000	77.698429
2146.000000	77.740303
2145.000000	77.783733
2144.000000	77.824648
2143.000000	77.860144
2142.000000	77.891434
2141.000000	77.919776
2140.000000	77.943818
2139.000000	77.963699
2138.000000	77.982962
2137.000000	78.003667
2136.000000	78.024170
2135.000000	78.044379
2134.000000	78.068153
2133.000000	78.097414
2132.000000	78.128550
2131.000000	78.157405
2130.000000	78.183087
2129.000000	78.203885
2128.000000	78.214584
2127.000000	78.211630
2126.000000	78.196852
2125.000000	78.172777
2124.000000	78.138853
2123.000000	78.095274
2122.000000	78.045731
2121.000000	77.993217
2120.000000	77.937494
2119.000000	77.879298
2118.000000	77.822799
2117.000000	77.770836
2116.000000	77.721787
2115.000000	77.673952
2114.000000	77.628522
2113.000000	77.585778
2112.000000	77.543292
2111.000000	77.501020
2110.000000	77.463776
2109.000000	77.435679
2108.000000	77.416235
2107.000000	77.404424
2106.000000	77.401651
2105.000000	77.407832
2104.000000	77.419220
2103.000000	77.433103
2102.000000	77.450587
2101.000000	77.471575
2100.000000	77.492835
2099.000000	77.513273
2098.000000	77.536893
2097.000000	77.567735
2096.000000	77.605733
2095.000000	77.651308
2094.000000	77.707172
2093.000000	77.772304
2092.000000	77.840406
2091.000000	77.907991
2090.000000	77.978789
2089.000000	78.057522
2088.000000	78.144826
2087.000000	78.241500
2086.000000	78.350743
2085.000000	78.472156
2084.000000	78.599487
2083.000000	78.726868
2082.000000	78.852075
2081.000000	78.971548
2080.000000	79.079565
2079.000000	79.175305
2078.000000	79.264663
2077.000000	79.352078
2076.000000	79.436056
2075.000000	79.517014
2074.000000	79.599680
2073.000000	79.685695
2072.000000	79.770801
2071.000000	79.850566
2070.000000	79.925841
2069.000000	79.997792
2068.000000	80.063585
2067.000000	80.120660
2066.000000	80.170719
2065.000000	80.216980
2064.000000	80.261786
2063.000000	80.308636
2062.000000	80.361130
2061.000000	80.417886
2060.000000	80.473611
2059.000000	80.526961
2058.000000	80.581361
2057.000000	80.636964
2056.000000	80.688883
2055.000000	80.735340
2054.000000	80.779848
2053.000000	80.824293
2052.000000	80.867084
2051.000000	80.908380
2050.000000	80.952393
2049.000000	81.002025
2048.000000	81.055140
2047.000000	81.108750
2046.000000	81.163401
2045.000000	81.218675
2044.000000	81.269702
2043.000000	81.312713
2042.000000	81.349946
2041.000000	81.385210
2040.000000	81.419194
2039.000000	81.452773
2038.000000	81.489158
2037.000000	81.529357
2036.000000	81.570397
2035.000000	81.611510
2034.000000	81.656487
2033.000000	81.706487
2032.000000	81.757282
2031.000000	81.807550
2030.000000	81.861070
2029.000000	81.919078
2028.000000	81.975516
2027.000000	82.025063
2026.000000	82.069181
2025.000000	82.109483
2024.000000	82.143882
2023.000000	82.169246
2022.000000	82.188394
2021.000000	82.206130
2020.000000	82.222087
2019.000000	82.233223
2018.000000	82.240479
2017.000000	82.248040
2016.000000	82.258638
2015.000000	82.273906
2014.000000	82.294860
2013.000000	82.318220
2012.000000	82.336551
2011.000000	82.347034
2010.000000	82.354597
2009.000000	82.362971
2008.000000	82.368648
2007.000000	82.369611
2006.000000	82.371039
2005.000000	82.376471
2004.000000	82.384051
2003.000000	82.390821
2002.000000	82.401080
2001.000000	82.417273
2000.000000	82.435878
1999.000000	82.457379
1998.000000	82.483740
1997.000000	82.516187
1996.000000	82.554526
1995.000000	82.596579
1994.000000	82.634550
1993.000000	82.657769
1992.000000	82.663560
1991.000000	82.662324
1990.000000	82.665251
1989.000000	82.671893
1988.000000	82.675073
1987.000000	82.674219
1986.000000	82.677777
1985.000000	82.691260
1984.000000	82.712591
1983.000000	82.738867
1982.000000	82.772864
1981.000000	82.815442
1980.000000	82.863233
1979.000000	82.914498
1978.000000	82.965857
1977.000000	83.014827
1976.000000	83.062335
1975.000000	83.112575
1974.000000	83.166851
1973.000000	83.222977
1972.000000	83.280072
1971.000000	83.338328
1970.000000	83.393198
1969.000000	83.436015
1968.000000	83.462091
1967.000000	83.476023
1966.000000	83.487705
1965.000000	83.503827
1964.000000	83.523498
1963.000000	83.540135
1962.000000	83.548238
1961.000000	83.550534
1960.000000	83.557298
1959.000000	83.574328
1958.000000	83.595156
1957.000000	83.609320
1956.000000	83.613543
1955.000000	83.612608
1954.000000	83.608890
1953.000000	83.601446
1952.000000	83.589237
1951.000000	83.571796
1950.000000	83.553367
1949.000000	83.533479
1948.000000	83.507998
1947.000000	83.481079
1946.000000	83.462310
1945.000000	83.453450
1944.000000	83.445388
1943.000000	83.433986
1942.000000	83.432314
1941.000000	83.456969
1940.000000	83.511400
1939.000000	83.585962
1938.000000	83.666449
1937.000000	83.744856
1936.000000	83.823018
1935.000000	83.904562
1934.000000	83.984809
1933.000000	84.058078
1932.000000	84.122555
1931.000000	84.179304
1930.000000	84.235557
1929.000000	84.284662
1928.000000	84.320412
1927.000000	84.348543
1926.000000	84.379056
1925.000000	84.411778
1924.000000	84.423501
1923.000000	84.411681
1922.000000	84.405821
1921.000000	84.424985
1920.000000	84.455692
1919.000000	84.472811
1918.000000	84.474419
1917.000000	84.478985
1916.000000	84.489154
1915.000000	84.497620
1914.000000	84.499872
1913.000000	84.492119
1912.000000	84.469798
1911.000000	84.435974
1910.000000	84.402536
1909.000000	84.367314
1908.000000	84.326594
1907.000000	84.285240
1906.000000	84.252022
1905.000000	84.226046
1904.000000	84.183978
1903.000000	84.123845
1902.000000	84.067959
1901.000000	84.017399
1900.000000	83.958319
1899.000000	83.895759
1898.000000	83.851391
1897.000000	83.832138
1896.000000	83.815346
1895.000000	83.795068
1894.000000	83.798362
1893.000000	83.838094
1892.000000	83.890468
1891.000000	83.930008
1890.000000	83.957818
1889.000000	83.988561
1888.000000	84.026306
1887.000000	84.073227
1886.000000	84.134248
1885.000000	84.197946
1884.000000	84.243648
1883.000000	84.276390
1882.000000	84.320314
1881.000000	84.370380
1880.000000	84.403164
1879.000000	84.417500
1878.000000	84.429971
1877.000000	84.448184
1876.000000	84.457404
1875.000000	84.448030
1874.000000	84.440071
1873.000000	84.452052
1872.000000	84.474477
1871.000000	84.494344
1870.000000	84.512837
1869.000000	84.538090
1868.000000	84.573971
1867.000000	84.628210
1866.000000	84.715073
1865.000000	84.825589
1864.000000	84.925923
1863.000000	85.003725
1862.000000	85.083877
1861.000000	85.179679
1860.000000	85.272354
1859.000000	85.355259
1858.000000	85.452467
1857.000000	85.571941
1856.000000	85.687758
1855.000000	85.782744
1854.000000	85.874459
1853.000000	85.962676
1852.000000	86.031735
1851.000000	86.091634
1850.000000	86.152675
1849.000000	86.214266
1848.000000	86.270975
1847.000000	86.335912
1846.000000	86.418967
1845.000000	86.494658
1844.000000	86.548766
1843.000000	86.606221
1842.000000	86.680373
1841.000000	86.749530
1840.000000	86.796930
1839.000000	86.822071
1838.000000	86.846120
1837.000000	86.889730
1836.000000	86.942491
1835.000000	87.000363
1834.000000	87.077877
1833.000000	87.177565
1832.000000	87.288635
1831.000000	87.381900
1830.000000	87.436288
1829.000000	87.484409
1828.000000	87.559802
1827.000000	87.657871
1826.000000	87.752495
1825.000000	87.833161
1824.000000	87.914409
1823.000000	88.006445
1822.000000	88.108569
1821.000000	88.215834
1820.000000	88.318006
1819.000000	88.401059
1818.000000	88.474699
1817.000000	88.559266
1816.000000	88.638175
1815.000000	88.696449
1814.000000	88.748303
1813.000000	88.812088
1812.000000	88.874735
1811.000000	88.907256
1810.000000	88.938436
1809.000000	89.004747
1808.000000	89.078783
1807.000000	89.130416
1806.000000	89.180636
1805.000000	89.253561
1804.000000	89.322242
1803.000000	89.367818
1802.000000	89.408777
1801.000000	89.465737
1800.000000	89.529647
1799.000000	89.578834
1798.000000	89.630756
1797.000000	89.695326
1796.000000	89.745003
1795.000000	89.776674
1794.000000	89.814185
1793.000000	89.861396
1792.000000	89.897564
1791.000000	89.911584
1790.000000	89.930151
1789.000000	89.970464
1788.000000	90.015074
1787.000000	90.050114
1786.000000	90.097087
1785.000000	90.175014
1784.000000	90.254940
1783.000000	90.325511
1782.000000	90.388466
1781.000000	90.435525
1780.000000	90.478311
1779.000000	90.527608
1778.000000	90.598919
1777.000000	90.681338
1776.000000	90.764152
1775.000000	90.868331
1774.000000	90.996314
1773.000000	91.122253
1772.000000	91.250607
1771.000000	91.373118
1770.000000	91.464463
1769.000000	91.549308
1768.000000	91.646135
1767.000000	91.737638
1766.000000	91.816699
1765.000000	91.908582
1764.000000	92.030521
1763.000000	92.151207
1762.000000	92.234657
1761.000000	92.314588
1760.000000	92.416843
1759.000000	92.511987
1758.000000	92.578468
1757.000000	92.604286
1756.000000	92.627369
1755.000000	92.662835
1754.000000	92.685915
1753.000000	92.706621
1752.000000	92.759339
1751.000000	92.838510
1750.000000	92.901873
1749.000000	92.923856
1748.000000	92.910988
1747.000000	92.896508
1746.000000	92.873022
1745.000000	92.835489
1744.000000	92.806211
1743.000000	92.781741
1742.000000	92.756946
1741.000000	92.751764
1740.000000	92.765593
1739.000000	92.769146
1738.000000	92.750231
1737.000000	92.735893
1736.000000	92.762866
1735.000000	92.780878
1734.000000	92.792192
1733.000000	92.861713
1732.000000	92.923917
1731.000000	92.908921
1730.000000	92.849452
1729.000000	92.779448
1728.000000	92.727288
1727.000000	92.706605
1726.000000	92.690804
1725.000000	92.670625
1724.000000	92.641917
1723.000000	92.591466
1722.000000	92.553834
1721.000000	92.559557
1720.000000	92.586949
1719.000000	92.564950
1718.000000	92.514608
1717.000000	92.562750
1716.000000	92.661124
1715.000000	92.692162
1714.000000	92.703765
1713.000000	92.765005
1712.000000	92.837997
1711.000000	92.895484
1710.000000	92.990137
1709.000000	93.150675
1708.000000	93.342719
1707.000000	93.529296
1706.000000	93.720854
1705.000000	93.931166
1704.000000	94.104716
1703.000000	94.251829
1702.000000	94.476269
1701.000000	94.754726
1700.000000	95.012066
1699.000000	95.200188
1698.000000	95.341135
1697.000000	95.502056
1696.000000	95.661428
1695.000000	95.800217
1694.000000	95.942334
1693.000000	96.059694
1692.000000	96.151059
1691.000000	96.234405
1690.000000	96.321243
1689.000000	96.396072
1688.000000	96.465896
1687.000000	96.573198
1686.000000	96.730240
1685.000000	96.850537
1684.000000	96.941233
1683.000000	97.093418
1682.000000	97.227125
1681.000000	97.260566
1680.000000	97.260001
1679.000000	97.293349
1678.000000	97.358193
1677.000000	97.421772
1676.000000	97.475175
1675.000000	97.551878
1674.000000	97.616223
1673.000000	97.616412
1672.000000	97.597736
1671.000000	97.599461
1670.000000	97.604091
1669.000000	97.587043
1668.000000	97.563224
1667.000000	97.542259
1666.000000	97.494762
1665.000000	97.407979
1664.000000	97.274917
1663.000000	97.115302
1662.000000	96.950198
1661.000000	96.735060
1660.000000	96.481220
1659.000000	96.233106
1658.000000	95.962525
1657.000000	95.640644
1656.000000	95.316013
1655.000000	94.983824
1654.000000	94.348346
1653.000000	93.426916
1652.000000	92.582524
1651.000000	91.767732
1650.000000	90.800512
1649.000000	89.607545
1648.000000	87.987164
1647.000000	85.842953
1646.000000	83.395310
1645.000000	80.929250
1644.000000	78.502123
1643.000000	76.067560
1642.000000	73.630412
1641.000000	71.290360
1640.000000	69.267583
1639.000000	67.725551
1638.000000	66.710329
1637.000000	66.221205
1636.000000	66.337716
1635.000000	67.089495
1634.000000	68.222041
1633.000000	69.482361
1632.000000	70.817133
1631.000000	72.260594
1630.000000	73.802536
1629.000000	75.381861
1628.000000	76.927788
1627.000000	78.381810
1626.000000	79.704945
1625.000000	80.926776
1624.000000	82.129160
1623.000000	83.341156
1622.000000	84.474790
1621.000000	85.431595
1620.000000	86.267580
1619.000000	87.114679
1618.000000	88.026412
1617.000000	88.967811
1616.000000	89.878713
1615.000000	90.648622
1614.000000	91.172132
1613.000000	91.462903
1612.000000	91.598966
1611.000000	91.610326
1610.000000	91.400373
1609.000000	90.827364
1608.000000	89.817036
1607.000000	88.308913
1606.000000	86.142617
1605.000000	83.120429
1604.000000	79.212392
1603.000000	74.555928
1602.000000	69.393627
1601.000000	64.044540
1600.000000	58.781052
1599.000000	53.653767
1598.000000	48.408185
1597.000000	42.731160
1596.000000	36.662249
1595.000000	30.736711
1594.000000	25.660525
1593.000000	21.867344
1592.000000	19.430854
1591.000000	18.211437
1590.000000	17.939324
1589.000000	18.227764
1588.000000	18.703273
1587.000000	19.113021
1586.000000	19.279532
1585.000000	19.116891
1584.000000	18.733141
1583.000000	18.390888
1582.000000	18.276854
1581.000000	18.391923
1580.000000	18.683635
1579.000000	19.147408
1578.000000	19.743601
1577.000000	20.320093
1576.000000	20.731656
1575.000000	20.990290
1574.000000	21.157339
1573.000000	21.251361
1572.000000	21.363423
1571.000000	21.708129
1570.000000	22.489713
1569.000000	23.695814
1568.000000	25.190854
1567.000000	26.934642
1566.000000	28.902152
1565.000000	30.928663
1564.000000	32.801955
1563.000000	34.456556
1562.000000	35.993491
1561.000000	37.605306
1560.000000	39.551605
1559.000000	42.000786
1558.000000	44.553074
1557.000000	46.662155
1556.000000	48.383097
1555.000000	50.036011
1554.000000	51.689116
1553.000000	53.210029
1552.000000	54.538520
1551.000000	55.736787
1550.000000	56.864168
1549.000000	57.903007
1548.000000	58.839923
1547.000000	59.738659
1546.000000	60.649135
1545.000000	61.534710
1544.000000	62.353153
1543.000000	63.123591
1542.000000	63.900191
1541.000000	64.690247
1540.000000	65.464000
1539.000000	66.214148
1538.000000	66.888526
1537.000000	67.448116
1536.000000	67.954692
1535.000000	68.490364
1534.000000	69.043793
1533.000000	69.559819
1532.000000	70.025609
1531.000000	70.459583
1530.000000	70.897790
1529.000000	71.340106
1528.000000	71.748403
1527.000000	72.129560
1526.000000	72.509342
1525.000000	72.877139
1524.000000	73.224996
1523.000000	73.565407
1522.000000	73.892919
1521.000000	74.186355
1520.000000	74.439714
1519.000000	74.669349
1518.000000	74.879201
1517.000000	75.046650
1516.000000	75.162784
1515.000000	75.272568
1514.000000	75.415690
1513.000000	75.600688
1512.000000	75.796743
1511.000000	75.977350
1510.000000	76.162786
1509.000000	76.386883
1508.000000	76.601426
1507.000000	76.752328
1506.000000	76.944651
1505.000000	77.196687
1504.000000	77.403520
1503.000000	77.563102
1502.000000	77.732990
1501.000000	77.932865
1500.000000	78.149348
1499.000000	78.365468
1498.000000	78.596553
1497.000000	78.896382
1496.000000	79.261697
1495.000000	79.636066
1494.000000	80.008995
1493.000000	80.404318
1492.000000	80.821784
1491.000000	81.233570
1490.000000	81.636864
1489.000000	82.049391
1488.000000	82.445211
1487.000000	82.806416
1486.000000	83.178730
1485.000000	83.545610
1484.000000	83.875863
1483.000000	84.198191
1482.000000	84.532671
1481.000000	84.866524
1480.000000	85.181114
1479.000000	85.507659
1478.000000	85.876816
1477.000000	86.264282
1476.000000	86.615998
1475.000000	86.960057
1474.000000	87.358341
1473.000000	87.785090
1472.000000	88.184961
1471.000000	88.528551
1470.000000	88.803173
1469.000000	88.994930
1468.000000	89.083724
1467.000000	89.036172
1466.000000	88.736107
1465.000000	87.958247
1464.000000	86.551343
1463.000000	84.482291
1462.000000	81.743577
1461.000000	78.364403
1460.000000	74.445390
1459.000000	70.074038
1458.000000	65.264653
1457.000000	60.424794
1456.000000	56.432294
1455.000000	53.595484
1454.000000	51.396913
1453.000000	49.359505
1452.000000	47.458006
1451.000000	45.926303
1450.000000	44.947694
1449.000000	44.566335
1448.000000	44.743981
1447.000000	45.374000
1446.000000	46.342646
1445.000000	47.669928
1444.000000	49.485981
1443.000000	51.780518
1442.000000	54.315107
1441.000000	56.792882
1440.000000	59.034569
1439.000000	61.004610
1438.000000	62.782796
1437.000000	64.510204
1436.000000	66.237119
1435.000000	67.860038
1434.000000	69.325099
1433.000000	70.724680
1432.000000	72.117485
1431.000000	73.429327
1430.000000	74.568064
1429.000000	75.548063
1428.000000	76.407277
1427.000000	77.157084
1426.000000	77.816432
1425.000000	78.423318
1424.000000	79.013467
1423.000000	79.554179
1422.000000	80.026077
1421.000000	80.485994
1420.000000	80.978106
1419.000000	81.452414
1418.000000	81.861724
1417.000000	82.259831
1416.000000	82.686692
1415.000000	83.108709
1414.000000	83.487855
1413.000000	83.842514
1412.000000	84.200555
1411.000000	84.525732
1410.000000	84.777903
1409.000000	84.984577
1408.000000	85.149760
1407.000000	85.198905
1406.000000	85.025174
1405.000000	84.540405
1404.000000	83.724449
1403.000000	82.630397
1402.000000	81.393396
1401.000000	80.184314
1400.000000	79.124654
1399.000000	78.246721
1398.000000	77.533836
1397.000000	77.024884
1396.000000	76.861779
1395.000000	77.210600
1394.000000	78.064523
1393.000000	79.197095
1392.000000	80.337703
1391.000000	81.306842
1390.000000	82.046647
1389.000000	82.612276
1388.000000	83.122806
1387.000000	83.681006
1386.000000	84.317930
1385.000000	85.005900
1384.000000	85.704947
1383.000000	86.363921
1382.000000	86.945777
1381.000000	87.460251
1380.000000	87.930914
1379.000000	88.353577
1378.000000	88.697686
1377.000000	88.925183
1376.000000	88.967917
1375.000000	88.703820
1374.000000	87.974794
1373.000000	86.640593
1372.000000	84.569276
1371.000000	81.606182
1370.000000	77.676615
1369.000000	73.036208
1368.000000	68.411797
1367.000000	64.700880
1366.000000	62.454101
1365.000000	61.665416
1364.000000	61.975861
1363.000000	63.008112
1362.000000	64.573557
1361.000000	66.652767
1360.000000	69.206039
1359.000000	72.037525
1358.000000	74.836422
1357.000000	77.321235
1356.000000	79.357959
1355.000000	80.962810
1354.000000	82.232886
1353.000000	83.285767
1352.000000	84.204976
1351.000000	85.030756
1350.000000	85.777957
1349.000000	86.455292
1348.000000	87.079797
1347.000000	87.659658
1346.000000	88.191694
1345.000000	88.675693
1344.000000	89.118530
1343.000000	89.522042
1342.000000	89.882970
1341.000000	90.204621
1340.000000	90.498290
1339.000000	90.774426
1338.000000	91.039483
1337.000000	91.305334
1336.000000	91.583319
1335.000000	91.871230
1334.000000	92.160443
1333.000000	92.448319
1332.000000	92.730348
1331.000000	92.989147
1330.000000	93.202770
1329.000000	93.361909
1328.000000	93.455503
1327.000000	93.445908
1326.000000	93.255985
1325.000000	92.764483
1324.000000	91.817214
1323.000000	90.242905
1322.000000	87.923302
1321.000000	84.891488
1320.000000	81.374508
1319.000000	77.749938
1318.000000	74.415463
1317.000000	71.651235
1316.000000	69.584543
1315.000000	68.264679
1314.000000	67.719508
1313.000000	67.931434
1312.000000	68.766694
1311.000000	69.959623
1310.000000	71.240895
1309.000000	72.497543
1308.000000	73.815301
1307.000000	75.363108
1306.000000	77.215557
1305.000000	79.277736
1304.000000	81.345835
1303.000000	83.217574
1302.000000	84.776432
1301.000000	86.009166
1300.000000	86.950838
1299.000000	87.626626
1298.000000	88.030783
1297.000000	88.116371
1296.000000	87.796889
1295.000000	86.979626
1294.000000	85.657860
1293.000000	83.967531
1292.000000	82.121630
1291.000000	80.297963
1290.000000	78.564216
1289.000000	76.869393
1288.000000	75.047319
1287.000000	72.841399
1286.000000	70.046505
1285.000000	66.729132
1284.000000	63.324455
1283.000000	60.489952
1282.000000	58.810088
1281.000000	58.542461
1280.000000	59.570340
1279.000000	61.495660
1278.000000	63.766819
1277.000000	65.833621
1276.000000	67.264593
1275.000000	67.844668
1274.000000	67.686741
1273.000000	67.283459
1272.000000	67.354990
1271.000000	68.454254
1270.000000	70.623786
1269.000000	73.420041
1268.000000	76.261356
1267.000000	78.768084
1266.000000	80.846387
1265.000000	82.571780
1264.000000	84.048445
1263.000000	85.342430
1262.000000	86.483020
1261.000000	87.489433
1260.000000	88.379669
1259.000000	89.162396
1258.000000	89.845243
1257.000000	90.442882
1256.000000	90.974417
1255.000000	91.455711
1254.000000	91.899046
1253.000000	92.321739
1252.000000	92.739803
1251.000000	93.157351
1250.000000	93.570179
1249.000000	93.975451
1248.000000	94.371731
1247.000000	94.751461
1246.000000	95.106159
1245.000000	95.439021
1244.000000	95.760814
1243.000000	96.077108
1242.000000	96.389168
1241.000000	96.702365
1240.000000	97.021119
1239.000000	97.337084
1238.000000	97.634785
1237.000000	97.904192
1236.000000	98.137497
1235.000000	98.321441
1234.000000	98.443335
1233.000000	98.503909
1232.000000	98.509633
1231.000000	98.454029
1230.000000	98.320443
1229.000000	98.082803
1228.000000	97.697540
1227.000000	97.086057
1226.000000	96.128219
1225.000000	94.685307
1224.000000	92.602734
1223.000000	89.747138
1222.000000	86.075321
1221.000000	81.684192
1220.000000	76.827631
1219.000000	71.847197
1218.000000	67.064464
1217.000000	62.692713
1216.000000	58.809144
1215.000000	55.383266
1214.000000	52.337696
1213.000000	49.609786
1212.000000	47.185468
1211.000000	45.097865
1210.000000	43.371990
1209.000000	42.018931
1208.000000	41.063962
1207.000000	40.535135
1206.000000	40.437180
1205.000000	40.720399
1204.000000	41.304253
1203.000000	42.106287
1202.000000	43.052440
1201.000000	44.124047
1200.000000	45.374382
1199.000000	46.893961
1198.000000	48.747603
1197.000000	50.936973
1196.000000	53.419825
1195.000000	56.117873
1194.000000	58.923928
1193.000000	61.731077
1192.000000	64.456542
1191.000000	67.037591
1190.000000	69.421082
1189.000000	71.572656
1188.000000	73.481903
1187.000000	75.154234
1186.000000	76.592681
1185.000000	77.806935
1184.000000	78.823953
1183.000000	79.671985
1182.000000	80.374988
1181.000000	80.943737
1180.000000	81.375724
1179.000000	81.661619
1178.000000	81.795913
1177.000000	81.799318
1176.000000	81.714267
1175.000000	81.587095
1174.000000	81.461902
1173.000000	81.383691
1172.000000	81.395901
1171.000000	81.526037
1170.000000	81.779288
1169.000000	82.145211
1168.000000	82.600567
1167.000000	83.098691
1166.000000	83.569742
1165.000000	83.942930
1164.000000	84.172542
1163.000000	84.259473
1162.000000	84.266169
1161.000000	84.308746
1160.000000	84.508309
1159.000000	84.926952
1158.000000	85.547495
1157.000000	86.307049
1156.000000	87.140513
1155.000000	87.995994
1154.000000	88.832475
1153.000000	89.619447
1152.000000	90.329268
1151.000000	90.926993
1150.000000	91.379684
1149.000000	91.684068
1148.000000	91.870241
1147.000000	91.981513
1146.000000	92.055508
1145.000000	92.109147
1144.000000	92.130606
1143.000000	92.065234
1142.000000	91.828974
1141.000000	91.345419
1140.000000	90.555550
1139.000000	89.421593
1138.000000	87.904600
1137.000000	85.952745
1136.000000	83.502189
1135.000000	80.455160
1134.000000	76.706568
1133.000000	72.172239
1132.000000	66.839799
1131.000000	60.839772
1130.000000	54.475372
1129.000000	48.204650
1128.000000	42.557836
1127.000000	37.991800
1126.000000	34.725359
1125.000000	32.702510
1124.000000	31.662153
1123.000000	31.255098
1122.000000	31.142885
1121.000000	31.040364
1120.000000	30.746526
1119.000000	30.094815
1118.000000	28.947597
1117.000000	27.348270
1116.000000	25.683020
1115.000000	24.639647
1114.000000	24.866702
1113.000000	26.625077
1112.000000	29.710152
1111.000000	33.586179
1110.000000	37.593421
1109.000000	41.127128
1108.000000	43.749134
1107.000000	45.203445
1106.000000	45.388376
1105.000000	44.384750
1104.000000	42.580690
1103.000000	40.733401
1102.000000	39.749821
1101.000000	40.253506
1100.000000	42.283075
1099.000000	45.361126
1098.000000	48.843355
1097.000000	52.252842
1096.000000	55.358438
1095.000000	58.088059
1094.000000	60.449674
1093.000000	62.505034
1092.000000	64.344993
1091.000000	66.050070
1090.000000	67.680160
1089.000000	69.292451
1088.000000	70.944537
1087.000000	72.661463
1086.000000	74.425807
1085.000000	76.194138
1084.000000	77.906534
1083.000000	79.496779
1082.000000	80.914291
1081.000000	82.150676
1080.000000	83.227788
1079.000000	84.163272
1078.000000	84.973224
1077.000000	85.677390
1076.000000	86.284752
1075.000000	86.770523
1074.000000	87.069896
1073.000000	87.111172
1072.000000	86.801957
1071.000000	86.019635
1070.000000	84.633300
1069.000000	82.505178
1068.000000	79.513996
1067.000000	75.544786
1066.000000	70.536816
1065.000000	64.578862
1064.000000	57.947571
1063.000000	51.101304
1062.000000	44.560484
1061.000000	38.732889
1060.000000	33.770047
1059.000000	29.544932
1058.000000	25.763379
1057.000000	22.211953
1056.000000	18.982119
1055.000000	16.450023
1054.000000	15.098819
1053.000000	15.248910
1052.000000	16.925998
1051.000000	19.874590
1050.000000	23.627995
1049.000000	27.700264
1048.000000	31.717822
1047.000000	35.465239
1046.000000	38.869826
1045.000000	41.950348
1044.000000	44.765345
1043.000000	47.353759
1042.000000	49.715656
1041.000000	51.838409
1040.000000	53.734536
1039.000000	55.429795
1038.000000	56.948906
1037.000000	58.321251
1036.000000	59.575302
1035.000000	60.732451
1034.000000	61.799976
1033.000000	62.786923
1032.000000	63.713588
1031.000000	64.596591
1030.000000	65.446617
1029.000000	66.277749
1028.000000	67.109708
1027.000000	67.956576
1026.000000	68.822519
1025.000000	69.711597
1024.000000	70.624947
1023.000000	71.545456
1022.000000	72.441684
1021.000000	73.283810
1020.000000	74.050114
1019.000000	74.711126
1018.000000	75.217967
1017.000000	75.509959
1016.000000	75.486160
1015.000000	75.000610
1014.000000	73.878070
1013.000000	71.952135
1012.000000	69.130247
1011.000000	65.423558
1010.000000	60.993147
1009.000000	56.160008
1008.000000	51.362444
1007.000000	47.099456
1006.000000	43.884304
1005.000000	42.149736
1004.000000	42.080472
1003.000000	43.463786
1002.000000	45.690145
1001.000000	47.993718
1000.000000	49.710138
999.000000	50.381069
998.000000	49.779146
997.000000	47.985772
996.000000	45.480109
995.000000	43.036853
994.000000	41.376753
993.000000	40.821183
992.000000	41.239839
991.000000	42.291533
990.000000	43.708112
989.000000	45.406516
988.000000	47.418407
987.000000	49.730088
986.000000	52.216868
985.000000	54.696107
984.000000	57.011574
983.000000	59.080567
982.000000	60.887988
981.000000	62.465609
980.000000	63.862744
979.000000	65.124036
978.000000	66.274214
977.000000	67.327567
976.000000	68.292328
975.000000	69.164818
974.000000	69.939778
973.000000	70.618600
972.000000	71.213808
971.000000	71.742288
970.000000	72.221890
969.000000	72.678022
968.000000	73.135749
967.000000	73.607348
966.000000	74.090562
965.000000	74.576096
964.000000	75.051462
963.000000	75.497757
962.000000	75.897377
961.000000	76.246592
960.000000	76.553211
959.000000	76.827181
958.000000	77.080123
957.000000	77.330791
956.000000	77.598245
955.000000	77.887273
954.000000	78.189370
953.000000	78.493372
952.000000	78.787552
951.000000	79.056234
950.000000	79.285867
949.000000	79.475991
948.000000	79.636147
947.000000	79.776260
946.000000	79.908524
945.000000	80.051807
944.000000	80.222662
943.000000	80.422499
942.000000	80.641358
941.000000	80.869970
940.000000	81.098316
939.000000	81.309553
938.000000	81.488861
937.000000	81.636982
936.000000	81.765958
935.000000	81.886135
934.000000	82.007251
933.000000	82.145210
932.000000	82.313968
931.000000	82.512399
930.000000	82.727430
929.000000	82.945235
928.000000	83.150752
927.000000	83.324672
926.000000	83.455642
925.000000	83.552171
924.000000	83.633631
923.000000	83.714774
922.000000	83.807369
921.000000	83.927202
920.000000	84.084302
919.000000	84.270533
918.000000	84.467761
917.000000	84.662759
916.000000	84.844357
915.000000	84.996326
914.000000	85.108839
913.000000	85.192589
912.000000	85.269832
911.000000	85.357978
910.000000	85.471161
909.000000	85.626017
908.000000	85.828764
907.000000	86.059847
906.000000	86.283327
905.000000	86.467712
904.000000	86.594075
903.000000	86.659441
902.000000	86.681087
901.000000	86.684519
900.000000	86.668568
899.000000	86.589011
898.000000	86.393753
897.000000	86.062070
896.000000	85.620141
895.000000	85.134563
894.000000	84.672994
893.000000	84.216458
892.000000	83.584974
891.000000	82.531325
890.000000	81.000037
889.000000	79.289252
888.000000	77.881148
887.000000	77.100919
886.000000	76.948060
885.000000	77.223549
884.000000	77.742094
883.000000	78.374501
882.000000	78.994728
881.000000	79.493235
880.000000	79.859808
879.000000	80.211495
878.000000	80.699500
877.000000	81.397436
876.000000	82.260779
875.000000	83.173972
874.000000	84.032780
873.000000	84.792817
872.000000	85.457571
871.000000	86.035288
870.000000	86.518739
869.000000	86.889017
868.000000	87.122491
867.000000	87.189563
866.000000	87.068179
865.000000	86.772988
864.000000	86.364267
863.000000	85.937786
862.000000	85.604881
861.000000	85.463348
860.000000	85.558192
859.000000	85.858356
858.000000	86.275818
857.000000	86.714434
856.000000	87.106795
855.000000	87.419723
854.000000	87.652758
853.000000	87.832451
852.000000	87.994380
851.000000	88.165015
850.000000	88.361731
849.000000	88.598659
848.000000	88.877271
847.000000	89.174946
846.000000	89.455063
845.000000	89.688163
844.000000	89.855786
843.000000	89.946785
842.000000	89.967341
841.000000	89.949951
840.000000	89.939332
839.000000	89.969204
838.000000	90.057664
837.000000	90.212667
836.000000	90.425321
835.000000	90.663193
834.000000	90.885172
833.000000	91.062590
832.000000	91.179528
831.000000	91.225107
830.000000	91.204108
829.000000	91.149872
828.000000	91.110789
827.000000	91.125013
826.000000	91.214456
825.000000	91.388183
824.000000	91.631173
823.000000	91.896673
822.000000	92.130117
821.000000	92.298535
820.000000	92.388770
819.000000	92.393491
818.000000	92.316725
817.000000	92.184465
816.000000	92.023888
815.000000	91.832557
814.000000	91.569598
813.000000	91.162697
812.000000	90.523211
811.000000	89.585303
810.000000	88.384259
809.000000	87.105822
808.000000	86.030165
807.000000	85.391945
806.000000	85.269185
805.000000	85.573679
804.000000	86.126721
803.000000	86.755895
802.000000	87.349869
801.000000	87.858116
800.000000	88.250109
799.000000	88.485301
798.000000	88.516729
797.000000	88.305706
796.000000	87.818371
795.000000	87.026394
794.000000	85.934019
793.000000	84.596512
792.000000	83.114877
791.000000	81.615827
790.000000	80.237101
789.000000	79.103966
788.000000	78.293063
787.000000	77.813482
786.000000	77.625718
785.000000	77.671735
784.000000	77.877927
783.000000	78.154996
782.000000	78.417355
781.000000	78.612688
780.000000	78.732567
779.000000	78.807253
778.000000	78.906775
777.000000	79.125117
776.000000	79.535252
775.000000	80.150243
774.000000	80.926566
773.000000	81.795942
772.000000	82.686415
771.000000	83.537144
770.000000	84.320583
769.000000	85.048649
768.000000	85.746367
767.000000	86.423529
766.000000	87.077390
765.000000	87.702928
764.000000	88.284934
763.000000	88.792193
762.000000	89.198033
761.000000	89.499949
760.000000	89.709627
759.000000	89.841607
758.000000	89.923340
757.000000	90.000186
756.000000	90.111819
755.000000	90.270648
754.000000	90.471505
753.000000	90.703621
752.000000	90.939417
751.000000	91.130395
750.000000	91.234522
749.000000	91.240064
748.000000	91.154130
747.000000	90.987468
746.000000	90.765188
745.000000	90.531504
744.000000	90.322223
743.000000	90.141356
742.000000	89.975762
741.000000	89.815538
740.000000	89.646006
739.000000	89.441392
738.000000	89.186158
737.000000	88.886344
736.000000	88.543625
735.000000	88.133947
734.000000	87.628876
733.000000	87.020982
732.000000	86.316313
731.000000	85.528225
730.000000	84.703633
729.000000	83.938734
728.000000	83.339008
727.000000	82.970358
726.000000	82.855595
725.000000	82.988696
724.000000	83.326486
723.000000	83.792621
722.000000	84.329388
721.000000	84.935741
720.000000	85.629646
719.000000	86.388408
718.000000	87.151949
717.000000	87.862187
716.000000	88.470910
715.000000	88.931349
714.000000	89.217300
713.000000	89.344256
712.000000	89.352959
711.000000	89.287720
710.000000	89.204957
709.000000	89.176703
708.000000	89.254002
707.000000	89.436770
706.000000	89.697048
705.000000	90.007091
704.000000	90.325244
703.000000	90.587342
702.000000	90.747475
701.000000	90.810685
700.000000	90.806341
699.000000	90.758296
698.000000	90.702608
697.000000	90.697455
696.000000	90.776969
695.000000	90.918337
694.000000	91.080481
693.000000	91.242385
692.000000	91.377632
691.000000	91.437365
690.000000	91.399315
689.000000	91.302027
688.000000	91.192773
687.000000	91.078541
686.000000	90.971456
685.000000	90.926657
684.000000	90.981927
683.000000	91.107309
682.000000	91.259186
681.000000	91.432284
680.000000	91.605889
679.000000	91.718907
678.000000	91.736043
677.000000	91.703675
676.000000	91.686340
675.000000	91.687207
674.000000	91.749713
673.000000	92.006541
672.000000	92.544603
671.000000	93.277403
670.000000	94.047143
669.000000	94.544407
668.000000	94.389882
667.000000	93.893799
666.000000	93.595898
665.000000	93.400178
664.000000	93.168252
663.000000	92.996516
662.000000	92.981652
661.000000	93.101090
660.000000	93.295858
659.000000	93.548531
658.000000	93.817911
657.000000	94.019042
656.000000	94.105938
655.000000	94.087325
654.000000	93.987018
653.000000	93.815620
652.000000	93.615944
651.000000	93.465187
650.000000	93.408319
649.000000	93.437303
648.000000	93.543986
647.000000	93.728449
646.000000	93.946908
645.000000	94.117193
644.000000	94.188374
643.000000	94.166239
642.000000	94.072553
641.000000	93.923578
640.000000	93.758625
639.000000	93.642667
638.000000	93.619684
637.000000	93.690959
636.000000	93.841685
635.000000	94.050260
634.000000	94.268465
633.000000	94.431900
632.000000	94.501246
631.000000	94.475775
630.000000	94.371716
629.000000	94.214661
628.000000	94.052877
627.000000	93.948642
626.000000	93.943452
625.000000	94.040504
624.000000	94.218621
623.000000	94.443116
622.000000	94.660286
621.000000	94.805747
620.000000	94.832063
619.000000	94.728972
618.000000	94.530003
617.000000	94.304159
616.000000	94.127045
615.000000	94.046044
614.000000	94.070065
613.000000	94.188730
612.000000	94.383165
611.000000	94.610733
610.000000	94.803412
609.000000	94.898342
608.000000	94.866592
607.000000	94.710960
606.000000	94.458693
605.000000	94.165378
604.000000	93.901337
603.000000	93.715238
602.000000	93.608698
601.000000	93.543361
600.000000	93.454622
599.000000	93.256193
598.000000	92.858257
597.000000	92.196666
596.000000	91.247886
595.000000	90.013342
594.000000	88.475981
593.000000	86.551534
592.000000	84.077567
591.000000	80.952936
590.000000	77.398489
589.000000	74.084496
588.000000	71.866929
587.000000	71.250075
586.000000	72.031795
585.000000	73.509286
584.000000	75.078858
583.000000	76.559756
582.000000	78.026101
581.000000	79.528993
580.000000	81.022107
579.000000	82.434007
578.000000	83.704698
577.000000	84.786665
576.000000	85.658245
575.000000	86.327731
574.000000	86.803858
573.000000	87.089700
572.000000	87.208702
571.000000	87.212428
570.000000	87.156293
569.000000	87.069502
568.000000	86.958506
567.000000	86.797722
566.000000	86.496563
565.000000	85.906677
564.000000	84.890100
563.000000	83.417622
562.000000	81.617234
561.000000	79.733656
560.000000	78.014628
559.000000	76.583986
558.000000	75.396502
557.000000	74.350559
556.000000	73.491368
555.000000	73.064397
554.000000	73.336599
553.000000	74.370352
552.000000	75.973042
551.000000	77.800576
550.000000	79.489531
549.000000	80.797722
548.000000	81.677687
547.000000	82.223779
546.000000	82.562147
545.000000	82.794973
544.000000	83.002683
543.000000	83.235053
542.000000	83.483996
541.000000	83.684957
540.000000	83.770316
539.000000	83.705018
538.000000	83.484101
537.000000	83.130452
536.000000	82.700686
535.000000	82.272258
534.000000	81.909172
533.000000	81.645324
532.000000	81.490719
531.000000	81.438581
530.000000	81.452277
529.000000	81.460812
528.000000	81.376007
527.000000	81.115029
526.000000	80.614622
525.000000	79.860318
524.000000	78.897193
523.000000	77.790360
522.000000	76.591453
521.000000	75.336001
520.000000	74.055726
519.000000	72.766579
518.000000	71.448564
517.000000	70.077432
516.000000	68.691935
515.000000	67.401965
514.000000	66.325281
513.000000	65.551707
512.000000	65.154650
511.000000	65.195596
510.000000	65.678923
509.000000	66.534224
508.000000	67.673377
507.000000	69.014975
506.000000	70.463821
505.000000	71.929047
504.000000	73.366316
503.000000	74.758021
502.000000	76.053543
501.000000	77.186733
500.000000	78.152150
499.000000	79.013822
498.000000	79.831210
497.000000	80.623932
496.000000	81.390792
495.000000	82.116631
494.000000	82.761408
493.000000	83.264762
492.000000	83.594132
491.000000	83.766252
490.000000	83.818541
489.000000	83.796687
488.000000	83.751579
487.000000	83.720078
486.000000	83.675272
485.000000	83.500711
484.000000	83.036650
483.000000	82.137279
482.000000	80.721264
481.000000	78.829072
480.000000	76.655569
479.000000	74.478295
478.000000	72.497657
477.000000	70.760800
476.000000	69.242752
475.000000	67.967907
474.000000	67.019465
473.000000	66.509611
472.000000	66.566985
471.000000	67.266558
470.000000	68.546120
469.000000	70.217551
468.000000	72.073617
467.000000	73.940550
466.000000	75.680471
465.000000	77.226970
464.000000	78.594455
463.000000	79.842444
462.000000	81.011662
461.000000	82.099139
460.000000	83.077824
459.000000	83.912341
458.000000	84.559685
457.000000	84.997069
456.000000	85.256501
455.000000	85.402141
454.000000	85.501216
453.000000	85.617330
452.000000	85.806697
451.000000	86.099701
450.000000	86.483013
449.000000	86.911816
448.000000	87.322079
447.000000	87.641058
446.000000	87.819424
445.000000	87.856726
444.000000	87.781251
443.000000	87.641324
442.000000	87.512156
441.000000	87.475241
440.000000	87.571548
439.000000	87.782892
438.000000	88.056803
437.000000	88.325449
436.000000	88.506111
435.000000	88.513770
434.000000	88.299265
433.000000	87.862808
432.000000	87.235870
431.000000	86.492028
430.000000	85.761363
429.000000	85.174904
428.000000	84.807100
427.000000	84.673573
426.000000	84.735732
425.000000	84.904407
424.000000	85.078913
423.000000	85.205548
422.000000	85.296613
421.000000	85.381756
420.000000	85.466753
419.000000	85.583219
418.000000	85.823729
417.000000	86.243841
416.000000	86.805601
415.000000	87.418191
414.000000	87.971324
413.000000	88.370394
412.000000	88.554966
411.000000	88.497337
410.000000	88.230678
409.000000	87.846056
408.000000	87.446730
407.000000	87.124150
406.000000	86.974705
405.000000	87.071057
404.000000	87.411121
403.000000	87.880035
402.000000	88.344656
401.000000	88.705997
400.000000	88.932966
