PE IR       SUBTECH     SPECTRUM    ASCII       PEDS        4.00        
   -1
23MS153_trans.asc
24/09/23
16:14:13.00
24/09/23
16:14:13.00
Administrator
Sample 1186 By Administrator Date Monday, September 23 2024
400.000000
#HDR
-1
-1
#GR
cm-1
%T
1.0
0.0
4000.000000
-1.000000
3601
8
70.033907
4.870367
#DATA
4000.000000	29.987080
3999.000000	29.974237
3998.000000	29.960009
3997.000000	29.944561
3996.000000	29.928180
3995.000000	29.910782
3994.000000	29.891839
3993.000000	29.870926
3992.000000	29.848264
3991.000000	29.824532
3990.000000	29.800368
3989.000000	29.776497
3988.000000	29.754397
3987.000000	29.736268
3986.000000	29.723807
3985.000000	29.716985
3984.000000	29.714145
3983.000000	29.713222
3982.000000	29.712639
3981.000000	29.711279
3980.000000	29.708155
3979.000000	29.702597
3978.000000	29.694873
3977.000000	29.686296
3976.000000	29.678595
3975.000000	29.673238
3974.000000	29.671371
3973.000000	29.674212
3972.000000	29.683195
3971.000000	29.699632
3970.000000	29.724147
3969.000000	29.756023
3968.000000	29.793419
3967.000000	29.834316
3966.000000	29.877271
3965.000000	29.921578
3964.000000	29.966694
3963.000000	30.011820
3962.000000	30.055836
3961.000000	30.097573
3960.000000	30.136313
3959.000000	30.172236
3958.000000	30.206224
3957.000000	30.238775
3956.000000	30.269533
3955.000000	30.297855
3954.000000	30.323529
3953.000000	30.346807
3952.000000	30.368060
3951.000000	30.387948
3950.000000	30.407520
3949.000000	30.427924
3948.000000	30.449739
3947.000000	30.472545
3946.000000	30.495720
3945.000000	30.519747
3944.000000	30.545949
3943.000000	30.574539
3942.000000	30.603590
3941.000000	30.630669
3940.000000	30.655475
3939.000000	30.679895
3938.000000	30.704992
3937.000000	30.728728
3936.000000	30.747907
3935.000000	30.761681
3934.000000	30.772295
3933.000000	30.782707
3932.000000	30.793960
3931.000000	30.805586
3930.000000	30.817518
3929.000000	30.830573
3928.000000	30.845134
3927.000000	30.860530
3926.000000	30.876362
3925.000000	30.892719
3924.000000	30.908341
3923.000000	30.921120
3922.000000	30.931752
3921.000000	30.943952
3920.000000	30.959637
3919.000000	30.976798
3918.000000	30.993297
3917.000000	31.009776
3916.000000	31.027350
3915.000000	31.045261
3914.000000	31.062604
3913.000000	31.080357
3912.000000	31.099600
3911.000000	31.119280
3910.000000	31.138051
3909.000000	31.155860
3908.000000	31.173426
3907.000000	31.191019
3906.000000	31.207796
3905.000000	31.222672
3904.000000	31.235137
3903.000000	31.245538
3902.000000	31.255163
3901.000000	31.267126
3900.000000	31.284868
3899.000000	31.307915
3898.000000	31.331024
3897.000000	31.350218
3896.000000	31.366627
3895.000000	31.383047
3894.000000	31.400042
3893.000000	31.416326
3892.000000	31.432232
3891.000000	31.450333
3890.000000	31.470840
3889.000000	31.489272
3888.000000	31.503276
3887.000000	31.515660
3886.000000	31.528715
3885.000000	31.541755
3884.000000	31.551345
3883.000000	31.555780
3882.000000	31.560733
3881.000000	31.572846
3880.000000	31.590972
3879.000000	31.608977
3878.000000	31.621955
3877.000000	31.630543
3876.000000	31.639357
3875.000000	31.651281
3874.000000	31.665832
3873.000000	31.679280
3872.000000	31.687449
3871.000000	31.693523
3870.000000	31.706533
3869.000000	31.727805
3868.000000	31.747129
3867.000000	31.758095
3866.000000	31.767562
3865.000000	31.781812
3864.000000	31.797013
3863.000000	31.808804
3862.000000	31.818804
3861.000000	31.830018
3860.000000	31.843667
3859.000000	31.862482
3858.000000	31.893531
3857.000000	31.942357
3856.000000	32.002564
3855.000000	32.052278
3854.000000	32.071944
3853.000000	32.074311
3852.000000	32.083344
3851.000000	32.092172
3850.000000	32.086639
3849.000000	32.071185
3848.000000	32.052889
3847.000000	32.037761
3846.000000	32.032164
3845.000000	32.036750
3844.000000	32.047211
3843.000000	32.059820
3842.000000	32.073324
3841.000000	32.087061
3840.000000	32.101603
3839.000000	32.116555
3838.000000	32.129657
3837.000000	32.141506
3836.000000	32.155206
3835.000000	32.171148
3834.000000	32.186802
3833.000000	32.200928
3832.000000	32.214666
3831.000000	32.228899
3830.000000	32.242437
3829.000000	32.254667
3828.000000	32.267250
3827.000000	32.282845
3826.000000	32.302951
3825.000000	32.325676
3824.000000	32.347561
3823.000000	32.366785
3822.000000	32.383653
3821.000000	32.402055
3820.000000	32.424263
3819.000000	32.443268
3818.000000	32.455848
3817.000000	32.470213
3816.000000	32.489353
3815.000000	32.507521
3814.000000	32.518934
3813.000000	32.524857
3812.000000	32.533510
3811.000000	32.548523
3810.000000	32.567509
3809.000000	32.588854
3808.000000	32.611004
3807.000000	32.633633
3806.000000	32.657399
3805.000000	32.678283
3804.000000	32.692787
3803.000000	32.703296
3802.000000	32.711900
3801.000000	32.718387
3800.000000	32.721057
3799.000000	32.717598
3798.000000	32.713689
3797.000000	32.716979
3796.000000	32.725293
3795.000000	32.733819
3794.000000	32.742259
3793.000000	32.754005
3792.000000	32.770919
3791.000000	32.790057
3790.000000	32.808048
3789.000000	32.824549
3788.000000	32.840089
3787.000000	32.854299
3786.000000	32.867334
3785.000000	32.880413
3784.000000	32.893700
3783.000000	32.904953
3782.000000	32.912903
3781.000000	32.920245
3780.000000	32.930773
3779.000000	32.945078
3778.000000	32.960376
3777.000000	32.973729
3776.000000	32.985881
3775.000000	32.999553
3774.000000	33.014705
3773.000000	33.029023
3772.000000	33.041386
3771.000000	33.052663
3770.000000	33.063770
3769.000000	33.073374
3768.000000	33.078414
3767.000000	33.078718
3766.000000	33.078482
3765.000000	33.080702
3764.000000	33.082787
3763.000000	33.080776
3762.000000	33.076225
3761.000000	33.074855
3760.000000	33.078775
3759.000000	33.085002
3758.000000	33.092522
3757.000000	33.104802
3756.000000	33.124687
3755.000000	33.152788
3754.000000	33.189387
3753.000000	33.231720
3752.000000	33.270493
3751.000000	33.296894
3750.000000	33.314242
3749.000000	33.332242
3748.000000	33.351157
3747.000000	33.365715
3746.000000	33.375442
3745.000000	33.380893
3744.000000	33.384143
3743.000000	33.385603
3742.000000	33.376832
3741.000000	33.358002
3740.000000	33.339307
3739.000000	33.322813
3738.000000	33.309353
3737.000000	33.303948
3736.000000	33.310861
3735.000000	33.330015
3734.000000	33.354167
3733.000000	33.377392
3732.000000	33.401172
3731.000000	33.424304
3730.000000	33.438644
3729.000000	33.439648
3728.000000	33.431247
3727.000000	33.420370
3726.000000	33.410551
3725.000000	33.401585
3724.000000	33.394120
3723.000000	33.391719
3722.000000	33.396000
3721.000000	33.404124
3720.000000	33.413008
3719.000000	33.420691
3718.000000	33.426588
3717.000000	33.431599
3716.000000	33.437696
3715.000000	33.447991
3714.000000	33.463440
3713.000000	33.479491
3712.000000	33.489773
3711.000000	33.494155
3710.000000	33.496280
3709.000000	33.496813
3708.000000	33.494333
3707.000000	33.488124
3706.000000	33.478446
3705.000000	33.466397
3704.000000	33.454258
3703.000000	33.443853
3702.000000	33.435946
3701.000000	33.429937
3700.000000	33.423445
3699.000000	33.413343
3698.000000	33.400036
3697.000000	33.386950
3696.000000	33.375021
3695.000000	33.362379
3694.000000	33.348934
3693.000000	33.337727
3692.000000	33.329699
3691.000000	33.320878
3690.000000	33.305402
3689.000000	33.283595
3688.000000	33.262372
3687.000000	33.243603
3686.000000	33.220786
3685.000000	33.189417
3684.000000	33.151413
3683.000000	33.109686
3682.000000	33.067213
3681.000000	33.028877
3680.000000	33.000016
3679.000000	32.979680
3678.000000	32.957323
3677.000000	32.921946
3676.000000	32.876055
3675.000000	32.834820
3674.000000	32.800487
3673.000000	32.756938
3672.000000	32.699242
3671.000000	32.635996
3670.000000	32.572424
3669.000000	32.509900
3668.000000	32.445417
3667.000000	32.376052
3666.000000	32.303585
3665.000000	32.228805
3664.000000	32.151083
3663.000000	32.071029
3662.000000	31.990780
3661.000000	31.912932
3660.000000	31.837069
3659.000000	31.758803
3658.000000	31.673342
3657.000000	31.580945
3656.000000	31.487110
3655.000000	31.394047
3654.000000	31.296345
3653.000000	31.189603
3652.000000	31.073925
3651.000000	30.947533
3650.000000	30.808154
3649.000000	30.661567
3648.000000	30.520697
3647.000000	30.392857
3646.000000	30.272639
3645.000000	30.150030
3644.000000	30.021248
3643.000000	29.888688
3642.000000	29.754986
3641.000000	29.619625
3640.000000	29.480747
3639.000000	29.338706
3638.000000	29.194981
3637.000000	29.048279
3636.000000	28.895865
3635.000000	28.740212
3634.000000	28.589213
3633.000000	28.446698
3632.000000	28.305663
3631.000000	28.152598
3630.000000	27.979406
3629.000000	27.796366
3628.000000	27.623096
3627.000000	27.460700
3626.000000	27.297604
3625.000000	27.132076
3624.000000	26.966756
3623.000000	26.801191
3622.000000	26.633556
3621.000000	26.461137
3620.000000	26.283556
3619.000000	26.104875
3618.000000	25.929324
3617.000000	25.756058
3616.000000	25.581573
3615.000000	25.405257
3614.000000	25.230398
3613.000000	25.061319
3612.000000	24.898375
3611.000000	24.736258
3610.000000	24.569359
3609.000000	24.398363
3608.000000	24.228507
3607.000000	24.061978
3606.000000	23.896629
3605.000000	23.731255
3604.000000	23.567092
3603.000000	23.403832
3602.000000	23.239540
3601.000000	23.074187
3600.000000	22.910028
3599.000000	22.748215
3598.000000	22.587854
3597.000000	22.427982
3596.000000	22.268117
3595.000000	22.108711
3594.000000	21.951477
3593.000000	21.798656
3592.000000	21.650534
3591.000000	21.503430
3590.000000	21.351122
3589.000000	21.190413
3588.000000	21.024951
3587.000000	20.861854
3586.000000	20.705437
3585.000000	20.556742
3584.000000	20.416344
3583.000000	20.282433
3582.000000	20.150730
3581.000000	20.018604
3580.000000	19.886113
3579.000000	19.753335
3578.000000	19.619781
3577.000000	19.486176
3576.000000	19.353860
3575.000000	19.222701
3574.000000	19.091514
3573.000000	18.960357
3572.000000	18.830326
3571.000000	18.701267
3570.000000	18.571968
3569.000000	18.443176
3568.000000	18.318170
3567.000000	18.198963
3566.000000	18.083807
3565.000000	17.970033
3564.000000	17.857460
3563.000000	17.747217
3562.000000	17.639730
3561.000000	17.535645
3560.000000	17.435388
3559.000000	17.337220
3558.000000	17.238679
3557.000000	17.139349
3556.000000	17.039911
3555.000000	16.939562
3554.000000	16.837249
3553.000000	16.734649
3552.000000	16.634641
3551.000000	16.536850
3550.000000	16.437545
3549.000000	16.333847
3548.000000	16.225828
3547.000000	16.115752
3546.000000	16.007752
3545.000000	15.907026
3544.000000	15.816579
3543.000000	15.734924
3542.000000	15.658047
3541.000000	15.582144
3540.000000	15.503649
3539.000000	15.419319
3538.000000	15.329519
3537.000000	15.240103
3536.000000	15.157428
3535.000000	15.081913
3534.000000	15.008959
3533.000000	14.934901
3532.000000	14.858832
3531.000000	14.780316
3530.000000	14.698970
3529.000000	14.615806
3528.000000	14.531750
3527.000000	14.445308
3526.000000	14.355214
3525.000000	14.265091
3524.000000	14.181874
3523.000000	14.109049
3522.000000	14.043944
3521.000000	13.981499
3520.000000	13.917982
3519.000000	13.851215
3518.000000	13.780319
3517.000000	13.706031
3516.000000	13.629853
3515.000000	13.553082
3514.000000	13.477500
3513.000000	13.405606
3512.000000	13.338246
3511.000000	13.272959
3510.000000	13.206526
3509.000000	13.138114
3508.000000	13.067922
3507.000000	12.994402
3506.000000	12.915897
3505.000000	12.834334
3504.000000	12.754830
3503.000000	12.681707
3502.000000	12.616043
3501.000000	12.556006
3500.000000	12.497819
3499.000000	12.437693
3498.000000	12.375226
3497.000000	12.313942
3496.000000	12.256778
3495.000000	12.202528
3494.000000	12.148496
3493.000000	12.094334
3492.000000	12.040644
3491.000000	11.986048
3490.000000	11.928856
3489.000000	11.870362
3488.000000	11.813756
3487.000000	11.760716
3486.000000	11.711123
3485.000000	11.664319
3484.000000	11.617960
3483.000000	11.567793
3482.000000	11.512119
3481.000000	11.455495
3480.000000	11.404932
3479.000000	11.362990
3478.000000	11.326854
3477.000000	11.292482
3476.000000	11.256900
3475.000000	11.217779
3474.000000	11.173610
3473.000000	11.124034
3472.000000	11.068838
3471.000000	11.008363
3470.000000	10.946500
3469.000000	10.891068
3468.000000	10.848464
3467.000000	10.818706
3466.000000	10.797022
3465.000000	10.777965
3464.000000	10.756335
3463.000000	10.727619
3462.000000	10.691423
3461.000000	10.653045
3460.000000	10.618551
3459.000000	10.589169
3458.000000	10.562302
3457.000000	10.535824
3456.000000	10.508804
3455.000000	10.480163
3454.000000	10.449662
3453.000000	10.418981
3452.000000	10.389254
3451.000000	10.358964
3450.000000	10.326669
3449.000000	10.294154
3448.000000	10.264427
3447.000000	10.237986
3446.000000	10.213456
3445.000000	10.190386
3444.000000	10.168750
3443.000000	10.146980
3442.000000	10.122807
3441.000000	10.094920
3440.000000	10.062338
3439.000000	10.024371
3438.000000	9.983442
3437.000000	9.945942
3436.000000	9.917614
3435.000000	9.898919
3434.000000	9.886056
3433.000000	9.874665
3432.000000	9.861529
3431.000000	9.845570
3430.000000	9.829483
3429.000000	9.818106
3428.000000	9.812893
3427.000000	9.810022
3426.000000	9.805160
3425.000000	9.797412
3424.000000	9.787319
3423.000000	9.774483
3422.000000	9.759731
3421.000000	9.746522
3420.000000	9.737169
3419.000000	9.729710
3418.000000	9.720763
3417.000000	9.709040
3416.000000	9.694444
3415.000000	9.676986
3414.000000	9.658907
3413.000000	9.644780
3412.000000	9.636803
3411.000000	9.632508
3410.000000	9.629310
3409.000000	9.628417
3408.000000	9.631438
3407.000000	9.635853
3406.000000	9.636644
3405.000000	9.630362
3404.000000	9.615985
3403.000000	9.595150
3402.000000	9.574371
3401.000000	9.563726
3400.000000	9.569257
3399.000000	9.587539
3398.000000	9.609439
3397.000000	9.627162
3396.000000	9.636278
3395.000000	9.635075
3394.000000	9.626408
3393.000000	9.618505
3392.000000	9.620030
3391.000000	9.634097
3390.000000	9.657974
3389.000000	9.686477
3388.000000	9.714001
3387.000000	9.736198
3386.000000	9.752651
3385.000000	9.766530
3384.000000	9.780102
3383.000000	9.792564
3382.000000	9.803295
3381.000000	9.814250
3380.000000	9.827242
3379.000000	9.841616
3378.000000	9.856702
3377.000000	9.873925
3376.000000	9.894109
3375.000000	9.914767
3374.000000	9.932233
3373.000000	9.944843
3372.000000	9.952974
3371.000000	9.958705
3370.000000	9.967049
3369.000000	9.984628
3368.000000	10.014516
3367.000000	10.053845
3366.000000	10.097529
3365.000000	10.141688
3364.000000	10.182842
3363.000000	10.217869
3362.000000	10.247303
3361.000000	10.276001
3360.000000	10.308065
3359.000000	10.343172
3358.000000	10.379380
3357.000000	10.416328
3356.000000	10.453310
3355.000000	10.487315
3354.000000	10.515994
3353.000000	10.541081
3352.000000	10.567203
3351.000000	10.598879
3350.000000	10.639230
3349.000000	10.688515
3348.000000	10.742124
3347.000000	10.792658
3346.000000	10.836269
3345.000000	10.875305
3344.000000	10.913825
3343.000000	10.953106
3342.000000	10.992551
3341.000000	11.032187
3340.000000	11.072651
3339.000000	11.115061
3338.000000	11.161969
3337.000000	11.215663
3336.000000	11.274382
3335.000000	11.332983
3334.000000	11.388430
3333.000000	11.441844
3332.000000	11.494472
3331.000000	11.545097
3330.000000	11.592663
3329.000000	11.638167
3328.000000	11.682538
3327.000000	11.725828
3326.000000	11.769741
3325.000000	11.817377
3324.000000	11.868812
3323.000000	11.920055
3322.000000	11.967891
3321.000000	12.012707
3320.000000	12.055239
3319.000000	12.094131
3318.000000	12.128525
3317.000000	12.159783
3316.000000	12.188572
3315.000000	12.212953
3314.000000	12.231021
3313.000000	12.242516
3312.000000	12.246695
3311.000000	12.241798
3310.000000	12.228254
3309.000000	12.209809
3308.000000	12.189916
3307.000000	12.170088
3306.000000	12.152774
3305.000000	12.141745
3304.000000	12.137517
3303.000000	12.135684
3302.000000	12.131910
3301.000000	12.125797
3300.000000	12.118612
3299.000000	12.110743
3298.000000	12.103534
3297.000000	12.100198
3296.000000	12.102186
3295.000000	12.107200
3294.000000	12.112581
3293.000000	12.117923
3292.000000	12.122486
3291.000000	12.122847
3290.000000	12.115097
3289.000000	12.097201
3288.000000	12.067455
3287.000000	12.023467
3286.000000	11.964499
3285.000000	11.891590
3284.000000	11.804377
3283.000000	11.699691
3282.000000	11.574580
3281.000000	11.428492
3280.000000	11.260281
3279.000000	11.067120
3278.000000	10.847828
3277.000000	10.604522
3276.000000	10.340440
3275.000000	10.057926
3274.000000	9.761068
3273.000000	9.457995
3272.000000	9.159069
3271.000000	8.875597
3270.000000	8.621126
3269.000000	8.410067
3268.000000	8.252657
3267.000000	8.154572
3266.000000	8.119644
3265.000000	8.150757
3264.000000	8.245152
3263.000000	8.391310
3262.000000	8.574417
3261.000000	8.778561
3260.000000	8.985017
3259.000000	9.172834
3258.000000	9.323983
3257.000000	9.426026
3256.000000	9.468934
3255.000000	9.441930
3254.000000	9.335402
3253.000000	9.144416
3252.000000	8.865660
3251.000000	8.499399
3250.000000	8.054622
3249.000000	7.550703
3248.000000	7.014778
3247.000000	6.476540
3246.000000	5.968473
3245.000000	5.524969
3244.000000	5.177929
3243.000000	4.952875
3242.000000	4.870367
3241.000000	4.940800
3240.000000	5.154689
3239.000000	5.483688
3238.000000	5.888853
3237.000000	6.333302
3236.000000	6.786420
3235.000000	7.225592
3234.000000	7.640561
3233.000000	8.029149
3232.000000	8.389228
3231.000000	8.715872
3230.000000	9.006614
3229.000000	9.264180
3228.000000	9.492803
3227.000000	9.695005
3226.000000	9.873615
3225.000000	10.033408
3224.000000	10.177177
3223.000000	10.304743
3222.000000	10.416134
3221.000000	10.512910
3220.000000	10.595497
3219.000000	10.661573
3218.000000	10.709693
3217.000000	10.740538
3216.000000	10.754080
3215.000000	10.749404
3214.000000	10.727702
3213.000000	10.693314
3212.000000	10.649877
3211.000000	10.598836
3210.000000	10.542953
3209.000000	10.486863
3208.000000	10.433604
3207.000000	10.383524
3206.000000	10.337589
3205.000000	10.298269
3204.000000	10.266028
3203.000000	10.238668
3202.000000	10.215276
3201.000000	10.197307
3200.000000	10.184623
3199.000000	10.174454
3198.000000	10.165375
3197.000000	10.158713
3196.000000	10.154967
3195.000000	10.152375
3194.000000	10.150471
3193.000000	10.151067
3192.000000	10.154413
3191.000000	10.158237
3190.000000	10.161911
3189.000000	10.168453
3188.000000	10.181111
3187.000000	10.201252
3186.000000	10.230706
3185.000000	10.271857
3184.000000	10.324139
3183.000000	10.383518
3182.000000	10.446429
3181.000000	10.511125
3180.000000	10.574136
3179.000000	10.629621
3178.000000	10.673703
3177.000000	10.706457
3176.000000	10.729027
3175.000000	10.742699
3174.000000	10.751670
3173.000000	10.762867
3172.000000	10.781630
3171.000000	10.810872
3170.000000	10.854935
3169.000000	10.920066
3168.000000	11.010042
3167.000000	11.124134
3166.000000	11.261201
3165.000000	11.421589
3164.000000	11.604908
3163.000000	11.810795
3162.000000	12.041687
3161.000000	12.302069
3160.000000	12.591923
3159.000000	12.904077
3158.000000	13.228886
3157.000000	13.556621
3156.000000	13.876493
3155.000000	14.177937
3154.000000	14.455437
3153.000000	14.709067
3152.000000	14.939594
3151.000000	15.145859
3150.000000	15.327243
3149.000000	15.485282
3148.000000	15.620380
3147.000000	15.731237
3146.000000	15.816710
3145.000000	15.875196
3144.000000	15.901979
3143.000000	15.888550
3142.000000	15.828139
3141.000000	15.718305
3140.000000	15.558521
3139.000000	15.350182
3138.000000	15.097431
3137.000000	14.807498
3136.000000	14.487897
3135.000000	14.146662
3134.000000	13.796882
3133.000000	13.455787
3132.000000	13.139261
3131.000000	12.859071
3130.000000	12.625331
3129.000000	12.445745
3128.000000	12.321262
3127.000000	12.245327
3126.000000	12.209272
3125.000000	12.206153
3124.000000	12.227819
3123.000000	12.265771
3122.000000	12.315938
3121.000000	12.379433
3120.000000	12.457618
3119.000000	12.548318
3118.000000	12.648970
3117.000000	12.758245
3116.000000	12.873030
3115.000000	12.986756
3114.000000	13.091580
3113.000000	13.179288
3112.000000	13.239710
3111.000000	13.263397
3110.000000	13.246250
3109.000000	13.189820
3108.000000	13.094952
3107.000000	12.958977
3106.000000	12.780880
3105.000000	12.564115
3104.000000	12.315717
3103.000000	12.045351
3102.000000	11.767883
3101.000000	11.502687
3100.000000	11.267508
3099.000000	11.074720
3098.000000	10.933087
3097.000000	10.849527
3096.000000	10.825604
3095.000000	10.857771
3094.000000	10.940934
3093.000000	11.070431
3092.000000	11.241125
3091.000000	11.446460
3090.000000	11.681510
3089.000000	11.941334
3088.000000	12.217192
3087.000000	12.499024
3086.000000	12.781296
3085.000000	13.064019
3084.000000	13.346480
3083.000000	13.624339
3082.000000	13.893493
3081.000000	14.152646
3080.000000	14.401575
3079.000000	14.640482
3078.000000	14.871879
3077.000000	15.098907
3076.000000	15.321292
3075.000000	15.535827
3074.000000	15.741465
3073.000000	15.940465
3072.000000	16.133953
3071.000000	16.320640
3070.000000	16.500589
3069.000000	16.676999
3068.000000	16.853219
3067.000000	17.030542
3066.000000	17.209386
3065.000000	17.389306
3064.000000	17.567431
3063.000000	17.740132
3062.000000	17.906542
3061.000000	18.068001
3060.000000	18.224248
3059.000000	18.373465
3058.000000	18.516123
3057.000000	18.655079
3056.000000	18.791694
3055.000000	18.924801
3054.000000	19.053659
3053.000000	19.179210
3052.000000	19.302224
3051.000000	19.423184
3050.000000	19.543588
3049.000000	19.664092
3048.000000	19.781808
3047.000000	19.892482
3046.000000	19.995433
3045.000000	20.093381
3044.000000	20.188066
3043.000000	20.279647
3042.000000	20.369688
3041.000000	20.460684
3040.000000	20.552097
3039.000000	20.640211
3038.000000	20.722737
3037.000000	20.800856
3036.000000	20.877214
3035.000000	20.954937
3034.000000	21.038211
3033.000000	21.130087
3032.000000	21.229010
3031.000000	21.330376
3030.000000	21.431443
3029.000000	21.532143
3028.000000	21.631832
3027.000000	21.729131
3026.000000	21.825250
3025.000000	21.923811
3024.000000	22.026644
3023.000000	22.132322
3022.000000	22.239080
3021.000000	22.346422
3020.000000	22.453755
3019.000000	22.560235
3018.000000	22.666264
3017.000000	22.772806
3016.000000	22.879496
3015.000000	22.985807
3014.000000	23.093781
3013.000000	23.206970
3012.000000	23.326796
3011.000000	23.452173
3010.000000	23.581703
3009.000000	23.713665
3008.000000	23.844391
3007.000000	23.969834
3006.000000	24.088555
3005.000000	24.201039
3004.000000	24.306165
3003.000000	24.399948
3002.000000	24.476924
3001.000000	24.527083
3000.000000	24.529570
2999.000000	24.449982
2998.000000	24.251001
2997.000000	23.920020
2996.000000	23.500422
2995.000000	23.099345
2994.000000	22.846002
2993.000000	22.822740
2992.000000	23.019819
2991.000000	23.354729
2990.000000	23.730136
2989.000000	24.078808
2988.000000	24.373203
2987.000000	24.613131
2986.000000	24.813040
2985.000000	24.988872
2984.000000	25.149775
2983.000000	25.296528
2982.000000	25.426682
2981.000000	25.534845
2980.000000	25.608294
2979.000000	25.626568
2978.000000	25.570820
2977.000000	25.439727
2976.000000	25.262278
2975.000000	25.098833
2974.000000	25.019832
2973.000000	25.070681
2972.000000	25.248807
2971.000000	25.512568
2970.000000	25.810635
2969.000000	26.103263
2968.000000	26.367301
2967.000000	26.593289
2966.000000	26.782927
2965.000000	26.942061
2964.000000	27.073703
2963.000000	27.175041
2962.000000	27.238528
2961.000000	27.248678
2960.000000	27.172394
2959.000000	26.956432
2958.000000	26.540145
2957.000000	25.894659
2956.000000	25.072486
2955.000000	24.231630
2954.000000	23.586703
2953.000000	23.298048
2952.000000	23.380021
2951.000000	23.704560
2950.000000	24.094020
2949.000000	24.415461
2948.000000	24.623734
2947.000000	24.748450
2946.000000	24.857060
2945.000000	25.011252
2944.000000	25.237331
2943.000000	25.524208
2942.000000	25.843191
2941.000000	26.167517
2940.000000	26.479799
2939.000000	26.773045
2938.000000	27.050895
2937.000000	27.321981
2936.000000	27.591508
2935.000000	27.858719
2934.000000	28.121376
2933.000000	28.377542
2932.000000	28.623560
2931.000000	28.855887
2930.000000	29.075420
2929.000000	29.285730
2928.000000	29.486645
2927.000000	29.674224
2926.000000	29.846965
2925.000000	30.006766
2924.000000	30.154207
2923.000000	30.287598
2922.000000	30.406968
2921.000000	30.513982
2920.000000	30.607466
2919.000000	30.683725
2918.000000	30.741161
2917.000000	30.780692
2916.000000	30.802695
2915.000000	30.808233
2914.000000	30.803331
2913.000000	30.796867
2912.000000	30.793888
2911.000000	30.794424
2910.000000	30.798062
2909.000000	30.805354
2908.000000	30.814720
2907.000000	30.822978
2906.000000	30.829600
2905.000000	30.837017
2904.000000	30.846704
2903.000000	30.858576
2902.000000	30.874087
2901.000000	30.895698
2900.000000	30.922772
2899.000000	30.951285
2898.000000	30.977672
2897.000000	30.999602
2896.000000	31.013654
2895.000000	31.016506
2894.000000	31.009044
2893.000000	30.996084
2892.000000	30.981860
2891.000000	30.968921
2890.000000	30.960564
2889.000000	30.960435
2888.000000	30.969248
2887.000000	30.985571
2886.000000	31.009868
2885.000000	31.044367
2884.000000	31.089056
2883.000000	31.141176
2882.000000	31.198668
2881.000000	31.260548
2880.000000	31.324044
2879.000000	31.384325
2878.000000	31.437098
2877.000000	31.478156
2876.000000	31.501443
2875.000000	31.502514
2874.000000	31.484508
2873.000000	31.456933
2872.000000	31.427464
2871.000000	31.398059
2870.000000	31.369906
2869.000000	31.349613
2868.000000	31.349771
2867.000000	31.385471
2866.000000	31.469518
2865.000000	31.605815
2864.000000	31.785932
2863.000000	31.993943
2862.000000	32.214959
2861.000000	32.438023
2860.000000	32.654257
2859.000000	32.857051
2858.000000	33.044258
2857.000000	33.216670
2856.000000	33.373629
2855.000000	33.513433
2854.000000	33.636402
2853.000000	33.743946
2852.000000	33.835091
2851.000000	33.907381
2850.000000	33.961189
2849.000000	34.000402
2848.000000	34.029639
2847.000000	34.053568
2846.000000	34.078147
2845.000000	34.108382
2844.000000	34.144929
2843.000000	34.185273
2842.000000	34.227763
2841.000000	34.272382
2840.000000	34.318783
2839.000000	34.366801
2838.000000	34.418018
2837.000000	34.473687
2836.000000	34.531803
2835.000000	34.589226
2834.000000	34.645721
2833.000000	34.703012
2832.000000	34.760819
2831.000000	34.817283
2830.000000	34.872539
2829.000000	34.928415
2828.000000	34.984974
2827.000000	35.040679
2826.000000	35.095607
2825.000000	35.151290
2824.000000	35.207653
2823.000000	35.263080
2822.000000	35.317258
2821.000000	35.371019
2820.000000	35.423745
2819.000000	35.473896
2818.000000	35.521803
2817.000000	35.569117
2816.000000	35.615774
2815.000000	35.660270
2814.000000	35.702555
2813.000000	35.743966
2812.000000	35.784814
2811.000000	35.824751
2810.000000	35.864882
2809.000000	35.906591
2808.000000	35.948753
2807.000000	35.989004
2806.000000	36.027320
2805.000000	36.065553
2804.000000	36.103967
2803.000000	36.141260
2802.000000	36.177605
2801.000000	36.214709
2800.000000	36.253162
2799.000000	36.292428
2798.000000	36.333135
2797.000000	36.376519
2796.000000	36.421904
2795.000000	36.467498
2794.000000	36.513337
2793.000000	36.560849
2792.000000	36.610061
2791.000000	36.659866
2790.000000	36.710551
2789.000000	36.763199
2788.000000	36.816970
2787.000000	36.869860
2786.000000	36.921763
2785.000000	36.974181
2784.000000	37.027294
2783.000000	37.079970
2782.000000	37.132268
2781.000000	37.185167
2780.000000	37.238034
2779.000000	37.288959
2778.000000	37.337307
2777.000000	37.383640
2776.000000	37.427713
2775.000000	37.469009
2774.000000	37.508734
2773.000000	37.548755
2772.000000	37.588984
2771.000000	37.628211
2770.000000	37.666786
2769.000000	37.705835
2768.000000	37.744564
2767.000000	37.780928
2766.000000	37.814567
2765.000000	37.846436
2764.000000	37.876144
2763.000000	37.902338
2762.000000	37.925198
2761.000000	37.945949
2760.000000	37.964334
2759.000000	37.979133
2758.000000	37.990920
2757.000000	38.001926
2756.000000	38.013624
2755.000000	38.026853
2754.000000	38.043490
2753.000000	38.065315
2752.000000	38.091638
2751.000000	38.120464
2750.000000	38.151496
2749.000000	38.185735
2748.000000	38.222799
2747.000000	38.261341
2746.000000	38.301445
2745.000000	38.343778
2744.000000	38.386915
2743.000000	38.427951
2742.000000	38.465174
2741.000000	38.497806
2740.000000	38.523916
2739.000000	38.541410
2738.000000	38.550940
2737.000000	38.555648
2736.000000	38.558769
2735.000000	38.564016
2734.000000	38.577197
2733.000000	38.603844
2732.000000	38.645016
2731.000000	38.697337
2730.000000	38.756493
2729.000000	38.818689
2728.000000	38.879734
2727.000000	38.936203
2726.000000	38.987842
2725.000000	39.036500
2724.000000	39.083026
2723.000000	39.127178
2722.000000	39.169521
2721.000000	39.210704
2720.000000	39.249451
2719.000000	39.283767
2718.000000	39.313987
2717.000000	39.342602
2716.000000	39.371658
2715.000000	39.402526
2714.000000	39.437129
2713.000000	39.476545
2712.000000	39.518711
2711.000000	39.559883
2710.000000	39.598008
2709.000000	39.632753
2708.000000	39.663385
2707.000000	39.689285
2706.000000	39.711767
2705.000000	39.732827
2704.000000	39.752476
2703.000000	39.769619
2702.000000	39.784894
2701.000000	39.800062
2700.000000	39.815416
2699.000000	39.830253
2698.000000	39.845206
2697.000000	39.861586
2696.000000	39.879110
2695.000000	39.896957
2694.000000	39.916669
2693.000000	39.941503
2692.000000	39.973085
2691.000000	40.010948
2690.000000	40.054309
2689.000000	40.101686
2688.000000	40.149516
2687.000000	40.193876
2686.000000	40.233602
2685.000000	40.269758
2684.000000	40.302812
2683.000000	40.332736
2682.000000	40.360905
2681.000000	40.388850
2680.000000	40.415456
2679.000000	40.437948
2678.000000	40.455349
2677.000000	40.469115
2676.000000	40.481056
2675.000000	40.493199
2674.000000	40.509146
2673.000000	40.532846
2672.000000	40.565772
2671.000000	40.607070
2670.000000	40.655618
2669.000000	40.709564
2668.000000	40.764894
2667.000000	40.817106
2666.000000	40.864394
2665.000000	40.907453
2664.000000	40.946956
2663.000000	40.983481
2662.000000	41.018978
2661.000000	41.055537
2660.000000	41.092935
2659.000000	41.129453
2658.000000	41.164470
2657.000000	41.198388
2656.000000	41.230975
2655.000000	41.262094
2654.000000	41.293387
2653.000000	41.326622
2652.000000	41.360918
2651.000000	41.393575
2650.000000	41.422871
2649.000000	41.448041
2648.000000	41.467553
2647.000000	41.480287
2646.000000	41.488210
2645.000000	41.495642
2644.000000	41.506347
2643.000000	41.523031
2642.000000	41.548230
2641.000000	41.582755
2640.000000	41.623648
2639.000000	41.666009
2638.000000	41.706746
2637.000000	41.744798
2636.000000	41.778982
2635.000000	41.808276
2634.000000	41.833458
2633.000000	41.855778
2632.000000	41.874382
2631.000000	41.887554
2630.000000	41.896047
2629.000000	41.903279
2628.000000	41.912782
2627.000000	41.927355
2626.000000	41.949720
2625.000000	41.981196
2624.000000	42.019854
2623.000000	42.062221
2622.000000	42.106416
2621.000000	42.151622
2620.000000	42.195587
2619.000000	42.235155
2618.000000	42.268946
2617.000000	42.297487
2616.000000	42.321380
2615.000000	42.341341
2614.000000	42.359380
2613.000000	42.377513
2612.000000	42.395551
2611.000000	42.412282
2610.000000	42.427894
2609.000000	42.443211
2608.000000	42.457347
2607.000000	42.468409
2606.000000	42.476166
2605.000000	42.481750
2604.000000	42.485404
2603.000000	42.486803
2602.000000	42.486997
2601.000000	42.487899
2600.000000	42.490307
2599.000000	42.494434
2598.000000	42.501743
2597.000000	42.514055
2596.000000	42.531296
2595.000000	42.552193
2594.000000	42.576517
2593.000000	42.604360
2592.000000	42.634248
2591.000000	42.664058
2590.000000	42.693345
2589.000000	42.722674
2588.000000	42.751350
2587.000000	42.778203
2586.000000	42.803821
2585.000000	42.829698
2584.000000	42.855716
2583.000000	42.880701
2582.000000	42.904872
2581.000000	42.929584
2580.000000	42.955190
2579.000000	42.981305
2578.000000	43.008551
2577.000000	43.037883
2576.000000	43.068669
2575.000000	43.099553
2574.000000	43.130710
2573.000000	43.163239
2572.000000	43.197068
2571.000000	43.231365
2570.000000	43.266188
2569.000000	43.301522
2568.000000	43.335416
2567.000000	43.365353
2566.000000	43.391094
2565.000000	43.414351
2564.000000	43.436320
2563.000000	43.457611
2562.000000	43.479594
2561.000000	43.503442
2560.000000	43.528250
2559.000000	43.552086
2558.000000	43.574589
2557.000000	43.596782
2556.000000	43.619242
2555.000000	43.642410
2554.000000	43.667933
2553.000000	43.697366
2552.000000	43.730045
2551.000000	43.764091
2550.000000	43.798746
2549.000000	43.833966
2548.000000	43.868603
2547.000000	43.901223
2546.000000	43.932050
2545.000000	43.962135
2544.000000	43.991361
2543.000000	44.019120
2542.000000	44.045974
2541.000000	44.072384
2540.000000	44.096710
2539.000000	44.116485
2538.000000	44.131121
2537.000000	44.141503
2536.000000	44.147807
2535.000000	44.150296
2534.000000	44.151374
2533.000000	44.154608
2532.000000	44.161994
2531.000000	44.173941
2530.000000	44.191092
2529.000000	44.213984
2528.000000	44.241473
2527.000000	44.271507
2526.000000	44.303142
2525.000000	44.335896
2524.000000	44.368265
2523.000000	44.398830
2522.000000	44.427956
2521.000000	44.456236
2520.000000	44.482088
2519.000000	44.503000
2518.000000	44.518442
2517.000000	44.529609
2516.000000	44.536792
2515.000000	44.539500
2514.000000	44.538307
2513.000000	44.534402
2512.000000	44.527970
2511.000000	44.518801
2510.000000	44.508200
2509.000000	44.498267
2508.000000	44.489834
2507.000000	44.483060
2506.000000	44.479273
2505.000000	44.480132
2504.000000	44.485608
2503.000000	44.494846
2502.000000	44.508097
2501.000000	44.525950
2500.000000	44.547253
2499.000000	44.569964
2498.000000	44.593646
2497.000000	44.618811
2496.000000	44.644765
2495.000000	44.670127
2494.000000	44.694873
2493.000000	44.719919
2492.000000	44.745119
2491.000000	44.769648
2490.000000	44.793663
2489.000000	44.817721
2488.000000	44.841252
2487.000000	44.863563
2486.000000	44.885668
2485.000000	44.909334
2484.000000	44.935061
2483.000000	44.962885
2482.000000	44.993951
2481.000000	45.029148
2480.000000	45.066979
2479.000000	45.104881
2478.000000	45.141898
2477.000000	45.177913
2476.000000	45.211310
2475.000000	45.239900
2474.000000	45.263845
2473.000000	45.285641
2472.000000	45.307861
2471.000000	45.332582
2470.000000	45.361964
2469.000000	45.396806
2468.000000	45.434821
2467.000000	45.472296
2466.000000	45.507045
2465.000000	45.538094
2464.000000	45.563699
2463.000000	45.581937
2462.000000	45.592818
2461.000000	45.597763
2460.000000	45.597367
2459.000000	45.592022
2458.000000	45.583848
2457.000000	45.576076
2456.000000	45.570765
2455.000000	45.568840
2454.000000	45.571769
2453.000000	45.581084
2452.000000	45.596732
2451.000000	45.617746
2450.000000	45.644283
2449.000000	45.676735
2448.000000	45.713606
2447.000000	45.752038
2446.000000	45.789950
2445.000000	45.826193
2444.000000	45.859302
2443.000000	45.888306
2442.000000	45.914229
2441.000000	45.938923
2440.000000	45.962789
2439.000000	45.985241
2438.000000	46.006553
2437.000000	46.027410
2436.000000	46.047491
2435.000000	46.066340
2434.000000	46.085078
2433.000000	46.105207
2432.000000	46.126107
2431.000000	46.145508
2430.000000	46.161652
2429.000000	46.173393
2428.000000	46.179040
2427.000000	46.177259
2426.000000	46.169117
2425.000000	46.157432
2424.000000	46.144728
2423.000000	46.133098
2422.000000	46.125032
2421.000000	46.122278
2420.000000	46.124168
2419.000000	46.128830
2418.000000	46.135533
2417.000000	46.144552
2416.000000	46.155595
2415.000000	46.168476
2414.000000	46.184431
2413.000000	46.204684
2412.000000	46.228310
2411.000000	46.253034
2410.000000	46.277518
2409.000000	46.301156
2408.000000	46.322641
2407.000000	46.340928
2406.000000	46.356967
2405.000000	46.372538
2404.000000	46.387891
2403.000000	46.402330
2402.000000	46.416111
2401.000000	46.429668
2400.000000	46.441419
2399.000000	46.448322
2398.000000	46.448524
2397.000000	46.441488
2396.000000	46.426453
2395.000000	46.402704
2394.000000	46.370643
2393.000000	46.331093
2392.000000	46.283316
2391.000000	46.225766
2390.000000	46.158197
2389.000000	46.080949
2388.000000	45.993558
2387.000000	45.895294
2386.000000	45.787392
2385.000000	45.672738
2384.000000	45.553066
2383.000000	45.428952
2382.000000	45.300753
2381.000000	45.167828
2380.000000	45.026927
2379.000000	44.873660
2378.000000	44.707886
2377.000000	44.534869
2376.000000	44.363733
2375.000000	44.207217
2374.000000	44.081750
2373.000000	44.003594
2372.000000	43.979262
2371.000000	44.002868
2370.000000	44.063123
2369.000000	44.148427
2368.000000	44.243084
2367.000000	44.330544
2366.000000	44.404855
2365.000000	44.465971
2364.000000	44.506152
2363.000000	44.520943
2362.000000	44.513196
2361.000000	44.487567
2360.000000	44.452785
2359.000000	44.407510
2358.000000	44.353970
2357.000000	44.300725
2356.000000	44.253423
2355.000000	44.236072
2354.000000	44.277635
2353.000000	44.384883
2352.000000	44.508522
2351.000000	44.590497
2350.000000	44.630686
2349.000000	44.651758
2348.000000	44.679202
2347.000000	44.714173
2346.000000	44.742365
2345.000000	44.756342
2344.000000	44.760642
2343.000000	44.787754
2342.000000	44.829424
2341.000000	44.860460
2340.000000	44.868870
2339.000000	44.861028
2338.000000	44.853288
2337.000000	44.852377
2336.000000	44.858373
2335.000000	44.870473
2334.000000	44.894113
2333.000000	44.932063
2332.000000	44.976111
2331.000000	45.008888
2330.000000	45.039804
2329.000000	45.065483
2328.000000	45.091580
2327.000000	45.108367
2326.000000	45.118934
2325.000000	45.134197
2324.000000	45.154123
2323.000000	45.184738
2322.000000	45.220744
2321.000000	45.264449
2320.000000	45.312437
2319.000000	45.362827
2318.000000	45.417788
2317.000000	45.475093
2316.000000	45.534149
2315.000000	45.586335
2314.000000	45.630568
2313.000000	45.660013
2312.000000	45.674026
2311.000000	45.668853
2310.000000	45.649724
2309.000000	45.618435
2308.000000	45.577182
2307.000000	45.526015
2306.000000	45.470571
2305.000000	45.418520
2304.000000	45.378039
2303.000000	45.356718
2302.000000	45.364323
2301.000000	45.406598
2300.000000	45.485272
2299.000000	45.594008
2298.000000	45.725141
2297.000000	45.865244
2296.000000	46.000717
2295.000000	46.119226
2294.000000	46.216616
2293.000000	46.293401
2292.000000	46.351469
2291.000000	46.393389
2290.000000	46.422091
2289.000000	46.439322
2288.000000	46.441789
2287.000000	46.424712
2286.000000	46.384497
2285.000000	46.319879
2284.000000	46.230799
2283.000000	46.121565
2282.000000	46.002743
2281.000000	45.889256
2280.000000	45.794800
2279.000000	45.729239
2278.000000	45.696992
2277.000000	45.695663
2276.000000	45.718157
2275.000000	45.759439
2274.000000	45.821643
2273.000000	45.909518
2272.000000	46.023364
2271.000000	46.157525
2270.000000	46.304275
2269.000000	46.455234
2268.000000	46.601624
2267.000000	46.737112
2266.000000	46.860658
2265.000000	46.973822
2264.000000	47.077352
2263.000000	47.171233
2262.000000	47.256742
2261.000000	47.335560
2260.000000	47.406639
2259.000000	47.468560
2258.000000	47.522033
2257.000000	47.570200
2256.000000	47.616430
2255.000000	47.664569
2254.000000	47.719864
2253.000000	47.785964
2252.000000	47.862535
2251.000000	47.946179
2250.000000	48.033899
2249.000000	48.122885
2248.000000	48.209900
2247.000000	48.293065
2246.000000	48.373784
2245.000000	48.454670
2244.000000	48.536032
2243.000000	48.616393
2242.000000	48.694386
2241.000000	48.768434
2240.000000	48.835779
2239.000000	48.894527
2238.000000	48.945683
2237.000000	48.991492
2236.000000	49.032988
2235.000000	49.070803
2234.000000	49.106800
2233.000000	49.142570
2232.000000	49.177216
2231.000000	49.208769
2230.000000	49.236712
2229.000000	49.261457
2228.000000	49.282692
2227.000000	49.300198
2226.000000	49.315320
2225.000000	49.329409
2224.000000	49.341743
2223.000000	49.350772
2222.000000	49.356460
2221.000000	49.359798
2220.000000	49.361229
2219.000000	49.361494
2218.000000	49.362896
2217.000000	49.367597
2216.000000	49.375355
2215.000000	49.384340
2214.000000	49.392840
2213.000000	49.398517
2212.000000	49.397648
2211.000000	49.387779
2210.000000	49.370753
2209.000000	49.351818
2208.000000	49.336697
2207.000000	49.330311
2206.000000	49.335769
2205.000000	49.351378
2204.000000	49.369367
2203.000000	49.379974
2202.000000	49.377092
2201.000000	49.360115
2200.000000	49.333469
2199.000000	49.307241
2198.000000	49.295864
2197.000000	49.311662
2196.000000	49.358138
2195.000000	49.429919
2194.000000	49.517725
2193.000000	49.611838
2192.000000	49.703678
2191.000000	49.787906
2190.000000	49.863452
2189.000000	49.930905
2188.000000	49.989538
2187.000000	50.038182
2186.000000	50.077144
2185.000000	50.107406
2184.000000	50.128899
2183.000000	50.141509
2182.000000	50.146791
2181.000000	50.147029
2180.000000	50.143768
2179.000000	50.138877
2178.000000	50.135813
2177.000000	50.137548
2176.000000	50.144170
2175.000000	50.154136
2174.000000	50.166831
2173.000000	50.182336
2172.000000	50.200068
2171.000000	50.219860
2170.000000	50.243240
2169.000000	50.271613
2168.000000	50.303920
2167.000000	50.337674
2166.000000	50.371085
2165.000000	50.402588
2164.000000	50.429960
2163.000000	50.452240
2162.000000	50.471665
2161.000000	50.491831
2160.000000	50.514781
2159.000000	50.541314
2158.000000	50.572628
2157.000000	50.609473
2156.000000	50.650728
2155.000000	50.694731
2154.000000	50.741142
2153.000000	50.789806
2152.000000	50.838962
2151.000000	50.886167
2150.000000	50.929809
2149.000000	50.968115
2148.000000	50.997853
2147.000000	51.016051
2146.000000	51.022160
2145.000000	51.017173
2144.000000	51.001986
2143.000000	50.978380
2142.000000	50.950221
2141.000000	50.921563
2140.000000	50.894091
2139.000000	50.867567
2138.000000	50.841859
2137.000000	50.817136
2136.000000	50.793995
2135.000000	50.775751
2134.000000	50.769223
2133.000000	50.781039
2132.000000	50.813357
2131.000000	50.864046
2130.000000	50.929214
2129.000000	51.003392
2128.000000	51.078883
2127.000000	51.148079
2126.000000	51.206374
2125.000000	51.251594
2124.000000	51.282201
2123.000000	51.297816
2122.000000	51.300428
2121.000000	51.293248
2120.000000	51.279074
2119.000000	51.261137
2118.000000	51.244311
2117.000000	51.233187
2116.000000	51.229352
2115.000000	51.231921
2114.000000	51.239454
2113.000000	51.249894
2112.000000	51.259998
2111.000000	51.266963
2110.000000	51.270038
2109.000000	51.269124
2108.000000	51.263023
2107.000000	51.250889
2106.000000	51.234663
2105.000000	51.218697
2104.000000	51.207873
2103.000000	51.207109
2102.000000	51.220965
2101.000000	51.251161
2100.000000	51.295093
2099.000000	51.348379
2098.000000	51.407597
2097.000000	51.469718
2096.000000	51.530583
2095.000000	51.585920
2094.000000	51.632923
2093.000000	51.668896
2092.000000	51.689651
2091.000000	51.691587
2090.000000	51.675071
2089.000000	51.644761
2088.000000	51.608030
2087.000000	51.574443
2086.000000	51.554739
2085.000000	51.557351
2084.000000	51.585265
2083.000000	51.636611
2082.000000	51.707317
2081.000000	51.791808
2080.000000	51.882915
2079.000000	51.974088
2078.000000	52.061355
2077.000000	52.142682
2076.000000	52.216924
2075.000000	52.284253
2074.000000	52.346226
2073.000000	52.403451
2072.000000	52.454366
2071.000000	52.496780
2070.000000	52.529510
2069.000000	52.552075
2068.000000	52.564598
2067.000000	52.569635
2066.000000	52.572501
2065.000000	52.578659
2064.000000	52.591204
2063.000000	52.611161
2062.000000	52.638479
2061.000000	52.671470
2060.000000	52.706936
2059.000000	52.742533
2058.000000	52.778165
2057.000000	52.814246
2056.000000	52.850349
2055.000000	52.886498
2054.000000	52.923916
2053.000000	52.962694
2052.000000	53.000372
2051.000000	53.034083
2050.000000	53.062782
2049.000000	53.086683
2048.000000	53.106395
2047.000000	53.123868
2046.000000	53.142706
2045.000000	53.165946
2044.000000	53.194076
2043.000000	53.226149
2042.000000	53.261388
2041.000000	53.298582
2040.000000	53.335350
2039.000000	53.369703
2038.000000	53.401509
2037.000000	53.431501
2036.000000	53.459987
2035.000000	53.487476
2034.000000	53.515205
2033.000000	53.543709
2032.000000	53.571768
2031.000000	53.597962
2030.000000	53.622289
2029.000000	53.645297
2028.000000	53.667489
2027.000000	53.690071
2026.000000	53.715465
2025.000000	53.744995
2024.000000	53.777248
2023.000000	53.809009
2022.000000	53.836581
2021.000000	53.856734
2020.000000	53.867802
2019.000000	53.871683
2018.000000	53.873730
2017.000000	53.879754
2016.000000	53.893276
2015.000000	53.915218
2014.000000	53.944167
2013.000000	53.976104
2012.000000	54.005591
2011.000000	54.028911
2010.000000	54.046231
2009.000000	54.060392
2008.000000	54.075044
2007.000000	54.093955
2006.000000	54.120446
2005.000000	54.155045
2004.000000	54.195137
2003.000000	54.237844
2002.000000	54.281464
2001.000000	54.324941
2000.000000	54.366367
1999.000000	54.405523
1998.000000	54.444117
1997.000000	54.482168
1996.000000	54.517094
1995.000000	54.546451
1994.000000	54.569972
1993.000000	54.587486
1992.000000	54.597716
1991.000000	54.600580
1990.000000	54.598240
1989.000000	54.592502
1988.000000	54.584160
1987.000000	54.574797
1986.000000	54.566832
1985.000000	54.561912
1984.000000	54.560958
1983.000000	54.566270
1982.000000	54.580908
1981.000000	54.605361
1980.000000	54.635252
1979.000000	54.664888
1978.000000	54.690333
1977.000000	54.709525
1976.000000	54.722874
1975.000000	54.734564
1974.000000	54.751372
1973.000000	54.777965
1972.000000	54.814785
1971.000000	54.860274
1970.000000	54.912983
1969.000000	54.970269
1968.000000	55.027700
1967.000000	55.081775
1966.000000	55.132208
1965.000000	55.179496
1964.000000	55.221641
1963.000000	55.256021
1962.000000	55.282543
1961.000000	55.302101
1960.000000	55.313579
1959.000000	55.314497
1958.000000	55.302804
1957.000000	55.277339
1956.000000	55.238521
1955.000000	55.189634
1954.000000	55.137157
1953.000000	55.087806
1952.000000	55.046769
1951.000000	55.017466
1950.000000	55.002616
1949.000000	55.003178
1948.000000	55.016334
1947.000000	55.039018
1946.000000	55.071866
1945.000000	55.119209
1944.000000	55.184796
1943.000000	55.267831
1942.000000	55.363517
1941.000000	55.465222
1940.000000	55.566181
1939.000000	55.660978
1938.000000	55.747300
1937.000000	55.824909
1936.000000	55.894241
1935.000000	55.957086
1934.000000	56.015853
1933.000000	56.071325
1932.000000	56.122211
1931.000000	56.164865
1930.000000	56.195735
1929.000000	56.212826
1928.000000	56.214602
1927.000000	56.203198
1926.000000	56.183343
1925.000000	56.162051
1924.000000	56.144145
1923.000000	56.131342
1922.000000	56.127491
1921.000000	56.137383
1920.000000	56.158444
1919.000000	56.178724
1918.000000	56.185645
1917.000000	56.175777
1916.000000	56.155755
1915.000000	56.135399
1914.000000	56.121641
1913.000000	56.116120
1912.000000	56.116413
1911.000000	56.118396
1910.000000	56.120554
1909.000000	56.126332
1908.000000	56.141933
1907.000000	56.173465
1906.000000	56.220280
1905.000000	56.277333
1904.000000	56.337640
1903.000000	56.393363
1902.000000	56.438590
1901.000000	56.468439
1900.000000	56.480721
1899.000000	56.479982
1898.000000	56.475286
1897.000000	56.476948
1896.000000	56.492327
1895.000000	56.523736
1894.000000	56.570561
1893.000000	56.629768
1892.000000	56.696287
1891.000000	56.764484
1890.000000	56.828992
1889.000000	56.886692
1888.000000	56.939665
1887.000000	56.991543
1886.000000	57.043573
1885.000000	57.096738
1884.000000	57.152225
1883.000000	57.209375
1882.000000	57.265940
1881.000000	57.318386
1880.000000	57.364301
1879.000000	57.405109
1878.000000	57.442500
1877.000000	57.476628
1876.000000	57.508177
1875.000000	57.537236
1874.000000	57.562261
1873.000000	57.583607
1872.000000	57.606098
1871.000000	57.633567
1870.000000	57.660277
1869.000000	57.673741
1868.000000	57.669666
1867.000000	57.660408
1866.000000	57.657736
1865.000000	57.656663
1864.000000	57.646526
1863.000000	57.623299
1862.000000	57.590039
1861.000000	57.555845
1860.000000	57.533899
1859.000000	57.536621
1858.000000	57.569402
1857.000000	57.627750
1856.000000	57.700947
1855.000000	57.778439
1854.000000	57.852620
1853.000000	57.919945
1852.000000	57.979634
1851.000000	58.037442
1850.000000	58.096796
1849.000000	58.155752
1848.000000	58.216731
1847.000000	58.289556
1846.000000	58.377533
1845.000000	58.463122
1844.000000	58.521105
1843.000000	58.541182
1842.000000	58.535481
1841.000000	58.524139
1840.000000	58.517354
1839.000000	58.514667
1838.000000	58.513827
1837.000000	58.517998
1836.000000	58.530593
1835.000000	58.551925
1834.000000	58.582443
1833.000000	58.624763
1832.000000	58.680867
1831.000000	58.746297
1830.000000	58.804351
1829.000000	58.842920
1828.000000	58.875540
1827.000000	58.918748
1826.000000	58.969136
1825.000000	59.012602
1824.000000	59.041297
1823.000000	59.062348
1822.000000	59.088825
1821.000000	59.128346
1820.000000	59.183034
1819.000000	59.251104
1818.000000	59.324772
1817.000000	59.394087
1816.000000	59.451602
1815.000000	59.496287
1814.000000	59.532905
1813.000000	59.565324
1812.000000	59.598610
1811.000000	59.636131
1810.000000	59.677842
1809.000000	59.723201
1808.000000	59.769315
1807.000000	59.812400
1806.000000	59.848823
1805.000000	59.877012
1804.000000	59.903584
1803.000000	59.939432
1802.000000	59.987713
1801.000000	60.034557
1800.000000	60.065599
1799.000000	60.075532
1798.000000	60.065444
1797.000000	60.042611
1796.000000	60.022902
1795.000000	60.021867
1794.000000	60.038235
1793.000000	60.055295
1792.000000	60.067285
1791.000000	60.083497
1790.000000	60.110061
1789.000000	60.138026
1788.000000	60.161092
1787.000000	60.189511
1786.000000	60.232903
1785.000000	60.284545
1784.000000	60.328723
1783.000000	60.358012
1782.000000	60.378002
1781.000000	60.388958
1780.000000	60.393766
1779.000000	60.399530
1778.000000	60.407275
1777.000000	60.413796
1776.000000	60.425330
1775.000000	60.456746
1774.000000	60.505731
1773.000000	60.550105
1772.000000	60.580366
1771.000000	60.624444
1770.000000	60.714356
1769.000000	60.832428
1768.000000	60.932977
1767.000000	60.991916
1766.000000	61.016879
1765.000000	61.031945
1764.000000	61.060054
1763.000000	61.106040
1762.000000	61.156262
1761.000000	61.185789
1760.000000	61.188553
1759.000000	61.182423
1758.000000	61.188518
1757.000000	61.203974
1756.000000	61.213718
1755.000000	61.220640
1754.000000	61.236787
1753.000000	61.264438
1752.000000	61.293086
1751.000000	61.317363
1750.000000	61.335435
1749.000000	61.344397
1748.000000	61.343369
1747.000000	61.337612
1746.000000	61.327894
1745.000000	61.304476
1744.000000	61.268110
1743.000000	61.231239
1742.000000	61.201385
1741.000000	61.164242
1740.000000	61.097515
1739.000000	61.004937
1738.000000	60.926006
1737.000000	60.898360
1736.000000	60.915123
1735.000000	60.925166
1734.000000	60.887783
1733.000000	60.796990
1732.000000	60.700093
1731.000000	60.659513
1730.000000	60.680067
1729.000000	60.710105
1728.000000	60.710131
1727.000000	60.683585
1726.000000	60.643933
1725.000000	60.593319
1724.000000	60.536844
1723.000000	60.483060
1722.000000	60.443911
1721.000000	60.429767
1720.000000	60.433304
1719.000000	60.412273
1718.000000	60.311042
1717.000000	60.134203
1716.000000	59.979859
1715.000000	59.925815
1714.000000	59.943460
1713.000000	59.958030
1712.000000	59.929365
1711.000000	59.872406
1710.000000	59.812738
1709.000000	59.750732
1708.000000	59.682246
1707.000000	59.612797
1706.000000	59.530636
1705.000000	59.426121
1704.000000	59.335018
1703.000000	59.308294
1702.000000	59.329649
1701.000000	59.313011
1700.000000	59.199552
1699.000000	58.983455
1698.000000	58.714908
1697.000000	58.460501
1696.000000	58.226347
1695.000000	58.026159
1694.000000	57.882347
1693.000000	57.765525
1692.000000	57.645854
1691.000000	57.494972
1690.000000	57.304758
1689.000000	57.105515
1688.000000	56.928679
1687.000000	56.773511
1686.000000	56.585259
1685.000000	56.307217
1684.000000	55.968293
1683.000000	55.689847
1682.000000	55.518369
1681.000000	55.344760
1680.000000	55.114000
1679.000000	54.872549
1678.000000	54.669495
1677.000000	54.492416
1676.000000	54.286123
1675.000000	54.026938
1674.000000	53.735392
1673.000000	53.430799
1672.000000	53.135032
1671.000000	52.852498
1670.000000	52.567016
1669.000000	52.267702
1668.000000	51.966807
1667.000000	51.680240
1666.000000	51.409349
1665.000000	51.141560
1664.000000	50.854410
1663.000000	50.541839
1662.000000	50.225681
1661.000000	49.919656
1660.000000	49.621453
1659.000000	49.333245
1658.000000	49.068311
1657.000000	48.843269
1656.000000	48.663611
1655.000000	48.488112
1654.000000	48.220824
1653.000000	47.809617
1652.000000	47.355424
1651.000000	46.967149
1650.000000	46.668227
1649.000000	46.438038
1648.000000	46.152291
1647.000000	45.746327
1646.000000	45.301319
1645.000000	44.894976
1644.000000	44.504104
1643.000000	44.115700
1642.000000	43.748464
1641.000000	43.394730
1640.000000	43.059356
1639.000000	42.775617
1638.000000	42.556782
1637.000000	42.374135
1636.000000	42.206042
1635.000000	42.091114
1634.000000	42.051254
1633.000000	42.036209
1632.000000	42.023404
1631.000000	42.038802
1630.000000	42.100948
1629.000000	42.203815
1628.000000	42.326646
1627.000000	42.458644
1626.000000	42.609661
1625.000000	42.789327
1624.000000	43.001320
1623.000000	43.241252
1622.000000	43.491785
1621.000000	43.734374
1620.000000	43.975457
1619.000000	44.248363
1618.000000	44.587544
1617.000000	44.998776
1616.000000	45.434025
1615.000000	45.850852
1614.000000	46.256836
1613.000000	46.664683
1612.000000	47.060115
1611.000000	47.420816
1610.000000	47.736706
1609.000000	47.999264
1608.000000	48.190167
1607.000000	48.290369
1606.000000	48.289654
1605.000000	48.160772
1604.000000	47.857644
1603.000000	47.330868
1602.000000	46.525835
1601.000000	45.355897
1600.000000	43.661326
1599.000000	41.264306
1598.000000	38.072158
1597.000000	34.202124
1596.000000	30.094198
1595.000000	26.496671
1594.000000	24.137438
1593.000000	23.260049
1592.000000	23.575675
1591.000000	24.619896
1590.000000	26.056610
1589.000000	27.674459
1588.000000	29.288009
1587.000000	30.744758
1586.000000	32.006190
1585.000000	33.189489
1584.000000	34.446648
1583.000000	35.805594
1582.000000	37.129257
1581.000000	38.272799
1580.000000	39.249611
1579.000000	40.213083
1578.000000	41.304787
1577.000000	42.531018
1576.000000	43.716252
1575.000000	44.649342
1574.000000	45.314330
1573.000000	45.820667
1572.000000	46.252584
1571.000000	46.650506
1570.000000	47.033555
1569.000000	47.395207
1568.000000	47.731987
1567.000000	48.070628
1566.000000	48.439693
1565.000000	48.835843
1564.000000	49.219277
1563.000000	49.576170
1562.000000	49.931788
1561.000000	50.320722
1560.000000	50.764260
1559.000000	51.243639
1558.000000	51.658569
1557.000000	52.041791
1556.000000	52.367783
1555.000000	52.674237
1554.000000	53.004167
1553.000000	53.323343
1552.000000	53.615938
1551.000000	53.902159
1550.000000	54.192619
1549.000000	54.470593
1548.000000	54.713224
1547.000000	54.924024
1546.000000	55.125830
1545.000000	55.328523
1544.000000	55.516162
1543.000000	55.680782
1542.000000	55.823680
1541.000000	55.929354
1540.000000	55.978794
1539.000000	56.018641
1538.000000	56.107057
1537.000000	56.228830
1536.000000	56.405221
1535.000000	56.630853
1534.000000	56.857065
1533.000000	57.048765
1532.000000	57.202733
1531.000000	57.323533
1530.000000	57.421174
1529.000000	57.525415
1528.000000	57.651942
1527.000000	57.788417
1526.000000	57.921078
1525.000000	58.044285
1524.000000	58.156199
1523.000000	58.248618
1522.000000	58.310485
1521.000000	58.352923
1520.000000	58.407798
1519.000000	58.478573
1518.000000	58.548059
1517.000000	58.603709
1516.000000	58.645272
1515.000000	58.689982
1514.000000	58.737717
1513.000000	58.774372
1512.000000	58.798509
1511.000000	58.818665
1510.000000	58.855115
1509.000000	58.917354
1508.000000	58.990762
1507.000000	59.069465
1506.000000	59.198196
1505.000000	59.371252
1504.000000	59.448223
1503.000000	59.476144
1502.000000	59.549805
1501.000000	59.658515
1500.000000	59.778566
1499.000000	59.902276
1498.000000	60.015460
1497.000000	60.105141
1496.000000	60.176076
1495.000000	60.242533
1494.000000	60.322769
1493.000000	60.431767
1492.000000	60.566519
1491.000000	60.708364
1490.000000	60.845290
1489.000000	60.983504
1488.000000	61.139878
1487.000000	61.305876
1486.000000	61.464690
1485.000000	61.609712
1484.000000	61.739284
1483.000000	61.865352
1482.000000	61.996191
1481.000000	62.131575
1480.000000	62.267867
1479.000000	62.411251
1478.000000	62.571861
1477.000000	62.748890
1476.000000	62.926801
1475.000000	63.093852
1474.000000	63.258921
1473.000000	63.433039
1472.000000	63.615686
1471.000000	63.785958
1470.000000	63.909140
1469.000000	63.983887
1468.000000	64.046423
1467.000000	64.115519
1466.000000	64.163148
1465.000000	64.115635
1464.000000	63.913688
1463.000000	63.555856
1462.000000	63.077869
1461.000000	62.541160
1460.000000	62.008761
1459.000000	61.503441
1458.000000	60.995921
1457.000000	60.478919
1456.000000	60.003162
1455.000000	59.524061
1454.000000	58.918157
1453.000000	58.102927
1452.000000	57.038680
1451.000000	55.761958
1450.000000	54.279938
1449.000000	52.469664
1448.000000	50.244694
1447.000000	47.834795
1446.000000	45.756363
1445.000000	44.535652
1444.000000	44.521721
1443.000000	45.733646
1442.000000	47.777040
1441.000000	50.042894
1440.000000	52.057586
1439.000000	53.642204
1438.000000	54.812503
1437.000000	55.642808
1436.000000	56.230229
1435.000000	56.693868
1434.000000	57.156415
1433.000000	57.709629
1432.000000	58.359015
1431.000000	59.028644
1430.000000	59.633722
1429.000000	60.135697
1428.000000	60.531425
1427.000000	60.835297
1426.000000	61.084455
1425.000000	61.310444
1424.000000	61.518914
1423.000000	61.709632
1422.000000	61.901220
1421.000000	62.110818
1420.000000	62.333010
1419.000000	62.547677
1418.000000	62.740903
1417.000000	62.924715
1416.000000	63.106971
1415.000000	63.280706
1414.000000	63.444569
1413.000000	63.600170
1412.000000	63.739441
1411.000000	63.853371
1410.000000	63.947071
1409.000000	64.029720
1408.000000	64.097717
1407.000000	64.144026
1406.000000	64.171716
1405.000000	64.174870
1404.000000	64.131462
1403.000000	64.031292
1402.000000	63.898970
1401.000000	63.775073
1400.000000	63.680909
1399.000000	63.617897
1398.000000	63.585993
1397.000000	63.587860
1396.000000	63.621222
1395.000000	63.674685
1394.000000	63.710778
1393.000000	63.657142
1392.000000	63.461346
1391.000000	63.147618
1390.000000	62.790667
1389.000000	62.451446
1388.000000	62.162226
1387.000000	61.957340
1386.000000	61.883442
1385.000000	61.965062
1384.000000	62.195940
1383.000000	62.555887
1382.000000	63.009405
1381.000000	63.504675
1380.000000	63.988520
1379.000000	64.426276
1378.000000	64.804202
1377.000000	65.113942
1376.000000	65.336747
1375.000000	65.448015
1374.000000	65.423933
1373.000000	65.224989
1372.000000	64.764585
1371.000000	63.889211
1370.000000	62.386912
1369.000000	60.053918
1368.000000	56.917969
1367.000000	53.456192
1366.000000	50.470513
1365.000000	48.704819
1364.000000	48.547355
1363.000000	49.867685
1362.000000	52.045237
1361.000000	54.358890
1360.000000	56.388051
1359.000000	58.038889
1358.000000	59.370350
1357.000000	60.465913
1356.000000	61.385040
1355.000000	62.153328
1354.000000	62.781815
1353.000000	63.291949
1352.000000	63.711792
1351.000000	64.055610
1350.000000	64.332323
1349.000000	64.561810
1348.000000	64.765127
1347.000000	64.947514
1346.000000	65.108080
1345.000000	65.254603
1344.000000	65.396496
1343.000000	65.531772
1342.000000	65.658109
1341.000000	65.787294
1340.000000	65.935461
1339.000000	66.104611
1338.000000	66.280239
1337.000000	66.442892
1336.000000	66.577774
1335.000000	66.678826
1334.000000	66.751905
1333.000000	66.812215
1332.000000	66.870127
1331.000000	66.922086
1330.000000	66.961241
1329.000000	66.990154
1328.000000	67.013071
1327.000000	67.022387
1326.000000	67.001571
1325.000000	66.931412
1324.000000	66.787407
1323.000000	66.530485
1322.000000	66.113887
1321.000000	65.493416
1320.000000	64.612293
1319.000000	63.390673
1318.000000	61.772790
1317.000000	59.843746
1316.000000	57.919515
1315.000000	56.478702
1314.000000	55.903812
1313.000000	56.235904
1312.000000	57.186826
1311.000000	58.384187
1310.000000	59.603512
1309.000000	60.773476
1308.000000	61.862924
1307.000000	62.837727
1306.000000	63.690889
1305.000000	64.447769
1304.000000	65.122986
1303.000000	65.706918
1302.000000	66.196265
1301.000000	66.606476
1300.000000	66.944108
1299.000000	67.203478
1298.000000	67.390718
1297.000000	67.516019
1296.000000	67.564336
1295.000000	67.488026
1294.000000	67.218174
1293.000000	66.645232
1292.000000	65.635434
1291.000000	64.196394
1290.000000	62.661766
1289.000000	61.595157
1288.000000	61.392266
1287.000000	61.955089
1286.000000	62.792930
1285.000000	63.451478
1284.000000	63.786346
1283.000000	63.892729
1282.000000	63.917719
1281.000000	63.961064
1280.000000	64.062855
1279.000000	64.191805
1278.000000	64.240606
1277.000000	64.023079
1276.000000	63.262591
1275.000000	61.622385
1274.000000	58.940686
1273.000000	55.605164
1272.000000	52.667880
1271.000000	51.332398
1270.000000	52.134176
1269.000000	54.595601
1268.000000	57.657076
1267.000000	60.418476
1266.000000	62.513206
1265.000000	63.987109
1264.000000	65.018023
1263.000000	65.754958
1262.000000	66.300687
1261.000000	66.724366
1260.000000	67.064793
1259.000000	67.341211
1258.000000	67.574774
1257.000000	67.776116
1256.000000	67.936992
1255.000000	68.049102
1254.000000	68.121166
1253.000000	68.171966
1252.000000	68.215238
1251.000000	68.264832
1250.000000	68.342184
1249.000000	68.463742
1248.000000	68.626275
1247.000000	68.814868
1246.000000	69.017876
1245.000000	69.224680
1244.000000	69.418047
1243.000000	69.582731
1242.000000	69.718142
1241.000000	69.831158
1240.000000	69.921714
1239.000000	69.984595
1238.000000	70.020817
1237.000000	70.033907
1236.000000	70.020612
1235.000000	69.978364
1234.000000	69.916224
1233.000000	69.848836
1232.000000	69.782774
1231.000000	69.717863
1230.000000	69.655553
1229.000000	69.591817
1228.000000	69.507108
1227.000000	69.372642
1226.000000	69.161307
1225.000000	68.847315
1224.000000	68.397196
1223.000000	67.782426
1222.000000	67.000123
1221.000000	66.071854
1220.000000	65.034732
1219.000000	63.930393
1218.000000	62.795050
1217.000000	61.642660
1216.000000	60.453577
1215.000000	59.191356
1214.000000	57.824225
1213.000000	56.340423
1212.000000	54.760171
1211.000000	53.146188
1210.000000	51.599642
1209.000000	50.243688
1208.000000	49.194013
1207.000000	48.505549
1206.000000	48.128086
1205.000000	47.920854
1204.000000	47.761363
1203.000000	47.656887
1202.000000	47.742830
1201.000000	48.182775
1200.000000	49.033965
1199.000000	50.201451
1198.000000	51.501267
1197.000000	52.764815
1196.000000	53.913644
1195.000000	54.955334
1194.000000	55.939667
1193.000000	56.916985
1192.000000	57.913947
1191.000000	58.927851
1190.000000	59.936279
1189.000000	60.910195
1188.000000	61.819828
1187.000000	62.641717
1186.000000	63.362568
1185.000000	63.979936
1184.000000	64.496303
1183.000000	64.912514
1182.000000	65.233488
1181.000000	65.467917
1180.000000	65.628120
1179.000000	65.733496
1178.000000	65.807964
1177.000000	65.872313
1176.000000	65.935661
1175.000000	66.001158
1174.000000	66.075748
1173.000000	66.167514
1172.000000	66.278076
1171.000000	66.404560
1170.000000	66.546968
1169.000000	66.705819
1168.000000	66.873996
1167.000000	67.037656
1166.000000	67.184082
1165.000000	67.302505
1164.000000	67.381417
1163.000000	67.415163
1162.000000	67.414910
1161.000000	67.404675
1160.000000	67.406151
1159.000000	67.432298
1158.000000	67.490655
1157.000000	67.583411
1156.000000	67.704292
1155.000000	67.842944
1154.000000	67.992270
1153.000000	68.147213
1152.000000	68.298233
1151.000000	68.434543
1150.000000	68.553045
1149.000000	68.656666
1148.000000	68.743967
1147.000000	68.808551
1146.000000	68.847210
1145.000000	68.859187
1144.000000	68.840310
1143.000000	68.783797
1142.000000	68.688496
1141.000000	68.559452
1140.000000	68.398855
1139.000000	68.205513
1138.000000	67.976951
1137.000000	67.706660
1136.000000	67.381096
1135.000000	66.981109
1134.000000	66.490959
1133.000000	65.898312
1132.000000	65.194240
1131.000000	64.383920
1130.000000	63.490298
1129.000000	62.547825
1128.000000	61.587665
1127.000000	60.625865
1126.000000	59.658681
1125.000000	58.648470
1124.000000	57.522218
1123.000000	56.163386
1122.000000	54.389170
1121.000000	51.954162
1120.000000	48.577526
1119.000000	44.071982
1118.000000	38.540331
1117.000000	32.557745
1116.000000	27.162759
1115.000000	23.562219
1114.000000	22.596527
1113.000000	24.335581
1112.000000	28.095894
1111.000000	32.748985
1110.000000	37.189969
1109.000000	40.696532
1108.000000	42.991473
1107.000000	44.002680
1106.000000	43.606809
1105.000000	41.693357
1104.000000	38.569323
1103.000000	35.242491
1102.000000	33.094599
1101.000000	33.101614
1100.000000	35.286648
1099.000000	38.842559
1098.000000	42.733686
1097.000000	46.254971
1096.000000	49.155916
1095.000000	51.472917
1094.000000	53.334733
1093.000000	54.865613
1092.000000	56.154887
1091.000000	57.262860
1090.000000	58.233933
1089.000000	59.100806
1088.000000	59.886871
1087.000000	60.601120
1086.000000	61.253827
1085.000000	61.859333
1084.000000	62.422343
1083.000000	62.939964
1082.000000	63.413258
1081.000000	63.851463
1080.000000	64.259844
1079.000000	64.635633
1078.000000	64.981069
1077.000000	65.303015
1076.000000	65.601078
1075.000000	65.867524
1074.000000	66.098026
1073.000000	66.292757
1072.000000	66.439504
1071.000000	66.511403
1070.000000	66.481541
1069.000000	66.320781
1068.000000	65.992886
1067.000000	65.455501
1066.000000	64.677670
1065.000000	63.650846
1064.000000	62.372285
1063.000000	60.849257
1062.000000	59.088416
1061.000000	57.071194
1060.000000	54.741240
1059.000000	52.005101
1058.000000	48.781946
1057.000000	45.063213
1056.000000	40.984907
1055.000000	36.872371
1054.000000	33.218851
1053.000000	30.560988
1052.000000	29.320334
1051.000000	29.657631
1050.000000	31.377099
1049.000000	34.029354
1048.000000	37.084889
1047.000000	40.101527
1046.000000	42.824181
1045.000000	45.172978
1044.000000	47.184694
1043.000000	48.926370
1042.000000	50.443035
1041.000000	51.747371
1040.000000	52.843315
1039.000000	53.739738
1038.000000	54.462529
1037.000000	55.056131
1036.000000	55.567978
1035.000000	56.043618
1034.000000	56.519192
1033.000000	57.016460
1032.000000	57.539597
1031.000000	58.077313
1030.000000	58.613484
1029.000000	59.132722
1028.000000	59.623590
1027.000000	60.087047
1026.000000	60.543734
1025.000000	61.024320
1024.000000	61.548641
1023.000000	62.114977
1022.000000	62.705891
1021.000000	63.293607
1020.000000	63.842891
1019.000000	64.318891
1018.000000	64.695057
1017.000000	64.951490
1016.000000	65.052288
1015.000000	64.945630
1014.000000	64.567743
1013.000000	63.834056
1012.000000	62.646728
1011.000000	60.880498
1010.000000	58.384678
1009.000000	54.996030
1008.000000	50.651747
1007.000000	45.637427
1006.000000	40.754345
1005.000000	37.138695
1004.000000	35.727012
1003.000000	36.720048
1002.000000	39.459185
1001.000000	42.834001
1000.000000	45.795820
999.000000	47.606643
998.000000	47.879059
997.000000	46.646315
996.000000	44.511040
995.000000	42.557404
994.000000	41.841736
993.000000	42.788255
992.000000	45.030532
991.000000	47.788964
990.000000	50.401059
989.000000	52.580813
988.000000	54.335325
987.000000	55.765033
986.000000	56.960786
985.000000	57.983230
984.000000	58.865364
983.000000	59.618138
982.000000	60.257179
981.000000	60.810308
980.000000	61.300626
979.000000	61.744689
978.000000	62.160060
977.000000	62.567061
976.000000	62.972073
975.000000	63.363377
974.000000	63.730266
973.000000	64.069335
972.000000	64.374602
971.000000	64.636358
970.000000	64.854854
969.000000	65.043057
968.000000	65.209374
967.000000	65.352984
966.000000	65.477193
965.000000	65.592724
964.000000	65.706412
963.000000	65.819566
962.000000	65.940755
961.000000	66.085844
960.000000	66.261315
959.000000	66.459714
958.000000	66.672874
957.000000	66.895532
956.000000	67.114040
955.000000	67.307472
954.000000	67.465788
953.000000	67.593864
952.000000	67.695883
951.000000	67.770122
950.000000	67.819668
949.000000	67.853384
948.000000	67.871407
947.000000	67.865730
946.000000	67.839767
945.000000	67.812342
944.000000	67.800915
943.000000	67.815137
942.000000	67.867796
941.000000	67.973294
940.000000	68.129516
939.000000	68.313601
938.000000	68.500731
937.000000	68.675269
936.000000	68.822423
935.000000	68.928018
934.000000	68.993281
933.000000	69.034127
932.000000	69.058847
931.000000	69.061210
930.000000	69.036055
929.000000	68.986882
928.000000	68.915411
927.000000	68.822150
926.000000	68.723840
925.000000	68.653908
924.000000	68.639409
923.000000	68.688462
922.000000	68.800469
921.000000	68.967944
920.000000	69.164545
919.000000	69.349831
918.000000	69.496446
917.000000	69.600719
916.000000	69.665010
915.000000	69.689604
914.000000	69.685408
913.000000	69.671593
912.000000	69.649847
911.000000	69.601682
910.000000	69.516438
909.000000	69.404934
908.000000	69.282157
907.000000	69.159547
906.000000	69.060954
905.000000	69.019221
904.000000	69.041775
903.000000	69.097917
902.000000	69.151363
901.000000	69.187576
900.000000	69.203220
899.000000	69.188516
898.000000	69.127851
897.000000	68.990844
896.000000	68.729420
895.000000	68.318978
894.000000	67.796583
893.000000	67.193494
892.000000	66.412013
891.000000	65.276717
890.000000	63.810817
889.000000	62.426297
888.000000	61.700718
887.000000	61.922196
886.000000	62.868156
885.000000	64.040290
884.000000	65.070198
883.000000	65.861700
882.000000	66.464270
881.000000	66.923076
880.000000	67.253410
879.000000	67.480855
878.000000	67.647716
877.000000	67.786471
876.000000	67.906225
875.000000	67.999882
874.000000	68.051352
873.000000	68.047572
872.000000	67.990499
871.000000	67.900705
870.000000	67.808614
869.000000	67.742101
868.000000	67.721045
867.000000	67.754420
866.000000	67.837178
865.000000	67.951078
864.000000	68.072470
863.000000	68.181429
862.000000	68.266863
861.000000	68.325328
860.000000	68.356556
859.000000	68.359525
858.000000	68.331255
857.000000	68.266341
856.000000	68.158393
855.000000	68.006814
854.000000	67.822159
853.000000	67.625079
852.000000	67.439973
851.000000	67.290345
850.000000	67.195921
849.000000	67.167881
848.000000	67.203326
847.000000	67.286360
846.000000	67.397311
845.000000	67.518789
844.000000	67.635745
843.000000	67.735092
842.000000	67.808695
841.000000	67.852257
840.000000	67.858928
839.000000	67.816537
838.000000	67.713770
837.000000	67.547278
836.000000	67.322594
835.000000	67.056982
834.000000	66.782497
833.000000	66.539656
832.000000	66.360885
831.000000	66.259069
830.000000	66.229559
829.000000	66.258437
828.000000	66.327149
827.000000	66.415061
826.000000	66.506883
825.000000	66.595880
824.000000	66.677280
823.000000	66.740672
822.000000	66.772220
821.000000	66.757968
820.000000	66.681206
819.000000	66.523868
818.000000	66.277359
817.000000	65.953123
816.000000	65.573512
815.000000	65.157222
814.000000	64.706708
813.000000	64.188005
812.000000	63.510133
811.000000	62.537190
810.000000	61.181710
809.000000	59.537874
808.000000	57.927356
807.000000	56.764299
806.000000	56.322901
805.000000	56.597620
804.000000	57.362010
803.000000	58.339772
802.000000	59.318865
801.000000	60.171106
800.000000	60.828394
799.000000	61.270193
798.000000	61.520487
797.000000	61.629165
796.000000	61.648312
795.000000	61.621629
794.000000	61.583876
793.000000	61.554488
792.000000	61.535434
791.000000	61.520727
790.000000	61.508793
789.000000	61.504071
788.000000	61.510653
787.000000	61.531522
786.000000	61.569381
785.000000	61.620055
784.000000	61.664888
783.000000	61.675342
782.000000	61.627248
781.000000	61.509802
780.000000	61.327201
779.000000	61.100982
778.000000	60.869740
777.000000	60.678137
776.000000	60.560786
775.000000	60.535140
774.000000	60.602707
773.000000	60.750910
772.000000	60.954747
771.000000	61.185354
770.000000	61.421565
769.000000	61.650905
768.000000	61.861810
767.000000	62.040078
766.000000	62.172898
765.000000	62.248732
764.000000	62.254357
763.000000	62.180142
762.000000	62.031395
761.000000	61.829535
760.000000	61.601643
759.000000	61.375001
758.000000	61.177839
757.000000	61.035008
756.000000	60.958144
755.000000	60.944431
754.000000	60.985320
753.000000	61.071518
752.000000	61.189834
751.000000	61.322976
750.000000	61.455706
749.000000	61.575218
748.000000	61.664484
747.000000	61.701971
746.000000	61.671574
745.000000	61.567891
744.000000	61.393142
743.000000	61.157599
742.000000	60.883967
741.000000	60.602283
740.000000	60.336448
739.000000	60.100941
738.000000	59.908738
737.000000	59.772465
736.000000	59.693665
735.000000	59.658303
734.000000	59.646010
733.000000	59.636050
732.000000	59.600408
731.000000	59.501103
730.000000	59.302107
729.000000	58.980100
728.000000	58.527851
727.000000	57.962950
726.000000	57.341691
725.000000	56.756316
724.000000	56.304068
723.000000	56.049715
722.000000	56.010570
721.000000	56.160953
720.000000	56.441631
719.000000	56.779190
718.000000	57.116014
717.000000	57.427692
716.000000	57.713879
715.000000	57.981280
714.000000	58.236232
713.000000	58.480741
712.000000	58.704239
711.000000	58.883486
710.000000	58.998033
709.000000	59.040300
708.000000	59.009875
707.000000	58.910802
706.000000	58.758296
705.000000	58.578719
704.000000	58.396122
703.000000	58.221571
702.000000	58.062510
701.000000	57.932707
700.000000	57.843084
699.000000	57.795702
698.000000	57.792397
697.000000	57.839963
696.000000	57.938354
695.000000	58.068970
694.000000	58.207849
693.000000	58.339057
692.000000	58.444798
691.000000	58.501644
690.000000	58.496598
689.000000	58.437243
688.000000	58.334914
687.000000	58.188681
686.000000	58.004117
685.000000	57.808410
684.000000	57.627489
683.000000	57.466138
682.000000	57.327503
681.000000	57.233701
680.000000	57.205461
679.000000	57.237663
678.000000	57.319593
677.000000	57.454480
676.000000	57.632602
675.000000	57.814541
674.000000	57.969495
673.000000	58.071173
672.000000	58.017761
671.000000	57.635335
670.000000	56.857569
669.000000	55.957601
668.000000	55.415667
667.000000	55.606452
666.000000	56.374132
665.000000	57.054620
664.000000	57.314782
663.000000	57.299080
662.000000	57.227918
661.000000	57.217688
660.000000	57.272258
659.000000	57.389566
658.000000	57.557978
657.000000	57.738826
656.000000	57.893260
655.000000	58.012461
654.000000	58.098025
653.000000	58.141004
652.000000	58.139445
651.000000	58.109122
650.000000	58.061236
649.000000	57.986549
648.000000	57.877088
647.000000	57.745464
646.000000	57.609756
645.000000	57.482578
644.000000	57.383594
643.000000	57.343348
642.000000	57.382090
641.000000	57.492154
640.000000	57.650340
639.000000	57.833944
638.000000	58.016675
637.000000	58.169289
636.000000	58.276402
635.000000	58.341284
634.000000	58.371808
633.000000	58.371543
632.000000	58.344502
631.000000	58.296786
630.000000	58.226188
629.000000	58.121061
628.000000	57.979394
627.000000	57.823430
626.000000	57.689364
625.000000	57.609188
624.000000	57.602335
623.000000	57.672678
622.000000	57.805752
621.000000	57.972231
620.000000	58.141611
619.000000	58.292261
618.000000	58.412238
617.000000	58.498729
616.000000	58.557134
615.000000	58.594160
614.000000	58.610458
613.000000	58.602163
612.000000	58.565217
611.000000	58.496734
610.000000	58.397353
609.000000	58.276475
608.000000	58.154894
607.000000	58.059516
606.000000	58.013455
605.000000	58.030848
604.000000	58.112249
603.000000	58.239161
602.000000	58.379314
601.000000	58.500522
600.000000	58.576884
599.000000	58.586045
598.000000	58.512878
597.000000	58.345413
596.000000	58.061436
595.000000	57.605910
594.000000	56.856440
593.000000	55.586766
592.000000	53.487868
591.000000	50.385801
590.000000	46.588708
589.000000	43.015859
588.000000	40.839149
587.000000	40.808727
586.000000	42.745078
585.000000	45.678709
584.000000	48.574380
583.000000	50.895511
582.000000	52.597775
581.000000	53.834645
580.000000	54.754605
579.000000	55.460865
578.000000	56.017462
577.000000	56.448523
576.000000	56.759634
575.000000	56.968997
574.000000	57.097620
573.000000	57.156650
572.000000	57.161846
571.000000	57.147563
570.000000	57.151946
569.000000	57.192298
568.000000	57.271039
567.000000	57.385887
566.000000	57.516778
565.000000	57.622909
564.000000	57.671256
563.000000	57.661882
562.000000	57.616700
561.000000	57.555087
560.000000	57.488874
559.000000	57.421491
558.000000	57.336688
557.000000	57.204736
556.000000	57.020286
555.000000	56.826957
554.000000	56.689260
553.000000	56.647814
552.000000	56.711999
551.000000	56.874018
550.000000	57.105538
549.000000	57.360154
548.000000	57.600809
547.000000	57.819189
546.000000	58.023713
545.000000	58.219297
544.000000	58.407313
543.000000	58.591089
542.000000	58.767758
541.000000	58.918871
540.000000	59.018524
539.000000	59.046323
538.000000	58.992957
537.000000	58.866272
536.000000	58.695896
535.000000	58.526235
534.000000	58.392176
533.000000	58.306264
532.000000	58.268389
531.000000	58.272346
530.000000	58.299838
529.000000	58.324585
528.000000	58.331338
527.000000	58.323515
526.000000	58.306118
525.000000	58.266486
524.000000	58.177870
523.000000	58.009930
522.000000	57.728384
521.000000	57.290337
520.000000	56.658373
519.000000	55.815481
518.000000	54.767178
517.000000	53.561526
516.000000	52.324108
515.000000	51.247505
514.000000	50.512009
513.000000	50.220390
512.000000	50.386444
511.000000	50.947342
510.000000	51.773362
509.000000	52.716160
508.000000	53.676656
507.000000	54.601364
506.000000	55.444006
505.000000	56.166985
504.000000	56.767397
503.000000	57.261025
502.000000	57.644228
501.000000	57.898377
500.000000	58.030096
499.000000	58.085872
498.000000	58.116727
497.000000	58.151161
496.000000	58.200458
495.000000	58.268849
494.000000	58.352926
493.000000	58.442455
492.000000	58.532451
491.000000	58.628223
490.000000	58.731566
489.000000	58.835847
488.000000	58.930660
487.000000	58.995929
486.000000	58.989010
485.000000	58.847966
484.000000	58.522929
483.000000	57.985443
482.000000	57.213249
481.000000	56.182237
480.000000	54.873582
479.000000	53.283917
478.000000	51.434322
477.000000	49.426247
476.000000	47.512248
475.000000	46.076520
474.000000	45.469933
473.000000	45.835815
472.000000	47.029363
471.000000	48.687372
470.000000	50.456792
469.000000	52.139652
468.000000	53.646937
467.000000	54.916601
466.000000	55.911460
465.000000	56.652702
464.000000	57.205222
463.000000	57.633842
462.000000	57.986246
461.000000	58.295134
460.000000	58.578190
459.000000	58.847430
458.000000	59.109793
457.000000	59.358671
456.000000	59.578127
455.000000	59.780973
454.000000	60.019102
453.000000	60.326907
452.000000	60.679369
451.000000	61.017022
450.000000	61.296388
449.000000	61.501281
448.000000	61.623132
447.000000	61.672343
446.000000	61.692375
445.000000	61.727291
444.000000	61.782279
443.000000	61.837095
442.000000	61.889573
441.000000	61.954897
440.000000	62.032219
439.000000	62.108836
438.000000	62.191343
437.000000	62.308950
436.000000	62.482368
435.000000	62.700281
434.000000	62.933914
433.000000	63.155277
432.000000	63.327287
431.000000	63.408452
430.000000	63.397575
429.000000	63.335024
428.000000	63.251050
427.000000	63.160792
426.000000	63.102163
425.000000	63.117110
424.000000	63.186681
423.000000	63.242937
422.000000	63.260519
421.000000	63.285091
420.000000	63.359481
419.000000	63.505998
418.000000	63.751702
417.000000	64.042657
416.000000	64.313044
415.000000	64.560125
414.000000	64.782605
413.000000	64.971819
412.000000	65.109266
411.000000	65.166614
410.000000	65.154937
409.000000	65.111820
408.000000	65.012707
407.000000	64.790785
406.000000	64.483228
405.000000	64.254990
404.000000	64.220678
403.000000	64.337016
402.000000	64.513793
401.000000	64.740051
400.000000	65.053343
