PE IR       SUBTECH     SPECTRUM    ASCII       PEDS        4.00        
   -1
23MS200_trans.asc
24/09/24
16:11:49.00
24/09/24
16:11:49.00
Administrator
Sample 1198 By Administrator Date Tuesday, September 24 2024
400.000000
#HDR
-1
-1
#GR
cm-1
%T
1.0
0.0
4000.000000
-1.000000
3601
8
94.333185
13.313492
#DATA
4000.000000	62.667135
3999.000000	62.637174
3998.000000	62.609432
3997.000000	62.582962
3996.000000	62.556443
3995.000000	62.529176
3994.000000	62.501337
3993.000000	62.473235
3992.000000	62.444698
3991.000000	62.415466
3990.000000	62.385750
3989.000000	62.355723
3988.000000	62.324409
3987.000000	62.289871
3986.000000	62.250816
3985.000000	62.207428
3984.000000	62.160605
3983.000000	62.110886
3982.000000	62.058729
3981.000000	62.005599
3980.000000	61.954555
3979.000000	61.909600
3978.000000	61.874574
3977.000000	61.852344
3976.000000	61.844816
3975.000000	61.853001
3974.000000	61.876833
3973.000000	61.915793
3972.000000	61.968766
3971.000000	62.033572
3970.000000	62.106748
3969.000000	62.184128
3968.000000	62.261517
3967.000000	62.335144
3966.000000	62.402008
3965.000000	62.459954
3964.000000	62.507532
3963.000000	62.543800
3962.000000	62.568947
3961.000000	62.585206
3960.000000	62.596183
3959.000000	62.605391
3958.000000	62.615519
3957.000000	62.629679
3956.000000	62.651361
3955.000000	62.683093
3954.000000	62.725790
3953.000000	62.778851
3952.000000	62.841284
3951.000000	62.912175
3950.000000	62.991157
3949.000000	63.077446
3948.000000	63.169065
3947.000000	63.264592
3946.000000	63.363541
3945.000000	63.463848
3944.000000	63.560532
3943.000000	63.649483
3942.000000	63.732220
3941.000000	63.813498
3940.000000	63.894364
3939.000000	63.971024
3938.000000	64.039046
3937.000000	64.098729
3936.000000	64.154538
3935.000000	64.209339
3934.000000	64.262319
3933.000000	64.311129
3932.000000	64.355635
3931.000000	64.396767
3930.000000	64.434010
3929.000000	64.467654
3928.000000	64.500260
3927.000000	64.534009
3926.000000	64.565533
3925.000000	64.589973
3924.000000	64.610240
3923.000000	64.633606
3922.000000	64.661211
3921.000000	64.688794
3920.000000	64.715201
3919.000000	64.744703
3918.000000	64.778750
3917.000000	64.814005
3916.000000	64.849350
3915.000000	64.888547
3914.000000	64.934065
3913.000000	64.985057
3912.000000	65.040027
3911.000000	65.100246
3910.000000	65.164940
3909.000000	65.232019
3908.000000	65.299921
3907.000000	65.366902
3906.000000	65.428715
3905.000000	65.478853
3904.000000	65.519434
3903.000000	65.562778
3902.000000	65.616834
3901.000000	65.675629
3900.000000	65.726018
3899.000000	65.763568
3898.000000	65.795639
3897.000000	65.828782
3896.000000	65.862687
3895.000000	65.897742
3894.000000	65.935316
3893.000000	65.974823
3892.000000	66.007640
3891.000000	66.028246
3890.000000	66.043987
3889.000000	66.067159
3888.000000	66.099720
3887.000000	66.128215
3886.000000	66.139814
3885.000000	66.144460
3884.000000	66.161595
3883.000000	66.193050
3882.000000	66.222395
3881.000000	66.235532
3880.000000	66.236740
3879.000000	66.242356
3878.000000	66.261818
3877.000000	66.292144
3876.000000	66.321874
3875.000000	66.339207
3874.000000	66.346894
3873.000000	66.363703
3872.000000	66.399041
3871.000000	66.433432
3870.000000	66.445001
3869.000000	66.447498
3868.000000	66.467715
3867.000000	66.506636
3866.000000	66.540812
3865.000000	66.557181
3864.000000	66.569705
3863.000000	66.593261
3862.000000	66.621439
3861.000000	66.647202
3860.000000	66.671274
3859.000000	66.698677
3858.000000	66.734229
3857.000000	66.782885
3856.000000	66.841583
3855.000000	66.882887
3854.000000	66.886488
3853.000000	66.883334
3852.000000	66.901451
3851.000000	66.923637
3850.000000	66.928539
3849.000000	66.919035
3848.000000	66.911865
3847.000000	66.920495
3846.000000	66.943981
3845.000000	66.974971
3844.000000	67.006075
3843.000000	67.033094
3842.000000	67.058773
3841.000000	67.088051
3840.000000	67.112245
3839.000000	67.122175
3838.000000	67.124215
3837.000000	67.131752
3836.000000	67.149306
3835.000000	67.172185
3834.000000	67.196676
3833.000000	67.219979
3832.000000	67.238497
3831.000000	67.255130
3830.000000	67.277132
3829.000000	67.307495
3828.000000	67.339811
3827.000000	67.363680
3826.000000	67.377961
3825.000000	67.398290
3824.000000	67.436808
3823.000000	67.483174
3822.000000	67.510787
3821.000000	67.512007
3820.000000	67.512642
3819.000000	67.534293
3818.000000	67.570578
3817.000000	67.595949
3816.000000	67.600125
3815.000000	67.606484
3814.000000	67.636213
3813.000000	67.676595
3812.000000	67.705656
3811.000000	67.724681
3810.000000	67.753151
3809.000000	67.800260
3808.000000	67.850399
3807.000000	67.885717
3806.000000	67.913838
3805.000000	67.954897
3804.000000	68.010584
3803.000000	68.060823
3802.000000	68.080635
3801.000000	68.080211
3800.000000	68.092392
3799.000000	68.122451
3798.000000	68.152239
3797.000000	68.168531
3796.000000	68.178491
3795.000000	68.197650
3794.000000	68.230101
3793.000000	68.264573
3792.000000	68.292304
3791.000000	68.316992
3790.000000	68.345641
3789.000000	68.379346
3788.000000	68.416031
3787.000000	68.454496
3786.000000	68.492639
3785.000000	68.525318
3784.000000	68.549775
3783.000000	68.570935
3782.000000	68.593623
3781.000000	68.615514
3780.000000	68.631234
3779.000000	68.643904
3778.000000	68.662287
3777.000000	68.688815
3776.000000	68.714352
3775.000000	68.729975
3774.000000	68.738642
3773.000000	68.750372
3772.000000	68.765838
3771.000000	68.774416
3770.000000	68.772886
3769.000000	68.773552
3768.000000	68.785944
3767.000000	68.805424
3766.000000	68.820455
3765.000000	68.825658
3764.000000	68.828811
3763.000000	68.840482
3762.000000	68.858746
3761.000000	68.873607
3760.000000	68.883771
3759.000000	68.900992
3758.000000	68.927755
3757.000000	68.955924
3756.000000	68.983856
3755.000000	69.016211
3754.000000	69.053338
3753.000000	69.087943
3752.000000	69.120070
3751.000000	69.160491
3750.000000	69.206359
3749.000000	69.242411
3748.000000	69.271032
3747.000000	69.310704
3746.000000	69.359678
3745.000000	69.392439
3744.000000	69.416357
3743.000000	69.461752
3742.000000	69.519594
3741.000000	69.560907
3740.000000	69.580223
3739.000000	69.602296
3738.000000	69.647738
3737.000000	69.707458
3736.000000	69.763930
3735.000000	69.814751
3734.000000	69.866662
3733.000000	69.914498
3732.000000	69.948894
3731.000000	69.972220
3730.000000	69.993726
3729.000000	70.019585
3728.000000	70.047327
3727.000000	70.069964
3726.000000	70.090380
3725.000000	70.116488
3724.000000	70.145704
3723.000000	70.169205
3722.000000	70.188532
3721.000000	70.214261
3720.000000	70.250252
3719.000000	70.290439
3718.000000	70.323787
3717.000000	70.347550
3716.000000	70.372390
3715.000000	70.406258
3714.000000	70.445108
3713.000000	70.481166
3712.000000	70.514173
3711.000000	70.549686
3710.000000	70.585262
3709.000000	70.615425
3708.000000	70.635859
3707.000000	70.646719
3706.000000	70.654282
3705.000000	70.665996
3704.000000	70.684060
3703.000000	70.704227
3702.000000	70.723547
3701.000000	70.743287
3700.000000	70.764987
3699.000000	70.787050
3698.000000	70.805668
3697.000000	70.817161
3696.000000	70.826427
3695.000000	70.841093
3694.000000	70.860706
3693.000000	70.880086
3692.000000	70.896187
3691.000000	70.910423
3690.000000	70.924081
3689.000000	70.941976
3688.000000	70.967162
3687.000000	70.994124
3686.000000	71.013563
3685.000000	71.019853
3684.000000	71.014552
3683.000000	71.008743
3682.000000	71.014492
3681.000000	71.028379
3680.000000	71.038636
3679.000000	71.044043
3678.000000	71.057425
3677.000000	71.075851
3676.000000	71.080116
3675.000000	71.074350
3674.000000	71.074718
3673.000000	71.079487
3672.000000	71.075096
3671.000000	71.050118
3670.000000	71.013748
3669.000000	70.991257
3668.000000	70.985800
3667.000000	70.977304
3666.000000	70.952899
3665.000000	70.916191
3664.000000	70.876581
3663.000000	70.840231
3662.000000	70.805366
3661.000000	70.767152
3660.000000	70.727284
3659.000000	70.689245
3658.000000	70.651762
3657.000000	70.607079
3656.000000	70.554771
3655.000000	70.503341
3654.000000	70.454641
3653.000000	70.400521
3652.000000	70.330935
3651.000000	70.242794
3650.000000	70.148433
3649.000000	70.064965
3648.000000	69.990674
3647.000000	69.911954
3646.000000	69.822716
3645.000000	69.726629
3644.000000	69.628470
3643.000000	69.530812
3642.000000	69.433532
3641.000000	69.337618
3640.000000	69.243472
3639.000000	69.146722
3638.000000	69.043318
3637.000000	68.934509
3636.000000	68.824352
3635.000000	68.711282
3634.000000	68.592214
3633.000000	68.471611
3632.000000	68.354184
3631.000000	68.229660
3630.000000	68.075476
3629.000000	67.894491
3628.000000	67.723412
3627.000000	67.577125
3626.000000	67.433671
3625.000000	67.275610
3624.000000	67.107997
3623.000000	66.945047
3622.000000	66.791069
3621.000000	66.635503
3620.000000	66.469017
3619.000000	66.298404
3618.000000	66.136465
3617.000000	65.985345
3616.000000	65.838230
3615.000000	65.686086
3614.000000	65.525236
3613.000000	65.363044
3612.000000	65.209474
3611.000000	65.064093
3610.000000	64.916344
3609.000000	64.758807
3608.000000	64.593772
3607.000000	64.427431
3606.000000	64.261237
3605.000000	64.093046
3604.000000	63.922673
3603.000000	63.749774
3602.000000	63.573397
3601.000000	63.393058
3600.000000	63.212477
3599.000000	63.034164
3598.000000	62.854837
3597.000000	62.668697
3596.000000	62.474862
3595.000000	62.275231
3594.000000	62.074879
3593.000000	61.881361
3592.000000	61.698119
3591.000000	61.521232
3590.000000	61.339924
3589.000000	61.143953
3588.000000	60.933683
3587.000000	60.722560
3586.000000	60.524345
3585.000000	60.341804
3584.000000	60.169650
3583.000000	60.001462
3582.000000	59.835024
3581.000000	59.671408
3580.000000	59.512516
3579.000000	59.357321
3578.000000	59.203778
3577.000000	59.052294
3576.000000	58.905779
3575.000000	58.766332
3574.000000	58.634149
3573.000000	58.510401
3572.000000	58.396430
3571.000000	58.291834
3570.000000	58.194622
3569.000000	58.102742
3568.000000	58.016023
3567.000000	57.936911
3566.000000	57.867559
3565.000000	57.806634
3564.000000	57.751312
3563.000000	57.700197
3562.000000	57.654483
3561.000000	57.617087
3560.000000	57.589333
3559.000000	57.569117
3558.000000	57.553008
3557.000000	57.539845
3556.000000	57.530486
3555.000000	57.525060
3554.000000	57.521876
3553.000000	57.519946
3552.000000	57.520163
3551.000000	57.522393
3550.000000	57.523599
3549.000000	57.520140
3548.000000	57.511246
3547.000000	57.500409
3546.000000	57.493123
3545.000000	57.493344
3544.000000	57.500607
3543.000000	57.510101
3542.000000	57.515963
3541.000000	57.514626
3540.000000	57.504756
3539.000000	57.486135
3538.000000	57.460760
3537.000000	57.433778
3536.000000	57.410440
3535.000000	57.390588
3534.000000	57.369386
3533.000000	57.342064
3532.000000	57.306697
3531.000000	57.262710
3530.000000	57.209547
3529.000000	57.147479
3528.000000	57.077607
3527.000000	57.000824
3526.000000	56.917936
3525.000000	56.830976
3524.000000	56.742303
3523.000000	56.651812
3522.000000	56.556257
3521.000000	56.451793
3520.000000	56.335767
3519.000000	56.206479
3518.000000	56.063824
3517.000000	55.910171
3516.000000	55.748852
3515.000000	55.581472
3514.000000	55.408697
3513.000000	55.231371
3512.000000	55.048422
3511.000000	54.855661
3510.000000	54.650120
3509.000000	54.434577
3508.000000	54.214402
3507.000000	53.990574
3506.000000	53.759236
3505.000000	53.518496
3504.000000	53.272895
3503.000000	53.030013
3502.000000	52.794301
3501.000000	52.565251
3500.000000	52.339664
3499.000000	52.114908
3498.000000	51.891842
3497.000000	51.675114
3496.000000	51.469578
3495.000000	51.276504
3494.000000	51.094755
3493.000000	50.924430
3492.000000	50.766177
3491.000000	50.618594
3490.000000	50.480395
3489.000000	50.354356
3488.000000	50.246397
3487.000000	50.160581
3486.000000	50.096701
3485.000000	50.051722
3484.000000	50.020553
3483.000000	49.997420
3482.000000	49.980862
3481.000000	49.976866
3480.000000	49.993696
3479.000000	50.033254
3478.000000	50.090334
3477.000000	50.158889
3476.000000	50.235304
3475.000000	50.316867
3474.000000	50.400435
3473.000000	50.483435
3472.000000	50.564486
3471.000000	50.643704
3470.000000	50.724980
3469.000000	50.816001
3468.000000	50.922308
3467.000000	51.041924
3466.000000	51.167511
3465.000000	51.292176
3464.000000	51.411389
3463.000000	51.522387
3462.000000	51.626141
3461.000000	51.728458
3460.000000	51.835330
3459.000000	51.947450
3458.000000	52.061337
3457.000000	52.174255
3456.000000	52.285414
3455.000000	52.394000
3454.000000	52.499572
3453.000000	52.603243
3452.000000	52.706576
3451.000000	52.809899
3450.000000	52.913215
3449.000000	53.017669
3448.000000	53.124256
3447.000000	53.232342
3446.000000	53.340942
3445.000000	53.450022
3444.000000	53.559003
3443.000000	53.665749
3442.000000	53.768718
3441.000000	53.868681
3440.000000	53.966558
3439.000000	54.061560
3438.000000	54.153848
3437.000000	54.246989
3436.000000	54.345141
3435.000000	54.448385
3434.000000	54.552816
3433.000000	54.654241
3432.000000	54.751055
3431.000000	54.844643
3430.000000	54.938320
3429.000000	55.035144
3428.000000	55.135015
3427.000000	55.234490
3426.000000	55.330080
3425.000000	55.421022
3424.000000	55.508414
3423.000000	55.593449
3422.000000	55.677906
3421.000000	55.764628
3420.000000	55.855419
3419.000000	55.948976
3418.000000	56.042232
3417.000000	56.132854
3416.000000	56.219914
3415.000000	56.304001
3414.000000	56.387753
3413.000000	56.474649
3412.000000	56.565937
3411.000000	56.660085
3410.000000	56.756070
3409.000000	56.855173
3408.000000	56.957933
3407.000000	57.061247
3406.000000	57.160343
3405.000000	57.252606
3404.000000	57.338596
3403.000000	57.421504
3402.000000	57.507750
3401.000000	57.605301
3400.000000	57.717796
3399.000000	57.840618
3398.000000	57.964641
3397.000000	58.082991
3396.000000	58.192863
3395.000000	58.293926
3394.000000	58.389056
3393.000000	58.485528
3392.000000	58.591091
3391.000000	58.707665
3390.000000	58.830371
3389.000000	58.952476
3388.000000	59.069856
3387.000000	59.181784
3386.000000	59.289926
3385.000000	59.396694
3384.000000	59.503207
3383.000000	59.608898
3382.000000	59.713724
3381.000000	59.819363
3380.000000	59.927089
3379.000000	60.035978
3378.000000	60.144883
3377.000000	60.254806
3376.000000	60.367217
3375.000000	60.481150
3374.000000	60.593905
3373.000000	60.704015
3372.000000	60.812229
3371.000000	60.920882
3370.000000	61.033730
3369.000000	61.155047
3368.000000	61.286708
3367.000000	61.426530
3366.000000	61.570541
3365.000000	61.715625
3364.000000	61.859757
3363.000000	62.001992
3362.000000	62.143816
3361.000000	62.288819
3360.000000	62.438893
3359.000000	62.591913
3358.000000	62.744654
3357.000000	62.896270
3356.000000	63.047270
3355.000000	63.196922
3354.000000	63.344284
3353.000000	63.491235
3352.000000	63.642168
3351.000000	63.800597
3350.000000	63.966629
3349.000000	64.136812
3348.000000	64.305416
3347.000000	64.467158
3346.000000	64.620670
3345.000000	64.769098
3344.000000	64.916474
3343.000000	65.063680
3342.000000	65.208577
3341.000000	65.348717
3340.000000	65.482882
3339.000000	65.610838
3338.000000	65.732249
3337.000000	65.845495
3336.000000	65.946364
3335.000000	66.029138
3334.000000	66.089872
3333.000000	66.126830
3332.000000	66.138361
3331.000000	66.120558
3330.000000	66.068323
3329.000000	65.978306
3328.000000	65.848481
3327.000000	65.677806
3326.000000	65.465566
3325.000000	65.209647
3324.000000	64.905993
3323.000000	64.547285
3322.000000	64.126241
3321.000000	63.636791
3320.000000	63.070500
3319.000000	62.416494
3318.000000	61.660564
3317.000000	60.787901
3316.000000	59.782237
3315.000000	58.623631
3314.000000	57.295929
3313.000000	55.789821
3312.000000	54.104745
3311.000000	52.250440
3310.000000	50.247160
3309.000000	48.130852
3308.000000	45.946446
3307.000000	43.738583
3306.000000	41.550380
3305.000000	39.422453
3304.000000	37.389946
3303.000000	35.479522
3302.000000	33.712782
3301.000000	32.111274
3300.000000	30.696591
3299.000000	29.483618
3298.000000	28.482928
3297.000000	27.702742
3296.000000	27.136650
3295.000000	26.758861
3294.000000	26.525592
3293.000000	26.386206
3292.000000	26.292355
3291.000000	26.199401
3290.000000	26.079167
3289.000000	25.925853
3288.000000	25.751481
3287.000000	25.576728
3286.000000	25.422529
3285.000000	25.305310
3284.000000	25.228532
3283.000000	25.180053
3282.000000	25.140484
3281.000000	25.092499
3280.000000	25.021456
3279.000000	24.913771
3278.000000	24.761789
3277.000000	24.568450
3276.000000	24.343850
3275.000000	24.099509
3274.000000	23.849848
3273.000000	23.615723
3272.000000	23.421837
3271.000000	23.290953
3270.000000	23.243688
3269.000000	23.297781
3268.000000	23.462153
3267.000000	23.736000
3266.000000	24.111276
3265.000000	24.575199
3264.000000	25.104985
3263.000000	25.663151
3262.000000	26.204693
3261.000000	26.684699
3260.000000	27.059116
3259.000000	27.286636
3258.000000	27.338711
3257.000000	27.202705
3256.000000	26.880309
3255.000000	26.380044
3254.000000	25.714765
3253.000000	24.905405
3252.000000	23.969645
3251.000000	22.920187
3250.000000	21.770950
3249.000000	20.544358
3248.000000	19.275565
3247.000000	18.008437
3246.000000	16.797649
3245.000000	15.708226
3244.000000	14.804345
3243.000000	14.131608
3242.000000	13.709787
3241.000000	13.525563
3240.000000	13.527293
3239.000000	13.638410
3238.000000	13.779987
3237.000000	13.895079
3236.000000	13.954177
3235.000000	13.950146
3234.000000	13.895299
3233.000000	13.810595
3232.000000	13.711561
3231.000000	13.603538
3230.000000	13.492229
3229.000000	13.393311
3228.000000	13.327508
3227.000000	13.313492
3226.000000	13.368814
3225.000000	13.510703
3224.000000	13.750277
3223.000000	14.085844
3222.000000	14.506970
3221.000000	14.998853
3220.000000	15.537818
3219.000000	16.090734
3218.000000	16.623112
3217.000000	17.107681
3216.000000	17.524662
3215.000000	17.861876
3214.000000	18.120018
3213.000000	18.314303
3212.000000	18.465842
3211.000000	18.594152
3210.000000	18.719618
3209.000000	18.864320
3208.000000	19.046020
3207.000000	19.273851
3206.000000	19.552690
3205.000000	19.886339
3204.000000	20.274110
3203.000000	20.708783
3202.000000	21.181975
3201.000000	21.688354
3200.000000	22.220472
3199.000000	22.766616
3198.000000	23.315779
3197.000000	23.861136
3196.000000	24.396577
3195.000000	24.913963
3194.000000	25.406905
3193.000000	25.872336
3192.000000	26.306071
3191.000000	26.700381
3190.000000	27.050369
3189.000000	27.357312
3188.000000	27.624116
3187.000000	27.852716
3186.000000	28.046749
3185.000000	28.213977
3184.000000	28.360806
3183.000000	28.489159
3182.000000	28.601353
3181.000000	28.702194
3180.000000	28.795524
3179.000000	28.882082
3178.000000	28.964556
3177.000000	29.051024
3176.000000	29.150296
3175.000000	29.267932
3174.000000	29.408955
3173.000000	29.579865
3172.000000	29.784142
3171.000000	30.021108
3170.000000	30.290531
3169.000000	30.595057
3168.000000	30.936049
3167.000000	31.309361
3166.000000	31.709773
3165.000000	32.134102
3164.000000	32.578690
3163.000000	33.038532
3162.000000	33.509870
3161.000000	33.990227
3160.000000	34.472021
3159.000000	34.939835
3158.000000	35.374307
3157.000000	35.755736
3156.000000	36.060850
3155.000000	36.262095
3154.000000	36.334343
3153.000000	36.260521
3152.000000	36.038556
3151.000000	35.686451
3150.000000	35.245875
3149.000000	34.774888
3148.000000	34.325476
3147.000000	33.926885
3146.000000	33.581508
3145.000000	33.268691
3144.000000	32.951398
3143.000000	32.586346
3142.000000	32.140380
3141.000000	31.599343
3140.000000	30.964590
3139.000000	30.249296
3138.000000	29.478360
3137.000000	28.686856
3136.000000	27.910532
3135.000000	27.179186
3134.000000	26.519877
3133.000000	25.959923
3132.000000	25.520849
3131.000000	25.213399
3130.000000	25.042312
3129.000000	25.006974
3128.000000	25.099791
3127.000000	25.305175
3126.000000	25.605944
3125.000000	25.989478
3124.000000	26.440968
3123.000000	26.943468
3122.000000	27.483371
3121.000000	28.052315
3120.000000	28.642739
3119.000000	29.243286
3118.000000	29.843981
3117.000000	30.438465
3116.000000	31.019305
3115.000000	31.575692
3114.000000	32.098502
3113.000000	32.582925
3112.000000	33.024113
3111.000000	33.416181
3110.000000	33.755564
3109.000000	34.042981
3108.000000	34.277523
3107.000000	34.454254
3106.000000	34.571312
3105.000000	34.633156
3104.000000	34.648483
3103.000000	34.628042
3102.000000	34.588323
3101.000000	34.552934
3100.000000	34.545960
3099.000000	34.586569
3098.000000	34.690152
3097.000000	34.869748
3096.000000	35.130498
3095.000000	35.468247
3094.000000	35.873944
3093.000000	36.337455
3092.000000	36.846831
3091.000000	37.386802
3090.000000	37.943792
3089.000000	38.507423
3088.000000	39.067464
3087.000000	39.614054
3086.000000	40.141888
3085.000000	40.651011
3084.000000	41.140906
3083.000000	41.607842
3082.000000	42.048861
3081.000000	42.465151
3080.000000	42.859072
3079.000000	43.232008
3078.000000	43.586907
3077.000000	43.928269
3076.000000	44.258740
3075.000000	44.577654
3074.000000	44.884880
3073.000000	45.182693
3072.000000	45.471921
3071.000000	45.750625
3070.000000	46.017697
3069.000000	46.275403
3068.000000	46.526992
3067.000000	46.774159
3066.000000	47.018407
3065.000000	47.261457
3064.000000	47.502883
3063.000000	47.740026
3062.000000	47.970941
3061.000000	48.195403
3060.000000	48.412353
3059.000000	48.619718
3058.000000	48.818068
3057.000000	49.011138
3056.000000	49.201737
3055.000000	49.389450
3054.000000	49.573190
3053.000000	49.753302
3052.000000	49.929679
3051.000000	50.100647
3050.000000	50.264686
3049.000000	50.421096
3048.000000	50.568878
3047.000000	50.707453
3046.000000	50.839474
3045.000000	50.969994
3044.000000	51.101894
3043.000000	51.234740
3042.000000	51.368057
3041.000000	51.502542
3040.000000	51.636994
3039.000000	51.767568
3038.000000	51.892072
3037.000000	52.012625
3036.000000	52.133196
3035.000000	52.256606
3034.000000	52.384591
3033.000000	52.517961
3032.000000	52.655161
3031.000000	52.792994
3030.000000	52.929708
3029.000000	53.065523
3028.000000	53.200187
3027.000000	53.332895
3026.000000	53.465046
3025.000000	53.599885
3024.000000	53.738386
3023.000000	53.878094
3022.000000	54.016863
3021.000000	54.155154
3020.000000	54.293752
3019.000000	54.431671
3018.000000	54.567318
3017.000000	54.699651
3016.000000	54.827280
3015.000000	54.948612
3014.000000	55.063544
3013.000000	55.173123
3012.000000	55.276833
3011.000000	55.371255
3010.000000	55.452013
3009.000000	55.514380
3008.000000	55.551878
3007.000000	55.556762
3006.000000	55.521873
3005.000000	55.442282
3004.000000	55.314299
3003.000000	55.136140
3002.000000	54.910307
3001.000000	54.641164
3000.000000	54.328926
2999.000000	53.964540
2998.000000	53.536330
2997.000000	53.048742
2996.000000	52.542671
2995.000000	52.097755
2994.000000	51.801927
2993.000000	51.704519
2992.000000	51.787646
2991.000000	51.983369
2990.000000	52.216280
2989.000000	52.434098
2988.000000	52.611858
2987.000000	52.743039
2986.000000	52.834094
2985.000000	52.898787
2984.000000	52.951956
2983.000000	53.006500
2982.000000	53.074236
2981.000000	53.163816
2980.000000	53.274286
2979.000000	53.393516
2978.000000	53.506867
2977.000000	53.609492
2976.000000	53.713848
2975.000000	53.847656
2974.000000	54.040378
2973.000000	54.302916
2972.000000	54.615660
2971.000000	54.937241
2970.000000	55.224260
2969.000000	55.444352
2968.000000	55.575378
2967.000000	55.602766
2966.000000	55.519827
2965.000000	55.326343
2964.000000	55.025901
2963.000000	54.623880
2962.000000	54.130525
2961.000000	53.558442
2960.000000	52.914153
2959.000000	52.192580
2958.000000	51.383456
2957.000000	50.493948
2956.000000	49.574022
2955.000000	48.726088
2954.000000	48.072368
2953.000000	47.689498
2952.000000	47.559246
2951.000000	47.584217
2950.000000	47.657605
2949.000000	47.721895
2948.000000	47.781065
2947.000000	47.873551
2946.000000	48.036883
2945.000000	48.278991
2944.000000	48.567549
2943.000000	48.849159
2942.000000	49.084818
2941.000000	49.274653
2940.000000	49.455270
2939.000000	49.679947
2938.000000	49.997690
2937.000000	50.435666
2936.000000	50.989511
2935.000000	51.629231
2934.000000	52.315869
2933.000000	53.013779
2932.000000	53.692813
2931.000000	54.330286
2930.000000	54.914848
2929.000000	55.444678
2928.000000	55.920493
2927.000000	56.342683
2926.000000	56.715436
2925.000000	57.046694
2924.000000	57.342507
2923.000000	57.604842
2922.000000	57.835961
2921.000000	58.040370
2920.000000	58.220760
2919.000000	58.377134
2918.000000	58.510455
2917.000000	58.624024
2916.000000	58.720252
2915.000000	58.799877
2914.000000	58.865729
2913.000000	58.923137
2912.000000	58.975954
2911.000000	59.025282
2910.000000	59.072468
2909.000000	59.119840
2908.000000	59.167467
2907.000000	59.212825
2906.000000	59.254608
2905.000000	59.294013
2904.000000	59.331850
2903.000000	59.368242
2902.000000	59.405316
2901.000000	59.446429
2900.000000	59.491837
2899.000000	59.537243
2898.000000	59.577213
2897.000000	59.606184
2896.000000	59.616774
2895.000000	59.601468
2894.000000	59.557443
2893.000000	59.486994
2892.000000	59.392437
2891.000000	59.274131
2890.000000	59.133631
2889.000000	58.975139
2888.000000	58.802877
2887.000000	58.620774
2886.000000	58.435802
2885.000000	58.257882
2884.000000	58.095815
2883.000000	57.955716
2882.000000	57.844001
2881.000000	57.767866
2880.000000	57.731115
2879.000000	57.733012
2878.000000	57.771301
2877.000000	57.842777
2876.000000	57.940406
2875.000000	58.054466
2874.000000	58.178027
2873.000000	58.308241
2872.000000	58.441787
2871.000000	58.573238
2870.000000	58.700003
2869.000000	58.825351
2868.000000	58.955392
2867.000000	59.095513
2866.000000	59.249596
2865.000000	59.418206
2864.000000	59.595636
2863.000000	59.772226
2862.000000	59.941317
2861.000000	60.101965
2860.000000	60.255227
2859.000000	60.401715
2858.000000	60.543565
2857.000000	60.684792
2856.000000	60.827790
2855.000000	60.972093
2854.000000	61.116843
2853.000000	61.261054
2852.000000	61.400751
2851.000000	61.529348
2850.000000	61.642330
2849.000000	61.739454
2848.000000	61.822582
2847.000000	61.894827
2846.000000	61.962184
2845.000000	62.031995
2844.000000	62.108277
2843.000000	62.190649
2842.000000	62.278257
2841.000000	62.372146
2840.000000	62.473276
2839.000000	62.581285
2838.000000	62.695988
2837.000000	62.817467
2836.000000	62.944115
2835.000000	63.073112
2834.000000	63.203086
2833.000000	63.333908
2832.000000	63.463769
2831.000000	63.589112
2830.000000	63.707842
2829.000000	63.820085
2828.000000	63.925668
2827.000000	64.023849
2826.000000	64.115893
2825.000000	64.205062
2824.000000	64.293385
2823.000000	64.380496
2822.000000	64.465791
2821.000000	64.549025
2820.000000	64.628363
2819.000000	64.700668
2818.000000	64.764528
2817.000000	64.821079
2816.000000	64.871927
2815.000000	64.918603
2814.000000	64.964096
2813.000000	65.012164
2812.000000	65.064461
2811.000000	65.120394
2810.000000	65.179582
2809.000000	65.241810
2808.000000	65.304721
2807.000000	65.364606
2806.000000	65.420150
2805.000000	65.473154
2804.000000	65.525453
2803.000000	65.577771
2802.000000	65.631642
2801.000000	65.689278
2800.000000	65.750662
2799.000000	65.813072
2798.000000	65.873874
2797.000000	65.931587
2796.000000	65.984283
2795.000000	66.029986
2794.000000	66.069466
2793.000000	66.106277
2792.000000	66.143377
2791.000000	66.181610
2790.000000	66.221400
2789.000000	66.263132
2788.000000	66.305352
2787.000000	66.345162
2786.000000	66.381324
2785.000000	66.415257
2784.000000	66.448898
2783.000000	66.483875
2782.000000	66.522800
2781.000000	66.568590
2780.000000	66.621742
2779.000000	66.680116
2778.000000	66.741412
2777.000000	66.803809
2776.000000	66.864407
2775.000000	66.919813
2774.000000	66.968874
2773.000000	67.012753
2772.000000	67.052271
2771.000000	67.087536
2770.000000	67.120146
2769.000000	67.153009
2768.000000	67.187484
2767.000000	67.222617
2766.000000	67.257333
2765.000000	67.291106
2764.000000	67.322462
2763.000000	67.349512
2762.000000	67.372335
2761.000000	67.392745
2760.000000	67.411543
2759.000000	67.428147
2758.000000	67.442858
2757.000000	67.456761
2756.000000	67.469199
2755.000000	67.477746
2754.000000	67.480867
2753.000000	67.478417
2752.000000	67.469472
2751.000000	67.452584
2750.000000	67.428997
2749.000000	67.403374
2748.000000	67.381008
2747.000000	67.366416
2746.000000	67.364296
2745.000000	67.378757
2744.000000	67.410640
2743.000000	67.457118
2742.000000	67.514171
2741.000000	67.577433
2740.000000	67.640957
2739.000000	67.698771
2738.000000	67.748594
2737.000000	67.792369
2736.000000	67.833360
2735.000000	67.874669
2734.000000	67.919859
2733.000000	67.971423
2732.000000	68.027557
2731.000000	68.082837
2730.000000	68.132832
2729.000000	68.176146
2728.000000	68.212323
2727.000000	68.240863
2726.000000	68.263151
2725.000000	68.282909
2724.000000	68.303428
2723.000000	68.325899
2722.000000	68.350382
2721.000000	68.375990
2720.000000	68.399944
2719.000000	68.418970
2718.000000	68.432749
2717.000000	68.444693
2716.000000	68.459242
2715.000000	68.479970
2714.000000	68.509783
2713.000000	68.549869
2712.000000	68.597588
2711.000000	68.647518
2710.000000	68.695101
2709.000000	68.737922
2708.000000	68.774121
2707.000000	68.802369
2706.000000	68.823964
2705.000000	68.842751
2704.000000	68.862335
2703.000000	68.884833
2702.000000	68.911890
2701.000000	68.944266
2700.000000	68.980156
2699.000000	69.016058
2698.000000	69.049574
2697.000000	69.079710
2696.000000	69.104999
2695.000000	69.124157
2694.000000	69.138745
2693.000000	69.152610
2692.000000	69.168182
2691.000000	69.185179
2690.000000	69.202904
2689.000000	69.221238
2688.000000	69.239093
2687.000000	69.254524
2686.000000	69.267065
2685.000000	69.278056
2684.000000	69.288375
2683.000000	69.297820
2682.000000	69.306904
2681.000000	69.316986
2680.000000	69.328349
2679.000000	69.340206
2678.000000	69.352801
2677.000000	69.367394
2676.000000	69.384125
2675.000000	69.402024
2674.000000	69.421291
2673.000000	69.443490
2672.000000	69.469322
2671.000000	69.498604
2670.000000	69.532563
2669.000000	69.573623
2668.000000	69.622695
2667.000000	69.678363
2666.000000	69.738894
2665.000000	69.802741
2664.000000	69.866803
2663.000000	69.926942
2662.000000	69.980927
2661.000000	70.029284
2660.000000	70.073283
2659.000000	70.114120
2658.000000	70.154047
2657.000000	70.195895
2656.000000	70.240608
2655.000000	70.286643
2654.000000	70.331898
2653.000000	70.374269
2652.000000	70.410726
2651.000000	70.438252
2650.000000	70.456308
2649.000000	70.467130
2648.000000	70.473511
2647.000000	70.478054
2646.000000	70.484157
2645.000000	70.494981
2644.000000	70.510930
2643.000000	70.529786
2642.000000	70.549530
2641.000000	70.569707
2640.000000	70.590544
2639.000000	70.612954
2638.000000	70.639581
2637.000000	70.673497
2636.000000	70.715230
2635.000000	70.762592
2634.000000	70.812901
2633.000000	70.863810
2632.000000	70.912539
2631.000000	70.956756
2630.000000	70.996762
2629.000000	71.035107
2628.000000	71.074276
2627.000000	71.116175
2626.000000	71.162826
2625.000000	71.214832
2624.000000	71.269096
2623.000000	71.320220
2622.000000	71.364387
2621.000000	71.400574
2620.000000	71.428739
2619.000000	71.449548
2618.000000	71.465537
2617.000000	71.479820
2616.000000	71.493342
2615.000000	71.504900
2614.000000	71.513857
2613.000000	71.520816
2612.000000	71.525814
2611.000000	71.528512
2610.000000	71.530106
2609.000000	71.532838
2608.000000	71.537359
2607.000000	71.542408
2606.000000	71.547115
2605.000000	71.551490
2604.000000	71.554836
2603.000000	71.556066
2602.000000	71.555880
2601.000000	71.556582
2600.000000	71.559562
2599.000000	71.564710
2598.000000	71.572010
2597.000000	71.581333
2596.000000	71.590578
2595.000000	71.596326
2594.000000	71.596907
2593.000000	71.593305
2592.000000	71.587153
2591.000000	71.579821
2590.000000	71.573201
2589.000000	71.569086
2588.000000	71.567389
2587.000000	71.566573
2586.000000	71.565783
2585.000000	71.564983
2584.000000	71.563686
2583.000000	71.561853
2582.000000	71.561999
2581.000000	71.567995
2580.000000	71.581797
2579.000000	71.603153
2578.000000	71.631634
2577.000000	71.666679
2576.000000	71.705684
2575.000000	71.744840
2574.000000	71.782485
2573.000000	71.819601
2572.000000	71.857530
2571.000000	71.897041
2570.000000	71.939136
2569.000000	71.984349
2568.000000	72.030980
2567.000000	72.076274
2566.000000	72.119362
2565.000000	72.161284
2564.000000	72.202755
2563.000000	72.244217
2562.000000	72.287724
2561.000000	72.336070
2560.000000	72.389739
2559.000000	72.446785
2558.000000	72.505413
2557.000000	72.564560
2556.000000	72.622463
2555.000000	72.677290
2554.000000	72.729473
2553.000000	72.781075
2552.000000	72.832787
2551.000000	72.883538
2550.000000	72.932844
2549.000000	72.981028
2548.000000	73.027245
2547.000000	73.069634
2546.000000	73.107657
2545.000000	73.142449
2544.000000	73.174812
2543.000000	73.205163
2542.000000	73.235255
2541.000000	73.267364
2540.000000	73.301514
2539.000000	73.335339
2538.000000	73.366852
2537.000000	73.395396
2536.000000	73.420048
2535.000000	73.439850
2534.000000	73.455963
2533.000000	73.471585
2532.000000	73.489256
2531.000000	73.509741
2530.000000	73.533352
2529.000000	73.559950
2528.000000	73.587432
2527.000000	73.612415
2526.000000	73.632915
2525.000000	73.649024
2524.000000	73.661115
2523.000000	73.669421
2522.000000	73.675320
2521.000000	73.680575
2520.000000	73.685063
2519.000000	73.686678
2518.000000	73.683473
2517.000000	73.674309
2516.000000	73.657352
2515.000000	73.630813
2514.000000	73.595475
2513.000000	73.554791
2512.000000	73.512522
2511.000000	73.471445
2510.000000	73.434227
2509.000000	73.402908
2508.000000	73.377077
2507.000000	73.354387
2506.000000	73.333209
2505.000000	73.313218
2504.000000	73.293869
2503.000000	73.274647
2502.000000	73.256735
2501.000000	73.242645
2500.000000	73.233864
2499.000000	73.230607
2498.000000	73.233858
2497.000000	73.244967
2496.000000	73.263749
2495.000000	73.288814
2494.000000	73.319737
2493.000000	73.357042
2492.000000	73.399559
2491.000000	73.444378
2490.000000	73.489296
2489.000000	73.533502
2488.000000	73.576502
2487.000000	73.618462
2486.000000	73.661832
2485.000000	73.710181
2484.000000	73.764859
2483.000000	73.824564
2482.000000	73.887564
2481.000000	73.952273
2480.000000	74.015962
2479.000000	74.075538
2478.000000	74.130230
2477.000000	74.181710
2476.000000	74.231637
2475.000000	74.280717
2474.000000	74.329877
2473.000000	74.379769
2472.000000	74.428877
2471.000000	74.473878
2470.000000	74.512058
2469.000000	74.542375
2468.000000	74.564468
2467.000000	74.579113
2466.000000	74.589395
2465.000000	74.598998
2464.000000	74.609212
2463.000000	74.618471
2462.000000	74.624553
2461.000000	74.625336
2460.000000	74.617998
2459.000000	74.600753
2458.000000	74.575502
2457.000000	74.547269
2456.000000	74.520893
2455.000000	74.499824
2454.000000	74.487289
2453.000000	74.485368
2452.000000	74.492456
2451.000000	74.503929
2450.000000	74.516322
2449.000000	74.529032
2448.000000	74.542552
2447.000000	74.557507
2446.000000	74.575585
2445.000000	74.599326
2444.000000	74.629676
2443.000000	74.665418
2442.000000	74.705047
2441.000000	74.747417
2440.000000	74.790848
2439.000000	74.833436
2438.000000	74.874802
2437.000000	74.915989
2436.000000	74.957528
2435.000000	74.999209
2434.000000	75.041318
2433.000000	75.084303
2432.000000	75.127303
2431.000000	75.168847
2430.000000	75.208757
2429.000000	75.247518
2428.000000	75.283887
2427.000000	75.314837
2426.000000	75.338110
2425.000000	75.352992
2424.000000	75.359380
2423.000000	75.358261
2422.000000	75.352992
2421.000000	75.348370
2420.000000	75.347753
2419.000000	75.352378
2418.000000	75.362620
2417.000000	75.377809
2416.000000	75.395145
2415.000000	75.411081
2414.000000	75.424083
2413.000000	75.434561
2412.000000	75.442778
2411.000000	75.448914
2410.000000	75.454756
2409.000000	75.462647
2408.000000	75.472501
2407.000000	75.481642
2406.000000	75.487693
2405.000000	75.489650
2404.000000	75.486575
2403.000000	75.477871
2402.000000	75.464954
2401.000000	75.450671
2400.000000	75.436342
2399.000000	75.420493
2398.000000	75.400413
2397.000000	75.372199
2396.000000	75.330233
2395.000000	75.269070
2394.000000	75.186436
2393.000000	75.084221
2392.000000	74.966006
2391.000000	74.836515
2390.000000	74.702564
2389.000000	74.571427
2388.000000	74.448094
2387.000000	74.335244
2386.000000	74.236408
2385.000000	74.156607
2384.000000	74.099616
2383.000000	74.066383
2382.000000	74.056397
2381.000000	74.067199
2380.000000	74.092223
2379.000000	74.123752
2378.000000	74.156403
2377.000000	74.187655
2376.000000	74.214391
2375.000000	74.232428
2374.000000	74.243734
2373.000000	74.254123
2372.000000	74.263569
2371.000000	74.267042
2370.000000	74.266412
2369.000000	74.267374
2368.000000	74.265987
2367.000000	74.261032
2366.000000	74.264185
2365.000000	74.275604
2364.000000	74.293161
2363.000000	74.312129
2362.000000	74.324159
2361.000000	74.340193
2360.000000	74.353191
2359.000000	74.352114
2358.000000	74.334519
2357.000000	74.290941
2356.000000	74.226792
2355.000000	74.160715
2354.000000	74.169775
2353.000000	74.292027
2352.000000	74.463698
2351.000000	74.593188
2350.000000	74.630609
2349.000000	74.631558
2348.000000	74.652662
2347.000000	74.701066
2346.000000	74.757367
2345.000000	74.787322
2344.000000	74.812582
2343.000000	74.831620
2342.000000	74.849483
2341.000000	74.865479
2340.000000	74.878597
2339.000000	74.894671
2338.000000	74.921300
2337.000000	74.969387
2336.000000	75.031581
2335.000000	75.096470
2334.000000	75.156513
2333.000000	75.223978
2332.000000	75.285489
2331.000000	75.367160
2330.000000	75.445757
2329.000000	75.531836
2328.000000	75.596041
2327.000000	75.638892
2326.000000	75.664919
2325.000000	75.670579
2324.000000	75.658829
2323.000000	75.620611
2322.000000	75.569630
2321.000000	75.518627
2320.000000	75.473420
2319.000000	75.435619
2318.000000	75.389745
2317.000000	75.336557
2316.000000	75.258718
2315.000000	75.163405
2314.000000	75.040394
2313.000000	74.906369
2312.000000	74.755474
2311.000000	74.601420
2310.000000	74.438874
2309.000000	74.279834
2308.000000	74.118943
2307.000000	73.961285
2306.000000	73.801063
2305.000000	73.642873
2304.000000	73.482970
2303.000000	73.330274
2302.000000	73.188142
2301.000000	73.070637
2300.000000	72.977949
2299.000000	72.914803
2298.000000	72.873858
2297.000000	72.853931
2296.000000	72.843558
2295.000000	72.836634
2294.000000	72.826059
2293.000000	72.811452
2292.000000	72.791279
2291.000000	72.765058
2290.000000	72.733917
2289.000000	72.699242
2288.000000	72.661817
2287.000000	72.620285
2286.000000	72.575293
2285.000000	72.526096
2284.000000	72.472184
2283.000000	72.413164
2282.000000	72.354306
2281.000000	72.303097
2280.000000	72.266653
2279.000000	72.249283
2278.000000	72.254012
2277.000000	72.282688
2276.000000	72.332941
2275.000000	72.402322
2274.000000	72.489864
2273.000000	72.596203
2272.000000	72.718521
2271.000000	72.851246
2270.000000	72.989671
2269.000000	73.130763
2268.000000	73.271289
2267.000000	73.409233
2266.000000	73.544610
2265.000000	73.678629
2264.000000	73.810119
2263.000000	73.936312
2262.000000	74.056764
2261.000000	74.171682
2260.000000	74.281293
2259.000000	74.385436
2258.000000	74.487033
2257.000000	74.590600
2256.000000	74.699529
2255.000000	74.816771
2254.000000	74.945222
2253.000000	75.086789
2252.000000	75.238475
2251.000000	75.395263
2250.000000	75.553101
2249.000000	75.709586
2248.000000	75.861859
2247.000000	76.007974
2246.000000	76.148937
2245.000000	76.287205
2244.000000	76.423053
2243.000000	76.554967
2242.000000	76.682273
2241.000000	76.804701
2240.000000	76.920058
2239.000000	77.025031
2238.000000	77.118590
2237.000000	77.201975
2236.000000	77.276464
2235.000000	77.342708
2234.000000	77.402274
2233.000000	77.457065
2232.000000	77.507194
2231.000000	77.551486
2230.000000	77.589517
2229.000000	77.621621
2228.000000	77.647285
2227.000000	77.665757
2226.000000	77.678001
2225.000000	77.686229
2224.000000	77.691761
2223.000000	77.695342
2222.000000	77.698609
2221.000000	77.703351
2220.000000	77.709333
2219.000000	77.715150
2218.000000	77.720757
2217.000000	77.727329
2216.000000	77.735091
2215.000000	77.743510
2214.000000	77.753544
2213.000000	77.767436
2212.000000	77.786308
2211.000000	77.809565
2210.000000	77.836456
2209.000000	77.866407
2208.000000	77.898083
2207.000000	77.929911
2206.000000	77.961143
2205.000000	77.990982
2204.000000	78.017410
2203.000000	78.038929
2202.000000	78.057140
2201.000000	78.076098
2200.000000	78.099713
2199.000000	78.131484
2198.000000	78.175216
2197.000000	78.233139
2196.000000	78.303064
2195.000000	78.379406
2194.000000	78.457023
2193.000000	78.532835
2192.000000	78.604956
2191.000000	78.672354
2190.000000	78.735166
2189.000000	78.793358
2188.000000	78.845392
2187.000000	78.889677
2186.000000	78.926543
2185.000000	78.957320
2184.000000	78.982250
2183.000000	79.001177
2182.000000	79.015435
2181.000000	79.027075
2180.000000	79.036796
2179.000000	79.044382
2178.000000	79.050521
2177.000000	79.056147
2176.000000	79.060613
2175.000000	79.062577
2174.000000	79.062207
2173.000000	79.060688
2172.000000	79.058150
2171.000000	79.054265
2170.000000	79.050553
2169.000000	79.050022
2168.000000	79.054578
2167.000000	79.064408
2166.000000	79.079214
2165.000000	79.097899
2164.000000	79.117420
2163.000000	79.134195
2162.000000	79.146853
2161.000000	79.156389
2160.000000	79.164379
2159.000000	79.172780
2158.000000	79.184796
2157.000000	79.203550
2156.000000	79.229780
2155.000000	79.261981
2154.000000	79.298159
2153.000000	79.335795
2152.000000	79.371165
2151.000000	79.401153
2150.000000	79.426017
2149.000000	79.448995
2148.000000	79.473647
2147.000000	79.502892
2146.000000	79.539106
2145.000000	79.582697
2144.000000	79.630887
2143.000000	79.679163
2142.000000	79.723783
2141.000000	79.762119
2140.000000	79.791951
2139.000000	79.812622
2138.000000	79.826474
2137.000000	79.837639
2136.000000	79.849774
2135.000000	79.865773
2134.000000	79.887960
2133.000000	79.916194
2132.000000	79.946244
2131.000000	79.972078
2130.000000	79.989741
2129.000000	79.998042
2128.000000	79.997051
2127.000000	79.988058
2126.000000	79.974141
2125.000000	79.958258
2124.000000	79.940792
2123.000000	79.920226
2122.000000	79.895342
2121.000000	79.865498
2120.000000	79.829854
2119.000000	79.788417
2118.000000	79.743540
2117.000000	79.698696
2116.000000	79.656248
2115.000000	79.617869
2114.000000	79.585882
2113.000000	79.561984
2112.000000	79.545263
2111.000000	79.533297
2110.000000	79.524541
2109.000000	79.517900
2108.000000	79.511160
2107.000000	79.502470
2106.000000	79.493005
2105.000000	79.486307
2104.000000	79.485348
2103.000000	79.491925
2102.000000	79.507451
2101.000000	79.531716
2100.000000	79.561401
2099.000000	79.591612
2098.000000	79.619279
2097.000000	79.643267
2096.000000	79.663265
2095.000000	79.681440
2094.000000	79.703627
2093.000000	79.736060
2092.000000	79.781366
2091.000000	79.839346
2090.000000	79.909758
2089.000000	79.991621
2088.000000	80.080844
2087.000000	80.171652
2086.000000	80.259862
2085.000000	80.343183
2084.000000	80.419934
2083.000000	80.490123
2082.000000	80.557125
2081.000000	80.625689
2080.000000	80.698615
2079.000000	80.776073
2078.000000	80.857261
2077.000000	80.939442
2076.000000	81.017079
2075.000000	81.085042
2074.000000	81.141441
2073.000000	81.187880
2072.000000	81.226994
2071.000000	81.262472
2070.000000	81.300668
2069.000000	81.347992
2068.000000	81.405468
2067.000000	81.467532
2066.000000	81.526670
2065.000000	81.578272
2064.000000	81.621006
2063.000000	81.655001
2062.000000	81.681276
2061.000000	81.702165
2060.000000	81.721759
2059.000000	81.745562
2058.000000	81.778497
2057.000000	81.822048
2056.000000	81.873367
2055.000000	81.927552
2054.000000	81.979539
2053.000000	82.024814
2052.000000	82.059724
2051.000000	82.083260
2050.000000	82.099117
2049.000000	82.114672
2048.000000	82.136566
2047.000000	82.168750
2046.000000	82.213555
2045.000000	82.270526
2044.000000	82.333524
2043.000000	82.392094
2042.000000	82.437605
2041.000000	82.467384
2040.000000	82.483659
2039.000000	82.491160
2038.000000	82.496285
2037.000000	82.506297
2036.000000	82.527126
2035.000000	82.561784
2034.000000	82.609894
2033.000000	82.666877
2032.000000	82.724718
2031.000000	82.775887
2030.000000	82.816670
2029.000000	82.847841
2028.000000	82.871766
2027.000000	82.892704
2026.000000	82.916125
2025.000000	82.947375
2024.000000	82.987742
2023.000000	83.033675
2022.000000	83.080877
2021.000000	83.125333
2020.000000	83.160198
2019.000000	83.176258
2018.000000	83.169234
2017.000000	83.146043
2016.000000	83.121302
2015.000000	83.108177
2014.000000	83.112752
2013.000000	83.134103
2012.000000	83.166391
2011.000000	83.201691
2010.000000	83.232207
2009.000000	83.251552
2008.000000	83.255283
2007.000000	83.243860
2006.000000	83.222573
2005.000000	83.199900
2004.000000	83.184106
2003.000000	83.180867
2002.000000	83.194501
2001.000000	83.223793
2000.000000	83.263801
1999.000000	83.306528
1998.000000	83.343823
1997.000000	83.373658
1996.000000	83.400711
1995.000000	83.427348
1994.000000	83.447696
1993.000000	83.455934
1992.000000	83.458657
1991.000000	83.471481
1990.000000	83.502364
1989.000000	83.544771
1988.000000	83.586385
1987.000000	83.619329
1986.000000	83.640822
1985.000000	83.649033
1984.000000	83.644449
1983.000000	83.633614
1982.000000	83.628871
1981.000000	83.639795
1980.000000	83.672049
1979.000000	83.724986
1978.000000	83.790366
1977.000000	83.855933
1976.000000	83.911646
1975.000000	83.952001
1974.000000	83.974888
1973.000000	83.983841
1972.000000	83.991005
1971.000000	84.011797
1970.000000	84.053326
1969.000000	84.110022
1968.000000	84.170666
1967.000000	84.228023
1966.000000	84.279978
1965.000000	84.324148
1964.000000	84.354914
1963.000000	84.367041
1962.000000	84.361337
1961.000000	84.347629
1960.000000	84.340809
1959.000000	84.351785
1958.000000	84.381373
1957.000000	84.421069
1956.000000	84.458855
1955.000000	84.484969
1954.000000	84.492550
1953.000000	84.479730
1952.000000	84.447268
1951.000000	84.401527
1950.000000	84.354310
1949.000000	84.314059
1948.000000	84.285103
1947.000000	84.273972
1946.000000	84.286644
1945.000000	84.316349
1944.000000	84.340624
1943.000000	84.341140
1942.000000	84.323703
1941.000000	84.309049
1940.000000	84.309851
1939.000000	84.325296
1938.000000	84.351833
1937.000000	84.392707
1936.000000	84.453557
1935.000000	84.533442
1934.000000	84.623911
1933.000000	84.716773
1932.000000	84.801796
1931.000000	84.870370
1930.000000	84.918545
1929.000000	84.941881
1928.000000	84.946524
1927.000000	84.947493
1926.000000	84.964743
1925.000000	85.000190
1924.000000	85.035617
1923.000000	85.064880
1922.000000	85.105290
1921.000000	85.166302
1920.000000	85.225704
1919.000000	85.244367
1918.000000	85.213203
1917.000000	85.162090
1916.000000	85.120226
1915.000000	85.096644
1914.000000	85.093572
1913.000000	85.115388
1912.000000	85.157190
1911.000000	85.201026
1910.000000	85.226620
1909.000000	85.220708
1908.000000	85.185125
1907.000000	85.125642
1906.000000	85.055938
1905.000000	84.989663
1904.000000	84.932455
1903.000000	84.890574
1902.000000	84.869063
1901.000000	84.861163
1900.000000	84.855036
1899.000000	84.841119
1898.000000	84.818533
1897.000000	84.784625
1896.000000	84.730954
1895.000000	84.664957
1894.000000	84.618920
1893.000000	84.621464
1892.000000	84.668635
1891.000000	84.731003
1890.000000	84.785424
1889.000000	84.831593
1888.000000	84.874810
1887.000000	84.912063
1886.000000	84.936463
1885.000000	84.944381
1884.000000	84.939366
1883.000000	84.935024
1882.000000	84.945278
1881.000000	84.971912
1880.000000	85.009965
1879.000000	85.053100
1878.000000	85.096355
1877.000000	85.135657
1876.000000	85.160349
1875.000000	85.162887
1874.000000	85.155714
1873.000000	85.163131
1872.000000	85.198542
1871.000000	85.253713
1870.000000	85.308243
1869.000000	85.353800
1868.000000	85.398165
1867.000000	85.447441
1866.000000	85.501376
1865.000000	85.553708
1864.000000	85.594286
1863.000000	85.619616
1862.000000	85.638583
1861.000000	85.662923
1860.000000	85.699687
1859.000000	85.755262
1858.000000	85.837353
1857.000000	85.944417
1856.000000	86.061250
1855.000000	86.169171
1854.000000	86.259242
1853.000000	86.322765
1852.000000	86.364502
1851.000000	86.393864
1850.000000	86.416050
1849.000000	86.439777
1848.000000	86.482009
1847.000000	86.558487
1846.000000	86.659002
1845.000000	86.745832
1844.000000	86.801903
1843.000000	86.844827
1842.000000	86.880115
1841.000000	86.896045
1840.000000	86.890978
1839.000000	86.874793
1838.000000	86.869388
1837.000000	86.888512
1836.000000	86.930368
1835.000000	86.996339
1834.000000	87.094497
1833.000000	87.222768
1832.000000	87.358066
1831.000000	87.447787
1830.000000	87.466987
1829.000000	87.460267
1828.000000	87.478926
1827.000000	87.526065
1826.000000	87.572473
1825.000000	87.611555
1824.000000	87.666872
1823.000000	87.746976
1822.000000	87.834838
1821.000000	87.913622
1820.000000	87.976605
1819.000000	88.015987
1818.000000	88.033958
1817.000000	88.045147
1816.000000	88.066050
1815.000000	88.111654
1814.000000	88.184776
1813.000000	88.279462
1812.000000	88.372545
1811.000000	88.437168
1810.000000	88.473662
1809.000000	88.493060
1808.000000	88.495828
1807.000000	88.487052
1806.000000	88.489390
1805.000000	88.525872
1804.000000	88.594961
1803.000000	88.683873
1802.000000	88.774663
1801.000000	88.861344
1800.000000	88.934962
1799.000000	88.982859
1798.000000	89.004507
1797.000000	89.008162
1796.000000	89.006503
1795.000000	89.020923
1794.000000	89.055771
1793.000000	89.094533
1792.000000	89.123698
1791.000000	89.147315
1790.000000	89.173975
1789.000000	89.207908
1788.000000	89.244095
1787.000000	89.270102
1786.000000	89.278415
1785.000000	89.277455
1784.000000	89.284793
1783.000000	89.320297
1782.000000	89.368160
1781.000000	89.412081
1780.000000	89.459057
1779.000000	89.523628
1778.000000	89.602509
1777.000000	89.670827
1776.000000	89.725358
1775.000000	89.789526
1774.000000	89.864495
1773.000000	89.924802
1772.000000	89.982071
1771.000000	90.052859
1770.000000	90.122640
1769.000000	90.182428
1768.000000	90.237840
1767.000000	90.304612
1766.000000	90.386977
1765.000000	90.481619
1764.000000	90.573983
1763.000000	90.634449
1762.000000	90.647615
1761.000000	90.659071
1760.000000	90.706997
1759.000000	90.789060
1758.000000	90.871550
1757.000000	90.925063
1756.000000	90.971252
1755.000000	91.025821
1754.000000	91.073672
1753.000000	91.103716
1752.000000	91.125029
1751.000000	91.150059
1750.000000	91.180988
1749.000000	91.193069
1748.000000	91.184374
1747.000000	91.187998
1746.000000	91.208176
1745.000000	91.226292
1744.000000	91.226638
1743.000000	91.210584
1742.000000	91.186521
1741.000000	91.148365
1740.000000	91.078444
1739.000000	90.999325
1738.000000	90.946936
1737.000000	90.941666
1736.000000	90.981019
1735.000000	91.005204
1734.000000	91.016088
1733.000000	91.081159
1732.000000	91.147836
1731.000000	91.136633
1730.000000	91.043310
1729.000000	90.917486
1728.000000	90.820997
1727.000000	90.777303
1726.000000	90.763662
1725.000000	90.760495
1724.000000	90.751023
1723.000000	90.732011
1722.000000	90.721454
1721.000000	90.729872
1720.000000	90.741237
1719.000000	90.706980
1718.000000	90.638887
1717.000000	90.629683
1716.000000	90.675696
1715.000000	90.697489
1714.000000	90.687989
1713.000000	90.687419
1712.000000	90.707297
1711.000000	90.738916
1710.000000	90.788718
1709.000000	90.876666
1708.000000	91.008993
1707.000000	91.147355
1706.000000	91.255330
1705.000000	91.340822
1704.000000	91.423250
1703.000000	91.535560
1702.000000	91.701415
1701.000000	91.840672
1700.000000	91.934882
1699.000000	92.024228
1698.000000	92.082132
1697.000000	92.092248
1696.000000	92.066606
1695.000000	92.087140
1694.000000	92.177064
1693.000000	92.266193
1692.000000	92.323637
1691.000000	92.366679
1690.000000	92.399084
1689.000000	92.390778
1688.000000	92.350440
1687.000000	92.340720
1686.000000	92.409874
1685.000000	92.475575
1684.000000	92.506787
1683.000000	92.570541
1682.000000	92.610753
1681.000000	92.568352
1680.000000	92.483283
1679.000000	92.429759
1678.000000	92.428580
1677.000000	92.435137
1676.000000	92.391171
1675.000000	92.319712
1674.000000	92.268508
1673.000000	92.237770
1672.000000	92.211080
1671.000000	92.176977
1670.000000	92.115589
1669.000000	92.017712
1668.000000	91.901362
1667.000000	91.788496
1666.000000	91.681854
1665.000000	91.569481
1664.000000	91.417482
1663.000000	91.224607
1662.000000	91.020802
1661.000000	90.809809
1660.000000	90.590083
1659.000000	90.372807
1658.000000	90.150328
1657.000000	89.904309
1656.000000	89.651205
1655.000000	89.359129
1654.000000	88.796941
1653.000000	87.962246
1652.000000	87.248049
1651.000000	86.730110
1650.000000	86.202227
1649.000000	85.467891
1648.000000	84.342554
1647.000000	82.760096
1646.000000	80.912574
1645.000000	79.055447
1644.000000	77.259321
1643.000000	75.477601
1642.000000	73.687328
1641.000000	71.968574
1640.000000	70.494303
1639.000000	69.392326
1638.000000	68.692429
1637.000000	68.372198
1636.000000	68.466222
1635.000000	68.986475
1634.000000	69.763971
1633.000000	70.623232
1632.000000	71.532682
1631.000000	72.526037
1630.000000	73.603205
1629.000000	74.717782
1628.000000	75.814437
1627.000000	76.848820
1626.000000	77.793205
1625.000000	78.667022
1624.000000	79.509681
1623.000000	80.327046
1622.000000	81.065701
1621.000000	81.680360
1620.000000	82.213877
1619.000000	82.756580
1618.000000	83.372834
1617.000000	84.072240
1616.000000	84.814975
1615.000000	85.488851
1614.000000	85.997840
1613.000000	86.352589
1612.000000	86.618400
1611.000000	86.822905
1610.000000	86.902577
1609.000000	86.771483
1608.000000	86.384449
1607.000000	85.697664
1606.000000	84.603469
1605.000000	82.972232
1604.000000	80.763441
1603.000000	78.049849
1602.000000	74.987577
1601.000000	71.742823
1600.000000	68.349572
1599.000000	64.613689
1598.000000	60.159555
1597.000000	54.719980
1596.000000	48.489696
1595.000000	42.189633
1594.000000	36.694877
1593.000000	32.540142
1592.000000	29.816201
1591.000000	28.367788
1590.000000	27.916620
1589.000000	28.070635
1588.000000	28.435241
1587.000000	28.737105
1586.000000	28.804560
1585.000000	28.573141
1584.000000	28.152578
1583.000000	27.784855
1582.000000	27.651241
1581.000000	27.760696
1580.000000	28.056179
1579.000000	28.518775
1578.000000	29.109196
1577.000000	29.678612
1576.000000	30.062919
1575.000000	30.265957
1574.000000	30.375870
1573.000000	30.435424
1572.000000	30.534402
1571.000000	30.886308
1570.000000	31.706378
1569.000000	32.981629
1568.000000	34.542557
1567.000000	36.321738
1566.000000	38.302807
1565.000000	40.328070
1564.000000	42.168824
1563.000000	43.738094
1562.000000	45.170600
1561.000000	46.709691
1560.000000	48.615451
1559.000000	50.978718
1558.000000	53.342611
1557.000000	55.195325
1556.000000	56.654790
1555.000000	58.030672
1554.000000	59.415966
1553.000000	60.726724
1552.000000	61.887893
1551.000000	62.929706
1550.000000	63.906467
1549.000000	64.810570
1548.000000	65.624034
1547.000000	66.387486
1546.000000	67.146304
1545.000000	67.879918
1544.000000	68.547171
1543.000000	69.157305
1542.000000	69.768710
1541.000000	70.393683
1540.000000	70.989085
1539.000000	71.543646
1538.000000	72.057512
1537.000000	72.520035
1536.000000	72.947512
1535.000000	73.373476
1534.000000	73.782099
1533.000000	74.144266
1532.000000	74.458441
1531.000000	74.756932
1530.000000	75.087516
1529.000000	75.449405
1528.000000	75.801052
1527.000000	76.123135
1526.000000	76.421053
1525.000000	76.697668
1524.000000	76.954619
1523.000000	77.197920
1522.000000	77.420403
1521.000000	77.625007
1520.000000	77.838705
1519.000000	78.067815
1518.000000	78.282126
1517.000000	78.438420
1516.000000	78.535732
1515.000000	78.624470
1514.000000	78.737265
1513.000000	78.873817
1512.000000	79.013657
1511.000000	79.152410
1510.000000	79.305332
1509.000000	79.479296
1508.000000	79.623327
1507.000000	79.698539
1506.000000	79.785444
1505.000000	79.921850
1504.000000	80.060642
1503.000000	80.181759
1502.000000	80.300617
1501.000000	80.428668
1500.000000	80.561031
1499.000000	80.691029
1498.000000	80.829890
1497.000000	81.006731
1496.000000	81.232247
1495.000000	81.501993
1494.000000	81.807409
1493.000000	82.139619
1492.000000	82.481361
1491.000000	82.800210
1490.000000	83.074247
1489.000000	83.306564
1488.000000	83.499767
1487.000000	83.680347
1486.000000	83.896105
1485.000000	84.145416
1484.000000	84.415262
1483.000000	84.699951
1482.000000	84.981490
1481.000000	85.232403
1480.000000	85.448497
1479.000000	85.662660
1478.000000	85.895060
1477.000000	86.129381
1476.000000	86.350422
1475.000000	86.601542
1474.000000	86.914278
1473.000000	87.244530
1472.000000	87.533114
1471.000000	87.756800
1470.000000	87.904107
1469.000000	87.965968
1468.000000	87.945372
1467.000000	87.838839
1466.000000	87.560666
1465.000000	86.943809
1464.000000	85.896864
1463.000000	84.424141
1462.000000	82.514365
1461.000000	80.132630
1460.000000	77.289952
1459.000000	73.985925
1458.000000	70.146070
1457.000000	66.066170
1456.000000	62.608844
1455.000000	60.170009
1454.000000	58.313706
1453.000000	56.602071
1452.000000	55.017319
1451.000000	53.804451
1450.000000	53.176409
1449.000000	53.204522
1448.000000	53.830467
1447.000000	54.862978
1446.000000	56.086983
1445.000000	57.458443
1444.000000	59.075147
1443.000000	60.959057
1442.000000	62.967248
1441.000000	64.896144
1440.000000	66.623768
1439.000000	68.147583
1438.000000	69.550992
1437.000000	70.914784
1436.000000	72.230687
1435.000000	73.411825
1434.000000	74.443535
1433.000000	75.410093
1432.000000	76.364427
1431.000000	77.270813
1430.000000	78.071528
1429.000000	78.760443
1428.000000	79.351857
1427.000000	79.864589
1426.000000	80.317621
1425.000000	80.723794
1424.000000	81.084845
1423.000000	81.393158
1422.000000	81.678496
1421.000000	82.000887
1420.000000	82.374017
1419.000000	82.741107
1418.000000	83.064647
1417.000000	83.353932
1416.000000	83.614906
1415.000000	83.844271
1414.000000	84.048179
1413.000000	84.241757
1412.000000	84.424849
1411.000000	84.581063
1410.000000	84.715165
1409.000000	84.854048
1408.000000	84.984990
1407.000000	85.045982
1406.000000	84.947078
1405.000000	84.597778
1404.000000	83.961638
1403.000000	83.099719
1402.000000	82.149899
1401.000000	81.237556
1400.000000	80.431169
1399.000000	79.762580
1398.000000	79.250168
1397.000000	78.926129
1396.000000	78.876439
1395.000000	79.214709
1394.000000	79.936855
1393.000000	80.866723
1392.000000	81.788970
1391.000000	82.578620
1390.000000	83.216302
1389.000000	83.748888
1388.000000	84.241074
1387.000000	84.738260
1386.000000	85.243373
1385.000000	85.723648
1384.000000	86.145258
1383.000000	86.487198
1382.000000	86.754563
1381.000000	86.970411
1380.000000	87.150461
1379.000000	87.300851
1378.000000	87.429137
1377.000000	87.531848
1376.000000	87.557635
1375.000000	87.403212
1374.000000	86.952139
1373.000000	86.121254
1372.000000	84.841483
1371.000000	83.015108
1370.000000	80.546686
1369.000000	77.501126
1368.000000	74.263696
1367.000000	71.443671
1366.000000	69.536773
1365.000000	68.686217
1364.000000	68.735665
1363.000000	69.436665
1362.000000	70.619087
1361.000000	72.214804
1360.000000	74.147935
1359.000000	76.248400
1358.000000	78.282925
1357.000000	80.054576
1356.000000	81.479742
1355.000000	82.588051
1354.000000	83.470711
1353.000000	84.224162
1352.000000	84.901975
1351.000000	85.514752
1350.000000	86.051438
1349.000000	86.504080
1348.000000	86.876675
1347.000000	87.180038
1346.000000	87.433879
1345.000000	87.666747
1344.000000	87.907646
1343.000000	88.172266
1342.000000	88.459668
1341.000000	88.752895
1340.000000	89.022948
1339.000000	89.242667
1338.000000	89.403178
1337.000000	89.517516
1336.000000	89.607342
1335.000000	89.693627
1334.000000	89.798132
1333.000000	89.938458
1332.000000	90.115763
1331.000000	90.313793
1330.000000	90.508068
1329.000000	90.672903
1328.000000	90.774050
1327.000000	90.767136
1326.000000	90.596236
1325.000000	90.184503
1324.000000	89.435274
1323.000000	88.247737
1322.000000	86.564659
1321.000000	84.431397
1320.000000	82.026932
1319.000000	79.630662
1318.000000	77.500078
1317.000000	75.753598
1316.000000	74.394609
1315.000000	73.447663
1314.000000	73.014937
1313.000000	73.176083
1312.000000	73.848394
1311.000000	74.778377
1310.000000	75.711186
1309.000000	76.561775
1308.000000	77.432601
1307.000000	78.488061
1306.000000	79.796914
1305.000000	81.275558
1304.000000	82.748970
1303.000000	84.052954
1302.000000	85.104938
1301.000000	85.909646
1300.000000	86.510497
1299.000000	86.946055
1298.000000	87.236196
1297.000000	87.375476
1296.000000	87.334310
1295.000000	87.063409
1294.000000	86.513449
1293.000000	85.650875
1292.000000	84.468627
1291.000000	83.023097
1290.000000	81.438015
1289.000000	79.828969
1288.000000	78.186200
1287.000000	76.335150
1286.000000	74.073512
1285.000000	71.398275
1284.000000	68.618118
1283.000000	66.252597
1282.000000	64.795043
1281.000000	64.490953
1280.000000	65.283157
1279.000000	66.887513
1278.000000	68.909124
1277.000000	70.961951
1276.000000	72.712743
1275.000000	73.898816
1274.000000	74.418849
1273.000000	74.466087
1272.000000	74.529617
1271.000000	75.127655
1270.000000	76.456420
1269.000000	78.289184
1268.000000	80.206847
1267.000000	81.905336
1266.000000	83.308277
1265.000000	84.473293
1264.000000	85.464737
1263.000000	86.311717
1262.000000	87.026164
1261.000000	87.621112
1260.000000	88.112390
1259.000000	88.521387
1258.000000	88.882059
1257.000000	89.227235
1256.000000	89.573195
1255.000000	89.922435
1254.000000	90.271385
1253.000000	90.610696
1252.000000	90.921441
1251.000000	91.185430
1250.000000	91.399811
1249.000000	91.575776
1248.000000	91.729249
1247.000000	91.878948
1246.000000	92.047877
1245.000000	92.253973
1244.000000	92.496292
1243.000000	92.756889
1242.000000	93.013943
1241.000000	93.247184
1240.000000	93.437060
1239.000000	93.572358
1238.000000	93.661828
1237.000000	93.729487
1236.000000	93.798184
1235.000000	93.883337
1234.000000	93.993540
1233.000000	94.124796
1232.000000	94.251773
1231.000000	94.333185
1230.000000	94.331375
1229.000000	94.214739
1228.000000	93.951518
1227.000000	93.505823
1226.000000	92.832296
1225.000000	91.870391
1224.000000	90.524256
1223.000000	88.685139
1222.000000	86.284693
1221.000000	83.335934
1220.000000	79.965177
1219.000000	76.390192
1218.000000	72.852117
1217.000000	69.534051
1216.000000	66.519475
1215.000000	63.807581
1214.000000	61.356906
1213.000000	59.130840
1212.000000	57.127959
1211.000000	55.384775
1210.000000	53.928871
1209.000000	52.764402
1208.000000	51.896229
1207.000000	51.336193
1206.000000	51.092617
1205.000000	51.142732
1204.000000	51.444805
1203.000000	51.958090
1202.000000	52.645477
1201.000000	53.502423
1200.000000	54.566106
1199.000000	55.893428
1198.000000	57.516303
1197.000000	59.410511
1196.000000	61.512627
1195.000000	63.735742
1194.000000	65.984210
1193.000000	68.176554
1192.000000	70.261178
1191.000000	72.212779
1190.000000	74.018910
1189.000000	75.671004
1188.000000	77.156692
1187.000000	78.460908
1186.000000	79.564433
1185.000000	80.455806
1184.000000	81.141648
1183.000000	81.641576
1182.000000	81.989880
1181.000000	82.224682
1180.000000	82.380433
1179.000000	82.484425
1178.000000	82.549359
1177.000000	82.576180
1176.000000	82.557440
1175.000000	82.487727
1174.000000	82.375339
1173.000000	82.244735
1172.000000	82.132733
1171.000000	82.080990
1170.000000	82.126339
1169.000000	82.289180
1168.000000	82.565342
1167.000000	82.921238
1166.000000	83.296545
1165.000000	83.617361
1164.000000	83.820184
1163.000000	83.883900
1162.000000	83.849386
1161.000000	83.807715
1160.000000	83.859663
1159.000000	84.071545
1158.000000	84.456077
1157.000000	84.982007
1156.000000	85.598390
1155.000000	86.253100
1154.000000	86.898342
1153.000000	87.490813
1152.000000	87.991909
1151.000000	88.374134
1150.000000	88.631459
1149.000000	88.785386
1148.000000	88.875510
1147.000000	88.945095
1146.000000	89.026861
1145.000000	89.125767
1144.000000	89.214347
1143.000000	89.235509
1142.000000	89.120094
1141.000000	88.810701
1140.000000	88.268133
1139.000000	87.478388
1138.000000	86.431585
1137.000000	85.099093
1136.000000	83.427764
1135.000000	81.326551
1134.000000	78.686422
1133.000000	75.395887
1132.000000	71.386872
1131.000000	66.710287
1130.000000	61.575577
1129.000000	56.350502
1128.000000	51.510963
1127.000000	47.526506
1126.000000	44.702796
1125.000000	43.112329
1124.000000	42.612547
1123.000000	42.898017
1122.000000	43.549159
1121.000000	44.091763
1120.000000	44.109211
1119.000000	43.309492
1118.000000	41.584916
1117.000000	39.138896
1116.000000	36.581014
1115.000000	34.813085
1114.000000	34.620260
1113.000000	36.271431
1112.000000	39.449841
1111.000000	43.462384
1110.000000	47.539129
1109.000000	51.054011
1108.000000	53.621712
1107.000000	55.084249
1106.000000	55.441937
1105.000000	54.828413
1104.000000	53.591215
1103.000000	52.355621
1102.000000	51.857958
1101.000000	52.588506
1100.000000	54.539594
1099.000000	57.273765
1098.000000	60.229271
1097.000000	62.995585
1096.000000	65.378683
1095.000000	67.340917
1094.000000	68.942195
1093.000000	70.298403
1092.000000	71.530910
1091.000000	72.727452
1090.000000	73.936805
1089.000000	75.179640
1088.000000	76.453978
1087.000000	77.729453
1086.000000	78.962296
1085.000000	80.113141
1084.000000	81.151296
1083.000000	82.064993
1082.000000	82.871427
1081.000000	83.611341
1080.000000	84.317148
1079.000000	84.986893
1078.000000	85.595865
1077.000000	86.106212
1076.000000	86.470985
1075.000000	86.646911
1074.000000	86.607525
1073.000000	86.353192
1072.000000	85.876914
1071.000000	85.143703
1070.000000	84.091183
1069.000000	82.606425
1068.000000	80.536465
1067.000000	77.702023
1066.000000	73.963833
1065.000000	69.316687
1064.000000	63.935813
1063.000000	58.192900
1062.000000	52.558090
1061.000000	47.429628
1060.000000	42.980223
1059.000000	39.108909
1058.000000	35.532698
1057.000000	32.032863
1056.000000	28.713073
1055.000000	26.025086
1054.000000	24.580598
1053.000000	24.813536
1052.000000	26.772907
1051.000000	30.119360
1050.000000	34.253051
1049.000000	38.580596
1048.000000	42.686475
1047.000000	46.375653
1046.000000	49.629149
1045.000000	52.516488
1044.000000	55.118514
1043.000000	57.473264
1042.000000	59.572070
1041.000000	61.389364
1040.000000	62.926080
1039.000000	64.212141
1038.000000	65.301817
1037.000000	66.266278
1036.000000	67.168018
1035.000000	68.049081
1034.000000	68.922390
1033.000000	69.778250
1032.000000	70.592184
1031.000000	71.330092
1030.000000	71.968392
1029.000000	72.508719
1028.000000	72.977994
1027.000000	73.419516
1026.000000	73.882804
1025.000000	74.412034
1024.000000	75.026269
1023.000000	75.706590
1022.000000	76.405394
1021.000000	77.061103
1020.000000	77.611499
1019.000000	78.004993
1018.000000	78.212656
1017.000000	78.230500
1016.000000	78.041683
1015.000000	77.598276
1014.000000	76.816630
1013.000000	75.581866
1012.000000	73.784092
1011.000000	71.360292
1010.000000	68.358331
1009.000000	64.955841
1008.000000	61.428336
1007.000000	58.128280
1006.000000	55.489472
1005.000000	53.962491
1004.000000	53.825222
1003.000000	54.973089
1002.000000	56.883356
1001.000000	58.854547
1000.000000	60.289632
999.000000	60.812237
998.000000	60.261091
997.000000	58.722200
996.000000	56.601916
995.000000	54.556699
994.000000	53.198317
993.000000	52.788822
992.000000	53.197047
991.000000	54.119840
990.000000	55.332915
989.000000	56.775106
988.000000	58.472433
987.000000	60.402488
986.000000	62.449052
985.000000	64.453813
984.000000	66.290393
983.000000	67.905373
982.000000	69.309217
981.000000	70.545917
980.000000	71.659386
979.000000	72.678579
978.000000	73.610202
977.000000	74.447369
976.000000	75.177304
975.000000	75.788096
974.000000	76.283575
973.000000	76.683782
972.000000	77.021661
971.000000	77.336625
970.000000	77.666436
969.000000	78.039019
968.000000	78.459677
967.000000	78.908533
966.000000	79.349223
965.000000	79.740902
964.000000	80.050914
963.000000	80.266765
962.000000	80.405974
961.000000	80.511584
960.000000	80.633037
959.000000	80.809975
958.000000	81.063044
957.000000	81.386511
956.000000	81.744373
955.000000	82.080431
954.000000	82.342769
953.000000	82.503307
952.000000	82.563972
951.000000	82.556248
950.000000	82.534786
949.000000	82.559439
948.000000	82.670027
947.000000	82.872324
946.000000	83.141947
945.000000	83.433616
944.000000	83.690845
943.000000	83.864032
942.000000	83.934463
941.000000	83.922941
940.000000	83.875535
939.000000	83.844965
938.000000	83.877772
937.000000	84.000825
936.000000	84.208515
935.000000	84.464047
934.000000	84.717272
933.000000	84.923294
932.000000	85.052083
931.000000	85.096200
930.000000	85.077053
929.000000	85.037469
928.000000	85.021077
927.000000	85.057374
926.000000	85.160099
925.000000	85.325720
924.000000	85.529142
923.000000	85.730384
922.000000	85.893481
921.000000	85.998827
920.000000	86.042119
919.000000	86.034160
918.000000	86.003657
917.000000	85.988097
916.000000	86.015011
915.000000	86.094137
914.000000	86.224055
913.000000	86.394796
912.000000	86.581996
911.000000	86.751292
910.000000	86.876580
909.000000	86.950080
908.000000	86.975994
907.000000	86.966939
906.000000	86.949493
905.000000	86.958683
904.000000	87.017043
903.000000	87.124022
902.000000	87.263458
901.000000	87.409621
900.000000	87.521085
899.000000	87.541309
898.000000	87.419305
897.000000	87.128720
896.000000	86.685400
895.000000	86.161959
894.000000	85.665902
893.000000	85.259895
892.000000	84.885352
891.000000	84.401854
890.000000	83.736448
889.000000	82.983670
888.000000	82.329064
887.000000	81.892030
886.000000	81.664805
885.000000	81.588377
884.000000	81.639920
883.000000	81.814653
882.000000	82.072483
881.000000	82.348622
880.000000	82.621206
879.000000	82.943721
878.000000	83.387025
877.000000	83.961430
876.000000	84.595529
875.000000	85.188446
874.000000	85.680047
873.000000	86.074915
872.000000	86.415290
871.000000	86.739876
870.000000	87.062297
869.000000	87.365178
868.000000	87.605477
867.000000	87.728598
866.000000	87.693250
865.000000	87.494982
864.000000	87.171143
863.000000	86.797206
862.000000	86.472653
861.000000	86.290047
860.000000	86.297091
859.000000	86.478960
858.000000	86.773084
857.000000	87.102744
856.000000	87.406572
855.000000	87.651316
854.000000	87.834093
853.000000	87.972307
852.000000	88.087292
851.000000	88.195867
850.000000	88.312545
849.000000	88.449295
848.000000	88.608033
847.000000	88.777856
846.000000	88.941731
845.000000	89.083082
844.000000	89.186017
843.000000	89.240232
842.000000	89.251372
841.000000	89.240741
840.000000	89.232404
839.000000	89.244187
838.000000	89.289790
837.000000	89.378243
836.000000	89.504417
835.000000	89.645757
834.000000	89.773203
833.000000	89.863356
832.000000	89.901829
831.000000	89.885969
830.000000	89.831766
829.000000	89.772128
828.000000	89.741728
827.000000	89.763576
826.000000	89.845669
825.000000	89.978019
824.000000	90.128376
823.000000	90.252805
822.000000	90.320950
821.000000	90.328894
820.000000	90.289604
819.000000	90.222908
818.000000	90.156055
817.000000	90.119550
816.000000	90.129350
815.000000	90.175402
814.000000	90.227625
813.000000	90.242463
812.000000	90.161042
811.000000	89.917993
810.000000	89.482468
809.000000	88.905402
808.000000	88.322779
807.000000	87.897165
806.000000	87.734623
805.000000	87.834497
804.000000	88.105739
803.000000	88.429645
802.000000	88.713234
801.000000	88.902109
800.000000	88.966477
799.000000	88.893092
798.000000	88.683612
797.000000	88.346182
796.000000	87.880392
795.000000	87.276359
794.000000	86.528873
793.000000	85.644181
792.000000	84.645579
791.000000	83.582852
790.000000	82.536876
789.000000	81.600923
788.000000	80.850312
787.000000	80.326670
786.000000	80.041683
785.000000	79.982900
784.000000	80.109280
783.000000	80.354487
782.000000	80.640066
781.000000	80.892795
780.000000	81.061132
779.000000	81.132574
778.000000	81.147694
777.000000	81.186030
776.000000	81.327968
775.000000	81.623398
774.000000	82.083326
773.000000	82.685320
772.000000	83.379901
771.000000	84.105118
770.000000	84.807708
769.000000	85.451849
768.000000	86.013782
767.000000	86.480823
766.000000	86.859684
765.000000	87.173245
764.000000	87.444269
763.000000	87.686924
762.000000	87.912381
761.000000	88.129220
760.000000	88.333452
759.000000	88.510689
758.000000	88.652451
757.000000	88.763262
756.000000	88.850264
755.000000	88.916061
754.000000	88.965039
753.000000	89.005181
752.000000	89.039315
751.000000	89.062911
750.000000	89.072631
749.000000	89.068550
748.000000	89.046379
747.000000	88.997988
746.000000	88.922024
745.000000	88.823035
744.000000	88.697603
743.000000	88.532102
742.000000	88.318616
741.000000	88.065476
740.000000	87.790962
739.000000	87.517424
738.000000	87.271247
737.000000	87.072265
736.000000	86.913290
735.000000	86.756162
734.000000	86.553200
733.000000	86.268240
732.000000	85.883449
731.000000	85.406940
730.000000	84.885362
729.000000	84.397803
728.000000	84.022708
727.000000	83.809842
726.000000	83.776939
725.000000	83.913252
724.000000	84.177523
723.000000	84.510490
722.000000	84.867735
721.000000	85.236051
720.000000	85.615381
719.000000	85.998490
718.000000	86.374944
717.000000	86.737059
716.000000	87.069355
715.000000	87.344096
714.000000	87.538218
713.000000	87.648157
712.000000	87.685067
711.000000	87.668498
710.000000	87.630652
709.000000	87.612913
708.000000	87.644665
707.000000	87.729210
706.000000	87.852543
705.000000	87.993763
704.000000	88.125297
703.000000	88.221106
702.000000	88.276161
701.000000	88.309717
700.000000	88.344205
699.000000	88.390999
698.000000	88.456330
697.000000	88.541475
696.000000	88.629703
695.000000	88.689238
694.000000	88.699307
693.000000	88.664072
692.000000	88.598947
691.000000	88.520956
690.000000	88.456889
689.000000	88.438746
688.000000	88.474881
687.000000	88.538354
686.000000	88.595701
685.000000	88.629124
684.000000	88.627408
683.000000	88.581067
682.000000	88.503406
681.000000	88.433639
680.000000	88.406849
679.000000	88.433854
678.000000	88.508901
677.000000	88.636940
676.000000	88.799453
675.000000	88.947597
674.000000	89.076835
673.000000	89.224821
672.000000	89.399056
671.000000	89.564293
670.000000	89.724454
669.000000	89.792091
668.000000	89.681749
667.000000	89.610689
666.000000	89.669440
665.000000	89.704250
664.000000	89.693015
663.000000	89.692889
662.000000	89.727051
661.000000	89.772643
660.000000	89.821609
659.000000	89.880144
658.000000	89.931563
657.000000	89.960730
656.000000	89.970698
655.000000	89.964978
654.000000	89.952738
653.000000	89.947143
652.000000	89.960535
651.000000	89.990591
650.000000	90.020844
649.000000	90.036311
648.000000	90.032531
647.000000	90.010386
646.000000	89.973732
645.000000	89.933904
644.000000	89.906462
643.000000	89.903228
642.000000	89.928897
641.000000	89.979767
640.000000	90.040183
639.000000	90.083806
638.000000	90.088911
637.000000	90.052754
636.000000	89.987601
635.000000	89.911049
634.000000	89.847462
633.000000	89.826772
632.000000	89.867049
631.000000	89.958232
630.000000	90.068528
629.000000	90.162284
628.000000	90.207635
627.000000	90.181937
626.000000	90.088804
625.000000	89.965874
624.000000	89.863509
623.000000	89.818496
622.000000	89.845250
621.000000	89.935482
620.000000	90.054801
619.000000	90.149696
618.000000	90.176563
617.000000	90.125765
616.000000	90.013968
615.000000	89.868296
614.000000	89.727949
613.000000	89.640968
612.000000	89.636821
611.000000	89.704019
610.000000	89.803443
609.000000	89.892710
608.000000	89.931466
607.000000	89.885016
606.000000	89.748509
605.000000	89.559868
604.000000	89.371096
603.000000	89.213038
602.000000	89.091906
601.000000	88.998184
600.000000	88.898593
599.000000	88.734876
598.000000	88.454413
597.000000	88.038682
596.000000	87.498116
595.000000	86.855311
594.000000	86.128240
593.000000	85.290659
592.000000	84.227320
591.000000	82.798590
590.000000	81.035779
589.000000	79.276068
588.000000	78.022958
587.000000	77.603056
586.000000	77.930640
585.000000	78.625041
584.000000	79.371056
583.000000	80.108397
582.000000	80.911706
581.000000	81.803018
580.000000	82.708884
579.000000	83.538529
578.000000	84.240928
577.000000	84.800977
576.000000	85.219874
575.000000	85.511001
574.000000	85.696741
573.000000	85.801524
572.000000	85.845677
571.000000	85.844208
570.000000	85.808278
569.000000	85.738140
568.000000	85.623934
567.000000	85.443198
566.000000	85.145789
565.000000	84.646214
564.000000	83.848434
563.000000	82.721133
562.000000	81.356364
561.000000	79.940575
560.000000	78.655108
559.000000	77.587453
558.000000	76.712797
557.000000	75.969785
556.000000	75.388981
555.000000	75.128206
554.000000	75.356590
553.000000	76.100175
552.000000	77.207359
551.000000	78.431002
550.000000	79.535648
549.000000	80.393910
548.000000	81.011949
547.000000	81.469654
546.000000	81.840600
545.000000	82.158090
544.000000	82.423305
543.000000	82.617724
542.000000	82.712078
541.000000	82.679587
540.000000	82.521383
539.000000	82.276916
538.000000	82.008858
537.000000	81.774984
536.000000	81.605894
535.000000	81.500477
534.000000	81.430579
533.000000	81.356347
532.000000	81.242431
531.000000	81.073804
530.000000	80.861513
529.000000	80.631701
528.000000	80.403868
527.000000	80.178029
526.000000	79.928343
525.000000	79.612005
524.000000	79.188988
523.000000	78.632199
522.000000	77.935835
521.000000	77.122346
520.000000	76.243522
519.000000	75.360165
518.000000	74.506416
517.000000	73.682249
516.000000	72.891192
515.000000	72.168797
514.000000	71.564331
513.000000	71.119982
512.000000	70.872388
511.000000	70.858075
510.000000	71.088287
509.000000	71.531503
508.000000	72.139143
507.000000	72.866281
506.000000	73.673777
505.000000	74.541483
504.000000	75.479456
503.000000	76.495709
502.000000	77.541249
501.000000	78.521216
500.000000	79.365735
499.000000	80.060350
498.000000	80.611672
497.000000	81.030731
496.000000	81.344573
495.000000	81.593597
494.000000	81.816400
493.000000	82.037917
492.000000	82.275193
491.000000	82.535264
490.000000	82.798592
489.000000	83.024475
488.000000	83.165786
487.000000	83.181901
486.000000	83.038045
485.000000	82.699069
484.000000	82.137332
483.000000	81.341033
482.000000	80.327835
481.000000	79.161899
480.000000	77.962696
479.000000	76.871363
478.000000	75.970254
477.000000	75.242284
476.000000	74.624922
475.000000	74.096303
474.000000	73.685332
473.000000	73.451098
472.000000	73.483853
471.000000	73.877920
470.000000	74.661432
469.000000	75.757902
468.000000	77.020322
467.000000	78.275629
466.000000	79.379432
465.000000	80.277145
464.000000	80.992295
463.000000	81.581951
462.000000	82.112170
461.000000	82.643947
460.000000	83.209181
459.000000	83.790072
458.000000	84.313039
457.000000	84.689916
456.000000	84.888042
455.000000	84.940417
454.000000	84.913660
453.000000	84.880822
452.000000	84.902513
451.000000	85.014058
450.000000	85.219862
449.000000	85.499600
448.000000	85.802639
447.000000	86.056824
446.000000	86.210937
445.000000	86.259951
444.000000	86.216657
443.000000	86.105564
442.000000	85.991534
441.000000	85.959475
440.000000	86.045576
439.000000	86.217146
438.000000	86.419568
437.000000	86.602738
436.000000	86.702212
435.000000	86.646941
434.000000	86.417899
433.000000	86.059220
432.000000	85.623364
431.000000	85.155016
430.000000	84.722834
429.000000	84.402819
428.000000	84.229666
427.000000	84.192522
426.000000	84.262689
425.000000	84.394927
424.000000	84.512256
423.000000	84.547337
422.000000	84.521542
421.000000	84.535362
420.000000	84.666368
419.000000	84.909946
418.000000	85.232882
417.000000	85.621797
416.000000	86.045643
415.000000	86.425181
414.000000	86.671628
413.000000	86.756135
412.000000	86.704777
411.000000	86.546739
410.000000	86.339407
409.000000	86.179096
408.000000	86.144012
407.000000	86.232958
406.000000	86.402239
405.000000	86.630975
404.000000	86.844336
403.000000	86.959102
402.000000	86.931953
401.000000	86.803688
400.000000	86.644867
