PE IR       SUBTECH     SPECTRUM    ASCII       PEDS        4.00        
   -1
23ms250-cis.asc
24/10/18
15:47:01.00
24/10/18
15:47:01.00
Administrator
Sample 1306 By Administrator Date Friday, October 18 2024
400.000000
#HDR
-1
-1
#GR
cm-1
%T
1.0
0.0
4000.000000
-1.000000
3601
8
83.532186
4.912120
#DATA
4000.000000	51.250768
3999.000000	51.236924
3998.000000	51.227588
3997.000000	51.221318
3996.000000	51.216181
3995.000000	51.211239
3994.000000	51.207190
3993.000000	51.205510
3992.000000	51.206887
3991.000000	51.210758
3990.000000	51.216345
3989.000000	51.224053
3988.000000	51.235615
3987.000000	51.252515
3986.000000	51.274692
3985.000000	51.300878
3984.000000	51.329978
3983.000000	51.361926
3982.000000	51.397186
3981.000000	51.435876
3980.000000	51.477463
3979.000000	51.521247
3978.000000	51.566854
3977.000000	51.613792
3976.000000	51.661039
3975.000000	51.707191
3974.000000	51.751208
3973.000000	51.792997
3972.000000	51.833026
3971.000000	51.871897
3970.000000	51.909929
3969.000000	51.947387
3968.000000	51.985013
3967.000000	52.023994
3966.000000	52.065685
3965.000000	52.111216
3964.000000	52.161022
3963.000000	52.214489
3962.000000	52.270563
3961.000000	52.328460
3960.000000	52.388023
3959.000000	52.449568
3958.000000	52.512605
3957.000000	52.575671
3956.000000	52.637401
3955.000000	52.697384
3954.000000	52.756176
3953.000000	52.813893
3952.000000	52.869457
3951.000000	52.921196
3950.000000	52.968036
3949.000000	53.010590
3948.000000	53.051045
3947.000000	53.091984
3946.000000	53.134993
3945.000000	53.179652
3944.000000	53.223195
3943.000000	53.261879
3942.000000	53.295600
3941.000000	53.329423
3940.000000	53.368946
3939.000000	53.416203
3938.000000	53.468227
3937.000000	53.520143
3936.000000	53.569513
3935.000000	53.616373
3934.000000	53.661219
3933.000000	53.702240
3932.000000	53.737127
3931.000000	53.766055
3930.000000	53.791077
3929.000000	53.815500
3928.000000	53.841418
3927.000000	53.868897
3926.000000	53.895516
3925.000000	53.916744
3924.000000	53.930708
3923.000000	53.940368
3922.000000	53.949615
3921.000000	53.960021
3920.000000	53.971116
3919.000000	53.982753
3918.000000	53.995840
3917.000000	54.011309
3916.000000	54.029580
3915.000000	54.050248
3914.000000	54.073158
3913.000000	54.098292
3912.000000	54.124979
3911.000000	54.153371
3910.000000	54.183617
3909.000000	54.215831
3908.000000	54.250082
3907.000000	54.283224
3906.000000	54.309017
3905.000000	54.320520
3904.000000	54.318016
3903.000000	54.313285
3902.000000	54.320052
3901.000000	54.343773
3900.000000	54.380456
3899.000000	54.423329
3898.000000	54.470500
3897.000000	54.524282
3896.000000	54.585393
3895.000000	54.652861
3894.000000	54.723481
3893.000000	54.792029
3892.000000	54.851183
3891.000000	54.897518
3890.000000	54.935396
3889.000000	54.972339
3888.000000	55.015374
3887.000000	55.066713
3886.000000	55.119811
3885.000000	55.166870
3884.000000	55.207138
3883.000000	55.244031
3882.000000	55.277050
3881.000000	55.301333
3880.000000	55.315826
3879.000000	55.327283
3878.000000	55.342935
3877.000000	55.364606
3876.000000	55.389792
3875.000000	55.412903
3874.000000	55.428441
3873.000000	55.437390
3872.000000	55.446470
3871.000000	55.459147
3870.000000	55.473145
3869.000000	55.489797
3868.000000	55.514548
3867.000000	55.550044
3866.000000	55.593393
3865.000000	55.636035
3864.000000	55.671645
3863.000000	55.702711
3862.000000	55.734118
3861.000000	55.768998
3860.000000	55.809495
3859.000000	55.858817
3858.000000	55.920650
3857.000000	55.993010
3856.000000	56.063243
3855.000000	56.106600
3854.000000	56.104359
3853.000000	56.077683
3852.000000	56.066089
3851.000000	56.078423
3850.000000	56.103285
3849.000000	56.135763
3848.000000	56.176345
3847.000000	56.226478
3846.000000	56.283697
3845.000000	56.341246
3844.000000	56.392061
3843.000000	56.432494
3842.000000	56.464431
3841.000000	56.494204
3840.000000	56.522464
3839.000000	56.544529
3838.000000	56.562013
3837.000000	56.582392
3836.000000	56.610262
3835.000000	56.643438
3834.000000	56.678974
3833.000000	56.717182
3832.000000	56.758364
3831.000000	56.801960
3830.000000	56.848023
3829.000000	56.896192
3828.000000	56.944627
3827.000000	56.990658
3826.000000	57.030957
3825.000000	57.066127
3824.000000	57.100739
3823.000000	57.139138
3822.000000	57.178415
3821.000000	57.209906
3820.000000	57.234746
3819.000000	57.262180
3818.000000	57.297114
3817.000000	57.336600
3816.000000	57.374384
3815.000000	57.410031
3814.000000	57.448582
3813.000000	57.489089
3812.000000	57.525371
3811.000000	57.556724
3810.000000	57.589837
3809.000000	57.630882
3808.000000	57.677986
3807.000000	57.722837
3806.000000	57.761150
3805.000000	57.797660
3804.000000	57.836677
3803.000000	57.878738
3802.000000	57.915266
3801.000000	57.939606
3800.000000	57.958641
3799.000000	57.979782
3798.000000	58.003687
3797.000000	58.029291
3796.000000	58.058568
3795.000000	58.095778
3794.000000	58.142426
3793.000000	58.193747
3792.000000	58.243062
3791.000000	58.288408
3790.000000	58.331407
3789.000000	58.372882
3788.000000	58.412215
3787.000000	58.448923
3786.000000	58.483114
3785.000000	58.514051
3784.000000	58.540332
3783.000000	58.562673
3782.000000	58.583876
3781.000000	58.605608
3780.000000	58.626433
3779.000000	58.646023
3778.000000	58.668372
3777.000000	58.697754
3776.000000	58.733697
3775.000000	58.772716
3774.000000	58.812288
3773.000000	58.851987
3772.000000	58.892297
3771.000000	58.932587
3770.000000	58.970807
3769.000000	59.007418
3768.000000	59.046046
3767.000000	59.090066
3766.000000	59.140335
3765.000000	59.193161
3764.000000	59.244674
3763.000000	59.295592
3762.000000	59.348474
3761.000000	59.402907
3760.000000	59.453896
3759.000000	59.499651
3758.000000	59.543701
3757.000000	59.588416
3756.000000	59.634090
3755.000000	59.680734
3754.000000	59.728834
3753.000000	59.776101
3752.000000	59.816598
3751.000000	59.849945
3750.000000	59.884075
3749.000000	59.922480
3748.000000	59.961504
3747.000000	60.001605
3746.000000	60.047753
3745.000000	60.098645
3744.000000	60.150947
3743.000000	60.206894
3742.000000	60.262217
3741.000000	60.307815
3740.000000	60.341638
3739.000000	60.372278
3738.000000	60.413076
3737.000000	60.467378
3736.000000	60.524123
3735.000000	60.568074
3734.000000	60.599409
3733.000000	60.631712
3732.000000	60.672515
3731.000000	60.718496
3730.000000	60.763414
3729.000000	60.806666
3728.000000	60.852905
3727.000000	60.903037
3726.000000	60.953407
3725.000000	61.001223
3724.000000	61.046957
3723.000000	61.091257
3722.000000	61.134803
3721.000000	61.181266
3720.000000	61.232953
3719.000000	61.291051
3718.000000	61.354534
3717.000000	61.419294
3716.000000	61.480525
3715.000000	61.534643
3714.000000	61.582395
3713.000000	61.626884
3712.000000	61.670418
3711.000000	61.714968
3710.000000	61.765320
3709.000000	61.824812
3708.000000	61.891878
3707.000000	61.961628
3706.000000	62.031116
3705.000000	62.100703
3704.000000	62.170929
3703.000000	62.240373
3702.000000	62.305908
3701.000000	62.366870
3700.000000	62.423945
3699.000000	62.479107
3698.000000	62.534936
3697.000000	62.592044
3696.000000	62.647353
3695.000000	62.698496
3694.000000	62.746738
3693.000000	62.796193
3692.000000	62.848952
3691.000000	62.901099
3690.000000	62.948047
3689.000000	62.992632
3688.000000	63.042716
3687.000000	63.096838
3686.000000	63.148861
3685.000000	63.197092
3684.000000	63.242913
3683.000000	63.289576
3682.000000	63.340593
3681.000000	63.393899
3680.000000	63.440791
3679.000000	63.473356
3678.000000	63.496244
3677.000000	63.524774
3676.000000	63.564481
3675.000000	63.609775
3674.000000	63.652360
3673.000000	63.686825
3672.000000	63.716871
3671.000000	63.753836
3670.000000	63.802133
3669.000000	63.859468
3668.000000	63.922289
3667.000000	63.982834
3666.000000	64.035111
3665.000000	64.082171
3664.000000	64.130334
3663.000000	64.183166
3662.000000	64.238108
3661.000000	64.287291
3660.000000	64.326251
3659.000000	64.356839
3658.000000	64.386049
3657.000000	64.419262
3656.000000	64.455595
3655.000000	64.490355
3654.000000	64.517414
3653.000000	64.536447
3652.000000	64.556025
3651.000000	64.583768
3650.000000	64.617719
3649.000000	64.656334
3648.000000	64.706967
3647.000000	64.770920
3646.000000	64.838189
3645.000000	64.901811
3644.000000	64.964169
3643.000000	65.030762
3642.000000	65.101217
3641.000000	65.170284
3640.000000	65.234551
3639.000000	65.292633
3638.000000	65.342491
3637.000000	65.382440
3636.000000	65.415064
3635.000000	65.444363
3634.000000	65.468355
3633.000000	65.480859
3632.000000	65.479567
3631.000000	65.471943
3630.000000	65.469502
3629.000000	65.477230
3628.000000	65.494975
3627.000000	65.518238
3626.000000	65.534368
3625.000000	65.535253
3624.000000	65.524263
3623.000000	65.508964
3622.000000	65.493531
3621.000000	65.474779
3620.000000	65.443540
3619.000000	65.394212
3618.000000	65.331173
3617.000000	65.261087
3616.000000	65.186624
3615.000000	65.108186
3614.000000	65.024337
3613.000000	64.933320
3612.000000	64.836589
3611.000000	64.738294
3610.000000	64.644044
3609.000000	64.557559
3608.000000	64.475730
3607.000000	64.391956
3606.000000	64.301659
3605.000000	64.203524
3604.000000	64.100450
3603.000000	63.998407
3602.000000	63.903577
3601.000000	63.819900
3600.000000	63.746172
3599.000000	63.676615
3598.000000	63.605302
3597.000000	63.528976
3596.000000	63.448101
3595.000000	63.363580
3594.000000	63.275206
3593.000000	63.183028
3592.000000	63.088096
3591.000000	62.995299
3590.000000	62.917701
3589.000000	62.871500
3588.000000	62.862008
3587.000000	62.878389
3586.000000	62.903843
3585.000000	62.925118
3584.000000	62.934517
3583.000000	62.930482
3582.000000	62.915329
3581.000000	62.892194
3580.000000	62.862216
3579.000000	62.824724
3578.000000	62.779092
3577.000000	62.726126
3576.000000	62.667209
3575.000000	62.603668
3574.000000	62.535748
3573.000000	62.462223
3572.000000	62.380562
3571.000000	62.287846
3570.000000	62.183967
3569.000000	62.073149
3568.000000	61.959584
3567.000000	61.843980
3566.000000	61.726011
3565.000000	61.605219
3564.000000	61.479805
3563.000000	61.348846
3562.000000	61.212706
3561.000000	61.071409
3560.000000	60.923657
3559.000000	60.767598
3558.000000	60.602154
3557.000000	60.427341
3556.000000	60.243440
3555.000000	60.050233
3554.000000	59.847154
3553.000000	59.634255
3552.000000	59.413216
3551.000000	59.185563
3550.000000	58.950155
3549.000000	58.704723
3548.000000	58.448167
3547.000000	58.181069
3546.000000	57.904292
3545.000000	57.619113
3544.000000	57.327058
3543.000000	57.028480
3542.000000	56.721594
3541.000000	56.403743
3540.000000	56.072503
3539.000000	55.724783
3538.000000	55.357223
3537.000000	54.968684
3536.000000	54.562038
3535.000000	54.141064
3534.000000	53.706850
3533.000000	53.257911
3532.000000	52.792173
3531.000000	52.307091
3530.000000	51.799082
3529.000000	51.266376
3528.000000	50.711029
3527.000000	50.136054
3526.000000	49.541280
3525.000000	48.924951
3524.000000	48.288366
3523.000000	47.635951
3522.000000	46.971155
3521.000000	46.293696
3520.000000	45.600644
3519.000000	44.888328
3518.000000	44.154429
3517.000000	43.399938
3516.000000	42.628857
3515.000000	41.845226
3514.000000	41.051443
3513.000000	40.248336
3512.000000	39.434280
3511.000000	38.604968
3510.000000	37.758508
3509.000000	36.902047
3508.000000	36.047581
3507.000000	35.198963
3506.000000	34.347612
3505.000000	33.483293
3504.000000	32.606220
3503.000000	31.727012
3502.000000	30.857828
3501.000000	30.005483
3500.000000	29.169634
3499.000000	28.344143
3498.000000	27.522937
3497.000000	26.706577
3496.000000	25.901787
3495.000000	25.114228
3494.000000	24.345291
3493.000000	23.596394
3492.000000	22.870234
3491.000000	22.166219
3490.000000	21.480498
3489.000000	20.812870
3488.000000	20.169912
3487.000000	19.558821
3486.000000	18.981355
3485.000000	18.434728
3484.000000	17.912973
3483.000000	17.407729
3482.000000	16.913923
3481.000000	16.436317
3480.000000	15.985490
3479.000000	15.565006
3478.000000	15.167499
3477.000000	14.783398
3476.000000	14.407671
3475.000000	14.038418
3474.000000	13.674688
3473.000000	13.318132
3472.000000	12.972831
3471.000000	12.642537
3470.000000	12.332920
3469.000000	12.055054
3468.000000	11.820860
3467.000000	11.634260
3466.000000	11.490866
3465.000000	11.386218
3464.000000	11.318538
3463.000000	11.285378
3462.000000	11.285347
3461.000000	11.322532
3460.000000	11.403311
3459.000000	11.527044
3458.000000	11.684652
3457.000000	11.866335
3456.000000	12.064458
3455.000000	12.270212
3454.000000	12.473773
3453.000000	12.667712
3452.000000	12.845597
3451.000000	12.997541
3450.000000	13.111546
3449.000000	13.180060
3448.000000	13.201108
3447.000000	13.173749
3446.000000	13.098488
3445.000000	12.979807
3444.000000	12.824182
3443.000000	12.636455
3442.000000	12.420981
3441.000000	12.186376
3440.000000	11.944012
3439.000000	11.703315
3438.000000	11.473582
3437.000000	11.267970
3436.000000	11.099740
3435.000000	10.974363
3434.000000	10.889065
3433.000000	10.839307
3432.000000	10.823630
3431.000000	10.843225
3430.000000	10.902532
3429.000000	11.009597
3428.000000	11.169834
3427.000000	11.382536
3426.000000	11.644884
3425.000000	11.957865
3424.000000	12.325360
3423.000000	12.747617
3422.000000	13.222970
3421.000000	13.751415
3420.000000	14.331852
3419.000000	14.958617
3418.000000	15.622946
3417.000000	16.318954
3416.000000	17.043077
3415.000000	17.790247
3414.000000	18.555694
3413.000000	19.336611
3412.000000	20.129120
3411.000000	20.925282
3410.000000	21.716986
3409.000000	22.501190
3408.000000	23.276946
3407.000000	24.039350
3406.000000	24.780953
3405.000000	25.497395
3404.000000	26.188258
3403.000000	26.855091
3402.000000	27.502264
3401.000000	28.137592
3400.000000	28.767012
3399.000000	29.388103
3398.000000	29.992619
3397.000000	30.574504
3396.000000	31.132638
3395.000000	31.668828
3394.000000	32.186970
3393.000000	32.693925
3392.000000	33.196690
3391.000000	33.697306
3390.000000	34.193321
3389.000000	34.681678
3388.000000	35.160606
3387.000000	35.629256
3386.000000	36.088359
3385.000000	36.540966
3384.000000	36.989805
3383.000000	37.435060
3382.000000	37.876397
3381.000000	38.315365
3380.000000	38.753619
3379.000000	39.190440
3378.000000	39.624608
3377.000000	40.057285
3376.000000	40.490037
3375.000000	40.921355
3374.000000	41.347713
3373.000000	41.767408
3372.000000	42.181336
3371.000000	42.591188
3370.000000	42.999347
3369.000000	43.409028
3368.000000	43.821851
3367.000000	44.235815
3366.000000	44.647432
3365.000000	45.054945
3364.000000	45.457856
3363.000000	45.855124
3362.000000	46.246303
3361.000000	46.633167
3360.000000	47.017957
3359.000000	47.400618
3358.000000	47.779576
3357.000000	48.154378
3356.000000	48.525261
3355.000000	48.891380
3354.000000	49.251510
3353.000000	49.605998
3352.000000	49.956403
3351.000000	50.303440
3350.000000	50.646695
3349.000000	50.985613
3348.000000	51.319259
3347.000000	51.646128
3346.000000	51.965595
3345.000000	52.279087
3344.000000	52.588376
3343.000000	52.892992
3342.000000	53.190835
3341.000000	53.480540
3340.000000	53.762293
3339.000000	54.037018
3338.000000	54.305466
3337.000000	54.567808
3336.000000	54.822517
3335.000000	55.066361
3334.000000	55.296553
3333.000000	55.511711
3332.000000	55.710754
3331.000000	55.891348
3330.000000	56.050739
3329.000000	56.187660
3328.000000	56.301209
3327.000000	56.389656
3326.000000	56.450435
3325.000000	56.480538
3324.000000	56.476469
3323.000000	56.432891
3322.000000	56.344330
3321.000000	56.207007
3320.000000	56.017252
3319.000000	55.771234
3318.000000	55.463609
3317.000000	55.088932
3316.000000	54.640421
3315.000000	54.107885
3314.000000	53.481191
3313.000000	52.751297
3312.000000	51.909621
3311.000000	50.947773
3310.000000	49.857473
3309.000000	48.637305
3308.000000	47.289721
3307.000000	45.816560
3306.000000	44.219815
3305.000000	42.500594
3304.000000	40.662653
3303.000000	38.708696
3302.000000	36.643330
3301.000000	34.479537
3300.000000	32.237902
3299.000000	29.946773
3298.000000	27.644768
3297.000000	25.382306
3296.000000	23.213514
3295.000000	21.184924
3294.000000	19.331398
3293.000000	17.679395
3292.000000	16.244367
3291.000000	15.019644
3290.000000	13.982308
3289.000000	13.100017
3288.000000	12.337809
3287.000000	11.662844
3286.000000	11.046931
3285.000000	10.474835
3284.000000	9.939107
3283.000000	9.435548
3282.000000	8.966942
3281.000000	8.544443
3280.000000	8.183361
3279.000000	7.894912
3278.000000	7.687294
3277.000000	7.570988
3276.000000	7.553606
3275.000000	7.634498
3274.000000	7.805553
3273.000000	8.054009
3272.000000	8.361691
3271.000000	8.700905
3270.000000	9.038817
3269.000000	9.343400
3268.000000	9.583736
3267.000000	9.731518
3266.000000	9.769860
3265.000000	9.699009
3264.000000	9.531919
3263.000000	9.288606
3262.000000	8.994694
3261.000000	8.682893
3260.000000	8.385450
3259.000000	8.126276
3258.000000	7.923142
3257.000000	7.791850
3256.000000	7.742425
3255.000000	7.774700
3254.000000	7.882029
3253.000000	8.055124
3252.000000	8.281850
3251.000000	8.544082
3250.000000	8.822891
3249.000000	9.105046
3248.000000	9.379921
3247.000000	9.635814
3246.000000	9.861664
3245.000000	10.050471
3244.000000	10.197699
3243.000000	10.300477
3242.000000	10.360850
3241.000000	10.387600
3240.000000	10.390505
3239.000000	10.374138
3238.000000	10.341574
3237.000000	10.297974
3236.000000	10.248696
3235.000000	10.197443
3234.000000	10.148559
3233.000000	10.107414
3232.000000	10.073228
3231.000000	10.035871
3230.000000	9.984121
3229.000000	9.913250
3228.000000	9.822263
3227.000000	9.708284
3226.000000	9.568725
3225.000000	9.405527
3224.000000	9.221823
3223.000000	9.018562
3222.000000	8.797774
3221.000000	8.566251
3220.000000	8.332208
3219.000000	8.100542
3218.000000	7.874867
3217.000000	7.659520
3216.000000	7.455758
3215.000000	7.259747
3214.000000	7.068127
3213.000000	6.881713
3212.000000	6.700609
3211.000000	6.520549
3210.000000	6.338202
3209.000000	6.156375
3208.000000	5.979637
3207.000000	5.809171
3206.000000	5.645965
3205.000000	5.494235
3204.000000	5.357838
3203.000000	5.236790
3202.000000	5.131346
3201.000000	5.045616
3200.000000	4.982454
3199.000000	4.939894
3198.000000	4.915821
3197.000000	4.912120
3196.000000	4.930866
3195.000000	4.969611
3194.000000	5.025811
3193.000000	5.100482
3192.000000	5.193831
3191.000000	5.302452
3190.000000	5.423276
3189.000000	5.557216
3188.000000	5.704748
3187.000000	5.862105
3186.000000	6.026125
3185.000000	6.197599
3184.000000	6.376979
3183.000000	6.561099
3182.000000	6.747624
3181.000000	6.938549
3180.000000	7.135021
3179.000000	7.333570
3178.000000	7.530922
3177.000000	7.728031
3176.000000	7.925829
3175.000000	8.121309
3174.000000	8.311658
3173.000000	8.497954
3172.000000	8.681336
3171.000000	8.859591
3170.000000	9.031172
3169.000000	9.198308
3168.000000	9.362564
3167.000000	9.521653
3166.000000	9.673496
3165.000000	9.819451
3164.000000	9.960123
3163.000000	10.092204
3162.000000	10.213224
3161.000000	10.324729
3160.000000	10.428001
3159.000000	10.520878
3158.000000	10.601825
3157.000000	10.673440
3156.000000	10.738299
3155.000000	10.796175
3154.000000	10.848738
3153.000000	10.902206
3152.000000	10.961763
3151.000000	11.026993
3150.000000	11.096217
3149.000000	11.171037
3148.000000	11.253163
3147.000000	11.340949
3146.000000	11.432852
3145.000000	11.530382
3144.000000	11.634192
3143.000000	11.741336
3142.000000	11.849227
3141.000000	11.958595
3140.000000	12.069412
3139.000000	12.178006
3138.000000	12.281247
3137.000000	12.379378
3136.000000	12.471641
3135.000000	12.552959
3134.000000	12.618281
3133.000000	12.665353
3132.000000	12.690842
3131.000000	12.687762
3130.000000	12.649792
3129.000000	12.575528
3128.000000	12.464516
3127.000000	12.315239
3126.000000	12.130099
3125.000000	11.918051
3124.000000	11.690153
3123.000000	11.454683
3122.000000	11.219880
3121.000000	10.995695
3120.000000	10.788499
3119.000000	10.597957
3118.000000	10.422132
3117.000000	10.261799
3116.000000	10.116664
3115.000000	9.982384
3114.000000	9.854491
3113.000000	9.731736
3112.000000	9.612666
3111.000000	9.493785
3110.000000	9.374809
3109.000000	9.260806
3108.000000	9.156242
3107.000000	9.061192
3106.000000	8.975970
3105.000000	8.905110
3104.000000	8.852696
3103.000000	8.819132
3102.000000	8.806067
3101.000000	8.819059
3100.000000	8.863018
3099.000000	8.937897
3098.000000	9.042759
3097.000000	9.179500
3096.000000	9.348268
3095.000000	9.545614
3094.000000	9.768886
3093.000000	10.018860
3092.000000	10.295501
3091.000000	10.594494
3090.000000	10.912010
3089.000000	11.246806
3088.000000	11.595698
3087.000000	11.952370
3086.000000	12.312793
3085.000000	12.677980
3084.000000	13.047979
3083.000000	13.418325
3082.000000	13.785365
3081.000000	14.149866
3080.000000	14.512810
3079.000000	14.872100
3078.000000	15.226350
3077.000000	15.576923
3076.000000	15.923396
3075.000000	16.261485
3074.000000	16.588472
3073.000000	16.906453
3072.000000	17.217170
3071.000000	17.518497
3070.000000	17.808791
3069.000000	18.090604
3068.000000	18.367095
3067.000000	18.638054
3066.000000	18.902581
3065.000000	19.161692
3064.000000	19.415708
3063.000000	19.662906
3062.000000	19.902799
3061.000000	20.137651
3060.000000	20.368473
3059.000000	20.593265
3058.000000	20.811419
3057.000000	21.025717
3056.000000	21.238205
3055.000000	21.447717
3054.000000	21.653533
3053.000000	21.857728
3052.000000	22.061565
3051.000000	22.263489
3050.000000	22.462517
3049.000000	22.659785
3048.000000	22.855007
3047.000000	23.045351
3046.000000	23.230129
3045.000000	23.412766
3044.000000	23.596100
3043.000000	23.779651
3042.000000	23.963191
3041.000000	24.148678
3040.000000	24.336093
3039.000000	24.521269
3038.000000	24.700733
3037.000000	24.875534
3036.000000	25.048565
3035.000000	25.221489
3034.000000	25.395943
3033.000000	25.573930
3032.000000	25.754735
3031.000000	25.934926
3030.000000	26.113105
3029.000000	26.291069
3028.000000	26.469029
3027.000000	26.644034
3026.000000	26.814888
3025.000000	26.984245
3024.000000	27.153260
3023.000000	27.318199
3022.000000	27.474619
3021.000000	27.620765
3020.000000	27.754652
3019.000000	27.870794
3018.000000	27.962987
3017.000000	28.027427
3016.000000	28.061819
3015.000000	28.066348
3014.000000	28.048375
3013.000000	28.024331
3012.000000	28.013980
3011.000000	28.034613
3010.000000	28.099752
3009.000000	28.217131
3008.000000	28.383644
3007.000000	28.584450
3006.000000	28.799255
3005.000000	29.007474
3004.000000	29.187126
3003.000000	29.313154
3002.000000	29.360380
3001.000000	29.306592
3000.000000	29.137122
2999.000000	28.855453
2998.000000	28.497237
2997.000000	28.131393
2996.000000	27.840855
2995.000000	27.696469
2994.000000	27.737032
2993.000000	27.960998
2992.000000	28.326973
2991.000000	28.770258
2990.000000	29.228127
2989.000000	29.657834
2988.000000	30.038697
2987.000000	30.365183
2986.000000	30.641629
2985.000000	30.875840
2984.000000	31.072694
2983.000000	31.231957
2982.000000	31.353197
2981.000000	31.437638
2980.000000	31.484152
2979.000000	31.486819
2978.000000	31.439174
2977.000000	31.340803
2976.000000	31.198791
2975.000000	31.028843
2974.000000	30.855973
2973.000000	30.709318
2972.000000	30.610870
2971.000000	30.566401
2970.000000	30.564420
2969.000000	30.576853
2968.000000	30.559922
2967.000000	30.464677
2966.000000	30.258783
2965.000000	29.943802
2964.000000	29.554366
2963.000000	29.143475
2962.000000	28.766759
2961.000000	28.468940
2960.000000	28.276018
2959.000000	28.196002
2958.000000	28.227928
2957.000000	28.365427
2956.000000	28.592817
2955.000000	28.884428
2954.000000	29.210429
2953.000000	29.541143
2952.000000	29.844186
2951.000000	30.087814
2950.000000	30.252410
2949.000000	30.340013
2948.000000	30.369831
2947.000000	30.363199
2946.000000	30.326269
2945.000000	30.233384
2944.000000	30.025883
2943.000000	29.641247
2942.000000	29.068596
2941.000000	28.389293
2940.000000	27.766824
2939.000000	27.384897
2938.000000	27.367796
2937.000000	27.730437
2936.000000	28.380833
2935.000000	29.173924
2934.000000	29.977307
2933.000000	30.709040
2932.000000	31.336465
2931.000000	31.859598
2930.000000	32.297109
2929.000000	32.673062
2928.000000	33.006483
2927.000000	33.307377
2926.000000	33.582485
2925.000000	33.838409
2924.000000	34.078526
2923.000000	34.301806
2922.000000	34.507742
2921.000000	34.698591
2920.000000	34.875155
2919.000000	35.035529
2918.000000	35.179346
2917.000000	35.309635
2916.000000	35.428640
2915.000000	35.535600
2914.000000	35.630427
2913.000000	35.715429
2912.000000	35.791505
2911.000000	35.856137
2910.000000	35.906364
2909.000000	35.940216
2908.000000	35.953425
2907.000000	35.937112
2906.000000	35.880480
2905.000000	35.771918
2904.000000	35.596839
2903.000000	35.339482
2902.000000	34.992108
2901.000000	34.562335
2900.000000	34.074545
2899.000000	33.569665
2898.000000	33.102081
2897.000000	32.730229
2896.000000	32.498558
2895.000000	32.424911
2894.000000	32.501833
2893.000000	32.703350
2892.000000	32.992288
2891.000000	33.328761
2890.000000	33.680812
2889.000000	34.027806
2888.000000	34.356311
2887.000000	34.656685
2886.000000	34.924130
2885.000000	35.159145
2884.000000	35.363099
2883.000000	35.536801
2882.000000	35.683454
2881.000000	35.809457
2880.000000	35.920791
2879.000000	36.021367
2878.000000	36.115548
2877.000000	36.208144
2876.000000	36.300333
2875.000000	36.388733
2874.000000	36.470569
2873.000000	36.546735
2872.000000	36.619365
2871.000000	36.690715
2870.000000	36.766067
2869.000000	36.853816
2868.000000	36.959759
2867.000000	37.083307
2866.000000	37.220139
2865.000000	37.364934
2864.000000	37.510314
2863.000000	37.647676
2862.000000	37.771963
2861.000000	37.883478
2860.000000	37.984060
2859.000000	38.074503
2858.000000	38.156946
2857.000000	38.236073
2856.000000	38.315811
2855.000000	38.397481
2854.000000	38.482152
2853.000000	38.571224
2852.000000	38.663128
2851.000000	38.752854
2850.000000	38.836493
2849.000000	38.913754
2848.000000	38.985402
2847.000000	39.051766
2846.000000	39.115108
2845.000000	39.179870
2844.000000	39.248716
2843.000000	39.320818
2842.000000	39.395209
2841.000000	39.473184
2840.000000	39.556244
2839.000000	39.644503
2838.000000	39.738183
2837.000000	39.837893
2836.000000	39.942451
2835.000000	40.049115
2834.000000	40.156783
2833.000000	40.266375
2832.000000	40.377475
2831.000000	40.487619
2830.000000	40.595754
2829.000000	40.703310
2828.000000	40.810851
2827.000000	40.916709
2826.000000	41.019842
2825.000000	41.121065
2824.000000	41.220420
2823.000000	41.316178
2822.000000	41.407599
2821.000000	41.495880
2820.000000	41.581400
2819.000000	41.662920
2818.000000	41.740393
2817.000000	41.815608
2816.000000	41.888959
2815.000000	41.958408
2814.000000	42.022827
2813.000000	42.083549
2812.000000	42.141585
2811.000000	42.196335
2810.000000	42.248252
2809.000000	42.299859
2808.000000	42.352655
2807.000000	42.405549
2806.000000	42.457533
2805.000000	42.509265
2804.000000	42.560796
2803.000000	42.610479
2802.000000	42.657541
2801.000000	42.703368
2800.000000	42.749169
2799.000000	42.794739
2798.000000	42.840417
2797.000000	42.887520
2796.000000	42.935662
2795.000000	42.982219
2794.000000	43.025620
2793.000000	43.066758
2792.000000	43.106343
2791.000000	43.143593
2790.000000	43.178641
2789.000000	43.213407
2788.000000	43.248688
2787.000000	43.282801
2786.000000	43.314359
2785.000000	43.344257
2784.000000	43.374085
2783.000000	43.405247
2782.000000	43.440549
2781.000000	43.483718
2780.000000	43.535930
2779.000000	43.594888
2778.000000	43.658186
2777.000000	43.725270
2776.000000	43.795281
2775.000000	43.865761
2774.000000	43.934750
2773.000000	44.001799
2772.000000	44.066099
2771.000000	44.126189
2770.000000	44.182454
2769.000000	44.237419
2768.000000	44.292455
2767.000000	44.346277
2766.000000	44.397478
2765.000000	44.445959
2764.000000	44.491044
2763.000000	44.530954
2762.000000	44.565276
2761.000000	44.595764
2760.000000	44.623817
2759.000000	44.649396
2758.000000	44.673192
2757.000000	44.697013
2756.000000	44.720945
2755.000000	44.742629
2754.000000	44.760493
2753.000000	44.775860
2752.000000	44.791305
2751.000000	44.809288
2750.000000	44.832899
2749.000000	44.864796
2748.000000	44.903821
2747.000000	44.944786
2746.000000	44.982653
2745.000000	45.015300
2744.000000	45.042383
2743.000000	45.064524
2742.000000	45.084138
2741.000000	45.103836
2740.000000	45.122624
2739.000000	45.136221
2738.000000	45.142659
2737.000000	45.146026
2736.000000	45.154274
2735.000000	45.175712
2734.000000	45.217432
2733.000000	45.282589
2732.000000	45.367144
2731.000000	45.461428
2730.000000	45.556338
2729.000000	45.647094
2728.000000	45.731345
2727.000000	45.807312
2726.000000	45.875237
2725.000000	45.937513
2724.000000	45.995393
2723.000000	46.047399
2722.000000	46.091587
2721.000000	46.127126
2720.000000	46.153471
2719.000000	46.170448
2718.000000	46.180504
2717.000000	46.188781
2716.000000	46.199706
2715.000000	46.215480
2714.000000	46.237899
2713.000000	46.268640
2712.000000	46.306858
2711.000000	46.349148
2710.000000	46.392906
2709.000000	46.437614
2708.000000	46.482404
2707.000000	46.525118
2706.000000	46.564692
2705.000000	46.601672
2704.000000	46.635191
2703.000000	46.661989
2702.000000	46.679504
2701.000000	46.687404
2700.000000	46.685665
2699.000000	46.673716
2698.000000	46.652724
2697.000000	46.626678
2696.000000	46.599784
2695.000000	46.574862
2694.000000	46.554484
2693.000000	46.540598
2692.000000	46.532104
2691.000000	46.525418
2690.000000	46.518658
2689.000000	46.513271
2688.000000	46.511105
2687.000000	46.512424
2686.000000	46.517620
2685.000000	46.527787
2684.000000	46.542547
2683.000000	46.560198
2682.000000	46.580925
2681.000000	46.607467
2680.000000	46.641403
2679.000000	46.681089
2678.000000	46.724183
2677.000000	46.769196
2676.000000	46.813660
2675.000000	46.853606
2674.000000	46.886220
2673.000000	46.911002
2672.000000	46.927744
2671.000000	46.936024
2670.000000	46.937854
2669.000000	46.938557
2668.000000	46.943813
2667.000000	46.957753
2666.000000	46.983918
2665.000000	47.024505
2664.000000	47.077056
2663.000000	47.134484
2662.000000	47.189551
2661.000000	47.237417
2660.000000	47.273979
2659.000000	47.295409
2658.000000	47.301145
2657.000000	47.295173
2656.000000	47.282953
2655.000000	47.269048
2654.000000	47.258518
2653.000000	47.257393
2652.000000	47.269885
2651.000000	47.296921
2650.000000	47.338058
2649.000000	47.392246
2648.000000	47.456082
2647.000000	47.523669
2646.000000	47.589536
2645.000000	47.650412
2644.000000	47.703989
2643.000000	47.749214
2642.000000	47.788667
2641.000000	47.827866
2640.000000	47.870893
2639.000000	47.918426
2638.000000	47.970082
2637.000000	48.025568
2636.000000	48.082608
2635.000000	48.136613
2634.000000	48.184041
2633.000000	48.224014
2632.000000	48.256107
2631.000000	48.279423
2630.000000	48.294710
2629.000000	48.305058
2628.000000	48.312978
2627.000000	48.318803
2626.000000	48.322970
2625.000000	48.326974
2624.000000	48.331305
2623.000000	48.334797
2622.000000	48.337079
2621.000000	48.339551
2620.000000	48.342676
2619.000000	48.344657
2618.000000	48.343516
2617.000000	48.338036
2616.000000	48.326028
2615.000000	48.304120
2614.000000	48.270956
2613.000000	48.228708
2612.000000	48.180678
2611.000000	48.130059
2610.000000	48.081611
2609.000000	48.041704
2608.000000	48.015060
2607.000000	48.003305
2606.000000	48.006874
2605.000000	48.026042
2604.000000	48.058926
2603.000000	48.101062
2602.000000	48.148807
2601.000000	48.200429
2600.000000	48.253813
2599.000000	48.305730
2598.000000	48.354256
2597.000000	48.399973
2596.000000	48.443607
2595.000000	48.484938
2594.000000	48.524776
2593.000000	48.565357
2592.000000	48.607623
2591.000000	48.650216
2590.000000	48.691649
2589.000000	48.731048
2588.000000	48.766301
2587.000000	48.794219
2586.000000	48.813962
2585.000000	48.828228
2584.000000	48.840502
2583.000000	48.853689
2582.000000	48.871982
2581.000000	48.900796
2580.000000	48.943295
2579.000000	48.998926
2578.000000	49.065786
2577.000000	49.142309
2576.000000	49.225592
2575.000000	49.311024
2574.000000	49.395189
2573.000000	49.476934
2572.000000	49.555336
2571.000000	49.628876
2570.000000	49.697348
2569.000000	49.762192
2568.000000	49.824052
2567.000000	49.882076
2566.000000	49.936339
2565.000000	49.988671
2564.000000	50.040078
2563.000000	50.089890
2562.000000	50.137881
2561.000000	50.184877
2560.000000	50.230620
2559.000000	50.273397
2558.000000	50.312919
2557.000000	50.351114
2556.000000	50.389391
2555.000000	50.427555
2554.000000	50.466218
2553.000000	50.507702
2552.000000	50.553350
2551.000000	50.602081
2550.000000	50.652526
2549.000000	50.704384
2548.000000	50.756761
2547.000000	50.807464
2546.000000	50.854975
2545.000000	50.899259
2544.000000	50.939829
2543.000000	50.975265
2542.000000	51.005266
2541.000000	51.030779
2540.000000	51.051642
2539.000000	51.065808
2538.000000	51.071948
2537.000000	51.070465
2536.000000	51.061021
2535.000000	51.042146
2534.000000	51.013636
2533.000000	50.977520
2532.000000	50.935803
2531.000000	50.889227
2530.000000	50.839622
2529.000000	50.790619
2528.000000	50.745131
2527.000000	50.704153
2526.000000	50.668505
2525.000000	50.639204
2524.000000	50.614984
2523.000000	50.591828
2522.000000	50.566103
2521.000000	50.536080
2520.000000	50.499990
2519.000000	50.455294
2518.000000	50.401189
2517.000000	50.339639
2516.000000	50.272713
2515.000000	50.201524
2514.000000	50.128396
2513.000000	50.057571
2512.000000	49.992674
2511.000000	49.935857
2510.000000	49.889994
2509.000000	49.859022
2508.000000	49.844995
2507.000000	49.846654
2506.000000	49.862609
2505.000000	49.892538
2504.000000	49.934637
2503.000000	49.984948
2502.000000	50.039623
2501.000000	50.096394
2500.000000	50.152570
2499.000000	50.204433
2498.000000	50.249891
2497.000000	50.289100
2496.000000	50.321728
2495.000000	50.346197
2494.000000	50.362472
2493.000000	50.372861
2492.000000	50.379409
2491.000000	50.382741
2490.000000	50.384479
2489.000000	50.388108
2488.000000	50.396019
2487.000000	50.408201
2486.000000	50.424509
2485.000000	50.445584
2484.000000	50.470452
2483.000000	50.496058
2482.000000	50.520331
2481.000000	50.543512
2480.000000	50.565790
2479.000000	50.586364
2478.000000	50.606264
2477.000000	50.629218
2476.000000	50.658478
2475.000000	50.694953
2474.000000	50.739129
2473.000000	50.792449
2472.000000	50.855046
2471.000000	50.924536
2470.000000	50.998196
2469.000000	51.073975
2468.000000	51.148994
2467.000000	51.219487
2466.000000	51.283583
2465.000000	51.342092
2464.000000	51.395827
2463.000000	51.444341
2462.000000	51.487991
2461.000000	51.528583
2460.000000	51.566639
2459.000000	51.600726
2458.000000	51.630099
2457.000000	51.655838
2456.000000	51.678356
2455.000000	51.696023
2454.000000	51.707931
2453.000000	51.715688
2452.000000	51.721675
2451.000000	51.727666
2450.000000	51.735996
2449.000000	51.749775
2448.000000	51.770803
2447.000000	51.799223
2446.000000	51.835740
2445.000000	51.881927
2444.000000	51.937041
2443.000000	51.997120
2442.000000	52.058081
2441.000000	52.117471
2440.000000	52.172897
2439.000000	52.221526
2438.000000	52.262702
2437.000000	52.298798
2436.000000	52.332352
2435.000000	52.363945
2434.000000	52.393558
2433.000000	52.421257
2432.000000	52.445231
2431.000000	52.461873
2430.000000	52.468611
2429.000000	52.465321
2428.000000	52.452122
2427.000000	52.427937
2426.000000	52.392787
2425.000000	52.348703
2424.000000	52.297993
2423.000000	52.242840
2422.000000	52.187570
2421.000000	52.138937
2420.000000	52.102363
2419.000000	52.079585
2418.000000	52.070339
2417.000000	52.073754
2416.000000	52.086626
2415.000000	52.103147
2414.000000	52.117721
2413.000000	52.126263
2412.000000	52.124259
2411.000000	52.106638
2410.000000	52.071145
2409.000000	52.019978
2408.000000	51.957369
2407.000000	51.887261
2406.000000	51.814449
2405.000000	51.744537
2404.000000	51.680994
2403.000000	51.624335
2402.000000	51.575172
2401.000000	51.535711
2400.000000	51.507000
2399.000000	51.487248
2398.000000	51.473864
2397.000000	51.464903
2396.000000	51.457187
2395.000000	51.445815
2394.000000	51.427023
2393.000000	51.399715
2392.000000	51.363000
2391.000000	51.315453
2390.000000	51.258225
2389.000000	51.195795
2388.000000	51.133500
2387.000000	51.074999
2386.000000	51.024106
2385.000000	50.985904
2384.000000	50.962767
2383.000000	50.953734
2382.000000	50.957205
2381.000000	50.973129
2380.000000	51.000570
2379.000000	51.034950
2378.000000	51.070581
2377.000000	51.104300
2376.000000	51.132260
2375.000000	51.147247
2374.000000	51.143073
2373.000000	51.117572
2372.000000	51.071657
2371.000000	51.007296
2370.000000	50.927254
2369.000000	50.841108
2368.000000	50.762573
2367.000000	50.701754
2366.000000	50.662404
2365.000000	50.651503
2364.000000	50.683827
2363.000000	50.752987
2362.000000	50.847230
2361.000000	50.966784
2360.000000	51.095867
2359.000000	51.223702
2358.000000	51.330130
2357.000000	51.402884
2356.000000	51.442843
2355.000000	51.433740
2354.000000	51.382543
2353.000000	51.323598
2352.000000	51.326834
2351.000000	51.416027
2350.000000	51.521852
2349.000000	51.583959
2348.000000	51.581556
2347.000000	51.579241
2346.000000	51.641908
2345.000000	51.771605
2344.000000	51.919723
2343.000000	52.014312
2342.000000	52.069023
2341.000000	52.107373
2340.000000	52.138300
2339.000000	52.153435
2338.000000	52.152800
2337.000000	52.144477
2336.000000	52.137407
2335.000000	52.126251
2334.000000	52.111858
2333.000000	52.083971
2332.000000	52.040200
2331.000000	51.978737
2330.000000	51.888371
2329.000000	51.795140
2328.000000	51.700896
2327.000000	51.625856
2326.000000	51.571990
2325.000000	51.538745
2324.000000	51.529889
2323.000000	51.523800
2322.000000	51.521627
2321.000000	51.510796
2320.000000	51.496424
2319.000000	51.473940
2318.000000	51.446914
2317.000000	51.418830
2316.000000	51.388749
2315.000000	51.355395
2314.000000	51.312890
2313.000000	51.260060
2312.000000	51.189261
2311.000000	51.099720
2310.000000	50.992671
2309.000000	50.876554
2308.000000	50.755193
2307.000000	50.630232
2306.000000	50.504583
2305.000000	50.381189
2304.000000	50.262674
2303.000000	50.146965
2302.000000	50.033503
2301.000000	49.922594
2300.000000	49.811821
2299.000000	49.700262
2298.000000	49.589254
2297.000000	49.487140
2296.000000	49.398716
2295.000000	49.329426
2294.000000	49.283004
2293.000000	49.264143
2292.000000	49.272040
2291.000000	49.302164
2290.000000	49.351065
2289.000000	49.416815
2288.000000	49.497365
2287.000000	49.589310
2286.000000	49.692203
2285.000000	49.805933
2284.000000	49.927213
2283.000000	50.048712
2282.000000	50.165516
2281.000000	50.275149
2280.000000	50.375026
2279.000000	50.461323
2278.000000	50.534190
2277.000000	50.598152
2276.000000	50.657908
2275.000000	50.717350
2274.000000	50.781031
2273.000000	50.854758
2272.000000	50.941031
2271.000000	51.039006
2270.000000	51.148411
2269.000000	51.270419
2268.000000	51.404973
2267.000000	51.550078
2266.000000	51.704253
2265.000000	51.867580
2264.000000	52.037427
2263.000000	52.208974
2262.000000	52.377785
2261.000000	52.540492
2260.000000	52.693549
2259.000000	52.832689
2258.000000	52.957748
2257.000000	53.071706
2256.000000	53.178125
2255.000000	53.279355
2254.000000	53.378571
2253.000000	53.479525
2252.000000	53.582836
2251.000000	53.686370
2250.000000	53.788010
2249.000000	53.886640
2248.000000	53.979820
2247.000000	54.064822
2246.000000	54.141716
2245.000000	54.213689
2244.000000	54.282989
2243.000000	54.349485
2242.000000	54.413028
2241.000000	54.474038
2240.000000	54.530654
2239.000000	54.578304
2238.000000	54.613450
2237.000000	54.635580
2236.000000	54.645895
2235.000000	54.646632
2234.000000	54.642836
2233.000000	54.641443
2232.000000	54.647255
2231.000000	54.661340
2230.000000	54.683265
2229.000000	54.711999
2228.000000	54.744209
2227.000000	54.775077
2226.000000	54.802086
2225.000000	54.826014
2224.000000	54.847757
2223.000000	54.866929
2222.000000	54.883862
2221.000000	54.900022
2220.000000	54.915453
2219.000000	54.928591
2218.000000	54.939521
2217.000000	54.951175
2216.000000	54.966724
2215.000000	54.988235
2214.000000	55.018272
2213.000000	55.059529
2212.000000	55.111726
2211.000000	55.170984
2210.000000	55.232938
2209.000000	55.294028
2208.000000	55.349806
2207.000000	55.395373
2206.000000	55.428781
2205.000000	55.451846
2204.000000	55.466805
2203.000000	55.474699
2202.000000	55.477337
2201.000000	55.477776
2200.000000	55.477457
2199.000000	55.475230
2198.000000	55.470367
2197.000000	55.464371
2196.000000	55.459404
2195.000000	55.457358
2194.000000	55.461469
2193.000000	55.476106
2192.000000	55.503595
2191.000000	55.542992
2190.000000	55.592183
2189.000000	55.649000
2188.000000	55.710046
2187.000000	55.771426
2186.000000	55.831517
2185.000000	55.890950
2184.000000	55.949555
2183.000000	56.005676
2182.000000	56.058878
2181.000000	56.110390
2180.000000	56.160325
2179.000000	56.206831
2178.000000	56.248493
2177.000000	56.285124
2176.000000	56.315637
2175.000000	56.338036
2174.000000	56.352340
2173.000000	56.361213
2172.000000	56.366885
2171.000000	56.369701
2170.000000	56.370169
2169.000000	56.369655
2168.000000	56.368221
2167.000000	56.364233
2166.000000	56.357192
2165.000000	56.348788
2164.000000	56.340679
2163.000000	56.333753
2162.000000	56.330034
2161.000000	56.332632
2160.000000	56.342800
2159.000000	56.359333
2158.000000	56.381286
2157.000000	56.408543
2156.000000	56.439172
2155.000000	56.469238
2154.000000	56.496459
2153.000000	56.521785
2152.000000	56.546756
2151.000000	56.571740
2150.000000	56.597350
2149.000000	56.624776
2148.000000	56.653482
2147.000000	56.680894
2146.000000	56.705149
2145.000000	56.726132
2144.000000	56.743551
2143.000000	56.756553
2142.000000	56.765928
2141.000000	56.774336
2140.000000	56.783472
2139.000000	56.792982
2138.000000	56.802313
2137.000000	56.811081
2136.000000	56.817218
2135.000000	56.817528
2134.000000	56.811035
2133.000000	56.799488
2132.000000	56.784226
2131.000000	56.765090
2130.000000	56.742947
2129.000000	56.720316
2128.000000	56.698519
2127.000000	56.676682
2126.000000	56.654411
2125.000000	56.633191
2124.000000	56.614590
2123.000000	56.600099
2122.000000	56.593452
2121.000000	56.600197
2120.000000	56.623766
2119.000000	56.663605
2118.000000	56.716949
2117.000000	56.779478
2116.000000	56.843961
2115.000000	56.901697
2114.000000	56.947165
2113.000000	56.979700
2112.000000	57.000758
2111.000000	57.012342
2110.000000	57.018177
2109.000000	57.023146
2108.000000	57.030145
2107.000000	57.039395
2106.000000	57.051277
2105.000000	57.067015
2104.000000	57.085835
2103.000000	57.104253
2102.000000	57.118979
2101.000000	57.128110
2100.000000	57.128960
2099.000000	57.117690
2098.000000	57.092501
2097.000000	57.055050
2096.000000	57.008327
2095.000000	56.956188
2094.000000	56.905378
2093.000000	56.864744
2092.000000	56.841104
2091.000000	56.837637
2090.000000	56.856221
2089.000000	56.897755
2088.000000	56.958869
2087.000000	57.031405
2086.000000	57.106197
2085.000000	57.175361
2084.000000	57.231942
2083.000000	57.271199
2082.000000	57.293095
2081.000000	57.301404
2080.000000	57.299661
2079.000000	57.289832
2078.000000	57.274564
2077.000000	57.256578
2076.000000	57.235020
2075.000000	57.205826
2074.000000	57.166126
2073.000000	57.115919
2072.000000	57.055337
2071.000000	56.983891
2070.000000	56.903848
2069.000000	56.820280
2068.000000	56.735843
2067.000000	56.648384
2066.000000	56.555165
2065.000000	56.456827
2064.000000	56.355335
2063.000000	56.251241
2062.000000	56.144707
2061.000000	56.036510
2060.000000	55.927007
2059.000000	55.816536
2058.000000	55.707613
2057.000000	55.603809
2056.000000	55.505872
2055.000000	55.411893
2054.000000	55.321659
2053.000000	55.237424
2052.000000	55.160192
2051.000000	55.089214
2050.000000	55.025864
2049.000000	54.974135
2048.000000	54.935594
2047.000000	54.907605
2046.000000	54.888112
2045.000000	54.877336
2044.000000	54.873564
2043.000000	54.872205
2042.000000	54.871223
2041.000000	54.874136
2040.000000	54.885467
2039.000000	54.907402
2038.000000	54.942130
2037.000000	54.992361
2036.000000	55.057856
2035.000000	55.134711
2034.000000	55.219540
2033.000000	55.310928
2032.000000	55.406008
2031.000000	55.500361
2030.000000	55.592389
2029.000000	55.684043
2028.000000	55.776467
2027.000000	55.868362
2026.000000	55.959183
2025.000000	56.049901
2024.000000	56.139434
2023.000000	56.224290
2022.000000	56.303494
2021.000000	56.379855
2020.000000	56.454713
2019.000000	56.525772
2018.000000	56.592293
2017.000000	56.658804
2016.000000	56.731161
2015.000000	56.811985
2014.000000	56.901449
2013.000000	56.998696
2012.000000	57.100443
2011.000000	57.201863
2010.000000	57.300829
2009.000000	57.398445
2008.000000	57.495130
2007.000000	57.589756
2006.000000	57.682681
2005.000000	57.775536
2004.000000	57.867130
2003.000000	57.953470
2002.000000	58.033182
2001.000000	58.108742
2000.000000	58.181924
1999.000000	58.252069
1998.000000	58.319606
1997.000000	58.388897
1996.000000	58.464811
1995.000000	58.546637
1994.000000	58.627468
1993.000000	58.699882
1992.000000	58.762378
1991.000000	58.820558
1990.000000	58.881878
1989.000000	58.950084
1988.000000	59.024693
1987.000000	59.104307
1986.000000	59.189566
1985.000000	59.281946
1984.000000	59.380048
1983.000000	59.479459
1982.000000	59.576239
1981.000000	59.668720
1980.000000	59.756698
1979.000000	59.840620
1978.000000	59.921403
1977.000000	60.000545
1976.000000	60.079677
1975.000000	60.159590
1974.000000	60.240195
1973.000000	60.321375
1972.000000	60.403415
1971.000000	60.486037
1970.000000	60.566761
1969.000000	60.640825
1968.000000	60.703210
1967.000000	60.752254
1966.000000	60.791442
1965.000000	60.825161
1964.000000	60.853170
1963.000000	60.869957
1962.000000	60.869405
1961.000000	60.850469
1960.000000	60.817850
1959.000000	60.778909
1958.000000	60.741297
1957.000000	60.712029
1956.000000	60.696463
1955.000000	60.696831
1954.000000	60.712084
1953.000000	60.739316
1952.000000	60.774418
1951.000000	60.812524
1950.000000	60.849860
1949.000000	60.884169
1948.000000	60.914259
1947.000000	60.941150
1946.000000	60.967675
1945.000000	60.993989
1944.000000	61.013991
1943.000000	61.020835
1942.000000	61.017620
1941.000000	61.016065
1940.000000	61.023814
1939.000000	61.039016
1938.000000	61.055155
1937.000000	61.067162
1936.000000	61.073364
1935.000000	61.073207
1934.000000	61.066126
1933.000000	61.052698
1932.000000	61.033919
1931.000000	61.011582
1930.000000	60.989854
1929.000000	60.973197
1928.000000	60.964886
1927.000000	60.968568
1926.000000	60.987444
1925.000000	61.017917
1924.000000	61.046788
1923.000000	61.064008
1922.000000	61.075640
1921.000000	61.093224
1920.000000	61.116476
1919.000000	61.133941
1918.000000	61.138747
1917.000000	61.137099
1916.000000	61.135969
1915.000000	61.135432
1914.000000	61.134647
1913.000000	61.133085
1912.000000	61.126878
1911.000000	61.111355
1910.000000	61.088147
1909.000000	61.064516
1908.000000	61.046543
1907.000000	61.037360
1906.000000	61.040945
1905.000000	61.060085
1904.000000	61.090929
1903.000000	61.128351
1902.000000	61.173792
1901.000000	61.230371
1900.000000	61.295726
1899.000000	61.365489
1898.000000	61.439035
1897.000000	61.515264
1896.000000	61.586269
1895.000000	61.645701
1894.000000	61.699976
1893.000000	61.759825
1892.000000	61.824744
1891.000000	61.883851
1890.000000	61.930438
1889.000000	61.970486
1888.000000	62.012604
1887.000000	62.058217
1886.000000	62.105566
1885.000000	62.151852
1884.000000	62.192546
1883.000000	62.227010
1882.000000	62.261862
1881.000000	62.303330
1880.000000	62.350598
1879.000000	62.400362
1878.000000	62.453712
1877.000000	62.513625
1876.000000	62.577459
1875.000000	62.639339
1874.000000	62.699038
1873.000000	62.760699
1872.000000	62.823540
1871.000000	62.879845
1870.000000	62.921249
1869.000000	62.947525
1868.000000	62.968254
1867.000000	62.994634
1866.000000	63.035296
1865.000000	63.093278
1864.000000	63.161828
1863.000000	63.230446
1862.000000	63.295801
1861.000000	63.361030
1860.000000	63.425812
1859.000000	63.486347
1858.000000	63.543084
1857.000000	63.598849
1856.000000	63.651294
1855.000000	63.695897
1854.000000	63.733774
1853.000000	63.770081
1852.000000	63.809182
1851.000000	63.854495
1850.000000	63.908275
1849.000000	63.968977
1848.000000	64.031448
1847.000000	64.093248
1846.000000	64.155252
1845.000000	64.212229
1844.000000	64.256305
1843.000000	64.290085
1842.000000	64.321884
1841.000000	64.359090
1840.000000	64.405758
1839.000000	64.457169
1838.000000	64.505726
1837.000000	64.550072
1836.000000	64.593839
1835.000000	64.640523
1834.000000	64.691683
1833.000000	64.747353
1832.000000	64.805318
1831.000000	64.855870
1830.000000	64.892297
1829.000000	64.927874
1828.000000	64.978577
1827.000000	65.041591
1826.000000	65.102306
1825.000000	65.151745
1824.000000	65.195137
1823.000000	65.240991
1822.000000	65.293131
1821.000000	65.354426
1820.000000	65.423925
1819.000000	65.492567
1818.000000	65.551736
1817.000000	65.602768
1816.000000	65.650113
1815.000000	65.691165
1814.000000	65.719254
1813.000000	65.731951
1812.000000	65.730532
1811.000000	65.716718
1810.000000	65.699721
1809.000000	65.693587
1808.000000	65.700867
1807.000000	65.713825
1806.000000	65.730399
1805.000000	65.754216
1804.000000	65.779725
1803.000000	65.790651
1802.000000	65.778582
1801.000000	65.758403
1800.000000	65.753221
1799.000000	65.770035
1798.000000	65.802673
1797.000000	65.843082
1796.000000	65.883751
1795.000000	65.921151
1794.000000	65.954565
1793.000000	65.980484
1792.000000	65.995242
1791.000000	66.002377
1790.000000	66.013232
1789.000000	66.039485
1788.000000	66.081491
1787.000000	66.124462
1786.000000	66.153232
1785.000000	66.167548
1784.000000	66.177752
1783.000000	66.189371
1782.000000	66.199157
1781.000000	66.205151
1780.000000	66.214222
1779.000000	66.236380
1778.000000	66.273825
1777.000000	66.319529
1776.000000	66.366303
1775.000000	66.414640
1774.000000	66.465428
1773.000000	66.514502
1772.000000	66.567314
1771.000000	66.631129
1770.000000	66.698701
1769.000000	66.767100
1768.000000	66.843548
1767.000000	66.927455
1766.000000	67.009107
1765.000000	67.083658
1764.000000	67.152304
1763.000000	67.203929
1762.000000	67.222617
1761.000000	67.221137
1760.000000	67.226588
1759.000000	67.246299
1758.000000	67.270585
1757.000000	67.290315
1756.000000	67.315238
1755.000000	67.355552
1754.000000	67.403342
1753.000000	67.450331
1752.000000	67.495316
1751.000000	67.538835
1750.000000	67.578809
1749.000000	67.613917
1748.000000	67.655677
1747.000000	67.717887
1746.000000	67.791896
1745.000000	67.856801
1744.000000	67.905180
1743.000000	67.942916
1742.000000	67.977128
1741.000000	68.014160
1740.000000	68.059571
1739.000000	68.111654
1738.000000	68.158109
1737.000000	68.194689
1736.000000	68.231687
1735.000000	68.258438
1734.000000	68.261777
1733.000000	68.266532
1732.000000	68.277390
1731.000000	68.279772
1730.000000	68.280004
1729.000000	68.284028
1728.000000	68.298008
1727.000000	68.323607
1726.000000	68.354828
1725.000000	68.381307
1724.000000	68.398662
1723.000000	68.411578
1722.000000	68.427788
1721.000000	68.450877
1720.000000	68.480945
1719.000000	68.504154
1718.000000	68.505826
1717.000000	68.511374
1716.000000	68.538456
1715.000000	68.568922
1714.000000	68.606020
1713.000000	68.663390
1712.000000	68.732974
1711.000000	68.799906
1710.000000	68.862570
1709.000000	68.926758
1708.000000	68.992610
1707.000000	69.054044
1706.000000	69.108791
1705.000000	69.164981
1704.000000	69.220188
1703.000000	69.272194
1702.000000	69.340256
1701.000000	69.433839
1700.000000	69.538209
1699.000000	69.625417
1698.000000	69.680506
1697.000000	69.736688
1696.000000	69.827964
1695.000000	69.942803
1694.000000	70.044911
1693.000000	70.115753
1692.000000	70.179169
1691.000000	70.253649
1690.000000	70.326679
1689.000000	70.376352
1688.000000	70.404006
1687.000000	70.435279
1686.000000	70.491031
1685.000000	70.539872
1684.000000	70.557704
1683.000000	70.590264
1682.000000	70.631997
1681.000000	70.643824
1680.000000	70.637293
1679.000000	70.632803
1678.000000	70.638645
1677.000000	70.640311
1676.000000	70.628213
1675.000000	70.619365
1674.000000	70.626916
1673.000000	70.626513
1672.000000	70.606516
1671.000000	70.583936
1670.000000	70.564719
1669.000000	70.538558
1668.000000	70.503896
1667.000000	70.473338
1666.000000	70.452270
1665.000000	70.431478
1664.000000	70.399142
1663.000000	70.362282
1662.000000	70.335140
1661.000000	70.297410
1660.000000	70.223126
1659.000000	70.123519
1658.000000	70.011928
1657.000000	69.872510
1656.000000	69.682367
1655.000000	69.424567
1654.000000	69.004486
1653.000000	68.403423
1652.000000	67.822680
1651.000000	67.305060
1650.000000	66.719261
1649.000000	65.932669
1648.000000	64.717487
1647.000000	62.916779
1646.000000	60.645465
1645.000000	58.124310
1644.000000	55.369780
1643.000000	52.264933
1642.000000	48.744263
1641.000000	44.915881
1640.000000	41.098673
1639.000000	37.630556
1638.000000	34.661198
1637.000000	32.211424
1636.000000	30.450314
1635.000000	29.676746
1634.000000	29.868020
1633.000000	30.714993
1632.000000	31.982450
1631.000000	33.556610
1630.000000	35.379297
1629.000000	37.404770
1628.000000	39.554423
1627.000000	41.682315
1626.000000	43.691897
1625.000000	45.655380
1624.000000	47.698362
1623.000000	49.771934
1622.000000	51.654647
1621.000000	53.222853
1620.000000	54.553122
1619.000000	55.784327
1618.000000	57.013405
1617.000000	58.264866
1616.000000	59.452752
1615.000000	60.430369
1614.000000	61.159915
1613.000000	61.741757
1612.000000	62.274301
1611.000000	62.753963
1610.000000	63.110771
1609.000000	63.318175
1608.000000	63.392707
1607.000000	63.310921
1606.000000	63.007251
1605.000000	62.434481
1604.000000	61.577099
1603.000000	60.407981
1602.000000	58.916700
1601.000000	57.189876
1600.000000	55.401935
1599.000000	53.727295
1598.000000	52.276360
1597.000000	51.103469
1596.000000	50.221104
1595.000000	49.579202
1594.000000	49.064391
1593.000000	48.567682
1592.000000	48.040908
1591.000000	47.467155
1590.000000	46.823632
1589.000000	46.100462
1588.000000	45.316776
1587.000000	44.477556
1586.000000	43.548213
1585.000000	42.503575
1584.000000	41.371852
1583.000000	40.194195
1582.000000	38.974547
1581.000000	37.715901
1580.000000	36.455898
1579.000000	35.185312
1578.000000	33.748110
1577.000000	31.912287
1576.000000	29.728977
1575.000000	27.650106
1574.000000	25.978620
1573.000000	24.611863
1572.000000	23.367943
1571.000000	22.177298
1570.000000	21.081965
1569.000000	20.183793
1568.000000	19.572852
1567.000000	19.273559
1566.000000	19.225408
1565.000000	19.326894
1564.000000	19.532185
1563.000000	19.859544
1562.000000	20.332989
1561.000000	20.972284
1560.000000	21.894989
1559.000000	23.205865
1558.000000	24.610710
1557.000000	25.724507
1556.000000	26.583160
1555.000000	27.388440
1554.000000	28.184365
1553.000000	28.888469
1552.000000	29.464955
1551.000000	30.000986
1550.000000	30.585375
1549.000000	31.229547
1548.000000	31.924612
1547.000000	32.716755
1546.000000	33.655233
1545.000000	34.701618
1544.000000	35.761435
1543.000000	36.800934
1542.000000	37.869819
1541.000000	39.014588
1540.000000	40.211620
1539.000000	41.361329
1538.000000	42.342434
1537.000000	43.131507
1536.000000	43.836303
1535.000000	44.599671
1534.000000	45.481065
1533.000000	46.392735
1532.000000	47.223673
1531.000000	47.974497
1530.000000	48.701044
1529.000000	49.418144
1528.000000	50.111891
1527.000000	50.783256
1526.000000	51.423492
1525.000000	51.997027
1524.000000	52.503076
1523.000000	53.002807
1522.000000	53.532496
1521.000000	54.042437
1520.000000	54.481692
1519.000000	54.873115
1518.000000	55.257584
1517.000000	55.630829
1516.000000	55.978020
1515.000000	56.317255
1514.000000	56.664445
1513.000000	57.016038
1512.000000	57.367416
1511.000000	57.719061
1510.000000	58.060449
1509.000000	58.374929
1508.000000	58.658558
1507.000000	58.945253
1506.000000	59.294821
1505.000000	59.660667
1504.000000	59.964386
1503.000000	60.238171
1502.000000	60.518032
1501.000000	60.794820
1500.000000	61.059133
1499.000000	61.328946
1498.000000	61.607599
1497.000000	61.871927
1496.000000	62.121923
1495.000000	62.375302
1494.000000	62.618548
1493.000000	62.830081
1492.000000	63.025871
1491.000000	63.233447
1490.000000	63.437193
1489.000000	63.605080
1488.000000	63.749326
1487.000000	63.899329
1486.000000	64.034982
1485.000000	64.095203
1484.000000	64.054729
1483.000000	63.918420
1482.000000	63.651270
1481.000000	63.203032
1480.000000	62.575078
1479.000000	61.754254
1478.000000	60.606815
1477.000000	58.979022
1476.000000	56.892972
1475.000000	54.490367
1474.000000	51.803447
1473.000000	48.877400
1472.000000	46.110039
1471.000000	43.980714
1470.000000	42.557287
1469.000000	41.656376
1468.000000	41.181486
1467.000000	41.169771
1466.000000	41.705880
1465.000000	42.780956
1464.000000	44.175301
1463.000000	45.540820
1462.000000	46.623136
1461.000000	47.328839
1460.000000	47.627184
1459.000000	47.462173
1458.000000	46.725696
1457.000000	45.514893
1456.000000	44.324248
1455.000000	43.524604
1454.000000	43.056099
1453.000000	42.760333
1452.000000	42.560176
1451.000000	42.439950
1450.000000	42.410155
1449.000000	42.501704
1448.000000	42.739153
1447.000000	43.092780
1446.000000	43.502538
1445.000000	43.950414
1444.000000	44.471657
1443.000000	45.109130
1442.000000	45.892181
1441.000000	46.839740
1440.000000	47.964530
1439.000000	49.292202
1438.000000	50.869584
1437.000000	52.657114
1436.000000	54.395614
1435.000000	55.798613
1434.000000	56.848643
1433.000000	57.702456
1432.000000	58.459555
1431.000000	59.126612
1430.000000	59.697938
1429.000000	60.196903
1428.000000	60.638406
1427.000000	61.024158
1426.000000	61.370174
1425.000000	61.691367
1424.000000	61.982746
1423.000000	62.238930
1422.000000	62.481958
1421.000000	62.743213
1420.000000	63.019403
1419.000000	63.275578
1418.000000	63.504722
1417.000000	63.732733
1416.000000	63.968531
1415.000000	64.204199
1414.000000	64.433479
1413.000000	64.652980
1412.000000	64.855592
1411.000000	65.039256
1410.000000	65.220261
1409.000000	65.422345
1408.000000	65.649281
1407.000000	65.887527
1406.000000	66.127798
1405.000000	66.360699
1404.000000	66.563043
1403.000000	66.704018
1402.000000	66.753233
1401.000000	66.657988
1400.000000	66.341029
1399.000000	65.803077
1398.000000	65.207375
1397.000000	64.778208
1396.000000	64.652647
1395.000000	64.830410
1394.000000	65.180977
1393.000000	65.540929
1392.000000	65.847363
1391.000000	66.154351
1390.000000	66.551767
1389.000000	67.088795
1388.000000	67.741848
1387.000000	68.427017
1386.000000	69.051264
1385.000000	69.557022
1384.000000	69.928128
1383.000000	70.178899
1382.000000	70.349727
1381.000000	70.486742
1380.000000	70.609062
1379.000000	70.704886
1378.000000	70.745108
1377.000000	70.663185
1376.000000	70.288764
1375.000000	69.306508
1374.000000	67.324982
1373.000000	64.078486
1372.000000	59.622170
1371.000000	54.422995
1370.000000	49.373105
1369.000000	45.612173
1368.000000	43.997930
1367.000000	44.536288
1366.000000	46.427397
1365.000000	48.618778
1364.000000	50.212168
1363.000000	50.641843
1362.000000	49.876203
1361.000000	48.513259
1360.000000	47.490474
1359.000000	47.601402
1358.000000	49.139367
1357.000000	51.793720
1356.000000	54.887923
1355.000000	57.791489
1354.000000	60.186459
1353.000000	62.054340
1352.000000	63.501939
1351.000000	64.639434
1350.000000	65.555929
1349.000000	66.313820
1348.000000	66.949477
1347.000000	67.493148
1346.000000	67.980315
1345.000000	68.434119
1344.000000	68.856696
1343.000000	69.244556
1342.000000	69.603898
1341.000000	69.937220
1340.000000	70.232567
1339.000000	70.487312
1338.000000	70.722714
1337.000000	70.959422
1336.000000	71.191729
1335.000000	71.392747
1334.000000	71.525541
1333.000000	71.522635
1332.000000	71.269478
1331.000000	70.632581
1330.000000	69.517033
1329.000000	67.907084
1328.000000	65.836299
1327.000000	63.328651
1326.000000	60.397538
1325.000000	57.164270
1324.000000	54.026402
1323.000000	51.611038
1322.000000	50.410295
1321.000000	50.428525
1320.000000	51.218771
1319.000000	52.247346
1318.000000	53.222730
1317.000000	54.114495
1316.000000	54.973717
1315.000000	55.826293
1314.000000	56.691747
1313.000000	57.628547
1312.000000	58.715982
1311.000000	59.987133
1310.000000	61.379369
1309.000000	62.744475
1308.000000	63.910853
1307.000000	64.757524
1306.000000	65.246340
1305.000000	65.380366
1304.000000	65.156393
1303.000000	64.555022
1302.000000	63.558849
1301.000000	62.194701
1300.000000	60.589905
1299.000000	59.003793
1298.000000	57.750873
1297.000000	57.033857
1296.000000	56.828084
1295.000000	56.905067
1294.000000	56.951278
1293.000000	56.683491
1292.000000	55.917877
1291.000000	54.590713
1290.000000	52.723171
1289.000000	50.387264
1288.000000	47.751006
1287.000000	45.159142
1286.000000	43.085747
1285.000000	41.924515
1284.000000	41.795867
1283.000000	42.542781
1282.000000	43.907943
1281.000000	45.693134
1280.000000	47.756510
1279.000000	49.891564
1278.000000	51.777093
1277.000000	53.096970
1276.000000	53.702501
1275.000000	53.665476
1274.000000	53.217503
1273.000000	52.669110
1272.000000	52.353788
1271.000000	52.560614
1270.000000	53.430622
1269.000000	54.889416
1268.000000	56.694134
1267.000000	58.567064
1266.000000	60.308973
1265.000000	61.831491
1264.000000	63.126593
1263.000000	64.222791
1262.000000	65.156116
1261.000000	65.954778
1260.000000	66.635319
1259.000000	67.212451
1258.000000	67.712906
1257.000000	68.164337
1256.000000	68.581642
1255.000000	68.971817
1254.000000	69.341126
1253.000000	69.691903
1252.000000	70.015094
1251.000000	70.300497
1250.000000	70.550833
1249.000000	70.776801
1248.000000	70.986838
1247.000000	71.189691
1246.000000	71.399569
1245.000000	71.626689
1244.000000	71.865147
1243.000000	72.099474
1242.000000	72.316871
1241.000000	72.505342
1240.000000	72.649319
1239.000000	72.739392
1238.000000	72.783828
1237.000000	72.798795
1236.000000	72.792936
1235.000000	72.770993
1234.000000	72.740841
1233.000000	72.705773
1232.000000	72.653977
1231.000000	72.566353
1230.000000	72.431998
1229.000000	72.243506
1228.000000	71.987537
1227.000000	71.648156
1226.000000	71.210255
1225.000000	70.653118
1224.000000	69.934670
1223.000000	68.999777
1222.000000	67.794777
1221.000000	66.267022
1220.000000	64.382879
1219.000000	62.151238
1218.000000	59.638145
1217.000000	56.954234
1216.000000	54.235932
1215.000000	51.640921
1214.000000	49.339472
1213.000000	47.491979
1212.000000	46.223876
1211.000000	45.601471
1210.000000	45.583910
1209.000000	46.018932
1208.000000	46.689267
1207.000000	47.368106
1206.000000	47.867105
1205.000000	48.055133
1204.000000	47.864520
1203.000000	47.291356
1202.000000	46.395215
1201.000000	45.303791
1200.000000	44.216255
1199.000000	43.374646
1198.000000	42.989158
1197.000000	43.160724
1196.000000	43.870282
1195.000000	45.013812
1194.000000	46.456064
1193.000000	48.078656
1192.000000	49.793957
1191.000000	51.546354
1190.000000	53.294720
1189.000000	55.001094
1188.000000	56.630806
1187.000000	58.154542
1186.000000	59.551154
1185.000000	60.811267
1184.000000	61.937880
1183.000000	62.940055
1182.000000	63.831443
1181.000000	64.621389
1180.000000	65.314197
1179.000000	65.917882
1178.000000	66.441884
1177.000000	66.890598
1176.000000	67.252888
1175.000000	67.509111
1174.000000	67.643722
1173.000000	67.634079
1172.000000	67.445216
1171.000000	67.028379
1170.000000	66.326954
1169.000000	65.285057
1168.000000	63.856457
1167.000000	62.050394
1166.000000	59.973106
1165.000000	57.833664
1164.000000	55.909372
1163.000000	54.480613
1162.000000	53.739088
1161.000000	53.728158
1160.000000	54.352284
1159.000000	55.422045
1158.000000	56.726917
1157.000000	58.080989
1156.000000	59.348437
1155.000000	60.452315
1154.000000	61.361487
1153.000000	62.070296
1152.000000	62.579319
1151.000000	62.887774
1150.000000	62.986609
1149.000000	62.861324
1148.000000	62.479547
1147.000000	61.796554
1146.000000	60.763964
1145.000000	59.314792
1144.000000	57.377217
1143.000000	54.889874
1142.000000	51.843084
1141.000000	48.329001
1140.000000	44.563418
1139.000000	40.858405
1138.000000	37.506015
1137.000000	34.650369
1136.000000	32.248496
1135.000000	30.152422
1134.000000	28.235104
1133.000000	26.527058
1132.000000	25.274731
1131.000000	24.841897
1130.000000	25.543499
1129.000000	27.465106
1128.000000	30.410454
1127.000000	33.951040
1126.000000	37.523818
1125.000000	40.562139
1124.000000	42.603605
1123.000000	43.356289
1122.000000	42.732480
1121.000000	40.859175
1120.000000	38.001696
1119.000000	34.503870
1118.000000	30.780547
1117.000000	27.352705
1116.000000	24.832906
1115.000000	23.763716
1114.000000	24.372233
1113.000000	26.446204
1112.000000	29.415461
1111.000000	32.513374
1110.000000	35.026251
1109.000000	36.573601
1108.000000	37.277600
1107.000000	37.658290
1106.000000	38.274241
1105.000000	39.384459
1104.000000	40.858820
1103.000000	42.303609
1102.000000	43.219185
1101.000000	43.175262
1100.000000	42.001977
1099.000000	39.962948
1098.000000	37.758757
1097.000000	36.271716
1096.000000	36.166772
1095.000000	37.596504
1094.000000	40.183689
1093.000000	43.279763
1092.000000	46.315399
1091.000000	48.976561
1090.000000	51.188130
1089.000000	53.004566
1088.000000	54.515556
1087.000000	55.807180
1086.000000	56.950851
1085.000000	57.992830
1084.000000	58.950403
1083.000000	59.832504
1082.000000	60.644175
1081.000000	61.384431
1080.000000	62.044824
1079.000000	62.613122
1078.000000	63.082103
1077.000000	63.433076
1076.000000	63.628675
1075.000000	63.621853
1074.000000	63.347949
1073.000000	62.721332
1072.000000	61.604217
1071.000000	59.809524
1070.000000	57.124350
1069.000000	53.320134
1068.000000	48.266324
1067.000000	42.085458
1066.000000	35.284742
1065.000000	28.722682
1064.000000	23.357571
1063.000000	19.841376
1062.000000	18.170578
1061.000000	17.663634
1060.000000	17.339935
1059.000000	16.501079
1058.000000	15.079089
1057.000000	13.617475
1056.000000	12.905566
1055.000000	13.484132
1054.000000	15.400840
1053.000000	18.281149
1052.000000	21.609607
1051.000000	24.966511
1050.000000	28.094474
1049.000000	30.898530
1048.000000	33.399534
1047.000000	35.666757
1046.000000	37.749803
1045.000000	39.661580
1044.000000	41.395673
1043.000000	42.951022
1042.000000	44.335840
1041.000000	45.557928
1040.000000	46.632412
1039.000000	47.576668
1038.000000	48.404143
1037.000000	49.122185
1036.000000	49.733767
1035.000000	50.248434
1034.000000	50.677592
1033.000000	51.031121
1032.000000	51.322031
1031.000000	51.567441
1030.000000	51.786363
1029.000000	51.990514
1028.000000	52.182299
1027.000000	52.358182
1026.000000	52.505068
1025.000000	52.601089
1024.000000	52.621030
1023.000000	52.544733
1022.000000	52.362008
1021.000000	52.063449
1020.000000	51.639363
1019.000000	51.074206
1018.000000	50.335151
1017.000000	49.372579
1016.000000	48.126171
1015.000000	46.560755
1014.000000	44.704986
1013.000000	42.682397
1012.000000	40.713767
1011.000000	39.051297
1010.000000	37.851154
1009.000000	37.066738
1008.000000	36.474196
1007.000000	35.838070
1006.000000	35.132946
1005.000000	34.629418
1004.000000	34.751902
1003.000000	35.789159
1002.000000	37.666661
1001.000000	39.992227
1000.000000	42.279667
999.000000	44.153173
998.000000	45.418848
997.000000	46.037722
996.000000	46.090914
995.000000	45.764257
994.000000	45.329650
993.000000	45.090833
992.000000	45.300715
991.000000	46.067750
990.000000	47.308984
989.000000	48.804329
988.000000	50.324895
987.000000	51.723050
986.000000	52.945974
985.000000	53.999181
984.000000	54.909468
983.000000	55.705135
982.000000	56.406859
981.000000	57.024223
980.000000	57.563483
979.000000	58.041449
978.000000	58.479616
977.000000	58.894603
976.000000	59.294995
975.000000	59.684649
974.000000	60.063893
973.000000	60.423943
972.000000	60.751486
971.000000	61.039573
970.000000	61.291158
969.000000	61.515236
968.000000	61.724615
967.000000	61.937896
966.000000	62.173714
965.000000	62.438067
964.000000	62.721611
963.000000	63.008160
962.000000	63.281666
961.000000	63.526392
960.000000	63.729980
959.000000	63.893062
958.000000	64.031189
957.000000	64.164790
956.000000	64.310046
955.000000	64.478340
954.000000	64.675762
953.000000	64.897356
952.000000	65.127251
951.000000	65.349483
950.000000	65.556466
949.000000	65.746619
948.000000	65.921436
947.000000	66.088587
946.000000	66.260963
945.000000	66.445602
944.000000	66.636895
943.000000	66.822629
942.000000	66.992533
941.000000	67.139408
940.000000	67.259742
939.000000	67.360999
938.000000	67.463757
937.000000	67.590058
936.000000	67.750974
935.000000	67.946086
934.000000	68.166269
933.000000	68.391359
932.000000	68.592387
931.000000	68.746590
930.000000	68.849766
929.000000	68.913164
928.000000	68.954972
927.000000	68.999405
926.000000	69.074675
925.000000	69.199242
924.000000	69.369877
923.000000	69.566828
922.000000	69.766945
921.000000	69.948308
920.000000	70.091821
919.000000	70.191071
918.000000	70.259964
917.000000	70.322705
916.000000	70.398031
915.000000	70.495766
914.000000	70.619548
913.000000	70.762878
912.000000	70.904339
911.000000	71.018017
910.000000	71.084076
909.000000	71.080770
908.000000	70.972409
907.000000	70.707536
906.000000	70.232532
905.000000	69.493160
904.000000	68.446041
903.000000	67.116322
902.000000	65.669860
901.000000	64.416763
900.000000	63.699456
899.000000	63.718271
898.000000	64.417977
897.000000	65.543099
896.000000	66.792857
895.000000	67.956641
894.000000	68.951856
893.000000	69.770080
892.000000	70.425398
891.000000	70.936019
890.000000	71.327098
889.000000	71.622638
888.000000	71.840983
887.000000	71.988835
886.000000	72.050168
885.000000	71.971854
884.000000	71.679678
883.000000	71.151998
882.000000	70.469446
881.000000	69.769351
880.000000	69.128816
879.000000	68.504421
878.000000	67.814297
877.000000	67.085642
876.000000	66.517591
875.000000	66.369787
874.000000	66.776879
873.000000	67.646751
872.000000	68.728214
871.000000	69.767501
870.000000	70.618715
869.000000	71.253445
868.000000	71.707119
867.000000	72.036545
866.000000	72.298068
865.000000	72.534724
864.000000	72.766768
863.000000	72.998617
862.000000	73.228032
861.000000	73.446157
860.000000	73.639093
859.000000	73.797642
858.000000	73.926837
857.000000	74.040313
856.000000	74.149125
855.000000	74.261029
854.000000	74.381866
853.000000	74.509513
852.000000	74.630161
851.000000	74.728678
850.000000	74.801419
849.000000	74.854797
848.000000	74.898839
847.000000	74.948935
846.000000	75.026965
845.000000	75.149412
844.000000	75.315189
843.000000	75.508258
842.000000	75.706858
841.000000	75.884879
840.000000	76.014063
839.000000	76.078418
838.000000	76.087329
837.000000	76.068629
836.000000	76.052361
835.000000	76.065801
834.000000	76.133019
833.000000	76.264788
832.000000	76.449175
831.000000	76.659561
830.000000	76.869752
829.000000	77.057791
828.000000	77.204683
827.000000	77.303504
826.000000	77.368750
825.000000	77.426611
824.000000	77.497066
823.000000	77.590191
822.000000	77.711424
821.000000	77.857305
820.000000	78.010985
819.000000	78.153299
818.000000	78.276659
817.000000	78.381722
816.000000	78.467203
815.000000	78.532427
814.000000	78.582834
813.000000	78.618909
812.000000	78.624099
811.000000	78.570825
810.000000	78.435693
809.000000	78.201314
808.000000	77.847472
807.000000	77.358294
806.000000	76.727920
805.000000	75.947702
804.000000	74.990571
803.000000	73.806765
802.000000	72.339180
801.000000	70.526004
800.000000	68.309920
799.000000	65.671317
798.000000	62.649698
797.000000	59.345538
796.000000	55.898858
795.000000	52.472624
794.000000	49.232348
793.000000	46.326148
792.000000	43.874802
791.000000	41.970912
790.000000	40.678377
789.000000	40.016489
788.000000	39.960032
787.000000	40.434007
786.000000	41.324615
785.000000	42.502098
784.000000	43.832752
783.000000	45.190562
782.000000	46.457120
781.000000	47.528373
780.000000	48.321810
779.000000	48.791262
778.000000	48.938931
777.000000	48.810385
776.000000	48.469357
775.000000	47.972254
774.000000	47.372012
773.000000	46.741652
772.000000	46.198992
771.000000	45.897920
770.000000	45.987129
769.000000	46.552010
768.000000	47.581489
767.000000	48.978046
766.000000	50.603559
765.000000	52.331614
764.000000	54.069404
763.000000	55.761418
762.000000	57.381888
761.000000	58.920789
760.000000	60.366121
759.000000	61.700355
758.000000	62.913374
757.000000	64.009804
756.000000	65.004230
755.000000	65.915920
754.000000	66.770470
753.000000	67.591721
752.000000	68.386919
751.000000	69.145750
750.000000	69.851924
749.000000	70.489911
748.000000	71.042505
747.000000	71.498240
746.000000	71.867333
745.000000	72.181099
744.000000	72.474217
743.000000	72.772739
742.000000	73.093651
741.000000	73.439639
740.000000	73.789464
739.000000	74.105840
738.000000	74.357018
737.000000	74.524514
736.000000	74.596149
735.000000	74.568649
734.000000	74.460523
733.000000	74.307962
732.000000	74.144042
731.000000	73.989822
730.000000	73.860359
729.000000	73.760644
728.000000	73.673280
727.000000	73.562456
726.000000	73.392694
725.000000	73.137686
724.000000	72.769241
723.000000	72.244851
722.000000	71.501350
721.000000	70.457498
720.000000	69.037439
719.000000	67.222044
718.000000	65.092722
717.000000	62.831391
716.000000	60.681700
715.000000	58.894651
714.000000	57.678274
713.000000	57.149071
712.000000	57.299448
711.000000	58.010501
710.000000	59.114527
709.000000	60.453166
708.000000	61.893034
707.000000	63.328518
706.000000	64.696866
705.000000	65.981964
704.000000	67.186107
703.000000	68.309642
702.000000	69.361340
701.000000	70.361409
700.000000	71.316410
699.000000	72.209868
698.000000	73.025224
697.000000	73.761472
696.000000	74.418004
695.000000	74.986494
694.000000	75.474373
693.000000	75.911934
692.000000	76.321676
691.000000	76.701773
690.000000	77.047788
689.000000	77.368233
688.000000	77.662965
687.000000	77.912824
686.000000	78.112885
685.000000	78.288269
684.000000	78.460070
683.000000	78.624769
682.000000	78.784580
681.000000	78.962015
680.000000	79.161335
679.000000	79.352901
678.000000	79.515825
677.000000	79.647156
676.000000	79.738783
675.000000	79.787617
674.000000	79.816247
673.000000	79.903834
672.000000	80.212774
671.000000	80.922992
670.000000	82.029528
669.000000	83.123458
668.000000	83.532186
667.000000	82.998225
666.000000	81.989974
665.000000	81.137456
664.000000	80.699826
663.000000	80.586092
662.000000	80.613087
661.000000	80.673351
660.000000	80.736857
659.000000	80.798857
658.000000	80.857507
657.000000	80.897234
656.000000	80.895268
655.000000	80.859943
654.000000	80.813831
653.000000	80.762416
652.000000	80.714835
651.000000	80.701236
650.000000	80.737098
649.000000	80.793297
648.000000	80.829139
647.000000	80.829577
646.000000	80.788544
645.000000	80.688861
644.000000	80.523452
643.000000	80.316070
642.000000	80.102190
641.000000	79.901237
640.000000	79.727712
639.000000	79.606507
638.000000	79.546520
637.000000	79.516310
636.000000	79.471931
635.000000	79.391760
634.000000	79.268258
633.000000	79.089559
632.000000	78.852894
631.000000	78.582204
630.000000	78.307565
629.000000	78.036539
628.000000	77.765435
627.000000	77.501026
626.000000	77.245388
625.000000	76.979460
624.000000	76.682785
623.000000	76.358122
622.000000	76.019633
621.000000	75.670464
620.000000	75.306599
619.000000	74.919662
618.000000	74.479177
617.000000	73.933773
616.000000	73.258711
615.000000	72.480792
614.000000	71.634515
613.000000	70.722660
612.000000	69.741903
611.000000	68.715670
610.000000	67.662017
609.000000	66.552351
608.000000	65.340284
607.000000	64.003718
606.000000	62.525135
605.000000	60.870299
604.000000	59.029643
603.000000	57.053591
602.000000	54.997781
601.000000	52.873815
600.000000	50.697816
599.000000	48.537101
598.000000	46.444839
597.000000	44.400733
596.000000	42.382896
595.000000	40.437466
594.000000	38.615152
593.000000	36.897968
592.000000	35.274174
591.000000	33.807959
590.000000	32.551242
589.000000	31.457505
588.000000	30.452847
587.000000	29.516940
586.000000	28.616747
585.000000	27.652028
584.000000	26.559247
583.000000	25.399547
582.000000	24.272979
581.000000	23.232063
580.000000	22.347047
579.000000	21.765591
578.000000	21.594525
577.000000	21.807922
576.000000	22.328500
575.000000	23.091637
574.000000	23.979171
573.000000	24.801432
572.000000	25.449671
571.000000	26.002537
570.000000	26.630254
569.000000	27.450537
568.000000	28.507505
567.000000	29.786994
566.000000	31.175377
565.000000	32.490014
564.000000	33.622294
563.000000	34.596584
562.000000	35.466918
561.000000	36.234685
560.000000	36.906099
559.000000	37.543590
558.000000	38.199069
557.000000	38.858677
556.000000	39.499864
555.000000	40.147693
554.000000	40.822972
553.000000	41.499682
552.000000	42.160322
551.000000	42.835026
550.000000	43.541211
549.000000	44.240879
548.000000	44.902991
547.000000	45.551700
546.000000	46.212280
545.000000	46.862269
544.000000	47.479943
543.000000	48.085949
542.000000	48.697960
541.000000	49.290782
540.000000	49.843064
539.000000	50.376237
538.000000	50.909568
537.000000	51.420312
536.000000	51.883793
535.000000	52.318082
534.000000	52.749085
533.000000	53.172261
532.000000	53.572985
531.000000	53.950694
530.000000	54.293776
529.000000	54.560158
528.000000	54.705850
527.000000	54.714906
526.000000	54.567202
525.000000	54.219239
524.000000	53.657473
523.000000	52.940466
522.000000	52.172432
521.000000	51.444209
520.000000	50.805160
519.000000	50.230592
518.000000	49.554710
517.000000	48.497226
516.000000	46.837011
515.000000	44.586228
514.000000	41.986452
513.000000	39.391909
512.000000	37.178579
511.000000	35.675149
510.000000	35.045350
509.000000	35.245046
508.000000	36.150495
507.000000	37.630441
506.000000	39.497776
505.000000	41.527400
504.000000	43.571598
503.000000	45.588515
502.000000	47.519487
501.000000	49.254944
500.000000	50.743309
499.000000	52.040350
498.000000	53.212913
497.000000	54.277463
496.000000	55.244373
495.000000	56.154565
494.000000	57.046383
493.000000	57.912498
492.000000	58.728375
491.000000	59.493206
490.000000	60.213805
489.000000	60.891134
488.000000	61.534426
487.000000	62.166942
486.000000	62.795189
485.000000	63.390676
484.000000	63.924675
483.000000	64.396063
482.000000	64.811355
481.000000	65.166143
480.000000	65.467739
479.000000	65.749693
478.000000	66.026907
477.000000	66.270775
476.000000	66.443116
475.000000	66.501599
474.000000	66.346654
473.000000	65.807092
472.000000	64.770027
471.000000	63.338003
470.000000	61.774249
469.000000	60.357876
468.000000	59.336757
467.000000	58.845256
466.000000	58.725652
465.000000	58.542075
464.000000	57.875997
463.000000	56.616686
462.000000	55.057611
461.000000	53.733923
460.000000	53.186771
459.000000	53.784514
458.000000	55.505375
457.000000	57.818899
456.000000	60.071678
455.000000	61.989345
454.000000	63.589531
453.000000	64.887397
452.000000	65.855379
451.000000	66.531237
450.000000	66.961758
449.000000	67.094017
448.000000	66.817089
447.000000	66.081086
446.000000	64.945616
445.000000	63.553021
444.000000	62.160425
443.000000	61.141998
442.000000	60.789742
441.000000	61.095914
440.000000	61.857595
439.000000	62.881530
438.000000	64.003499
437.000000	65.052591
436.000000	65.902829
435.000000	66.532876
434.000000	66.962947
433.000000	67.183412
432.000000	67.198083
431.000000	67.091181
430.000000	66.971907
429.000000	66.869640
428.000000	66.763988
427.000000	66.664428
426.000000	66.580377
425.000000	66.458780
424.000000	66.252122
423.000000	66.015927
422.000000	65.818319
421.000000	65.615075
420.000000	65.327430
419.000000	65.022780
418.000000	64.856497
417.000000	64.794023
416.000000	64.730245
415.000000	64.704153
414.000000	64.786427
413.000000	64.936407
412.000000	65.079752
411.000000	65.225193
410.000000	65.395369
409.000000	65.516574
408.000000	65.538974
407.000000	65.570208
406.000000	65.728290
405.000000	65.957208
404.000000	66.158150
403.000000	66.378012
402.000000	66.702217
401.000000	67.082574
400.000000	67.415916
