PE IR       SUBTECH     SPECTRUM    ASCII       PEDS        4.00        
   -1
23MS006-trans.asc
24/10/14
16:06:53.00
24/10/14
16:06:53.00
Administrator
Sample 1265 By Administrator Date Monday, October 14 2024
400.000000
#HDR
-1
-1
#GR
cm-1
%T
1.0
0.0
4000.000000
-1.000000
3601
8
105.220071
10.780051
#DATA
4000.000000	72.677453
3999.000000	72.614160
3998.000000	72.557086
3997.000000	72.512892
3996.000000	72.471425
3995.000000	72.415358
3994.000000	72.343622
3993.000000	72.275240
3992.000000	72.224520
3991.000000	72.181443
3990.000000	72.125935
3989.000000	72.054249
3988.000000	71.980136
3987.000000	71.914504
3986.000000	71.855564
3985.000000	71.797827
3984.000000	71.739430
3983.000000	71.678318
3982.000000	71.607899
3981.000000	71.522428
3980.000000	71.427639
3979.000000	71.341040
3978.000000	71.278257
3977.000000	71.243234
3976.000000	71.231859
3975.000000	71.237608
3974.000000	71.255387
3973.000000	71.286515
3972.000000	71.342217
3971.000000	71.431644
3970.000000	71.549214
3969.000000	71.676198
3968.000000	71.791001
3967.000000	71.883314
3966.000000	71.960053
3965.000000	72.039431
3964.000000	72.131996
3963.000000	72.223976
3962.000000	72.286287
3961.000000	72.306755
3960.000000	72.311028
3959.000000	72.330196
3958.000000	72.366705
3957.000000	72.404678
3956.000000	72.432550
3955.000000	72.453748
3954.000000	72.475753
3953.000000	72.510561
3952.000000	72.575118
3951.000000	72.681866
3950.000000	72.824379
3949.000000	72.957270
3948.000000	73.020938
3947.000000	73.025413
3946.000000	73.080503
3945.000000	73.286517
3944.000000	73.602631
3943.000000	73.864101
3942.000000	73.955607
3941.000000	73.939370
3940.000000	73.973279
3939.000000	74.104451
3938.000000	74.229380
3937.000000	74.261506
3936.000000	74.247514
3935.000000	74.302419
3934.000000	74.459736
3933.000000	74.641739
3932.000000	74.748788
3931.000000	74.737710
3930.000000	74.640219
3929.000000	74.531459
3928.000000	74.512027
3927.000000	74.652386
3926.000000	74.878474
3925.000000	74.995860
3924.000000	74.904880
3923.000000	74.729816
3922.000000	74.654260
3921.000000	74.712325
3920.000000	74.842448
3919.000000	75.021541
3918.000000	75.223984
3917.000000	75.347174
3916.000000	75.318670
3915.000000	75.229872
3914.000000	75.252362
3913.000000	75.416230
3912.000000	75.612283
3911.000000	75.716069
3910.000000	75.672276
3909.000000	75.531363
3908.000000	75.406619
3907.000000	75.421754
3906.000000	75.596246
3905.000000	75.783117
3904.000000	75.784185
3903.000000	75.602448
3902.000000	75.509717
3901.000000	75.715965
3900.000000	76.049600
3899.000000	76.173267
3898.000000	76.018823
3897.000000	75.798255
3896.000000	75.722442
3895.000000	75.847660
3894.000000	76.196121
3893.000000	76.741374
3892.000000	77.188161
3891.000000	77.049692
3890.000000	76.310854
3889.000000	75.714261
3888.000000	75.886616
3887.000000	76.633448
3886.000000	77.171172
3885.000000	76.905535
3884.000000	76.178170
3883.000000	75.886837
3882.000000	76.340159
3881.000000	77.018357
3880.000000	77.204170
3879.000000	76.730318
3878.000000	76.190966
3877.000000	76.184557
3876.000000	76.624955
3875.000000	76.941472
3874.000000	76.735180
3873.000000	76.320805
3872.000000	76.382051
3871.000000	76.975937
3870.000000	77.311866
3869.000000	76.787449
3868.000000	75.992101
3867.000000	75.896076
3866.000000	76.486372
3865.000000	77.062655
3864.000000	77.233378
3863.000000	77.105271
3862.000000	76.948782
3861.000000	76.842046
3860.000000	76.691892
3859.000000	76.453437
3858.000000	76.199658
3857.000000	76.136331
3856.000000	76.531573
3855.000000	77.500011
3854.000000	78.539619
3853.000000	78.352178
3852.000000	76.656620
3851.000000	75.205089
3850.000000	75.125615
3849.000000	75.828599
3848.000000	76.556143
3847.000000	77.081212
3846.000000	77.443702
3845.000000	77.675993
3844.000000	77.716285
3843.000000	77.480417
3842.000000	77.129030
3841.000000	77.004696
3840.000000	77.240001
3839.000000	77.622191
3838.000000	77.759813
3837.000000	77.448337
3836.000000	76.930738
3835.000000	76.687005
3834.000000	76.947062
3833.000000	77.490660
3832.000000	77.881568
3831.000000	77.891159
3830.000000	77.718776
3829.000000	77.735139
3828.000000	78.024468
3827.000000	78.216595
3826.000000	77.943952
3825.000000	77.429743
3824.000000	77.322944
3823.000000	77.933502
3822.000000	78.778682
3821.000000	78.838201
3820.000000	77.804966
3819.000000	76.896136
3818.000000	77.202391
3817.000000	78.303260
3816.000000	78.981927
3815.000000	78.601895
3814.000000	77.835309
3813.000000	77.591466
3812.000000	77.820924
3811.000000	78.067179
3810.000000	78.309715
3809.000000	78.810816
3808.000000	79.452926
3807.000000	79.529012
3806.000000	78.664690
3805.000000	77.675974
3804.000000	77.653885
3803.000000	78.628496
3802.000000	79.601884
3801.000000	79.491605
3800.000000	78.438797
3799.000000	77.775870
3798.000000	78.142242
3797.000000	78.938663
3796.000000	79.397252
3795.000000	79.373257
3794.000000	79.263666
3793.000000	79.360616
3792.000000	79.587754
3791.000000	79.771351
3790.000000	79.848221
3789.000000	79.850634
3788.000000	79.851677
3787.000000	79.923113
3786.000000	80.050907
3785.000000	80.078253
3784.000000	79.894740
3783.000000	79.663450
3782.000000	79.687155
3781.000000	80.027247
3780.000000	80.403302
3779.000000	80.462649
3778.000000	80.193134
3777.000000	79.941243
3776.000000	79.912570
3775.000000	79.947860
3774.000000	79.889005
3773.000000	79.877062
3772.000000	80.113458
3771.000000	80.462996
3770.000000	80.527217
3769.000000	80.172485
3768.000000	79.796653
3767.000000	79.818976
3766.000000	80.087629
3765.000000	80.115625
3764.000000	79.795315
3763.000000	79.540286
3762.000000	79.684444
3761.000000	80.055733
3760.000000	80.308711
3759.000000	80.285676
3758.000000	79.984922
3757.000000	79.509656
3756.000000	79.080457
3755.000000	78.933094
3754.000000	79.108703
3753.000000	79.465273
3752.000000	79.868952
3751.000000	80.103022
3750.000000	79.705761
3749.000000	78.584724
3748.000000	77.619120
3747.000000	77.851981
3746.000000	79.323667
3745.000000	80.977479
3744.000000	81.193825
3743.000000	79.715689
3742.000000	78.412753
3741.000000	78.363058
3740.000000	78.895988
3739.000000	79.389229
3738.000000	79.824109
3737.000000	80.272275
3736.000000	80.542759
3735.000000	80.523101
3734.000000	80.516204
3733.000000	80.726826
3732.000000	80.840258
3731.000000	80.580225
3730.000000	80.263615
3729.000000	80.375460
3728.000000	80.895475
3727.000000	81.379440
3726.000000	81.507373
3725.000000	81.412128
3724.000000	81.408468
3723.000000	81.536023
3722.000000	81.638400
3721.000000	81.638933
3720.000000	81.632752
3719.000000	81.698691
3718.000000	81.706320
3717.000000	81.528574
3716.000000	81.300409
3715.000000	81.287951
3714.000000	81.587274
3713.000000	82.032208
3712.000000	82.335718
3711.000000	82.268033
3710.000000	81.906767
3709.000000	81.594827
3708.000000	81.509603
3707.000000	81.565563
3706.000000	81.678301
3705.000000	81.894224
3704.000000	82.270076
3703.000000	82.712345
3702.000000	82.977429
3701.000000	82.861834
3700.000000	82.488328
3699.000000	82.256384
3698.000000	82.334261
3697.000000	82.479288
3696.000000	82.437057
3695.000000	82.238037
3694.000000	82.057638
3693.000000	81.967569
3692.000000	81.988601
3691.000000	82.201969
3690.000000	82.602169
3689.000000	82.844381
3688.000000	82.478592
3687.000000	81.703766
3686.000000	81.272650
3685.000000	81.475828
3684.000000	81.927222
3683.000000	82.244379
3682.000000	82.358276
3681.000000	82.292466
3680.000000	81.963904
3679.000000	81.500951
3678.000000	81.424991
3677.000000	82.030270
3676.000000	82.715077
3675.000000	82.289504
3674.000000	80.831735
3673.000000	79.981428
3672.000000	80.514523
3671.000000	81.651536
3670.000000	82.299790
3669.000000	81.986322
3668.000000	81.283994
3667.000000	81.010136
3666.000000	81.249485
3665.000000	81.624875
3664.000000	81.886549
3663.000000	81.998655
3662.000000	81.934094
3661.000000	81.672607
3660.000000	81.337788
3659.000000	81.211293
3658.000000	81.431833
3657.000000	81.699048
3656.000000	81.426997
3655.000000	80.484231
3654.000000	79.526496
3653.000000	79.160411
3652.000000	79.330273
3651.000000	79.668008
3650.000000	79.873146
3649.000000	79.740757
3648.000000	79.242590
3647.000000	78.605207
3646.000000	78.168791
3645.000000	78.117811
3644.000000	78.376815
3643.000000	78.697271
3642.000000	78.846666
3641.000000	78.789260
3640.000000	78.632880
3639.000000	78.438411
3638.000000	78.168178
3637.000000	77.861921
3636.000000	77.634154
3635.000000	77.415141
3634.000000	76.959005
3633.000000	76.255679
3632.000000	75.726196
3631.000000	75.776620
3630.000000	76.294664
3629.000000	76.523662
3628.000000	75.745407
3627.000000	74.468870
3626.000000	73.752818
3625.000000	73.690877
3624.000000	73.744794
3623.000000	73.663327
3622.000000	73.566158
3621.000000	73.568814
3620.000000	73.539477
3619.000000	73.199575
3618.000000	72.467844
3617.000000	71.685520
3616.000000	71.261376
3615.000000	71.209100
3614.000000	71.214618
3613.000000	71.004387
3612.000000	70.608067
3611.000000	70.282539
3610.000000	70.172607
3609.000000	70.134882
3608.000000	69.927287
3607.000000	69.503686
3606.000000	69.049401
3605.000000	68.738110
3604.000000	68.562051
3603.000000	68.429970
3602.000000	68.262309
3601.000000	67.994285
3600.000000	67.602947
3599.000000	67.164485
3598.000000	66.778357
3597.000000	66.493093
3596.000000	66.281710
3595.000000	66.041197
3594.000000	65.665897
3593.000000	65.151138
3592.000000	64.620395
3591.000000	64.228251
3590.000000	64.042565
3589.000000	63.993786
3588.000000	63.890495
3587.000000	63.540827
3586.000000	62.984655
3585.000000	62.488503
3584.000000	62.212797
3583.000000	62.090586
3582.000000	61.988307
3581.000000	61.835948
3580.000000	61.625908
3579.000000	61.375562
3578.000000	61.109325
3577.000000	60.846202
3576.000000	60.598950
3575.000000	60.354182
3574.000000	60.078458
3573.000000	59.744972
3572.000000	59.363750
3571.000000	59.001029
3570.000000	58.751882
3569.000000	58.657730
3568.000000	58.636131
3567.000000	58.516276
3566.000000	58.219238
3565.000000	57.883568
3564.000000	57.692458
3563.000000	57.665204
3562.000000	57.706203
3561.000000	57.733106
3560.000000	57.715941
3559.000000	57.653401
3558.000000	57.555934
3557.000000	57.439297
3556.000000	57.328780
3555.000000	57.253543
3554.000000	57.216083
3553.000000	57.170993
3552.000000	57.054996
3551.000000	56.862085
3550.000000	56.667488
3549.000000	56.547019
3548.000000	56.502319
3547.000000	56.480398
3546.000000	56.432199
3545.000000	56.348760
3544.000000	56.258346
3543.000000	56.189068
3542.000000	56.142706
3541.000000	56.101026
3540.000000	56.048411
3539.000000	55.986942
3538.000000	55.922227
3537.000000	55.850347
3536.000000	55.754839
3535.000000	55.630026
3534.000000	55.493899
3533.000000	55.367852
3532.000000	55.253161
3531.000000	55.136525
3530.000000	55.007844
3529.000000	54.857678
3528.000000	54.672875
3527.000000	54.458001
3526.000000	54.253943
3525.000000	54.102669
3524.000000	53.996538
3523.000000	53.884305
3522.000000	53.732065
3521.000000	53.559485
3520.000000	53.399177
3519.000000	53.246579
3518.000000	53.068854
3517.000000	52.854227
3516.000000	52.620069
3515.000000	52.378092
3514.000000	52.124369
3513.000000	51.865124
3512.000000	51.619199
3511.000000	51.387777
3510.000000	51.141719
3509.000000	50.850527
3508.000000	50.519767
3507.000000	50.189525
3506.000000	49.893203
3505.000000	49.628375
3504.000000	49.366967
3503.000000	49.084152
3502.000000	48.781055
3501.000000	48.483352
3500.000000	48.215902
3499.000000	47.981130
3498.000000	47.763280
3497.000000	47.545815
3496.000000	47.322210
3495.000000	47.095522
3494.000000	46.874245
3493.000000	46.668639
3492.000000	46.482839
3491.000000	46.312745
3490.000000	46.154621
3489.000000	46.008301
3488.000000	45.870543
3487.000000	45.736845
3486.000000	45.614233
3485.000000	45.521403
3484.000000	45.465254
3483.000000	45.427010
3482.000000	45.382356
3481.000000	45.330679
3480.000000	45.294971
3479.000000	45.294401
3478.000000	45.328230
3477.000000	45.382259
3476.000000	45.440403
3475.000000	45.490317
3474.000000	45.527343
3473.000000	45.556342
3472.000000	45.584547
3471.000000	45.614131
3470.000000	45.649293
3469.000000	45.701776
3468.000000	45.777561
3467.000000	45.865777
3466.000000	45.951893
3465.000000	46.035347
3464.000000	46.120946
3463.000000	46.202078
3462.000000	46.268038
3461.000000	46.323655
3460.000000	46.386601
3459.000000	46.465999
3458.000000	46.554212
3457.000000	46.641190
3456.000000	46.722378
3455.000000	46.798327
3454.000000	46.871931
3453.000000	46.942254
3452.000000	47.002795
3451.000000	47.052996
3450.000000	47.109983
3449.000000	47.191572
3448.000000	47.287133
3447.000000	47.363500
3446.000000	47.410607
3445.000000	47.461342
3444.000000	47.548117
3443.000000	47.659850
3442.000000	47.760187
3441.000000	47.833638
3440.000000	47.893524
3439.000000	47.954331
3438.000000	48.017460
3437.000000	48.084093
3436.000000	48.159904
3435.000000	48.246957
3434.000000	48.339445
3433.000000	48.428049
3432.000000	48.507352
3431.000000	48.578791
3430.000000	48.650415
3429.000000	48.729979
3428.000000	48.816841
3427.000000	48.901713
3426.000000	48.975840
3425.000000	49.040039
3424.000000	49.103170
3423.000000	49.173213
3422.000000	49.250370
3421.000000	49.328470
3420.000000	49.401779
3419.000000	49.471464
3418.000000	49.544774
3417.000000	49.625489
3416.000000	49.708398
3415.000000	49.786203
3414.000000	49.859516
3413.000000	49.935303
3412.000000	50.016926
3411.000000	50.101652
3410.000000	50.188075
3409.000000	50.279212
3408.000000	50.376313
3407.000000	50.474097
3406.000000	50.564042
3405.000000	50.641860
3404.000000	50.708907
3403.000000	50.770476
3402.000000	50.837104
3401.000000	50.924765
3400.000000	51.044575
3399.000000	51.187693
3398.000000	51.327625
3397.000000	51.442878
3396.000000	51.534967
3395.000000	51.621171
3394.000000	51.715226
3393.000000	51.819982
3392.000000	51.934453
3391.000000	52.060303
3390.000000	52.198389
3389.000000	52.343017
3388.000000	52.484182
3387.000000	52.616110
3386.000000	52.740028
3385.000000	52.859516
3384.000000	52.975578
3383.000000	53.088656
3382.000000	53.202900
3381.000000	53.324186
3380.000000	53.453811
3379.000000	53.586702
3378.000000	53.718901
3377.000000	53.852613
3376.000000	53.990544
3375.000000	54.127924
3374.000000	54.255784
3373.000000	54.371078
3372.000000	54.479627
3371.000000	54.590938
3370.000000	54.714558
3369.000000	54.858876
3368.000000	55.025974
3367.000000	55.207929
3366.000000	55.392622
3365.000000	55.572807
3364.000000	55.747897
3363.000000	55.920051
3362.000000	56.092435
3361.000000	56.269566
3360.000000	56.454617
3359.000000	56.646684
3358.000000	56.843061
3357.000000	57.041405
3356.000000	57.237772
3355.000000	57.425955
3354.000000	57.603564
3353.000000	57.777636
3352.000000	57.960530
3351.000000	58.160285
3350.000000	58.376234
3349.000000	58.601196
3348.000000	58.824048
3347.000000	59.034703
3346.000000	59.230915
3345.000000	59.420265
3344.000000	59.612120
3343.000000	59.806846
3342.000000	59.996484
3341.000000	60.175517
3340.000000	60.348045
3339.000000	60.523254
3338.000000	60.705091
3337.000000	60.886700
3336.000000	61.053758
3335.000000	61.194738
3334.000000	61.308303
3333.000000	61.398498
3332.000000	61.464926
3331.000000	61.499855
3330.000000	61.494853
3329.000000	61.447013
3328.000000	61.356669
3327.000000	61.225861
3326.000000	61.057413
3325.000000	60.851170
3324.000000	60.600568
3323.000000	60.292317
3322.000000	59.915866
3321.000000	59.468025
3320.000000	58.944583
3319.000000	58.334594
3318.000000	57.621519
3317.000000	56.791483
3316.000000	55.832505
3315.000000	54.727155
3314.000000	53.458436
3313.000000	52.017733
3312.000000	50.410376
3311.000000	48.654746
3310.000000	46.777702
3309.000000	44.816938
3308.000000	42.817113
3307.000000	40.823738
3306.000000	38.880415
3305.000000	37.023281
3304.000000	35.274828
3303.000000	33.646177
3302.000000	32.148352
3301.000000	30.798457
3300.000000	29.614355
3299.000000	28.605055
3298.000000	27.776118
3297.000000	27.134254
3296.000000	26.674287
3295.000000	26.372342
3294.000000	26.188778
3293.000000	26.079850
3292.000000	26.003649
3291.000000	25.919519
3290.000000	25.800816
3289.000000	25.642055
3288.000000	25.454072
3287.000000	25.255339
3286.000000	25.065456
3285.000000	24.899499
3284.000000	24.758787
3283.000000	24.629539
3282.000000	24.493772
3281.000000	24.338585
3280.000000	24.152233
3279.000000	23.920712
3278.000000	23.635478
3277.000000	23.299732
3276.000000	22.923004
3275.000000	22.513657
3274.000000	22.083404
3273.000000	21.654470
3272.000000	21.255843
3271.000000	20.914873
3270.000000	20.656889
3269.000000	20.505751
3268.000000	20.478607
3267.000000	20.585743
3266.000000	20.831883
3265.000000	21.215012
3264.000000	21.716696
3263.000000	22.296161
3262.000000	22.902032
3261.000000	23.481451
3260.000000	23.979366
3259.000000	24.341232
3258.000000	24.527517
3257.000000	24.519915
3256.000000	24.314700
3255.000000	23.910873
3254.000000	23.310549
3253.000000	22.528686
3252.000000	21.582268
3251.000000	20.485853
3250.000000	19.258051
3249.000000	17.930968
3248.000000	16.553358
3247.000000	15.181633
3246.000000	13.880551
3245.000000	12.725578
3244.000000	11.793745
3243.000000	11.144143
3242.000000	10.808609
3241.000000	10.780051
3240.000000	11.002567
3239.000000	11.386216
3238.000000	11.834049
3237.000000	12.271514
3236.000000	12.652881
3235.000000	12.957503
3234.000000	13.189280
3233.000000	13.363925
3232.000000	13.491606
3231.000000	13.572741
3230.000000	13.612413
3229.000000	13.629060
3228.000000	13.645591
3227.000000	13.680660
3226.000000	13.752292
3225.000000	13.880447
3224.000000	14.078005
3223.000000	14.343943
3222.000000	14.670175
3221.000000	15.046935
3220.000000	15.456090
3219.000000	15.868955
3218.000000	16.257704
3217.000000	16.604625
3216.000000	16.896715
3215.000000	17.121764
3214.000000	17.277093
3213.000000	17.376469
3212.000000	17.440441
3211.000000	17.484976
3210.000000	17.524462
3209.000000	17.576004
3208.000000	17.654673
3207.000000	17.768406
3206.000000	17.922167
3205.000000	18.120800
3204.000000	18.364049
3203.000000	18.644559
3202.000000	18.955765
3201.000000	19.296658
3200.000000	19.663429
3199.000000	20.045010
3198.000000	20.430366
3197.000000	20.814899
3196.000000	21.196066
3195.000000	21.568564
3194.000000	21.928187
3193.000000	22.273500
3192.000000	22.600023
3191.000000	22.898379
3190.000000	23.163445
3189.000000	23.398837
3188.000000	23.609672
3187.000000	23.797087
3186.000000	23.962751
3185.000000	24.113194
3184.000000	24.253395
3183.000000	24.383269
3182.000000	24.504201
3181.000000	24.620859
3180.000000	24.733427
3179.000000	24.834544
3178.000000	24.919602
3177.000000	24.994692
3176.000000	25.070397
3175.000000	25.154590
3174.000000	25.254876
3173.000000	25.381186
3172.000000	25.540145
3171.000000	25.733406
3170.000000	25.964354
3169.000000	26.240755
3168.000000	26.567444
3167.000000	26.940023
3166.000000	27.352268
3165.000000	27.802099
3164.000000	28.287937
3163.000000	28.807318
3162.000000	29.360138
3161.000000	29.947854
3160.000000	30.562944
3159.000000	31.185218
3158.000000	31.790112
3157.000000	32.353787
3156.000000	32.848516
3155.000000	33.242343
3154.000000	33.508823
3153.000000	33.631994
3152.000000	33.607516
3151.000000	33.445561
3150.000000	33.178739
3149.000000	32.859042
3148.000000	32.534777
3147.000000	32.233860
3146.000000	31.961193
3145.000000	31.701333
3144.000000	31.421129
3143.000000	31.077846
3142.000000	30.638982
3141.000000	30.093040
3140.000000	29.443248
3139.000000	28.701407
3138.000000	27.889107
3137.000000	27.039751
3136.000000	26.189099
3135.000000	25.367114
3134.000000	24.601882
3133.000000	23.922740
3132.000000	23.353731
3131.000000	22.909353
3130.000000	22.600399
3129.000000	22.431770
3128.000000	22.395908
3127.000000	22.473676
3126.000000	22.647891
3125.000000	22.909981
3124.000000	23.246343
3123.000000	23.636583
3122.000000	24.065289
3121.000000	24.527672
3120.000000	25.020754
3119.000000	25.533872
3118.000000	26.056222
3117.000000	26.582479
3116.000000	27.105727
3115.000000	27.612059
3114.000000	28.087126
3113.000000	28.521076
3112.000000	28.903100
3111.000000	29.220955
3110.000000	29.467757
3109.000000	29.644233
3108.000000	29.748050
3107.000000	29.770611
3106.000000	29.710242
3105.000000	29.576687
3104.000000	29.384334
3103.000000	29.147681
3102.000000	28.888251
3101.000000	28.638269
3100.000000	28.431793
3099.000000	28.296698
3098.000000	28.255156
3097.000000	28.324153
3096.000000	28.507697
3095.000000	28.798358
3094.000000	29.186454
3093.000000	29.663701
3092.000000	30.217928
3091.000000	30.829520
3090.000000	31.480525
3089.000000	32.156852
3088.000000	32.842690
3087.000000	33.522310
3086.000000	34.188430
3085.000000	34.842358
3084.000000	35.481903
3083.000000	36.097601
3082.000000	36.682405
3081.000000	37.238011
3080.000000	37.768609
3079.000000	38.275778
3078.000000	38.762391
3077.000000	39.233198
3076.000000	39.688928
3075.000000	40.125500
3074.000000	40.542332
3073.000000	40.944171
3072.000000	41.332840
3071.000000	41.705499
3070.000000	42.062756
3069.000000	42.412272
3068.000000	42.761226
3067.000000	43.109916
3066.000000	43.455073
3065.000000	43.794110
3064.000000	44.124996
3063.000000	44.446675
3062.000000	44.760056
3061.000000	45.065998
3060.000000	45.362482
3059.000000	45.647946
3058.000000	45.925967
3057.000000	46.201207
3056.000000	46.471942
3055.000000	46.731977
3054.000000	46.979926
3053.000000	47.220416
3052.000000	47.456754
3051.000000	47.688117
3050.000000	47.912621
3049.000000	48.128136
3048.000000	48.331093
3047.000000	48.519817
3046.000000	48.699158
3045.000000	48.876428
3044.000000	49.053626
3043.000000	49.228502
3042.000000	49.401474
3041.000000	49.575209
3040.000000	49.747090
3039.000000	49.910307
3038.000000	50.063281
3037.000000	50.211878
3036.000000	50.362729
3035.000000	50.519543
3034.000000	50.685897
3033.000000	50.864171
3032.000000	51.049449
3031.000000	51.232034
3030.000000	51.408873
3029.000000	51.585968
3028.000000	51.767369
3027.000000	51.949395
3026.000000	52.129109
3025.000000	52.310680
3024.000000	52.499035
3023.000000	52.692993
3022.000000	52.888570
3021.000000	53.084446
3020.000000	53.281016
3019.000000	53.477619
3018.000000	53.672801
3017.000000	53.864959
3016.000000	54.051686
3015.000000	54.231352
3014.000000	54.405580
3013.000000	54.577323
3012.000000	54.745875
3011.000000	54.905631
3010.000000	55.050041
3009.000000	55.173175
3008.000000	55.267824
3007.000000	55.325952
3006.000000	55.340358
3005.000000	55.305217
3004.000000	55.214599
3003.000000	55.064724
3002.000000	54.856532
3001.000000	54.588167
3000.000000	54.244200
2999.000000	53.790452
2998.000000	53.189902
2997.000000	52.441389
2996.000000	51.622208
2995.000000	50.894405
2994.000000	50.440627
2993.000000	50.362420
2992.000000	50.619532
2991.000000	51.068607
2990.000000	51.556828
2989.000000	51.987251
2988.000000	52.324485
2987.000000	52.570267
2986.000000	52.746166
2985.000000	52.880353
2984.000000	52.996266
2983.000000	53.108751
2982.000000	53.228847
2981.000000	53.362296
2980.000000	53.498627
2979.000000	53.608478
2978.000000	53.660959
2977.000000	53.650322
2976.000000	53.612858
2975.000000	53.622120
2974.000000	53.756874
2973.000000	54.055199
2972.000000	54.488111
2971.000000	54.977740
2970.000000	55.440448
2969.000000	55.816375
2968.000000	56.070813
2967.000000	56.187152
2966.000000	56.163848
2965.000000	56.008938
2964.000000	55.732434
2963.000000	55.340930
2962.000000	54.840985
2961.000000	54.235823
2960.000000	53.513059
2959.000000	52.637864
2958.000000	51.566805
2957.000000	50.292723
2956.000000	48.899894
2955.000000	47.588306
2954.000000	46.609577
2953.000000	46.129741
2952.000000	46.121512
2951.000000	46.389310
2950.000000	46.707709
2949.000000	46.944371
2948.000000	47.091172
2947.000000	47.217400
2946.000000	47.405463
2945.000000	47.697850
2944.000000	48.072112
2943.000000	48.461993
2942.000000	48.808265
2941.000000	49.098327
2940.000000	49.366760
2939.000000	49.671404
2938.000000	50.068476
2937.000000	50.591622
2936.000000	51.238608
2935.000000	51.976921
2934.000000	52.763999
2933.000000	53.561669
2932.000000	54.337737
2931.000000	55.068484
2930.000000	55.743940
2929.000000	56.364117
2928.000000	56.928729
2927.000000	57.436179
2926.000000	57.892579
2925.000000	58.311129
2924.000000	58.700596
2923.000000	59.061012
2922.000000	59.391829
2921.000000	59.696226
2920.000000	59.975544
2919.000000	60.227920
2918.000000	60.453605
2917.000000	60.655813
2916.000000	60.835689
2915.000000	60.992740
2914.000000	61.130807
2913.000000	61.256282
2912.000000	61.370308
2911.000000	61.469859
2910.000000	61.555738
2909.000000	61.633543
2908.000000	61.706450
2907.000000	61.773393
2906.000000	61.835800
2905.000000	61.898850
2904.000000	61.964643
2903.000000	62.030937
2902.000000	62.097218
2901.000000	62.165491
2900.000000	62.234078
2899.000000	62.296366
2898.000000	62.347042
2897.000000	62.382719
2896.000000	62.396506
2895.000000	62.379135
2894.000000	62.327218
2893.000000	62.244600
2892.000000	62.134263
2891.000000	61.995569
2890.000000	61.830506
2889.000000	61.646387
2888.000000	61.450451
2887.000000	61.248009
2886.000000	61.047424
2885.000000	60.860512
2884.000000	60.696471
2883.000000	60.559896
2882.000000	60.455920
2881.000000	60.391032
2880.000000	60.366881
2879.000000	60.379119
2878.000000	60.423048
2877.000000	60.495016
2876.000000	60.588192
2875.000000	60.694196
2874.000000	60.809964
2873.000000	60.936494
2872.000000	61.069481
2871.000000	61.198250
2870.000000	61.317259
2869.000000	61.433644
2868.000000	61.562337
2867.000000	61.718318
2866.000000	61.912865
2865.000000	62.148673
2864.000000	62.414975
2863.000000	62.692855
2862.000000	62.967612
2861.000000	63.232713
2860.000000	63.483674
2859.000000	63.715712
2858.000000	63.929009
2857.000000	64.129650
2856.000000	64.323042
2855.000000	64.511461
2854.000000	64.698026
2853.000000	64.886487
2852.000000	65.075884
2851.000000	65.261479
2850.000000	65.442113
2849.000000	65.620957
2848.000000	65.798242
2847.000000	65.969320
2846.000000	66.131558
2845.000000	66.287478
2844.000000	66.439609
2843.000000	66.587597
2842.000000	66.732433
2841.000000	66.879123
2840.000000	67.032765
2839.000000	67.194972
2838.000000	67.364705
2837.000000	67.539290
2836.000000	67.714410
2835.000000	67.886825
2834.000000	68.057442
2833.000000	68.228495
2832.000000	68.398278
2831.000000	68.562387
2830.000000	68.719401
2829.000000	68.871090
2828.000000	69.017524
2827.000000	69.156736
2826.000000	69.289001
2825.000000	69.416721
2824.000000	69.540019
2823.000000	69.656597
2822.000000	69.766135
2821.000000	69.870711
2820.000000	69.970776
2819.000000	70.064907
2818.000000	70.153411
2817.000000	70.238062
2816.000000	70.318391
2815.000000	70.392286
2814.000000	70.460437
2813.000000	70.526489
2812.000000	70.593030
2811.000000	70.661186
2810.000000	70.733365
2809.000000	70.811870
2808.000000	70.895003
2807.000000	70.978669
2806.000000	71.061546
2805.000000	71.144695
2804.000000	71.226634
2803.000000	71.303563
2802.000000	71.374667
2801.000000	71.443127
2800.000000	71.511973
2799.000000	71.582581
2798.000000	71.656630
2797.000000	71.735136
2796.000000	71.815572
2795.000000	71.893723
2794.000000	71.968178
2793.000000	72.039673
2792.000000	72.107330
2791.000000	72.169829
2790.000000	72.229239
2789.000000	72.289056
2788.000000	72.349085
2787.000000	72.406796
2786.000000	72.463129
2785.000000	72.522383
2784.000000	72.586746
2783.000000	72.655462
2782.000000	72.728781
2781.000000	72.807604
2780.000000	72.889303
2779.000000	72.968835
2778.000000	73.044580
2777.000000	73.119200
2776.000000	73.194605
2775.000000	73.269861
2774.000000	73.343921
2773.000000	73.416272
2772.000000	73.484837
2771.000000	73.547194
2770.000000	73.603816
2769.000000	73.656679
2768.000000	73.705375
2767.000000	73.748174
2766.000000	73.786254
2765.000000	73.822820
2764.000000	73.858595
2763.000000	73.892272
2762.000000	73.924481
2761.000000	73.956943
2760.000000	73.988079
2759.000000	74.013762
2758.000000	74.032359
2757.000000	74.044973
2756.000000	74.051337
2755.000000	74.049831
2754.000000	74.041357
2753.000000	74.029253
2752.000000	74.015321
2751.000000	73.999854
2750.000000	73.985380
2749.000000	73.976297
2748.000000	73.974804
2747.000000	73.981021
2746.000000	73.996690
2745.000000	74.024886
2744.000000	74.066494
2743.000000	74.120127
2742.000000	74.184874
2741.000000	74.259204
2740.000000	74.337566
2739.000000	74.412484
2738.000000	74.479862
2737.000000	74.539350
2736.000000	74.591283
2735.000000	74.637558
2734.000000	74.684473
2733.000000	74.739464
2732.000000	74.804333
2731.000000	74.874864
2730.000000	74.946524
2729.000000	75.016983
2728.000000	75.083990
2727.000000	75.145066
2726.000000	75.199502
2725.000000	75.247679
2724.000000	75.288969
2723.000000	75.323359
2722.000000	75.353665
2721.000000	75.382510
2720.000000	75.408687
2719.000000	75.430250
2718.000000	75.450016
2717.000000	75.474113
2716.000000	75.506056
2715.000000	75.545944
2714.000000	75.593942
2713.000000	75.649929
2712.000000	75.710463
2711.000000	75.770429
2710.000000	75.827154
2709.000000	75.879725
2708.000000	75.925946
2707.000000	75.964127
2706.000000	75.996682
2705.000000	76.027882
2704.000000	76.059048
2703.000000	76.089632
2702.000000	76.121310
2701.000000	76.156281
2700.000000	76.192829
2699.000000	76.227067
2698.000000	76.258165
2697.000000	76.287822
2696.000000	76.315833
2695.000000	76.340808
2694.000000	76.364308
2693.000000	76.389785
2692.000000	76.418041
2691.000000	76.447596
2690.000000	76.478320
2689.000000	76.510420
2688.000000	76.541079
2687.000000	76.566707
2686.000000	76.587708
2685.000000	76.606989
2684.000000	76.624993
2683.000000	76.640552
2682.000000	76.655285
2681.000000	76.672108
2680.000000	76.690207
2679.000000	76.706161
2678.000000	76.719463
2677.000000	76.732590
2676.000000	76.746689
2675.000000	76.761927
2674.000000	76.781503
2673.000000	76.810666
2672.000000	76.851568
2671.000000	76.903179
2670.000000	76.965364
2669.000000	77.038411
2668.000000	77.119454
2667.000000	77.203450
2666.000000	77.287651
2665.000000	77.371422
2664.000000	77.452511
2663.000000	77.528090
2662.000000	77.598690
2661.000000	77.666985
2660.000000	77.733351
2659.000000	77.796502
2658.000000	77.857380
2657.000000	77.918264
2656.000000	77.978655
2655.000000	78.036077
2654.000000	78.090344
2653.000000	78.142510
2652.000000	78.190522
2651.000000	78.229963
2650.000000	78.258776
2649.000000	78.278043
2648.000000	78.288823
2647.000000	78.292415
2646.000000	78.293080
2645.000000	78.296260
2644.000000	78.304541
2643.000000	78.318451
2642.000000	78.339924
2641.000000	78.371104
2640.000000	78.410730
2639.000000	78.455525
2638.000000	78.504673
2637.000000	78.559152
2636.000000	78.617711
2635.000000	78.677614
2634.000000	78.737960
2633.000000	78.798489
2632.000000	78.856228
2631.000000	78.907574
2630.000000	78.953341
2629.000000	78.998080
2628.000000	79.045393
2627.000000	79.097145
2626.000000	79.155578
2625.000000	79.221565
2624.000000	79.291343
2623.000000	79.358819
2622.000000	79.420570
2621.000000	79.475630
2620.000000	79.522021
2619.000000	79.557876
2618.000000	79.584829
2617.000000	79.606175
2616.000000	79.622692
2615.000000	79.633525
2614.000000	79.640236
2613.000000	79.645922
2612.000000	79.650948
2611.000000	79.653727
2610.000000	79.654558
2609.000000	79.655141
2608.000000	79.655099
2607.000000	79.652568
2606.000000	79.647621
2605.000000	79.641686
2604.000000	79.634722
2603.000000	79.626467
2602.000000	79.619175
2601.000000	79.615470
2600.000000	79.614639
2599.000000	79.614502
2598.000000	79.615562
2597.000000	79.619490
2596.000000	79.624941
2595.000000	79.628877
2594.000000	79.630975
2593.000000	79.632865
2592.000000	79.634226
2591.000000	79.633472
2590.000000	79.631122
2589.000000	79.628766
2588.000000	79.625887
2587.000000	79.621503
2586.000000	79.617632
2585.000000	79.617274
2584.000000	79.620188
2583.000000	79.624484
2582.000000	79.631334
2581.000000	79.644101
2580.000000	79.664126
2579.000000	79.691210
2578.000000	79.726464
2577.000000	79.770831
2576.000000	79.821610
2575.000000	79.874518
2574.000000	79.928518
2573.000000	79.984727
2572.000000	80.042380
2571.000000	80.099431
2570.000000	80.155886
2569.000000	80.212907
2568.000000	80.269687
2567.000000	80.324914
2566.000000	80.379843
2565.000000	80.436355
2564.000000	80.493618
2563.000000	80.550263
2562.000000	80.608188
2561.000000	80.670268
2560.000000	80.735798
2559.000000	80.802133
2558.000000	80.869192
2557.000000	80.938669
2556.000000	81.010362
2555.000000	81.082928
2554.000000	81.156642
2553.000000	81.231427
2552.000000	81.303903
2551.000000	81.370454
2550.000000	81.431874
2549.000000	81.491258
2548.000000	81.549046
2547.000000	81.603840
2546.000000	81.656195
2545.000000	81.707652
2544.000000	81.757254
2543.000000	81.803135
2542.000000	81.846098
2541.000000	81.887719
2540.000000	81.926682
2539.000000	81.960536
2538.000000	81.989740
2537.000000	82.016243
2536.000000	82.039516
2535.000000	82.058251
2534.000000	82.074238
2533.000000	82.090923
2532.000000	82.109444
2531.000000	82.129636
2530.000000	82.153335
2529.000000	82.182477
2528.000000	82.215170
2527.000000	82.247306
2526.000000	82.276930
2525.000000	82.303768
2524.000000	82.326223
2523.000000	82.342553
2522.000000	82.353663
2521.000000	82.360901
2520.000000	82.362870
2519.000000	82.357327
2518.000000	82.344322
2517.000000	82.324322
2516.000000	82.294786
2515.000000	82.253245
2514.000000	82.201737
2513.000000	82.144572
2512.000000	82.083938
2511.000000	82.020957
2510.000000	81.959384
2509.000000	81.903693
2508.000000	81.854816
2507.000000	81.811519
2506.000000	81.774247
2505.000000	81.743622
2504.000000	81.717132
2503.000000	81.691878
2502.000000	81.668815
2501.000000	81.650919
2500.000000	81.638721
2499.000000	81.631721
2498.000000	81.632656
2497.000000	81.645107
2496.000000	81.668941
2495.000000	81.701711
2494.000000	81.742819
2493.000000	81.792629
2492.000000	81.848604
2491.000000	81.907194
2490.000000	81.967551
2489.000000	82.029464
2488.000000	82.090176
2487.000000	82.147485
2486.000000	82.204478
2485.000000	82.266610
2484.000000	82.335319
2483.000000	82.408864
2482.000000	82.487092
2481.000000	82.570803
2480.000000	82.657867
2479.000000	82.744392
2478.000000	82.828658
2477.000000	82.909858
2476.000000	82.984858
2475.000000	83.050528
2474.000000	83.108212
2473.000000	83.161746
2472.000000	83.212802
2471.000000	83.261535
2470.000000	83.309524
2469.000000	83.357891
2468.000000	83.403565
2467.000000	83.441957
2466.000000	83.471824
2465.000000	83.493603
2464.000000	83.505450
2463.000000	83.504794
2462.000000	83.492739
2461.000000	83.472800
2460.000000	83.446338
2459.000000	83.413901
2458.000000	83.378856
2457.000000	83.345805
2456.000000	83.316438
2455.000000	83.290705
2454.000000	83.270655
2453.000000	83.258949
2452.000000	83.255138
2451.000000	83.257296
2450.000000	83.266376
2449.000000	83.284421
2448.000000	83.310433
2447.000000	83.341856
2446.000000	83.378453
2445.000000	83.421112
2444.000000	83.467816
2443.000000	83.515246
2442.000000	83.562866
2441.000000	83.611508
2440.000000	83.659916
2439.000000	83.706441
2438.000000	83.752692
2437.000000	83.801507
2436.000000	83.852821
2435.000000	83.905391
2434.000000	83.960363
2433.000000	84.018803
2432.000000	84.077197
2431.000000	84.129781
2430.000000	84.173863
2429.000000	84.209267
2428.000000	84.234605
2427.000000	84.248457
2426.000000	84.253308
2425.000000	84.253595
2424.000000	84.251296
2423.000000	84.246881
2422.000000	84.242642
2421.000000	84.241108
2420.000000	84.241116
2419.000000	84.239877
2418.000000	84.237812
2417.000000	84.237826
2416.000000	84.241274
2415.000000	84.248560
2414.000000	84.261826
2413.000000	84.282509
2412.000000	84.307410
2411.000000	84.330983
2410.000000	84.350412
2409.000000	84.364922
2408.000000	84.372240
2407.000000	84.370240
2406.000000	84.361111
2405.000000	84.349647
2404.000000	84.338261
2403.000000	84.327290
2402.000000	84.318022
2401.000000	84.311103
2400.000000	84.302716
2399.000000	84.285915
2398.000000	84.255242
2397.000000	84.205923
2396.000000	84.131330
2395.000000	84.026292
2394.000000	83.891646
2393.000000	83.732916
2392.000000	83.554504
2391.000000	83.360095
2390.000000	83.156574
2389.000000	82.951595
2388.000000	82.749343
2387.000000	82.551247
2386.000000	82.361560
2385.000000	82.187673
2384.000000	82.034569
2383.000000	81.905909
2382.000000	81.807135
2381.000000	81.743609
2380.000000	81.713797
2379.000000	81.706810
2378.000000	81.712383
2377.000000	81.723062
2376.000000	81.730704
2375.000000	81.727243
2374.000000	81.710705
2373.000000	81.690735
2372.000000	81.676512
2371.000000	81.667988
2370.000000	81.663694
2369.000000	81.674936
2368.000000	81.707852
2367.000000	81.747088
2366.000000	81.785771
2365.000000	81.838749
2364.000000	81.897653
2363.000000	81.944782
2362.000000	81.974390
2361.000000	81.987295
2360.000000	82.006461
2359.000000	82.024209
2358.000000	82.024222
2357.000000	82.004355
2356.000000	81.940452
2355.000000	81.831454
2354.000000	81.719149
2353.000000	81.751363
2352.000000	82.009260
2351.000000	82.369590
2350.000000	82.637677
2349.000000	82.686588
2348.000000	82.590149
2347.000000	82.484034
2346.000000	82.448063
2345.000000	82.492554
2344.000000	82.538294
2343.000000	82.581359
2342.000000	82.611860
2341.000000	82.639300
2340.000000	82.655821
2339.000000	82.655416
2338.000000	82.662346
2337.000000	82.695012
2336.000000	82.764277
2335.000000	82.845157
2334.000000	82.923660
2333.000000	82.987453
2332.000000	83.060997
2331.000000	83.124105
2330.000000	83.228596
2329.000000	83.334097
2328.000000	83.441387
2327.000000	83.494680
2326.000000	83.500000
2325.000000	83.481427
2324.000000	83.445527
2323.000000	83.404304
2322.000000	83.346531
2321.000000	83.285278
2320.000000	83.229398
2319.000000	83.176279
2318.000000	83.125641
2317.000000	83.045440
2316.000000	82.936223
2315.000000	82.778856
2314.000000	82.606154
2313.000000	82.410630
2312.000000	82.215850
2311.000000	82.003215
2310.000000	81.791576
2309.000000	81.567141
2308.000000	81.341957
2307.000000	81.106082
2306.000000	80.875945
2305.000000	80.649613
2304.000000	80.438674
2303.000000	80.241982
2302.000000	80.081599
2301.000000	79.961035
2300.000000	79.890710
2299.000000	79.858126
2298.000000	79.865587
2297.000000	79.895653
2296.000000	79.938606
2295.000000	79.975058
2294.000000	80.002940
2293.000000	80.017473
2292.000000	80.017075
2291.000000	79.999357
2290.000000	79.967588
2289.000000	79.924773
2288.000000	79.868258
2287.000000	79.797160
2286.000000	79.712706
2285.000000	79.616715
2284.000000	79.504935
2283.000000	79.379014
2282.000000	79.249433
2281.000000	79.132698
2280.000000	79.040386
2279.000000	78.982282
2278.000000	78.966903
2277.000000	78.996190
2276.000000	79.063756
2275.000000	79.162313
2274.000000	79.292768
2273.000000	79.456123
2272.000000	79.646819
2271.000000	79.854466
2270.000000	80.071757
2269.000000	80.292046
2268.000000	80.507625
2267.000000	80.713945
2266.000000	80.914059
2265.000000	81.110066
2264.000000	81.298516
2263.000000	81.475348
2262.000000	81.641321
2261.000000	81.799274
2260.000000	81.946999
2259.000000	82.084813
2258.000000	82.218218
2257.000000	82.354694
2256.000000	82.497654
2255.000000	82.650398
2254.000000	82.820158
2253.000000	83.010271
2252.000000	83.216857
2251.000000	83.432493
2250.000000	83.654251
2249.000000	83.877257
2248.000000	84.094047
2247.000000	84.298768
2246.000000	84.493350
2245.000000	84.681535
2244.000000	84.863176
2243.000000	85.037779
2242.000000	85.208106
2241.000000	85.375539
2240.000000	85.535887
2239.000000	85.684959
2238.000000	85.822972
2237.000000	85.949890
2236.000000	86.061471
2235.000000	86.154831
2234.000000	86.233185
2233.000000	86.301221
2232.000000	86.359836
2231.000000	86.409661
2230.000000	86.454316
2229.000000	86.495908
2228.000000	86.531769
2227.000000	86.558962
2226.000000	86.578186
2225.000000	86.589401
2224.000000	86.589615
2223.000000	86.578706
2222.000000	86.562980
2221.000000	86.549035
2220.000000	86.538656
2219.000000	86.532852
2218.000000	86.535233
2217.000000	86.547136
2216.000000	86.564286
2215.000000	86.582196
2214.000000	86.600041
2213.000000	86.616160
2212.000000	86.625691
2211.000000	86.627198
2210.000000	86.626792
2209.000000	86.631917
2208.000000	86.645619
2207.000000	86.669540
2206.000000	86.705741
2205.000000	86.750789
2204.000000	86.793639
2203.000000	86.824432
2202.000000	86.841722
2201.000000	86.849124
2200.000000	86.851880
2199.000000	86.861143
2198.000000	86.894020
2197.000000	86.962483
2196.000000	87.064826
2195.000000	87.190921
2194.000000	87.330215
2193.000000	87.471305
2192.000000	87.601536
2191.000000	87.713321
2190.000000	87.807187
2189.000000	87.885049
2188.000000	87.945730
2187.000000	87.990615
2186.000000	88.026990
2185.000000	88.061355
2184.000000	88.094020
2183.000000	88.123746
2182.000000	88.151552
2181.000000	88.176083
2180.000000	88.191622
2179.000000	88.195303
2178.000000	88.191297
2177.000000	88.183983
2176.000000	88.172989
2175.000000	88.158750
2174.000000	88.146673
2173.000000	88.141051
2172.000000	88.140252
2171.000000	88.142114
2170.000000	88.148228
2169.000000	88.158943
2168.000000	88.169924
2167.000000	88.178415
2166.000000	88.187517
2165.000000	88.200058
2164.000000	88.213937
2163.000000	88.227822
2162.000000	88.245552
2161.000000	88.270419
2160.000000	88.300538
2159.000000	88.333747
2158.000000	88.371064
2157.000000	88.411300
2156.000000	88.448636
2155.000000	88.480084
2154.000000	88.509899
2153.000000	88.542670
2152.000000	88.578084
2151.000000	88.615941
2150.000000	88.659587
2149.000000	88.709597
2148.000000	88.759953
2147.000000	88.805319
2146.000000	88.846235
2145.000000	88.883365
2144.000000	88.913714
2143.000000	88.936985
2142.000000	88.958589
2141.000000	88.982567
2140.000000	89.006902
2139.000000	89.029074
2138.000000	89.049564
2137.000000	89.066690
2136.000000	89.075425
2135.000000	89.075931
2134.000000	89.076769
2133.000000	89.085551
2132.000000	89.102510
2131.000000	89.126059
2130.000000	89.157203
2129.000000	89.193764
2128.000000	89.227204
2127.000000	89.250290
2126.000000	89.262169
2125.000000	89.261931
2124.000000	89.244597
2123.000000	89.207878
2122.000000	89.156225
2121.000000	89.094246
2120.000000	89.023175
2119.000000	88.947283
2118.000000	88.876359
2117.000000	88.816747
2116.000000	88.765751
2115.000000	88.719055
2114.000000	88.676825
2113.000000	88.638816
2112.000000	88.600748
2111.000000	88.560457
2110.000000	88.521594
2109.000000	88.487375
2108.000000	88.456923
2107.000000	88.431379
2106.000000	88.416700
2105.000000	88.416386
2104.000000	88.427738
2103.000000	88.448129
2102.000000	88.478172
2101.000000	88.514461
2100.000000	88.548051
2099.000000	88.574227
2098.000000	88.597361
2097.000000	88.623119
2096.000000	88.652034
2095.000000	88.686379
2094.000000	88.733396
2093.000000	88.795308
2092.000000	88.864124
2091.000000	88.931502
2090.000000	88.996742
2089.000000	89.061750
2088.000000	89.126745
2087.000000	89.196378
2086.000000	89.280726
2085.000000	89.384568
2084.000000	89.502908
2083.000000	89.629920
2082.000000	89.763837
2081.000000	89.899617
2080.000000	90.027048
2079.000000	90.141301
2078.000000	90.246745
2077.000000	90.346578
2076.000000	90.437104
2075.000000	90.518333
2074.000000	90.597692
2073.000000	90.678896
2072.000000	90.758091
2071.000000	90.831625
2070.000000	90.902411
2069.000000	90.972955
2068.000000	91.039901
2067.000000	91.099610
2066.000000	91.151825
2065.000000	91.195881
2064.000000	91.231073
2063.000000	91.263864
2062.000000	91.305013
2061.000000	91.356487
2060.000000	91.409968
2059.000000	91.460630
2058.000000	91.512266
2057.000000	91.565793
2056.000000	91.614845
2055.000000	91.657083
2054.000000	91.698541
2053.000000	91.743052
2052.000000	91.788379
2051.000000	91.833421
2050.000000	91.882021
2049.000000	91.936284
2048.000000	91.992186
2047.000000	92.045566
2046.000000	92.098694
2045.000000	92.154414
2044.000000	92.209301
2043.000000	92.258263
2042.000000	92.300770
2041.000000	92.337761
2040.000000	92.368597
2039.000000	92.396170
2038.000000	92.427268
2037.000000	92.463445
2036.000000	92.498598
2035.000000	92.530142
2034.000000	92.564393
2033.000000	92.605531
2032.000000	92.649364
2031.000000	92.694333
2030.000000	92.746750
2029.000000	92.809925
2028.000000	92.876799
2027.000000	92.939226
2026.000000	92.997701
2025.000000	93.052685
2024.000000	93.099252
2023.000000	93.131191
2022.000000	93.151341
2021.000000	93.167771
2020.000000	93.182312
2019.000000	93.190666
2018.000000	93.190754
2017.000000	93.184771
2016.000000	93.176826
2015.000000	93.174800
2014.000000	93.187366
2013.000000	93.213011
2012.000000	93.237918
2011.000000	93.251621
2010.000000	93.257848
2009.000000	93.262906
2008.000000	93.263893
2007.000000	93.258522
2006.000000	93.255687
2005.000000	93.263025
2004.000000	93.277785
2003.000000	93.293168
2002.000000	93.311539
2001.000000	93.335564
2000.000000	93.358770
1999.000000	93.379868
1998.000000	93.401666
1997.000000	93.428113
1996.000000	93.464793
1995.000000	93.516822
1994.000000	93.578202
1993.000000	93.630140
1992.000000	93.657967
1991.000000	93.668302
1990.000000	93.678729
1989.000000	93.693314
1988.000000	93.700353
1987.000000	93.691951
1986.000000	93.676741
1985.000000	93.668691
1984.000000	93.673762
1983.000000	93.691475
1982.000000	93.722263
1981.000000	93.764305
1980.000000	93.811399
1979.000000	93.860409
1978.000000	93.904728
1977.000000	93.938845
1976.000000	93.966215
1975.000000	93.997757
1974.000000	94.038817
1973.000000	94.087914
1972.000000	94.147895
1971.000000	94.225769
1970.000000	94.318883
1969.000000	94.411169
1968.000000	94.485258
1967.000000	94.533552
1966.000000	94.560591
1965.000000	94.579718
1964.000000	94.604065
1963.000000	94.634445
1962.000000	94.659469
1961.000000	94.672866
1960.000000	94.685761
1959.000000	94.710548
1958.000000	94.739452
1957.000000	94.752539
1956.000000	94.741124
1955.000000	94.711759
1954.000000	94.670136
1953.000000	94.618117
1952.000000	94.561487
1951.000000	94.507082
1950.000000	94.463337
1949.000000	94.430314
1948.000000	94.402751
1947.000000	94.385455
1946.000000	94.388519
1945.000000	94.410473
1944.000000	94.434406
1943.000000	94.444161
1942.000000	94.442457
1941.000000	94.447916
1940.000000	94.481245
1939.000000	94.550143
1938.000000	94.642284
1937.000000	94.740026
1936.000000	94.840412
1935.000000	94.949601
1934.000000	95.061012
1933.000000	95.159353
1932.000000	95.236700
1931.000000	95.296067
1930.000000	95.350793
1929.000000	95.395577
1928.000000	95.420499
1927.000000	95.438707
1926.000000	95.473313
1925.000000	95.530346
1924.000000	95.571658
1923.000000	95.573063
1922.000000	95.560200
1921.000000	95.563624
1920.000000	95.577418
1919.000000	95.577138
1918.000000	95.559680
1917.000000	95.544898
1916.000000	95.538968
1915.000000	95.541446
1914.000000	95.552804
1913.000000	95.565487
1912.000000	95.566551
1911.000000	95.555396
1910.000000	95.544836
1909.000000	95.526896
1908.000000	95.487763
1907.000000	95.438800
1906.000000	95.405290
1905.000000	95.394521
1904.000000	95.370519
1903.000000	95.319921
1902.000000	95.270957
1901.000000	95.227455
1900.000000	95.165429
1899.000000	95.088781
1898.000000	95.031382
1897.000000	95.007525
1896.000000	94.982611
1895.000000	94.940134
1894.000000	94.919706
1893.000000	94.952101
1892.000000	95.013628
1891.000000	95.069494
1890.000000	95.114432
1889.000000	95.155863
1888.000000	95.190455
1887.000000	95.226126
1886.000000	95.282504
1885.000000	95.348527
1884.000000	95.388845
1883.000000	95.406290
1882.000000	95.444136
1881.000000	95.506542
1880.000000	95.555940
1879.000000	95.580201
1878.000000	95.601242
1877.000000	95.632392
1876.000000	95.651788
1875.000000	95.643537
1874.000000	95.639676
1873.000000	95.674626
1872.000000	95.733897
1871.000000	95.788952
1870.000000	95.836626
1869.000000	95.883905
1868.000000	95.918779
1867.000000	95.941524
1866.000000	95.985182
1865.000000	96.054759
1864.000000	96.109200
1863.000000	96.130171
1862.000000	96.156002
1861.000000	96.214954
1860.000000	96.283861
1859.000000	96.348654
1858.000000	96.442610
1857.000000	96.581757
1856.000000	96.726306
1855.000000	96.844267
1854.000000	96.955179
1853.000000	97.063634
1852.000000	97.146956
1851.000000	97.219259
1850.000000	97.302108
1849.000000	97.395945
1848.000000	97.481991
1847.000000	97.561087
1846.000000	97.643637
1845.000000	97.709162
1844.000000	97.746457
1843.000000	97.784860
1842.000000	97.848032
1841.000000	97.912652
1840.000000	97.949956
1839.000000	97.956398
1838.000000	97.959292
1837.000000	97.987152
1836.000000	98.029017
1835.000000	98.083316
1834.000000	98.170705
1833.000000	98.289019
1832.000000	98.416371
1831.000000	98.519390
1830.000000	98.572550
1829.000000	98.609281
1828.000000	98.676683
1827.000000	98.775706
1826.000000	98.869543
1825.000000	98.938043
1824.000000	98.994906
1823.000000	99.060244
1822.000000	99.147562
1821.000000	99.261034
1820.000000	99.385959
1819.000000	99.490685
1818.000000	99.573144
1817.000000	99.659578
1816.000000	99.736405
1815.000000	99.785399
1814.000000	99.831114
1813.000000	99.906019
1812.000000	99.993504
1811.000000	100.039265
1810.000000	100.069145
1809.000000	100.143837
1808.000000	100.232070
1807.000000	100.277959
1806.000000	100.308327
1805.000000	100.378272
1804.000000	100.467290
1803.000000	100.529175
1802.000000	100.565753
1801.000000	100.607029
1800.000000	100.660079
1799.000000	100.706767
1798.000000	100.773295
1797.000000	100.870310
1796.000000	100.940973
1795.000000	100.951721
1794.000000	100.935898
1793.000000	100.939713
1792.000000	100.965852
1791.000000	100.976895
1790.000000	100.986781
1789.000000	101.027887
1788.000000	101.085589
1787.000000	101.133936
1786.000000	101.190276
1785.000000	101.273341
1784.000000	101.344815
1783.000000	101.389910
1782.000000	101.427574
1781.000000	101.456717
1780.000000	101.484843
1779.000000	101.514381
1778.000000	101.568165
1777.000000	101.648391
1776.000000	101.739600
1775.000000	101.841258
1774.000000	101.929191
1773.000000	101.986888
1772.000000	102.075507
1771.000000	102.214184
1770.000000	102.350910
1769.000000	102.475936
1768.000000	102.591593
1767.000000	102.672588
1766.000000	102.726180
1765.000000	102.806988
1764.000000	102.946204
1763.000000	103.092412
1762.000000	103.176283
1761.000000	103.228571
1760.000000	103.309291
1759.000000	103.396709
1758.000000	103.449674
1757.000000	103.440363
1756.000000	103.425549
1755.000000	103.451425
1754.000000	103.485466
1753.000000	103.515267
1752.000000	103.577654
1751.000000	103.680879
1750.000000	103.761715
1749.000000	103.775526
1748.000000	103.745465
1747.000000	103.727726
1746.000000	103.709576
1745.000000	103.668902
1744.000000	103.632780
1743.000000	103.589444
1742.000000	103.511053
1741.000000	103.425626
1740.000000	103.383520
1739.000000	103.384069
1738.000000	103.396589
1737.000000	103.410621
1736.000000	103.427273
1735.000000	103.394298
1734.000000	103.366756
1733.000000	103.428587
1732.000000	103.510756
1731.000000	103.530095
1730.000000	103.493393
1729.000000	103.407008
1728.000000	103.306901
1727.000000	103.239477
1726.000000	103.186991
1725.000000	103.128306
1724.000000	103.054964
1723.000000	102.956691
1722.000000	102.884333
1721.000000	102.881268
1720.000000	102.911139
1719.000000	102.872779
1718.000000	102.783931
1717.000000	102.805649
1716.000000	102.878334
1715.000000	102.851677
1714.000000	102.792678
1713.000000	102.796008
1712.000000	102.808897
1711.000000	102.789751
1710.000000	102.807561
1709.000000	102.906613
1708.000000	103.041931
1707.000000	103.164464
1706.000000	103.299471
1705.000000	103.487929
1704.000000	103.658229
1703.000000	103.766098
1702.000000	103.859234
1701.000000	103.941972
1700.000000	104.051697
1699.000000	104.159705
1698.000000	104.272930
1697.000000	104.420721
1696.000000	104.526562
1695.000000	104.545533
1694.000000	104.561893
1693.000000	104.596651
1692.000000	104.619121
1691.000000	104.608361
1690.000000	104.578396
1689.000000	104.543639
1688.000000	104.525907
1687.000000	104.541274
1686.000000	104.546524
1685.000000	104.460201
1684.000000	104.385384
1683.000000	104.452756
1682.000000	104.550924
1681.000000	104.517115
1680.000000	104.383112
1679.000000	104.244931
1678.000000	104.130651
1677.000000	103.996684
1676.000000	103.838088
1675.000000	103.744254
1674.000000	103.701068
1673.000000	103.618672
1672.000000	103.510287
1671.000000	103.401667
1670.000000	103.275133
1669.000000	103.103357
1668.000000	102.920815
1667.000000	102.769871
1666.000000	102.606633
1665.000000	102.379190
1664.000000	102.080112
1663.000000	101.777607
1662.000000	101.526988
1661.000000	101.253378
1660.000000	100.937325
1659.000000	100.633881
1658.000000	100.325993
1657.000000	99.991732
1656.000000	99.650774
1655.000000	99.242386
1654.000000	98.406422
1653.000000	97.248226
1652.000000	96.268915
1651.000000	95.473554
1650.000000	94.598748
1649.000000	93.500266
1648.000000	91.940430
1647.000000	89.844635
1646.000000	87.509247
1645.000000	85.256118
1644.000000	83.101371
1643.000000	80.948440
1642.000000	78.780628
1641.000000	76.674344
1640.000000	74.829959
1639.000000	73.397981
1638.000000	72.395300
1637.000000	71.779906
1636.000000	71.632624
1635.000000	72.057624
1634.000000	72.860327
1633.000000	73.791494
1632.000000	74.773298
1631.000000	75.833086
1630.000000	76.984453
1629.000000	78.196110
1628.000000	79.418125
1627.000000	80.605187
1626.000000	81.713738
1625.000000	82.747608
1624.000000	83.779264
1623.000000	84.858022
1622.000000	85.902846
1621.000000	86.791899
1620.000000	87.564197
1619.000000	88.353303
1618.000000	89.232064
1617.000000	90.203431
1616.000000	91.231623
1615.000000	92.216712
1614.000000	93.047399
1613.000000	93.704274
1612.000000	94.240259
1611.000000	94.693074
1610.000000	94.986298
1609.000000	94.972350
1608.000000	94.574938
1607.000000	93.765090
1606.000000	92.415920
1605.000000	90.335010
1604.000000	87.488650
1603.000000	83.998121
1602.000000	80.030404
1601.000000	75.744118
1600.000000	71.169952
1599.000000	66.102796
1598.000000	60.154673
1597.000000	53.143580
1596.000000	45.512076
1595.000000	38.297871
1594.000000	32.547056
1593.000000	28.691351
1592.000000	26.553503
1591.000000	25.739310
1590.000000	25.851165
1589.000000	26.468747
1588.000000	27.216233
1587.000000	27.850507
1586.000000	28.213947
1585.000000	28.242663
1584.000000	28.057482
1583.000000	27.912983
1582.000000	27.959334
1581.000000	28.171418
1580.000000	28.523970
1579.000000	29.067948
1578.000000	29.784029
1577.000000	30.478823
1576.000000	30.951946
1575.000000	31.214649
1574.000000	31.355160
1573.000000	31.393791
1572.000000	31.413309
1571.000000	31.632544
1570.000000	32.278618
1569.000000	33.344661
1568.000000	34.694388
1567.000000	36.312989
1566.000000	38.190180
1565.000000	40.145065
1564.000000	41.947613
1563.000000	43.540126
1562.000000	45.014600
1561.000000	46.514965
1560.000000	48.300572
1559.000000	50.675263
1558.000000	53.194040
1557.000000	55.217624
1556.000000	56.853335
1555.000000	58.472354
1554.000000	60.125123
1553.000000	61.643338
1552.000000	62.977403
1551.000000	64.210420
1550.000000	65.381602
1549.000000	66.428693
1548.000000	67.334407
1547.000000	68.208986
1546.000000	69.133584
1545.000000	70.051324
1544.000000	70.872964
1543.000000	71.596170
1542.000000	72.299964
1541.000000	73.035000
1540.000000	73.783602
1539.000000	74.520845
1538.000000	75.188850
1537.000000	75.742066
1536.000000	76.233112
1535.000000	76.749101
1534.000000	77.305122
1533.000000	77.852977
1532.000000	78.352301
1531.000000	78.806719
1530.000000	79.267650
1529.000000	79.751227
1528.000000	80.202842
1527.000000	80.598416
1526.000000	80.954153
1525.000000	81.277273
1524.000000	81.584432
1523.000000	81.902557
1522.000000	82.233583
1521.000000	82.540407
1520.000000	82.782629
1519.000000	82.985500
1518.000000	83.181705
1517.000000	83.346114
1516.000000	83.435602
1515.000000	83.483324
1514.000000	83.557355
1513.000000	83.697993
1512.000000	83.887603
1511.000000	84.091136
1510.000000	84.316630
1509.000000	84.586198
1508.000000	84.828812
1507.000000	84.958687
1506.000000	85.100650
1505.000000	85.332584
1504.000000	85.548031
1503.000000	85.716625
1502.000000	85.878084
1501.000000	86.046590
1500.000000	86.225239
1499.000000	86.412387
1498.000000	86.629211
1497.000000	86.943569
1496.000000	87.348183
1495.000000	87.751327
1494.000000	88.136638
1493.000000	88.549615
1492.000000	88.997169
1491.000000	89.441387
1490.000000	89.864414
1489.000000	90.274431
1488.000000	90.643567
1487.000000	90.969767
1486.000000	91.340615
1485.000000	91.750314
1484.000000	92.139028
1483.000000	92.520718
1482.000000	92.909577
1481.000000	93.282006
1480.000000	93.603872
1479.000000	93.913360
1478.000000	94.270540
1477.000000	94.671967
1476.000000	95.047560
1475.000000	95.399485
1474.000000	95.804790
1473.000000	96.267233
1472.000000	96.721388
1471.000000	97.099394
1470.000000	97.391623
1469.000000	97.608605
1468.000000	97.731062
1467.000000	97.715320
1466.000000	97.457747
1465.000000	96.766295
1464.000000	95.524914
1463.000000	93.719220
1462.000000	91.330479
1461.000000	88.359268
1460.000000	84.844607
1459.000000	80.776758
1458.000000	76.041836
1457.000000	71.057968
1456.000000	66.919399
1455.000000	64.032529
1454.000000	61.793579
1453.000000	59.665561
1452.000000	57.624435
1451.000000	55.925201
1450.000000	54.761702
1449.000000	54.165546
1448.000000	54.068738
1447.000000	54.343714
1446.000000	54.914227
1445.000000	55.907643
1444.000000	57.576098
1443.000000	59.945936
1442.000000	62.698238
1441.000000	65.420670
1440.000000	67.870370
1439.000000	69.993122
1438.000000	71.854816
1437.000000	73.601386
1436.000000	75.300154
1435.000000	76.855312
1434.000000	78.233326
1433.000000	79.558873
1432.000000	80.904584
1431.000000	82.184479
1430.000000	83.284290
1429.000000	84.218431
1428.000000	85.043646
1427.000000	85.782177
1426.000000	86.446339
1425.000000	87.058365
1424.000000	87.659410
1423.000000	88.220643
1422.000000	88.710736
1421.000000	89.176987
1420.000000	89.673534
1419.000000	90.148848
1418.000000	90.513710
1417.000000	90.831709
1416.000000	91.194929
1415.000000	91.583374
1414.000000	91.941641
1413.000000	92.279677
1412.000000	92.635943
1411.000000	92.967706
1410.000000	93.208243
1409.000000	93.386938
1408.000000	93.539691
1407.000000	93.610735
1406.000000	93.482808
1405.000000	93.048583
1404.000000	92.296508
1403.000000	91.294423
1402.000000	90.161374
1401.000000	89.038024
1400.000000	88.035776
1399.000000	87.195238
1398.000000	86.498898
1397.000000	85.976558
1396.000000	85.763935
1395.000000	86.030684
1394.000000	86.771965
1393.000000	87.775624
1392.000000	88.820155
1391.000000	89.760907
1390.000000	90.523045
1389.000000	91.112286
1388.000000	91.599507
1387.000000	92.062282
1386.000000	92.542461
1385.000000	93.061406
1384.000000	93.638475
1383.000000	94.249489
1382.000000	94.841393
1381.000000	95.393271
1380.000000	95.908949
1379.000000	96.379447
1378.000000	96.775198
1377.000000	97.062123
1376.000000	97.183900
1375.000000	97.031807
1374.000000	96.451461
1373.000000	95.325472
1372.000000	93.588636
1371.000000	91.131919
1370.000000	87.783620
1369.000000	83.518644
1368.000000	78.775416
1367.000000	74.411104
1366.000000	71.245450
1365.000000	69.677909
1364.000000	69.657079
1363.000000	70.843438
1362.000000	72.812655
1361.000000	75.257888
1360.000000	78.010098
1359.000000	80.897788
1358.000000	83.682329
1357.000000	86.136622
1356.000000	88.152080
1355.000000	89.744841
1354.000000	90.996241
1353.000000	92.016270
1352.000000	92.892791
1351.000000	93.670775
1350.000000	94.365696
1349.000000	94.981633
1348.000000	95.540293
1347.000000	96.061081
1346.000000	96.545510
1345.000000	96.993543
1344.000000	97.419753
1343.000000	97.840632
1342.000000	98.257876
1341.000000	98.657636
1340.000000	99.015711
1339.000000	99.307677
1338.000000	99.526287
1337.000000	99.699827
1336.000000	99.872059
1335.000000	100.066305
1334.000000	100.283486
1333.000000	100.522913
1332.000000	100.783530
1331.000000	101.049528
1330.000000	101.290655
1329.000000	101.483530
1328.000000	101.609046
1327.000000	101.629380
1326.000000	101.467424
1325.000000	101.003135
1324.000000	100.100562
1323.000000	98.617463
1322.000000	96.451015
1321.000000	93.631771
1320.000000	90.375578
1319.000000	87.022343
1318.000000	83.877432
1317.000000	81.114526
1316.000000	78.845281
1315.000000	77.249838
1314.000000	76.550643
1313.000000	76.833055
1312.000000	77.903977
1311.000000	79.349695
1310.000000	80.788283
1309.000000	82.082510
1308.000000	83.348787
1307.000000	84.795278
1306.000000	86.525880
1305.000000	88.464865
1304.000000	90.421871
1303.000000	92.198487
1302.000000	93.672324
1301.000000	94.825424
1300.000000	95.699205
1299.000000	96.333846
1298.000000	96.746207
1297.000000	96.933498
1296.000000	96.877089
1295.000000	96.526744
1294.000000	95.803132
1293.000000	94.620089
1292.000000	92.923937
1291.000000	90.786465
1290.000000	88.455107
1289.000000	86.235625
1288.000000	84.235765
1287.000000	82.216765
1286.000000	79.791729
1285.000000	76.831226
1284.000000	73.661799
1283.000000	70.895867
1282.000000	69.103652
1281.000000	68.573829
1280.000000	69.274730
1279.000000	70.915229
1278.000000	73.040071
1277.000000	75.164577
1276.000000	76.832470
1275.000000	77.638426
1274.000000	77.397677
1273.000000	76.440907
1272.000000	75.674653
1271.000000	76.088139
1270.000000	78.052420
1269.000000	81.100468
1268.000000	84.369718
1267.000000	87.213286
1266.000000	89.439185
1265.000000	91.158943
1264.000000	92.550171
1263.000000	93.734830
1262.000000	94.772140
1261.000000	95.690766
1260.000000	96.506600
1259.000000	97.224573
1258.000000	97.848908
1257.000000	98.388926
1256.000000	98.858769
1255.000000	99.273550
1254.000000	99.647576
1253.000000	99.999975
1252.000000	100.348798
1251.000000	100.700630
1250.000000	101.050811
1249.000000	101.392452
1248.000000	101.721788
1247.000000	102.032509
1246.000000	102.315915
1245.000000	102.572858
1244.000000	102.815494
1243.000000	103.055504
1242.000000	103.298993
1241.000000	103.552274
1240.000000	103.820184
1239.000000	104.095161
1238.000000	104.359548
1237.000000	104.599938
1236.000000	104.809831
1235.000000	104.981062
1234.000000	105.104197
1233.000000	105.180719
1232.000000	105.220071
1231.000000	105.220026
1230.000000	105.163549
1229.000000	105.022734
1228.000000	104.757472
1227.000000	104.297218
1226.000000	103.529470
1225.000000	102.321932
1224.000000	100.528251
1223.000000	98.018082
1222.000000	94.736062
1221.000000	90.754340
1220.000000	86.301020
1219.000000	81.697726
1218.000000	77.251153
1217.000000	73.163780
1216.000000	69.503146
1215.000000	66.225678
1214.000000	63.234634
1213.000000	60.453254
1212.000000	57.874342
1211.000000	55.556073
1210.000000	53.554118
1209.000000	51.904290
1208.000000	50.647859
1207.000000	49.816792
1206.000000	49.401854
1205.000000	49.334484
1204.000000	49.538187
1203.000000	49.970831
1202.000000	50.615064
1201.000000	51.489451
1200.000000	52.641332
1199.000000	54.115343
1198.000000	55.916028
1197.000000	58.003916
1196.000000	60.335068
1195.000000	62.857734
1194.000000	65.494265
1193.000000	68.157830
1192.000000	70.777319
1191.000000	73.293372
1190.000000	75.644258
1189.000000	77.780323
1188.000000	79.680120
1187.000000	81.343806
1186.000000	82.770912
1185.000000	83.970754
1184.000000	84.975417
1183.000000	85.816629
1182.000000	86.511795
1181.000000	87.061581
1180.000000	87.463140
1179.000000	87.716357
1178.000000	87.822396
1177.000000	87.802312
1176.000000	87.698342
1175.000000	87.556493
1174.000000	87.415463
1173.000000	87.311462
1172.000000	87.283355
1171.000000	87.357725
1170.000000	87.536052
1169.000000	87.803526
1168.000000	88.140068
1167.000000	88.510068
1166.000000	88.855156
1165.000000	89.114880
1164.000000	89.255483
1163.000000	89.284743
1162.000000	89.256349
1161.000000	89.265777
1160.000000	89.417006
1159.000000	89.765239
1158.000000	90.291412
1157.000000	90.933911
1156.000000	91.636444
1155.000000	92.361385
1154.000000	93.078878
1153.000000	93.765441
1152.000000	94.401488
1151.000000	94.958124
1150.000000	95.397345
1149.000000	95.700257
1148.000000	95.881115
1147.000000	95.971146
1146.000000	95.998434
1145.000000	95.979800
1144.000000	95.920285
1143.000000	95.792418
1142.000000	95.533274
1141.000000	95.076235
1140.000000	94.368480
1139.000000	93.373823
1138.000000	92.047321
1137.000000	90.331486
1136.000000	88.170154
1135.000000	85.489509
1134.000000	82.211101
1133.000000	78.272938
1132.000000	73.672703
1131.000000	68.516034
1130.000000	63.029703
1129.000000	57.561482
1128.000000	52.544989
1127.000000	48.396560
1126.000000	45.372462
1125.000000	43.518678
1124.000000	42.693019
1123.000000	42.592939
1122.000000	42.774337
1121.000000	42.706936
1120.000000	41.903790
1119.000000	40.024757
1118.000000	36.991562
1117.000000	33.165124
1116.000000	29.417745
1115.000000	26.903267
1114.000000	26.512460
1113.000000	28.434129
1112.000000	32.160661
1111.000000	36.791947
1110.000000	41.403546
1109.000000	45.301969
1108.000000	48.105490
1107.000000	49.649372
1106.000000	49.847427
1105.000000	48.723296
1104.000000	46.648359
1103.000000	44.496943
1102.000000	43.379039
1101.000000	44.057722
1100.000000	46.541759
1099.000000	50.181220
1098.000000	54.139260
1097.000000	57.833354
1096.000000	61.036484
1095.000000	63.740631
1094.000000	66.018136
1093.000000	67.971066
1092.000000	69.710336
1091.000000	71.324928
1090.000000	72.871751
1089.000000	74.396900
1088.000000	75.949543
1087.000000	77.552045
1086.000000	79.187150
1085.000000	80.815807
1084.000000	82.391437
1083.000000	83.865366
1082.000000	85.196929
1081.000000	86.376923
1080.000000	87.422330
1079.000000	88.343673
1078.000000	89.142538
1077.000000	89.820302
1076.000000	90.375305
1075.000000	90.784459
1074.000000	90.993969
1073.000000	90.951144
1072.000000	90.594552
1071.000000	89.837279
1070.000000	88.574233
1069.000000	86.683074
1068.000000	84.053637
1067.000000	80.580271
1066.000000	76.198466
1065.000000	70.969051
1064.000000	65.115367
1063.000000	59.019661
1062.000000	53.117516
1061.000000	47.752160
1060.000000	43.054202
1059.000000	38.905335
1058.000000	35.020673
1057.000000	31.177544
1056.000000	27.455558
1055.000000	24.255181
1054.000000	22.134276
1053.000000	21.526279
1052.000000	22.575279
1051.000000	25.108919
1050.000000	28.676941
1049.000000	32.745714
1048.000000	36.862396
1047.000000	40.736904
1046.000000	44.247652
1045.000000	47.393711
1044.000000	50.239762
1043.000000	52.839872
1042.000000	55.199473
1041.000000	57.299458
1040.000000	59.146559
1039.000000	60.769750
1038.000000	62.203196
1037.000000	63.488668
1036.000000	64.669648
1035.000000	65.781311
1034.000000	66.836223
1033.000000	67.839479
1032.000000	68.803912
1031.000000	69.737133
1030.000000	70.636671
1029.000000	71.502699
1028.000000	72.347862
1027.000000	73.186609
1026.000000	74.025573
1025.000000	74.872947
1024.000000	75.739611
1023.000000	76.622145
1022.000000	77.499331
1021.000000	78.345946
1020.000000	79.141651
1019.000000	79.855704
1018.000000	80.435030
1017.000000	80.817149
1016.000000	80.911044
1015.000000	80.590867
1014.000000	79.703096
1013.000000	78.097174
1012.000000	75.682522
1011.000000	72.442325
1010.000000	68.458218
1009.000000	63.907205
1008.000000	59.048021
1007.000000	54.270989
1006.000000	50.182622
1005.000000	47.541899
1004.000000	46.933219
1003.000000	48.356833
1002.000000	51.103149
1001.000000	54.113779
1000.000000	56.459179
999.000000	57.551039
998.000000	57.132856
997.000000	55.314753
996.000000	52.683140
995.000000	50.191648
994.000000	48.708237
993.000000	48.555290
992.000000	49.462213
991.000000	50.915986
990.000000	52.548715
989.000000	54.274125
988.000000	56.176222
987.000000	58.306044
986.000000	60.591838
985.000000	62.885337
984.000000	65.049454
983.000000	67.006832
982.000000	68.734672
981.000000	70.246973
980.000000	71.573166
979.000000	72.743382
978.000000	73.775905
977.000000	74.688880
976.000000	75.506789
975.000000	76.250119
974.000000	76.933734
973.000000	77.568407
972.000000	78.166127
971.000000	78.734162
970.000000	79.270462
969.000000	79.774198
968.000000	80.248399
967.000000	80.694299
966.000000	81.109946
965.000000	81.497718
964.000000	81.867761
963.000000	82.227309
962.000000	82.576177
961.000000	82.914618
960.000000	83.245633
959.000000	83.567953
958.000000	83.873462
957.000000	84.156571
956.000000	84.418720
955.000000	84.660676
954.000000	84.881309
953.000000	85.084946
952.000000	85.281726
951.000000	85.477962
950.000000	85.673013
949.000000	85.867729
948.000000	86.064865
947.000000	86.259662
946.000000	86.440602
945.000000	86.601723
944.000000	86.746493
943.000000	86.878436
942.000000	86.998552
941.000000	87.114116
940.000000	87.238552
939.000000	87.379357
938.000000	87.533647
937.000000	87.696643
936.000000	87.865244
935.000000	88.031911
934.000000	88.185980
933.000000	88.323988
932.000000	88.450782
931.000000	88.570239
930.000000	88.683698
929.000000	88.797031
928.000000	88.918542
927.000000	89.048543
926.000000	89.180353
925.000000	89.310554
924.000000	89.439155
923.000000	89.561123
922.000000	89.668652
921.000000	89.761967
920.000000	89.848037
919.000000	89.930772
918.000000	90.012233
917.000000	90.100281
916.000000	90.203222
915.000000	90.318379
914.000000	90.436628
913.000000	90.555618
912.000000	90.677294
911.000000	90.796647
910.000000	90.906129
909.000000	91.008161
908.000000	91.111020
907.000000	91.216252
906.000000	91.322511
905.000000	91.435018
904.000000	91.555119
903.000000	91.666218
902.000000	91.743983
901.000000	91.778719
900.000000	91.770656
899.000000	91.703302
898.000000	91.537706
897.000000	91.228858
896.000000	90.759499
895.000000	90.172361
894.000000	89.557782
893.000000	88.960780
892.000000	88.275674
891.000000	87.303223
890.000000	85.993195
889.000000	84.614107
888.000000	83.590219
887.000000	83.158867
886.000000	83.221452
885.000000	83.523971
884.000000	83.906216
883.000000	84.319134
882.000000	84.710729
881.000000	85.006850
880.000000	85.206447
879.000000	85.426778
878.000000	85.812897
877.000000	86.428097
876.000000	87.221190
875.000000	88.069559
874.000000	88.850511
873.000000	89.497667
872.000000	90.011493
871.000000	90.421552
870.000000	90.748814
869.000000	90.998989
868.000000	91.171573
867.000000	91.252164
866.000000	91.209695
865.000000	91.025341
864.000000	90.720259
863.000000	90.356458
862.000000	90.015702
861.000000	89.778058
860.000000	89.699310
859.000000	89.786508
858.000000	89.995242
857.000000	90.262542
856.000000	90.544150
855.000000	90.817959
854.000000	91.072343
853.000000	91.302835
852.000000	91.511832
851.000000	91.699971
850.000000	91.862253
849.000000	91.998288
848.000000	92.117576
847.000000	92.228415
846.000000	92.329014
845.000000	92.416489
844.000000	92.493798
843.000000	92.562633
842.000000	92.619076
841.000000	92.662297
840.000000	92.699871
839.000000	92.738137
838.000000	92.775965
837.000000	92.812533
836.000000	92.851434
835.000000	92.892848
834.000000	92.931029
833.000000	92.964240
832.000000	92.997227
831.000000	93.029313
830.000000	93.051313
829.000000	93.060011
828.000000	93.065987
827.000000	93.081414
826.000000	93.109610
825.000000	93.150588
824.000000	93.204303
823.000000	93.262344
822.000000	93.308881
821.000000	93.335535
820.000000	93.344884
819.000000	93.337215
818.000000	93.305679
817.000000	93.248181
816.000000	93.167357
815.000000	93.056131
814.000000	92.891876
813.000000	92.639084
812.000000	92.240895
811.000000	91.611391
810.000000	90.689535
809.000000	89.543522
808.000000	88.412209
807.000000	87.598675
806.000000	87.292504
805.000000	87.474672
804.000000	87.971188
803.000000	88.579085
802.000000	89.149830
801.000000	89.605932
800.000000	89.917261
799.000000	90.073639
798.000000	90.067701
797.000000	89.887878
796.000000	89.511897
795.000000	88.906988
794.000000	88.048724
793.000000	86.943214
792.000000	85.643733
791.000000	84.246978
790.000000	82.876393
789.000000	81.657893
788.000000	80.691109
787.000000	80.026382
786.000000	79.661017
785.000000	79.555343
784.000000	79.644834
783.000000	79.846276
782.000000	80.066892
781.000000	80.230060
780.000000	80.301853
779.000000	80.297569
778.000000	80.276083
777.000000	80.322259
776.000000	80.517577
775.000000	80.908194
774.000000	81.489485
773.000000	82.217193
772.000000	83.026808
771.000000	83.850357
770.000000	84.632731
769.000000	85.342822
768.000000	85.970921
767.000000	86.517220
766.000000	86.988621
765.000000	87.400326
764.000000	87.770101
763.000000	88.107212
762.000000	88.411748
761.000000	88.682090
760.000000	88.915282
759.000000	89.105123
758.000000	89.247462
757.000000	89.347983
756.000000	89.419106
755.000000	89.471647
754.000000	89.515722
753.000000	89.563942
752.000000	89.624381
751.000000	89.690790
750.000000	89.746015
749.000000	89.773475
748.000000	89.759834
747.000000	89.692258
746.000000	89.563494
745.000000	89.378298
744.000000	89.148729
743.000000	88.885323
742.000000	88.598285
741.000000	88.302239
740.000000	88.011438
739.000000	87.733822
738.000000	87.473615
737.000000	87.231082
736.000000	86.990869
735.000000	86.716433
734.000000	86.366866
733.000000	85.917371
732.000000	85.362679
731.000000	84.715415
730.000000	84.014781
729.000000	83.329321
728.000000	82.733757
727.000000	82.282348
726.000000	82.007374
725.000000	81.928286
724.000000	82.043666
723.000000	82.321893
722.000000	82.721136
721.000000	83.215281
720.000000	83.785546
719.000000	84.394925
718.000000	84.991986
717.000000	85.534839
716.000000	85.996786
715.000000	86.357645
714.000000	86.607295
713.000000	86.754450
712.000000	86.817866
711.000000	86.814510
710.000000	86.767563
709.000000	86.715547
708.000000	86.696571
707.000000	86.726697
706.000000	86.804667
705.000000	86.927245
704.000000	87.083146
703.000000	87.243111
702.000000	87.376659
701.000000	87.471523
700.000000	87.524532
699.000000	87.531022
698.000000	87.499093
697.000000	87.459448
696.000000	87.439872
695.000000	87.441775
694.000000	87.458384
693.000000	87.492362
692.000000	87.535176
691.000000	87.554296
690.000000	87.526134
689.000000	87.465240
688.000000	87.394887
687.000000	87.312733
686.000000	87.220063
685.000000	87.149902
684.000000	87.129301
683.000000	87.144885
682.000000	87.176608
681.000000	87.231319
680.000000	87.303673
679.000000	87.355339
678.000000	87.363670
677.000000	87.356860
676.000000	87.370749
675.000000	87.405085
674.000000	87.482498
673.000000	87.669960
672.000000	87.988694
671.000000	88.351610
670.000000	88.670046
669.000000	88.825663
668.000000	88.676546
667.000000	88.472023
666.000000	88.469164
665.000000	88.466607
664.000000	88.364660
663.000000	88.277200
662.000000	88.295937
661.000000	88.395289
660.000000	88.521433
659.000000	88.661735
658.000000	88.792820
657.000000	88.860157
656.000000	88.844826
655.000000	88.779896
654.000000	88.696065
653.000000	88.596978
652.000000	88.509897
651.000000	88.487469
650.000000	88.540966
649.000000	88.628056
648.000000	88.719617
647.000000	88.818106
646.000000	88.904635
645.000000	88.933880
644.000000	88.891017
643.000000	88.809449
642.000000	88.724788
641.000000	88.651196
640.000000	88.613793
639.000000	88.650684
638.000000	88.764417
637.000000	88.911108
636.000000	89.048159
635.000000	89.155673
634.000000	89.211513
633.000000	89.191381
632.000000	89.103245
631.000000	88.990264
630.000000	88.893855
629.000000	88.837374
628.000000	88.842269
627.000000	88.922962
626.000000	89.058138
625.000000	89.198257
624.000000	89.305718
623.000000	89.367628
622.000000	89.371018
621.000000	89.300249
620.000000	89.166900
619.000000	89.014271
618.000000	88.890256
617.000000	88.829559
616.000000	88.851779
615.000000	88.949135
614.000000	89.076783
613.000000	89.179864
612.000000	89.229274
611.000000	89.216613
610.000000	89.136809
609.000000	88.997448
608.000000	88.834737
607.000000	88.694241
606.000000	88.597044
605.000000	88.543897
604.000000	88.532213
603.000000	88.543819
602.000000	88.527681
601.000000	88.421041
600.000000	88.184378
599.000000	87.807825
598.000000	87.293032
597.000000	86.650124
596.000000	85.908355
595.000000	85.096991
594.000000	84.184030
593.000000	83.012069
592.000000	81.289755
591.000000	78.756907
590.000000	75.522752
589.000000	72.289483
588.000000	70.094674
587.000000	69.637097
586.000000	70.753212
585.000000	72.602645
584.000000	74.420600
583.000000	75.980957
582.000000	77.401262
581.000000	78.774034
580.000000	80.068654
579.000000	81.228267
578.000000	82.203612
577.000000	82.940988
576.000000	83.426618
575.000000	83.723170
574.000000	83.911545
573.000000	84.035373
572.000000	84.127484
571.000000	84.229617
570.000000	84.348661
569.000000	84.427110
568.000000	84.401958
567.000000	84.237186
566.000000	83.873832
565.000000	83.207321
564.000000	82.156464
563.000000	80.754729
562.000000	79.149809
561.000000	77.540314
560.000000	76.110346
559.000000	74.952869
558.000000	74.012195
557.000000	73.164305
556.000000	72.414961
555.000000	71.966582
554.000000	72.050253
553.000000	72.724402
552.000000	73.856517
551.000000	75.216184
550.000000	76.543479
549.000000	77.639599
548.000000	78.452649
547.000000	79.045233
546.000000	79.476119
545.000000	79.758086
544.000000	79.917562
543.000000	80.013051
542.000000	80.074634
541.000000	80.076584
540.000000	80.000830
539.000000	79.869420
538.000000	79.698470
537.000000	79.476771
536.000000	79.211426
535.000000	78.945494
534.000000	78.704027
533.000000	78.475713
532.000000	78.251517
531.000000	78.052970
530.000000	77.896225
529.000000	77.758958
528.000000	77.597517
527.000000	77.371015
526.000000	77.022541
525.000000	76.493729
524.000000	75.785719
523.000000	74.947938
522.000000	74.016243
521.000000	73.001338
520.000000	71.933906
519.000000	70.861841
518.000000	69.784006
517.000000	68.652522
516.000000	67.477952
515.000000	66.369403
514.000000	65.449239
513.000000	64.793260
512.000000	64.454514
511.000000	64.482700
510.000000	64.871139
509.000000	65.535018
508.000000	66.376854
507.000000	67.331583
506.000000	68.341691
505.000000	69.359830
504.000000	70.393766
503.000000	71.478974
502.000000	72.582695
501.000000	73.601007
500.000000	74.469755
499.000000	75.210417
498.000000	75.847497
497.000000	76.372031
496.000000	76.793796
495.000000	77.155542
494.000000	77.478598
493.000000	77.729277
492.000000	77.882782
491.000000	77.971212
490.000000	78.028887
489.000000	78.057862
488.000000	78.053882
487.000000	78.024250
486.000000	77.934196
485.000000	77.669525
484.000000	77.105770
483.000000	76.177410
482.000000	74.868650
481.000000	73.210254
480.000000	71.344108
479.000000	69.509213
478.000000	67.881201
477.000000	66.490560
476.000000	65.335906
475.000000	64.504643
474.000000	64.096003
473.000000	64.118321
472.000000	64.529055
471.000000	65.309012
470.000000	66.422353
469.000000	67.759803
468.000000	69.201373
467.000000	70.663357
466.000000	72.069619
465.000000	73.360543
464.000000	74.523097
463.000000	75.582569
462.000000	76.538625
461.000000	77.347803
460.000000	77.992533
459.000000	78.501397
458.000000	78.891841
457.000000	79.171763
456.000000	79.404176
455.000000	79.677759
454.000000	80.015587
453.000000	80.359670
452.000000	80.657757
451.000000	80.929333
450.000000	81.196280
449.000000	81.429019
448.000000	81.595874
447.000000	81.710697
446.000000	81.797901
445.000000	81.863663
444.000000	81.916152
443.000000	81.989171
442.000000	82.106560
441.000000	82.255853
440.000000	82.429881
439.000000	82.627638
438.000000	82.801105
437.000000	82.854579
436.000000	82.746670
435.000000	82.545143
434.000000	82.328999
433.000000	82.092013
432.000000	81.789356
431.000000	81.425226
430.000000	81.054426
429.000000	80.709585
428.000000	80.409018
427.000000	80.202534
426.000000	80.112472
425.000000	80.072977
424.000000	80.025744
423.000000	80.033350
422.000000	80.185628
421.000000	80.464771
420.000000	80.795738
419.000000	81.178074
418.000000	81.613872
417.000000	81.990410
416.000000	82.252258
415.000000	82.450315
414.000000	82.603689
413.000000	82.674322
412.000000	82.661051
411.000000	82.631696
410.000000	82.645743
409.000000	82.665004
408.000000	82.643573
407.000000	82.620330
406.000000	82.627050
405.000000	82.608624
404.000000	82.566667
403.000000	82.627604
402.000000	82.899335
401.000000	83.307706
400.000000	83.700086
