PE IR       SUBTECH     SPECTRUM    ASCII       PEDS        4.00        
   -1
23MS156-TRANS.asc
24/09/23
15:45:46.00
24/09/23
15:45:46.00
Administrator
Sample 1181 By Administrator Date Monday, September 23 2024
400.000000
#HDR
-1
-1
#GR
cm-1
%T
1.0
0.0
4000.000000
-1.000000
3601
8
80.684696
12.498763
#DATA
4000.000000	27.867281
3999.000000	27.869323
3998.000000	27.870849
3997.000000	27.871826
3996.000000	27.871663
3995.000000	27.870334
3994.000000	27.868454
3993.000000	27.866099
3992.000000	27.862539
3991.000000	27.857733
3990.000000	27.853202
3989.000000	27.850590
3988.000000	27.849993
3987.000000	27.850647
3986.000000	27.852718
3985.000000	27.857324
3984.000000	27.864903
3983.000000	27.874344
3982.000000	27.883847
3981.000000	27.892219
3980.000000	27.899112
3979.000000	27.904231
3978.000000	27.907171
3977.000000	27.908035
3976.000000	27.907661
3975.000000	27.906966
3974.000000	27.906805
3973.000000	27.908371
3972.000000	27.912987
3971.000000	27.921421
3970.000000	27.933722
3969.000000	27.949575
3968.000000	27.968497
3967.000000	27.990169
3966.000000	28.014287
3965.000000	28.040263
3964.000000	28.066994
3963.000000	28.093191
3962.000000	28.118417
3961.000000	28.143288
3960.000000	28.167746
3959.000000	28.190481
3958.000000	28.210765
3957.000000	28.229570
3956.000000	28.247588
3955.000000	28.263807
3954.000000	28.276577
3953.000000	28.285574
3952.000000	28.292167
3951.000000	28.298055
3950.000000	28.303581
3949.000000	28.307337
3948.000000	28.309090
3947.000000	28.311801
3946.000000	28.318589
3945.000000	28.328480
3944.000000	28.338722
3943.000000	28.351169
3942.000000	28.371629
3941.000000	28.400916
3940.000000	28.430530
3939.000000	28.450709
3938.000000	28.460763
3937.000000	28.468624
3936.000000	28.479669
3935.000000	28.490928
3934.000000	28.497084
3933.000000	28.498878
3932.000000	28.501446
3931.000000	28.505720
3930.000000	28.507777
3929.000000	28.506973
3928.000000	28.509811
3927.000000	28.520736
3926.000000	28.535153
3925.000000	28.548065
3924.000000	28.560435
3923.000000	28.571784
3922.000000	28.576064
3921.000000	28.571662
3920.000000	28.568613
3919.000000	28.577769
3918.000000	28.597599
3917.000000	28.619903
3916.000000	28.643117
3915.000000	28.670556
3914.000000	28.700578
3913.000000	28.728617
3912.000000	28.752919
3911.000000	28.773253
3910.000000	28.784822
3909.000000	28.781181
3908.000000	28.760391
3907.000000	28.727068
3906.000000	28.684273
3905.000000	28.632764
3904.000000	28.579732
3903.000000	28.538501
3902.000000	28.516250
3901.000000	28.508505
3900.000000	28.513959
3899.000000	28.542200
3898.000000	28.596169
3897.000000	28.659168
3896.000000	28.710651
3895.000000	28.747998
3894.000000	28.783621
3893.000000	28.820503
3892.000000	28.842274
3891.000000	28.841777
3890.000000	28.834343
3889.000000	28.835238
3888.000000	28.837718
3887.000000	28.824325
3886.000000	28.799105
3885.000000	28.790675
3884.000000	28.810619
3883.000000	28.837527
3882.000000	28.847830
3881.000000	28.846705
3880.000000	28.861829
3879.000000	28.906061
3878.000000	28.960142
3877.000000	28.994581
3876.000000	28.993082
3875.000000	28.965935
3874.000000	28.946933
3873.000000	28.958898
3872.000000	28.978234
3871.000000	28.956577
3870.000000	28.894828
3869.000000	28.852204
3868.000000	28.861571
3867.000000	28.890497
3866.000000	28.899272
3865.000000	28.901925
3864.000000	28.939237
3863.000000	29.012538
3862.000000	29.082828
3861.000000	29.121047
3860.000000	29.125441
3859.000000	29.108258
3858.000000	29.079556
3857.000000	29.050808
3856.000000	29.029950
3855.000000	29.002123
3854.000000	28.943880
3853.000000	28.880099
3852.000000	28.860432
3851.000000	28.890417
3850.000000	28.944978
3849.000000	29.012772
3848.000000	29.099047
3847.000000	29.199655
3846.000000	29.293534
3845.000000	29.356800
3844.000000	29.376726
3843.000000	29.363088
3842.000000	29.337401
3841.000000	29.308376
3840.000000	29.268021
3839.000000	29.214132
3838.000000	29.159236
3837.000000	29.121919
3836.000000	29.112784
3835.000000	29.133623
3834.000000	29.179643
3833.000000	29.241278
3832.000000	29.311930
3831.000000	29.389804
3830.000000	29.470530
3829.000000	29.543207
3828.000000	29.590276
3827.000000	29.600900
3826.000000	29.587286
3825.000000	29.573672
3824.000000	29.567698
3823.000000	29.550035
3822.000000	29.497405
3821.000000	29.433306
3820.000000	29.409635
3819.000000	29.434156
3818.000000	29.465035
3817.000000	29.469373
3816.000000	29.476380
3815.000000	29.536821
3814.000000	29.639871
3813.000000	29.725064
3812.000000	29.760786
3811.000000	29.773863
3810.000000	29.806953
3809.000000	29.859467
3808.000000	29.884051
3807.000000	29.855319
3806.000000	29.807569
3805.000000	29.780675
3804.000000	29.771370
3803.000000	29.745106
3802.000000	29.693686
3801.000000	29.664228
3800.000000	29.687972
3799.000000	29.736372
3798.000000	29.771261
3797.000000	29.796177
3796.000000	29.847359
3795.000000	29.939086
3794.000000	30.042186
3793.000000	30.120390
3792.000000	30.169371
3791.000000	30.207783
3790.000000	30.247140
3789.000000	30.282811
3788.000000	30.308386
3787.000000	30.322914
3786.000000	30.325540
3785.000000	30.315075
3784.000000	30.297529
3783.000000	30.282282
3782.000000	30.271321
3781.000000	30.260452
3780.000000	30.251114
3779.000000	30.256055
3778.000000	30.283054
3777.000000	30.319405
3776.000000	30.341545
3775.000000	30.341955
3774.000000	30.336700
3773.000000	30.342453
3772.000000	30.350975
3771.000000	30.341698
3770.000000	30.316483
3769.000000	30.299149
3768.000000	30.300274
3767.000000	30.304956
3766.000000	30.298277
3765.000000	30.290058
3764.000000	30.298925
3763.000000	30.319649
3762.000000	30.327044
3761.000000	30.313140
3760.000000	30.298873
3759.000000	30.297875
3758.000000	30.293308
3757.000000	30.268765
3756.000000	30.228986
3755.000000	30.184416
3754.000000	30.136047
3753.000000	30.085845
3752.000000	30.041104
3751.000000	29.990153
3750.000000	29.910467
3749.000000	29.814590
3748.000000	29.746513
3747.000000	29.731129
3746.000000	29.744128
3745.000000	29.756884
3744.000000	29.798244
3743.000000	29.891536
3742.000000	29.989772
3741.000000	30.037325
3740.000000	30.038444
3739.000000	30.041657
3738.000000	30.068163
3737.000000	30.090242
3736.000000	30.085436
3735.000000	30.076432
3734.000000	30.089353
3733.000000	30.116599
3732.000000	30.150040
3731.000000	30.201525
3730.000000	30.277572
3729.000000	30.359129
3728.000000	30.417974
3727.000000	30.449885
3726.000000	30.476764
3725.000000	30.508009
3724.000000	30.527872
3723.000000	30.527624
3722.000000	30.523766
3721.000000	30.536065
3720.000000	30.564793
3719.000000	30.591626
3718.000000	30.598754
3717.000000	30.586883
3716.000000	30.565939
3715.000000	30.538472
3714.000000	30.499863
3713.000000	30.450696
3712.000000	30.402289
3711.000000	30.369145
3710.000000	30.359112
3709.000000	30.370356
3708.000000	30.395637
3707.000000	30.428848
3706.000000	30.465792
3705.000000	30.502002
3704.000000	30.532261
3703.000000	30.552878
3702.000000	30.564017
3701.000000	30.570819
3700.000000	30.579291
3699.000000	30.586879
3698.000000	30.582376
3697.000000	30.562193
3696.000000	30.534907
3695.000000	30.501649
3694.000000	30.449343
3693.000000	30.372038
3692.000000	30.285494
3691.000000	30.207962
3690.000000	30.136709
3689.000000	30.064073
3688.000000	30.006105
3687.000000	29.986951
3686.000000	30.003017
3685.000000	30.028388
3684.000000	30.046980
3683.000000	30.061947
3682.000000	30.069152
3681.000000	30.043386
3680.000000	29.971371
3679.000000	29.876628
3678.000000	29.784165
3677.000000	29.672136
3676.000000	29.514557
3675.000000	29.354716
3674.000000	29.250494
3673.000000	29.192617
3672.000000	29.134769
3671.000000	29.064691
3670.000000	29.024905
3669.000000	29.046644
3668.000000	29.098890
3667.000000	29.134610
3666.000000	29.142530
3665.000000	29.140911
3664.000000	29.143223
3663.000000	29.138933
3662.000000	29.106449
3661.000000	29.038895
3660.000000	28.949990
3659.000000	28.855699
3658.000000	28.754761
3657.000000	28.632944
3656.000000	28.490748
3655.000000	28.342939
3654.000000	28.193998
3653.000000	28.034504
3652.000000	27.862201
3651.000000	27.693359
3650.000000	27.544653
3649.000000	27.409991
3648.000000	27.278164
3647.000000	27.163843
3646.000000	27.090615
3645.000000	27.059873
3644.000000	27.050869
3643.000000	27.042312
3642.000000	27.025498
3641.000000	26.997505
3640.000000	26.948395
3639.000000	26.867902
3638.000000	26.761512
3637.000000	26.644901
3636.000000	26.521420
3635.000000	26.379314
3634.000000	26.217452
3633.000000	26.053923
3632.000000	25.902995
3631.000000	25.753277
3630.000000	25.578863
3629.000000	25.386780
3628.000000	25.220317
3627.000000	25.094112
3626.000000	24.984449
3625.000000	24.876263
3624.000000	24.780006
3623.000000	24.707765
3622.000000	24.647954
3621.000000	24.570666
3620.000000	24.455922
3619.000000	24.310536
3618.000000	24.155548
3617.000000	24.005636
3616.000000	23.864000
3615.000000	23.729596
3614.000000	23.605149
3613.000000	23.495853
3612.000000	23.399994
3611.000000	23.304852
3610.000000	23.196933
3609.000000	23.077170
3608.000000	22.961023
3607.000000	22.859724
3606.000000	22.769234
3605.000000	22.681619
3604.000000	22.597268
3603.000000	22.520126
3602.000000	22.445471
3601.000000	22.362023
3600.000000	22.265186
3599.000000	22.158312
3598.000000	22.046411
3597.000000	21.933525
3596.000000	21.821645
3595.000000	21.709403
3594.000000	21.595023
3593.000000	21.478641
3592.000000	21.364210
3591.000000	21.256478
3590.000000	21.154642
3589.000000	21.049512
3588.000000	20.931422
3587.000000	20.802116
3586.000000	20.672935
3585.000000	20.554744
3584.000000	20.455484
3583.000000	20.380289
3582.000000	20.327266
3581.000000	20.285449
3580.000000	20.240444
3579.000000	20.182127
3578.000000	20.108356
3577.000000	20.023492
3576.000000	19.933754
3575.000000	19.842163
3574.000000	19.747855
3573.000000	19.649451
3572.000000	19.548791
3571.000000	19.451220
3570.000000	19.360120
3569.000000	19.270834
3568.000000	19.172478
3567.000000	19.058471
3566.000000	18.933329
3565.000000	18.808023
3564.000000	18.694540
3563.000000	18.603367
3562.000000	18.539702
3561.000000	18.498508
3560.000000	18.465654
3559.000000	18.426345
3558.000000	18.373567
3557.000000	18.310028
3556.000000	18.242633
3555.000000	18.174769
3554.000000	18.103526
3553.000000	18.024992
3552.000000	17.940145
3551.000000	17.853740
3550.000000	17.768519
3549.000000	17.683355
3548.000000	17.596511
3547.000000	17.507978
3546.000000	17.418998
3545.000000	17.331637
3544.000000	17.249137
3543.000000	17.175405
3542.000000	17.113118
3541.000000	17.061651
3540.000000	17.016104
3539.000000	16.968998
3538.000000	16.914687
3537.000000	16.853375
3536.000000	16.789907
3535.000000	16.728207
3534.000000	16.668145
3533.000000	16.607890
3532.000000	16.547321
3531.000000	16.487092
3530.000000	16.425796
3529.000000	16.359758
3528.000000	16.286308
3527.000000	16.206170
3526.000000	16.122863
3525.000000	16.041474
3524.000000	15.967631
3523.000000	15.905093
3522.000000	15.852999
3521.000000	15.806388
3520.000000	15.760026
3519.000000	15.711621
3518.000000	15.661503
3517.000000	15.609825
3516.000000	15.555362
3515.000000	15.498064
3514.000000	15.441596
3513.000000	15.390494
3512.000000	15.344587
3511.000000	15.298096
3510.000000	15.245321
3509.000000	15.185781
3508.000000	15.122928
3507.000000	15.059274
3506.000000	14.995056
3505.000000	14.930619
3504.000000	14.867780
3503.000000	14.808366
3502.000000	14.752652
3501.000000	14.699820
3500.000000	14.649332
3499.000000	14.601692
3498.000000	14.558137
3497.000000	14.519171
3496.000000	14.482887
3495.000000	14.445600
3494.000000	14.405200
3493.000000	14.362994
3492.000000	14.321276
3491.000000	14.280095
3490.000000	14.237446
3489.000000	14.191935
3488.000000	14.144500
3487.000000	14.097907
3486.000000	14.054970
3485.000000	14.016328
3484.000000	13.978803
3483.000000	13.936940
3482.000000	13.888057
3481.000000	13.835677
3480.000000	13.787063
3479.000000	13.747449
3478.000000	13.717103
3477.000000	13.692497
3476.000000	13.668720
3475.000000	13.641334
3474.000000	13.607338
3473.000000	13.565051
3472.000000	13.513829
3471.000000	13.455599
3470.000000	13.396773
3469.000000	13.346320
3468.000000	13.310160
3467.000000	13.287683
3466.000000	13.273655
3465.000000	13.261774
3464.000000	13.246190
3463.000000	13.222857
3462.000000	13.192033
3461.000000	13.158634
3460.000000	13.128335
3459.000000	13.103421
3458.000000	13.082744
3457.000000	13.063991
3456.000000	13.044851
3455.000000	13.023576
3454.000000	12.999901
3453.000000	12.975166
3452.000000	12.950902
3451.000000	12.927539
3450.000000	12.904755
3449.000000	12.882043
3448.000000	12.858619
3447.000000	12.833941
3446.000000	12.808764
3445.000000	12.784805
3444.000000	12.763204
3443.000000	12.743891
3442.000000	12.725902
3441.000000	12.707035
3440.000000	12.683819
3439.000000	12.654364
3438.000000	12.621915
3437.000000	12.593609
3436.000000	12.574876
3435.000000	12.565918
3434.000000	12.563004
3433.000000	12.561208
3432.000000	12.556452
3431.000000	12.547693
3430.000000	12.538390
3429.000000	12.533834
3428.000000	12.535822
3427.000000	12.541384
3426.000000	12.546742
3425.000000	12.550325
3424.000000	12.551498
3423.000000	12.549206
3422.000000	12.543536
3421.000000	12.536627
3420.000000	12.530435
3419.000000	12.525044
3418.000000	12.520081
3417.000000	12.515755
3416.000000	12.511648
3415.000000	12.506691
3414.000000	12.501519
3413.000000	12.498763
3412.000000	12.499852
3411.000000	12.503609
3410.000000	12.509212
3409.000000	12.518207
3408.000000	12.531589
3407.000000	12.546599
3406.000000	12.558114
3405.000000	12.561976
3404.000000	12.556510
3403.000000	12.543700
3402.000000	12.530853
3401.000000	12.528384
3400.000000	12.542590
3399.000000	12.570596
3398.000000	12.603344
3397.000000	12.632075
3396.000000	12.651357
3395.000000	12.659446
3394.000000	12.659566
3393.000000	12.660006
3392.000000	12.669781
3391.000000	12.692996
3390.000000	12.727478
3389.000000	12.767685
3388.000000	12.807843
3387.000000	12.844047
3386.000000	12.875422
3385.000000	12.903106
3384.000000	12.927822
3383.000000	12.949493
3382.000000	12.969287
3381.000000	12.989968
3380.000000	13.013238
3379.000000	13.038474
3378.000000	13.065030
3377.000000	13.093857
3376.000000	13.125438
3375.000000	13.157615
3374.000000	13.186758
3373.000000	13.210336
3372.000000	13.228195
3371.000000	13.243293
3370.000000	13.261764
3369.000000	13.290118
3368.000000	13.330732
3367.000000	13.380711
3366.000000	13.435206
3365.000000	13.489980
3364.000000	13.541248
3363.000000	13.586389
3362.000000	13.626403
3361.000000	13.665667
3360.000000	13.707754
3359.000000	13.752728
3358.000000	13.799046
3357.000000	13.845721
3356.000000	13.891351
3355.000000	13.933399
3354.000000	13.970520
3353.000000	14.004840
3352.000000	14.041048
3351.000000	14.083891
3350.000000	14.136154
3349.000000	14.196789
3348.000000	14.260273
3347.000000	14.319714
3346.000000	14.372025
3345.000000	14.419325
3344.000000	14.465326
3343.000000	14.511859
3342.000000	14.558949
3341.000000	14.606262
3340.000000	14.653929
3339.000000	14.703451
3338.000000	14.757830
3337.000000	14.818900
3336.000000	14.884408
3335.000000	14.949746
3334.000000	15.012650
3333.000000	15.074288
3332.000000	15.135967
3331.000000	15.197150
3330.000000	15.256792
3329.000000	15.314336
3328.000000	15.369323
3327.000000	15.422432
3326.000000	15.477003
3325.000000	15.536836
3324.000000	15.601874
3323.000000	15.668277
3322.000000	15.732996
3321.000000	15.795931
3320.000000	15.857612
3319.000000	15.917802
3318.000000	15.977071
3317.000000	16.036928
3316.000000	16.097443
3315.000000	16.156875
3314.000000	16.214148
3313.000000	16.269330
3312.000000	16.321399
3311.000000	16.368329
3310.000000	16.410212
3309.000000	16.449979
3308.000000	16.490453
3307.000000	16.533042
3306.000000	16.579651
3305.000000	16.632683
3304.000000	16.691635
3303.000000	16.752195
3302.000000	16.809969
3301.000000	16.863266
3300.000000	16.911876
3299.000000	16.955758
3298.000000	16.996151
3297.000000	17.035672
3296.000000	17.075841
3295.000000	17.115967
3294.000000	17.155366
3293.000000	17.194654
3292.000000	17.233836
3291.000000	17.270943
3290.000000	17.303188
3289.000000	17.328254
3288.000000	17.343919
3287.000000	17.348305
3286.000000	17.341258
3285.000000	17.323419
3284.000000	17.294075
3283.000000	17.251092
3282.000000	17.193179
3281.000000	17.120609
3280.000000	17.032732
3279.000000	16.927649
3278.000000	16.804423
3277.000000	16.663404
3276.000000	16.504677
3275.000000	16.327609
3274.000000	16.133460
3273.000000	15.927122
3272.000000	15.715977
3271.000000	15.509454
3270.000000	15.319251
3269.000000	15.157285
3268.000000	15.032280
3267.000000	14.950518
3266.000000	14.917836
3265.000000	14.938957
3264.000000	15.013199
3263.000000	15.132348
3262.000000	15.285145
3261.000000	15.458718
3260.000000	15.637800
3259.000000	15.806340
3258.000000	15.951673
3257.000000	16.065873
3256.000000	16.142362
3255.000000	16.173221
3254.000000	16.150140
3253.000000	16.066658
3252.000000	15.916237
3251.000000	15.694471
3250.000000	15.403118
3249.000000	15.051391
3248.000000	14.655528
3247.000000	14.236648
3246.000000	13.822125
3245.000000	13.444834
3244.000000	13.139325
3243.000000	12.937585
3242.000000	12.866845
3241.000000	12.941253
3240.000000	13.151586
3239.000000	13.466920
3238.000000	13.844565
3237.000000	14.244605
3236.000000	14.637105
3235.000000	15.004596
3234.000000	15.342992
3233.000000	15.654855
3232.000000	15.941755
3231.000000	16.202193
3230.000000	16.435792
3229.000000	16.645043
3228.000000	16.833135
3227.000000	17.002381
3226.000000	17.155581
3225.000000	17.296600
3224.000000	17.427507
3223.000000	17.548205
3222.000000	17.658438
3221.000000	17.758349
3220.000000	17.847347
3219.000000	17.924197
3218.000000	17.989234
3217.000000	18.043470
3216.000000	18.085980
3215.000000	18.115050
3214.000000	18.131265
3213.000000	18.137746
3212.000000	18.136941
3211.000000	18.129946
3210.000000	18.119012
3209.000000	18.107198
3208.000000	18.095921
3207.000000	18.085229
3206.000000	18.076495
3205.000000	18.072130
3204.000000	18.072463
3203.000000	18.075810
3202.000000	18.081721
3201.000000	18.091200
3200.000000	18.103520
3199.000000	18.116043
3198.000000	18.127584
3197.000000	18.139222
3196.000000	18.151651
3195.000000	18.164470
3194.000000	18.178426
3193.000000	18.195241
3192.000000	18.214696
3191.000000	18.234810
3190.000000	18.255320
3189.000000	18.278658
3188.000000	18.307220
3187.000000	18.342177
3186.000000	18.385314
3185.000000	18.438513
3184.000000	18.501083
3183.000000	18.570028
3182.000000	18.643022
3181.000000	18.718707
3180.000000	18.793767
3179.000000	18.862894
3178.000000	18.922274
3177.000000	18.971084
3176.000000	19.009841
3175.000000	19.040284
3174.000000	19.066746
3173.000000	19.094699
3172.000000	19.127376
3171.000000	19.166260
3170.000000	19.214694
3169.000000	19.277867
3168.000000	19.359010
3167.000000	19.457800
3166.000000	19.573339
3165.000000	19.705540
3164.000000	19.853981
3163.000000	20.018911
3162.000000	20.202753
3161.000000	20.408749
3160.000000	20.636529
3159.000000	20.881055
3158.000000	21.135762
3157.000000	21.393246
3156.000000	21.644792
3155.000000	21.882918
3154.000000	22.105657
3153.000000	22.316037
3152.000000	22.516856
3151.000000	22.707728
3150.000000	22.886509
3149.000000	23.051248
3148.000000	23.199958
3147.000000	23.331662
3146.000000	23.446861
3145.000000	23.545024
3144.000000	23.622114
3143.000000	23.671367
3142.000000	23.688001
3141.000000	23.670754
3140.000000	23.619686
3139.000000	23.535807
3138.000000	23.420961
3137.000000	23.277668
3136.000000	23.108200
3135.000000	22.916287
3134.000000	22.710493
3133.000000	22.502716
3132.000000	22.304686
3131.000000	22.127124
3130.000000	21.980650
3129.000000	21.872895
3128.000000	21.804357
3127.000000	21.769364
3126.000000	21.761254
3125.000000	21.774728
3124.000000	21.803613
3123.000000	21.842131
3122.000000	21.888593
3121.000000	21.945222
3120.000000	22.014018
3119.000000	22.094078
3118.000000	22.183865
3117.000000	22.282173
3116.000000	22.386254
3115.000000	22.491051
3114.000000	22.590148
3113.000000	22.675676
3112.000000	22.738138
3111.000000	22.770362
3110.000000	22.771151
3109.000000	22.743709
3108.000000	22.689566
3107.000000	22.606627
3106.000000	22.493293
3105.000000	22.350679
3104.000000	22.182698
3103.000000	21.996090
3102.000000	21.801948
3101.000000	21.614797
3100.000000	21.448549
3099.000000	21.314014
3098.000000	21.219054
3097.000000	21.168618
3096.000000	21.162771
3095.000000	21.198287
3094.000000	21.271409
3093.000000	21.378537
3092.000000	21.515697
3091.000000	21.678482
3090.000000	21.863660
3089.000000	22.066917
3088.000000	22.280587
3087.000000	22.496954
3086.000000	22.712715
3085.000000	22.928542
3084.000000	23.143982
3083.000000	23.355676
3082.000000	23.560283
3081.000000	23.756460
3080.000000	23.944404
3079.000000	24.125861
3078.000000	24.304243
3077.000000	24.481764
3076.000000	24.656762
3075.000000	24.825680
3074.000000	24.987226
3073.000000	25.142493
3072.000000	25.291831
3071.000000	25.434613
3070.000000	25.571792
3069.000000	25.706479
3068.000000	25.841884
3067.000000	25.980047
3066.000000	26.121906
3065.000000	26.266454
3064.000000	26.410410
3063.000000	26.550617
3062.000000	26.686200
3061.000000	26.817179
3060.000000	26.942313
3059.000000	27.060508
3058.000000	27.173343
3057.000000	27.283665
3056.000000	27.392407
3055.000000	27.498698
3054.000000	27.602274
3053.000000	27.704022
3052.000000	27.805000
3051.000000	27.906621
3050.000000	28.010508
3049.000000	28.116066
3048.000000	28.219420
3047.000000	28.316833
3046.000000	28.408358
3045.000000	28.496385
3044.000000	28.582211
3043.000000	28.666326
3042.000000	28.750472
3041.000000	28.836283
3040.000000	28.922275
3039.000000	29.004573
3038.000000	29.080498
3037.000000	29.150120
3036.000000	29.215829
3035.000000	29.282168
3034.000000	29.354652
3033.000000	29.436028
3032.000000	29.524049
3031.000000	29.614748
3030.000000	29.706503
3029.000000	29.799090
3028.000000	29.890803
3027.000000	29.979710
3026.000000	30.066826
3025.000000	30.155080
3024.000000	30.245581
3023.000000	30.336991
3022.000000	30.427889
3021.000000	30.517519
3020.000000	30.604960
3019.000000	30.689641
3018.000000	30.772339
3017.000000	30.854182
3016.000000	30.935589
3015.000000	31.017691
3014.000000	31.103664
3013.000000	31.196855
3012.000000	31.298183
3011.000000	31.406634
3010.000000	31.520644
3009.000000	31.637558
3008.000000	31.753278
3007.000000	31.864750
3006.000000	31.971923
3005.000000	32.075973
3004.000000	32.176717
3003.000000	32.272715
3002.000000	32.361976
3001.000000	32.438707
3000.000000	32.488826
2999.000000	32.488759
2998.000000	32.412196
2997.000000	32.247144
2996.000000	32.017350
2995.000000	31.789674
2994.000000	31.648261
2993.000000	31.648196
2992.000000	31.785079
2991.000000	32.007422
2990.000000	32.254391
2989.000000	32.484375
2988.000000	32.680945
2987.000000	32.845264
2986.000000	32.987244
2985.000000	33.116524
2984.000000	33.237532
2983.000000	33.350325
2982.000000	33.454143
2981.000000	33.546627
2980.000000	33.620165
2979.000000	33.661631
2978.000000	33.657747
2977.000000	33.604655
2976.000000	33.517495
2975.000000	33.433301
2974.000000	33.397766
2973.000000	33.441132
2972.000000	33.562837
2971.000000	33.738063
2970.000000	33.936526
2969.000000	34.134901
2968.000000	34.319471
2967.000000	34.485167
2966.000000	34.634009
2965.000000	34.770136
2964.000000	34.895605
2963.000000	35.009792
2962.000000	35.109783
2961.000000	35.186367
2960.000000	35.217114
2959.000000	35.165013
2958.000000	34.986664
2957.000000	34.656431
2956.000000	34.200213
2955.000000	33.714334
2954.000000	33.335948
2953.000000	33.170181
2952.000000	33.228950
2951.000000	33.432925
2950.000000	33.670587
2949.000000	33.858981
2948.000000	33.971293
2947.000000	34.029740
2946.000000	34.080859
2945.000000	34.166473
2944.000000	34.304296
2943.000000	34.487660
2942.000000	34.697802
2941.000000	34.915417
2940.000000	35.126031
2939.000000	35.322890
2938.000000	35.507738
2937.000000	35.686058
2936.000000	35.861239
2935.000000	36.033801
2934.000000	36.203760
2933.000000	36.370161
2932.000000	36.529865
2931.000000	36.680804
2930.000000	36.825243
2929.000000	36.966655
2928.000000	37.104391
2927.000000	37.234872
2926.000000	37.356595
2925.000000	37.470230
2924.000000	37.575439
2923.000000	37.671343
2922.000000	37.759009
2921.000000	37.839684
2920.000000	37.911326
2919.000000	37.970278
2918.000000	38.014999
2917.000000	38.045159
2916.000000	38.059402
2915.000000	38.058120
2914.000000	38.047446
2913.000000	38.036286
2912.000000	38.029782
2911.000000	38.028249
2910.000000	38.030882
2909.000000	38.037107
2908.000000	38.044922
2907.000000	38.051969
2906.000000	38.058360
2905.000000	38.065974
2904.000000	38.075556
2903.000000	38.087271
2902.000000	38.102505
2901.000000	38.122954
2900.000000	38.147716
2899.000000	38.174042
2898.000000	38.200476
2897.000000	38.226403
2896.000000	38.249871
2895.000000	38.268593
2894.000000	38.282571
2893.000000	38.293427
2892.000000	38.302164
2891.000000	38.310030
2890.000000	38.320269
2889.000000	38.336084
2888.000000	38.357507
2887.000000	38.382780
2886.000000	38.411865
2885.000000	38.446096
2884.000000	38.485417
2883.000000	38.528627
2882.000000	38.575445
2881.000000	38.625721
2880.000000	38.677353
2879.000000	38.727040
2878.000000	38.772113
2877.000000	38.809391
2876.000000	38.834073
2875.000000	38.843363
2874.000000	38.840558
2873.000000	38.832594
2872.000000	38.823655
2871.000000	38.813451
2870.000000	38.801359
2869.000000	38.790297
2868.000000	38.787208
2867.000000	38.801930
2866.000000	38.844464
2865.000000	38.919605
2864.000000	39.023616
2863.000000	39.147350
2862.000000	39.281897
2861.000000	39.420295
2860.000000	39.556707
2859.000000	39.687316
2858.000000	39.811348
2857.000000	39.928747
2856.000000	40.037406
2855.000000	40.134978
2854.000000	40.221426
2853.000000	40.297156
2852.000000	40.360023
2851.000000	40.406840
2850.000000	40.437159
2849.000000	40.453605
2848.000000	40.459887
2847.000000	40.460631
2846.000000	40.461593
2845.000000	40.466878
2844.000000	40.476513
2843.000000	40.488443
2842.000000	40.501876
2841.000000	40.517376
2840.000000	40.535397
2839.000000	40.556953
2838.000000	40.584045
2837.000000	40.616984
2836.000000	40.652639
2835.000000	40.687568
2834.000000	40.721506
2833.000000	40.755805
2832.000000	40.790219
2831.000000	40.823774
2830.000000	40.857333
2829.000000	40.892537
2828.000000	40.929225
2827.000000	40.966302
2826.000000	41.003988
2825.000000	41.042899
2824.000000	41.082071
2823.000000	41.120242
2822.000000	41.158051
2821.000000	41.196750
2820.000000	41.235850
2819.000000	41.274130
2818.000000	41.311768
2817.000000	41.349346
2816.000000	41.385911
2815.000000	41.420235
2814.000000	41.452865
2813.000000	41.484945
2812.000000	41.516334
2811.000000	41.546913
2810.000000	41.578271
2809.000000	41.611727
2808.000000	41.645965
2807.000000	41.678892
2806.000000	41.710621
2805.000000	41.742459
2804.000000	41.774209
2803.000000	41.804839
2802.000000	41.834675
2801.000000	41.864747
2800.000000	41.895078
2799.000000	41.925661
2798.000000	41.957847
2797.000000	41.992550
2796.000000	42.028260
2795.000000	42.062975
2794.000000	42.096860
2793.000000	42.131021
2792.000000	42.165206
2791.000000	42.199003
2790.000000	42.233863
2789.000000	42.271349
2788.000000	42.310410
2787.000000	42.348778
2786.000000	42.386036
2785.000000	42.423166
2784.000000	42.460238
2783.000000	42.496820
2782.000000	42.533627
2781.000000	42.571400
2780.000000	42.608952
2779.000000	42.644394
2778.000000	42.677472
2777.000000	42.708992
2776.000000	42.739180
2775.000000	42.768480
2774.000000	42.798604
2773.000000	42.830644
2772.000000	42.863248
2771.000000	42.894604
2770.000000	42.925007
2769.000000	42.955553
2768.000000	42.985822
2767.000000	43.014999
2766.000000	43.043925
2765.000000	43.073660
2764.000000	43.103068
2763.000000	43.130069
2762.000000	43.154262
2761.000000	43.176343
2760.000000	43.196113
2759.000000	43.213249
2758.000000	43.229115
2757.000000	43.245757
2756.000000	43.263893
2755.000000	43.283533
2754.000000	43.305307
2753.000000	43.329349
2752.000000	43.354220
2751.000000	43.378906
2750.000000	43.404789
2749.000000	43.433821
2748.000000	43.465895
2747.000000	43.499827
2746.000000	43.535397
2745.000000	43.572256
2744.000000	43.608223
2743.000000	43.640848
2742.000000	43.669666
2741.000000	43.695169
2740.000000	43.716893
2739.000000	43.734414
2738.000000	43.748995
2737.000000	43.762288
2736.000000	43.774702
2735.000000	43.787039
2734.000000	43.802389
2733.000000	43.824148
2732.000000	43.853141
2731.000000	43.888171
2730.000000	43.927854
2729.000000	43.970213
2728.000000	44.012108
2727.000000	44.051485
2726.000000	44.089211
2725.000000	44.126832
2724.000000	44.163981
2723.000000	44.199725
2722.000000	44.234662
2721.000000	44.269464
2720.000000	44.302869
2719.000000	44.333370
2718.000000	44.361679
2717.000000	44.389470
2716.000000	44.417025
2715.000000	44.444243
2714.000000	44.472489
2713.000000	44.503048
2712.000000	44.534842
2711.000000	44.565756
2710.000000	44.595139
2709.000000	44.623070
2708.000000	44.648577
2707.000000	44.670875
2706.000000	44.691206
2705.000000	44.711388
2704.000000	44.731547
2703.000000	44.751085
2702.000000	44.770594
2701.000000	44.790696
2700.000000	44.810345
2699.000000	44.828393
2698.000000	44.845695
2697.000000	44.863709
2696.000000	44.882287
2695.000000	44.900938
2694.000000	44.921090
2693.000000	44.944877
2692.000000	44.972579
2691.000000	45.003203
2690.000000	45.036370
2689.000000	45.071635
2688.000000	45.107127
2687.000000	45.140932
2686.000000	45.173059
2685.000000	45.204364
2684.000000	45.234630
2683.000000	45.263390
2682.000000	45.291307
2681.000000	45.318798
2680.000000	45.344537
2679.000000	45.367222
2678.000000	45.387635
2677.000000	45.407287
2676.000000	45.426355
2675.000000	45.444782
2674.000000	45.464113
2673.000000	45.486202
2672.000000	45.511200
2671.000000	45.538637
2670.000000	45.569169
2669.000000	45.603244
2668.000000	45.639242
2667.000000	45.674815
2666.000000	45.709075
2665.000000	45.741891
2664.000000	45.772357
2663.000000	45.799954
2662.000000	45.826069
2661.000000	45.852544
2660.000000	45.879696
2659.000000	45.907201
2658.000000	45.935485
2657.000000	45.964572
2656.000000	45.992929
2655.000000	46.019281
2654.000000	46.044419
2653.000000	46.069594
2652.000000	46.094546
2651.000000	46.118687
2650.000000	46.142636
2649.000000	46.166724
2648.000000	46.189304
2647.000000	46.208564
2646.000000	46.224973
2645.000000	46.240403
2644.000000	46.256257
2643.000000	46.274029
2642.000000	46.296002
2641.000000	46.323266
2640.000000	46.354092
2639.000000	46.385827
2638.000000	46.417212
2637.000000	46.447500
2636.000000	46.475102
2635.000000	46.499088
2634.000000	46.520564
2633.000000	46.540685
2632.000000	46.558608
2631.000000	46.573218
2630.000000	46.585464
2629.000000	46.597433
2628.000000	46.610551
2627.000000	46.626258
2626.000000	46.646775
2625.000000	46.673111
2624.000000	46.703523
2623.000000	46.735688
2622.000000	46.769056
2621.000000	46.803433
2620.000000	46.837079
2619.000000	46.868138
2618.000000	46.896613
2617.000000	46.923198
2616.000000	46.947637
2615.000000	46.969961
2614.000000	46.991794
2613.000000	47.014429
2612.000000	47.036921
2611.000000	47.057927
2610.000000	47.077913
2609.000000	47.097835
2608.000000	47.117148
2607.000000	47.134975
2606.000000	47.151897
2605.000000	47.168658
2604.000000	47.184456
2603.000000	47.198285
2602.000000	47.210587
2601.000000	47.222039
2600.000000	47.232320
2599.000000	47.241937
2598.000000	47.253673
2597.000000	47.270133
2596.000000	47.291022
2595.000000	47.314531
2594.000000	47.339905
2593.000000	47.366808
2592.000000	47.393915
2591.000000	47.420199
2590.000000	47.446432
2589.000000	47.473619
2588.000000	47.501126
2587.000000	47.528115
2586.000000	47.555213
2585.000000	47.582913
2584.000000	47.609739
2583.000000	47.633955
2582.000000	47.655842
2581.000000	47.676676
2580.000000	47.696918
2579.000000	47.717075
2578.000000	47.738779
2577.000000	47.762995
2576.000000	47.788422
2575.000000	47.813369
2574.000000	47.837934
2573.000000	47.862829
2572.000000	47.887736
2571.000000	47.912544
2570.000000	47.938505
2569.000000	47.966185
2568.000000	47.993703
2567.000000	48.018831
2566.000000	48.041534
2565.000000	48.062812
2564.000000	48.082633
2563.000000	48.100962
2562.000000	48.119200
2561.000000	48.138584
2560.000000	48.158336
2559.000000	48.177172
2558.000000	48.195389
2557.000000	48.213870
2556.000000	48.232526
2555.000000	48.251473
2554.000000	48.272208
2553.000000	48.295764
2552.000000	48.321020
2551.000000	48.346560
2550.000000	48.372662
2549.000000	48.399786
2548.000000	48.426703
2547.000000	48.452071
2546.000000	48.476510
2545.000000	48.501262
2544.000000	48.526180
2543.000000	48.550720
2542.000000	48.575397
2541.000000	48.600360
2540.000000	48.623953
2539.000000	48.644452
2538.000000	48.662059
2537.000000	48.677696
2536.000000	48.691286
2535.000000	48.703045
2534.000000	48.714840
2533.000000	48.728435
2532.000000	48.743626
2531.000000	48.759691
2530.000000	48.777276
2529.000000	48.797263
2528.000000	48.819297
2527.000000	48.843049
2526.000000	48.869409
2525.000000	48.898589
2524.000000	48.928626
2523.000000	48.957472
2522.000000	48.985058
2521.000000	49.011742
2520.000000	49.036523
2519.000000	49.058697
2518.000000	49.079654
2517.000000	49.100964
2516.000000	49.121890
2515.000000	49.140686
2514.000000	49.156860
2513.000000	49.170415
2512.000000	49.180547
2511.000000	49.187030
2510.000000	49.191821
2509.000000	49.197395
2508.000000	49.204534
2507.000000	49.213267
2506.000000	49.224414
2505.000000	49.238366
2504.000000	49.253742
2503.000000	49.269206
2502.000000	49.285412
2501.000000	49.303771
2500.000000	49.324516
2499.000000	49.347431
2498.000000	49.372907
2497.000000	49.400351
2496.000000	49.427092
2495.000000	49.450677
2494.000000	49.471138
2493.000000	49.489644
2492.000000	49.506583
2491.000000	49.522595
2490.000000	49.539716
2489.000000	49.559396
2488.000000	49.580489
2487.000000	49.600911
2486.000000	49.620070
2485.000000	49.638334
2484.000000	49.655772
2483.000000	49.673216
2482.000000	49.692986
2481.000000	49.716660
2480.000000	49.743170
2479.000000	49.770478
2478.000000	49.797647
2477.000000	49.823767
2476.000000	49.846744
2475.000000	49.865273
2474.000000	49.880927
2473.000000	49.896652
2472.000000	49.914390
2471.000000	49.935307
2470.000000	49.960509
2469.000000	49.989550
2468.000000	50.019625
2467.000000	50.048074
2466.000000	50.074683
2465.000000	50.100262
2464.000000	50.124502
2463.000000	50.146645
2462.000000	50.166678
2461.000000	50.184186
2460.000000	50.197489
2459.000000	50.205778
2458.000000	50.210781
2457.000000	50.215095
2456.000000	50.220275
2455.000000	50.227731
2454.000000	50.239614
2453.000000	50.256916
2452.000000	50.278095
2451.000000	50.301193
2450.000000	50.326067
2449.000000	50.353080
2448.000000	50.381452
2447.000000	50.410470
2446.000000	50.440622
2445.000000	50.471906
2444.000000	50.502417
2443.000000	50.530269
2442.000000	50.555460
2441.000000	50.578486
2440.000000	50.598809
2439.000000	50.616400
2438.000000	50.633164
2437.000000	50.651076
2436.000000	50.670262
2435.000000	50.690178
2434.000000	50.711075
2433.000000	50.732736
2432.000000	50.753420
2431.000000	50.771804
2430.000000	50.788481
2429.000000	50.804194
2428.000000	50.818204
2427.000000	50.829856
2426.000000	50.840128
2425.000000	50.849903
2424.000000	50.858442
2423.000000	50.865190
2422.000000	50.871584
2421.000000	50.879501
2420.000000	50.889352
2419.000000	50.901149
2418.000000	50.915714
2417.000000	50.933311
2416.000000	50.952577
2415.000000	50.972465
2414.000000	50.993668
2413.000000	51.016716
2412.000000	51.040544
2411.000000	51.064341
2410.000000	51.089023
2409.000000	51.115128
2408.000000	51.141056
2407.000000	51.165154
2406.000000	51.187826
2405.000000	51.209872
2404.000000	51.230502
2403.000000	51.248915
2402.000000	51.266135
2401.000000	51.283397
2400.000000	51.300090
2399.000000	51.314991
2398.000000	51.328206
2397.000000	51.340051
2396.000000	51.349597
2395.000000	51.355974
2394.000000	51.359671
2393.000000	51.361089
2392.000000	51.358914
2391.000000	51.351667
2390.000000	51.339419
2389.000000	51.322434
2388.000000	51.300084
2387.000000	51.272694
2386.000000	51.240599
2385.000000	51.211184
2384.000000	51.174349
2383.000000	51.151727
2382.000000	51.106348
2381.000000	51.109998
2380.000000	50.965333
2379.000000	50.809229
2378.000000	50.776522
2377.000000	50.673481
2376.000000	50.638757
2375.000000	50.499582
2374.000000	50.644863
2373.000000	50.780203
2372.000000	50.719982
2371.000000	50.773357
2370.000000	50.809581
2369.000000	50.894059
2368.000000	50.979456
2367.000000	51.073884
2366.000000	51.160932
2365.000000	51.240126
2364.000000	51.306400
2363.000000	51.353520
2362.000000	51.381380
2361.000000	51.394525
2360.000000	51.396489
2359.000000	51.389654
2358.000000	51.373083
2357.000000	51.347163
2356.000000	51.312735
2355.000000	51.276002
2354.000000	51.257202
2353.000000	51.276483
2352.000000	51.332123
2351.000000	51.394532
2350.000000	51.435586
2349.000000	51.447714
2348.000000	51.437518
2347.000000	51.426155
2346.000000	51.433684
2345.000000	51.463280
2344.000000	51.496974
2343.000000	51.523165
2342.000000	51.548928
2341.000000	51.572334
2340.000000	51.586373
2339.000000	51.590313
2338.000000	51.593481
2337.000000	51.602098
2336.000000	51.614524
2335.000000	51.627088
2334.000000	51.643160
2333.000000	51.666972
2332.000000	51.698133
2331.000000	51.728435
2330.000000	51.752434
2329.000000	51.770577
2328.000000	51.781400
2327.000000	51.786508
2326.000000	51.786853
2325.000000	51.789301
2324.000000	51.799489
2323.000000	51.819885
2322.000000	51.850381
2321.000000	51.884156
2320.000000	51.916018
2319.000000	51.942738
2318.000000	51.967909
2317.000000	51.994466
2316.000000	52.024237
2315.000000	52.057909
2314.000000	52.095712
2313.000000	52.133948
2312.000000	52.164774
2311.000000	52.182324
2310.000000	52.185691
2309.000000	52.177192
2308.000000	52.157916
2307.000000	52.130289
2306.000000	52.099420
2305.000000	52.071653
2304.000000	52.052108
2303.000000	52.045677
2302.000000	52.057662
2301.000000	52.090506
2300.000000	52.142154
2299.000000	52.208757
2298.000000	52.286639
2297.000000	52.370860
2296.000000	52.453754
2295.000000	52.529083
2294.000000	52.593714
2293.000000	52.646694
2292.000000	52.686763
2291.000000	52.714757
2290.000000	52.733996
2289.000000	52.747522
2288.000000	52.755001
2287.000000	52.754449
2286.000000	52.744375
2285.000000	52.722755
2284.000000	52.687181
2283.000000	52.638086
2282.000000	52.581486
2281.000000	52.526234
2280.000000	52.480344
2279.000000	52.449744
2278.000000	52.437767
2277.000000	52.442957
2276.000000	52.459933
2275.000000	52.484903
2274.000000	52.518880
2273.000000	52.564743
2272.000000	52.622823
2271.000000	52.691291
2270.000000	52.768120
2269.000000	52.850165
2268.000000	52.932676
2267.000000	53.011741
2266.000000	53.086078
2265.000000	53.155091
2264.000000	53.217252
2263.000000	53.272352
2262.000000	53.322638
2261.000000	53.370221
2260.000000	53.414559
2259.000000	53.454241
2258.000000	53.489316
2257.000000	53.520120
2256.000000	53.546575
2255.000000	53.570082
2254.000000	53.594800
2253.000000	53.624690
2252.000000	53.660882
2251.000000	53.702868
2250.000000	53.750068
2249.000000	53.800845
2248.000000	53.852074
2247.000000	53.901866
2246.000000	53.950950
2245.000000	54.000375
2244.000000	54.049646
2243.000000	54.098400
2242.000000	54.147295
2241.000000	54.195618
2240.000000	54.240113
2239.000000	54.278080
2238.000000	54.309900
2237.000000	54.337249
2236.000000	54.361132
2235.000000	54.383071
2234.000000	54.405969
2233.000000	54.431672
2232.000000	54.459274
2231.000000	54.487313
2230.000000	54.515746
2229.000000	54.544389
2228.000000	54.571586
2227.000000	54.596194
2226.000000	54.619160
2225.000000	54.641587
2224.000000	54.662933
2223.000000	54.682461
2222.000000	54.700454
2221.000000	54.716654
2220.000000	54.729493
2219.000000	54.738561
2218.000000	54.746110
2217.000000	54.754658
2216.000000	54.764792
2215.000000	54.776418
2214.000000	54.789895
2213.000000	54.804295
2212.000000	54.816576
2211.000000	54.824454
2210.000000	54.828860
2209.000000	54.832598
2208.000000	54.838405
2207.000000	54.849131
2206.000000	54.867044
2205.000000	54.890779
2204.000000	54.914535
2203.000000	54.931938
2202.000000	54.939611
2201.000000	54.936929
2200.000000	54.925588
2199.000000	54.911418
2198.000000	54.903926
2197.000000	54.911085
2196.000000	54.935041
2195.000000	54.973431
2194.000000	55.022614
2193.000000	55.078167
2192.000000	55.135096
2191.000000	55.190247
2190.000000	55.243478
2189.000000	55.295076
2188.000000	55.343510
2187.000000	55.386897
2186.000000	55.424521
2185.000000	55.455693
2184.000000	55.479000
2183.000000	55.494156
2182.000000	55.502960
2181.000000	55.507409
2180.000000	55.508771
2179.000000	55.509306
2178.000000	55.512576
2177.000000	55.520452
2176.000000	55.531900
2175.000000	55.545895
2174.000000	55.563470
2173.000000	55.585637
2172.000000	55.611528
2171.000000	55.640185
2170.000000	55.671992
2169.000000	55.706697
2168.000000	55.741944
2167.000000	55.775262
2166.000000	55.805617
2165.000000	55.831956
2164.000000	55.852637
2163.000000	55.867921
2162.000000	55.881017
2161.000000	55.895135
2160.000000	55.911235
2159.000000	55.929704
2158.000000	55.951950
2157.000000	55.978773
2156.000000	56.009357
2155.000000	56.043354
2154.000000	56.081938
2153.000000	56.125305
2152.000000	56.171121
2151.000000	56.216678
2150.000000	56.260429
2149.000000	56.300184
2148.000000	56.332228
2147.000000	56.354071
2146.000000	56.366231
2145.000000	56.370146
2144.000000	56.366398
2143.000000	56.356345
2142.000000	56.343335
2141.000000	56.330447
2140.000000	56.318584
2139.000000	56.307930
2138.000000	56.299479
2137.000000	56.293817
2136.000000	56.290700
2135.000000	56.291639
2134.000000	56.300837
2133.000000	56.321916
2132.000000	56.355107
2131.000000	56.398477
2130.000000	56.449624
2129.000000	56.504677
2128.000000	56.558049
2127.000000	56.605314
2126.000000	56.644981
2125.000000	56.676520
2124.000000	56.699022
2123.000000	56.713011
2122.000000	56.721381
2121.000000	56.726950
2120.000000	56.730789
2119.000000	56.734160
2118.000000	56.740092
2117.000000	56.751401
2116.000000	56.768712
2115.000000	56.791560
2114.000000	56.819291
2113.000000	56.849656
2112.000000	56.878684
2111.000000	56.903489
2110.000000	56.923461
2109.000000	56.937866
2108.000000	56.944702
2107.000000	56.943430
2106.000000	56.936935
2105.000000	56.929434
2104.000000	56.924302
2103.000000	56.924908
2102.000000	56.934870
2101.000000	56.955655
2100.000000	56.985522
2099.000000	57.022410
2098.000000	57.065870
2097.000000	57.114954
2096.000000	57.166693
2095.000000	57.217601
2094.000000	57.264799
2093.000000	57.304595
2092.000000	57.332147
2091.000000	57.344383
2090.000000	57.341982
2089.000000	57.328018
2088.000000	57.306912
2087.000000	57.285319
2086.000000	57.271110
2085.000000	57.269529
2084.000000	57.281433
2083.000000	57.305851
2082.000000	57.342004
2081.000000	57.388020
2080.000000	57.440391
2079.000000	57.496568
2078.000000	57.555826
2077.000000	57.616449
2076.000000	57.675145
2075.000000	57.729554
2074.000000	57.779440
2073.000000	57.824307
2072.000000	57.862020
2071.000000	57.891677
2070.000000	57.914745
2069.000000	57.932251
2068.000000	57.943787
2067.000000	57.950646
2066.000000	57.956989
2065.000000	57.966157
2064.000000	57.978260
2063.000000	57.993081
2062.000000	58.012683
2061.000000	58.039036
2060.000000	58.071329
2059.000000	58.107602
2058.000000	58.146992
2057.000000	58.188444
2056.000000	58.229389
2055.000000	58.267443
2054.000000	58.302134
2053.000000	58.333538
2052.000000	58.360850
2051.000000	58.384112
2050.000000	58.405276
2049.000000	58.425648
2048.000000	58.444520
2047.000000	58.461795
2046.000000	58.479219
2045.000000	58.498063
2044.000000	58.518260
2043.000000	58.540928
2042.000000	58.568945
2041.000000	58.603390
2040.000000	58.641764
2039.000000	58.681116
2038.000000	58.720456
2037.000000	58.758746
2036.000000	58.793484
2035.000000	58.823260
2034.000000	58.849444
2033.000000	58.873845
2032.000000	58.896782
2031.000000	58.918204
2030.000000	58.939198
2029.000000	58.960310
2028.000000	58.980837
2027.000000	59.000998
2026.000000	59.022842
2025.000000	59.048163
2024.000000	59.076514
2023.000000	59.107309
2022.000000	59.140330
2021.000000	59.173215
2020.000000	59.201881
2019.000000	59.224994
2018.000000	59.245747
2017.000000	59.267697
2016.000000	59.291404
2015.000000	59.316473
2014.000000	59.343882
2013.000000	59.373894
2012.000000	59.404008
2011.000000	59.431044
2010.000000	59.454201
2009.000000	59.474651
2008.000000	59.494278
2007.000000	59.515628
2006.000000	59.541437
2005.000000	59.573214
2004.000000	59.609812
2003.000000	59.650148
2002.000000	59.693538
2001.000000	59.738373
2000.000000	59.782198
1999.000000	59.823036
1998.000000	59.862133
1997.000000	59.900994
1996.000000	59.937194
1995.000000	59.966541
1994.000000	59.988652
1993.000000	60.006972
1992.000000	60.023658
1991.000000	60.037470
1990.000000	60.047301
1989.000000	60.055444
1988.000000	60.065715
1987.000000	60.079616
1986.000000	60.095357
1985.000000	60.111163
1984.000000	60.127973
1983.000000	60.148950
1982.000000	60.175433
1981.000000	60.205775
1980.000000	60.237330
1979.000000	60.267457
1978.000000	60.294798
1977.000000	60.318567
1976.000000	60.338757
1975.000000	60.357141
1974.000000	60.377075
1973.000000	60.401503
1972.000000	60.431269
1971.000000	60.465402
1970.000000	60.502446
1969.000000	60.541505
1968.000000	60.582880
1967.000000	60.627416
1966.000000	60.674134
1965.000000	60.719527
1964.000000	60.760924
1963.000000	60.799115
1962.000000	60.835606
1961.000000	60.868967
1960.000000	60.895693
1959.000000	60.914116
1958.000000	60.924861
1957.000000	60.927832
1956.000000	60.922834
1955.000000	60.911391
1954.000000	60.896789
1953.000000	60.881679
1952.000000	60.868491
1951.000000	60.862115
1950.000000	60.865955
1949.000000	60.879947
1948.000000	60.903839
1947.000000	60.937825
1946.000000	60.979042
1945.000000	61.022041
1944.000000	61.066136
1943.000000	61.117660
1942.000000	61.180573
1941.000000	61.248983
1940.000000	61.314791
1939.000000	61.377983
1938.000000	61.442726
1937.000000	61.507091
1936.000000	61.564207
1935.000000	61.611653
1934.000000	61.654028
1933.000000	61.694424
1932.000000	61.730982
1931.000000	61.763414
1930.000000	61.791430
1929.000000	61.815153
1928.000000	61.834664
1927.000000	61.850099
1926.000000	61.861105
1925.000000	61.865174
1924.000000	61.867033
1923.000000	61.876648
1922.000000	61.895163
1921.000000	61.912061
1920.000000	61.919426
1919.000000	61.923653
1918.000000	61.934431
1917.000000	61.947962
1916.000000	61.955214
1915.000000	61.958574
1914.000000	61.968942
1913.000000	61.988438
1912.000000	62.007900
1911.000000	62.022106
1910.000000	62.035050
1909.000000	62.053943
1908.000000	62.080192
1907.000000	62.113841
1906.000000	62.157826
1905.000000	62.209120
1904.000000	62.261155
1903.000000	62.308589
1902.000000	62.347826
1901.000000	62.378281
1900.000000	62.400756
1899.000000	62.418084
1898.000000	62.434905
1897.000000	62.453014
1896.000000	62.474867
1895.000000	62.505204
1894.000000	62.544363
1893.000000	62.584785
1892.000000	62.619440
1891.000000	62.651720
1890.000000	62.690544
1889.000000	62.736844
1888.000000	62.783073
1887.000000	62.825675
1886.000000	62.869488
1885.000000	62.918206
1884.000000	62.968533
1883.000000	63.015378
1882.000000	63.056985
1881.000000	63.095776
1880.000000	63.133743
1879.000000	63.170790
1878.000000	63.207742
1877.000000	63.243001
1876.000000	63.273449
1875.000000	63.301652
1874.000000	63.331939
1873.000000	63.362002
1872.000000	63.385223
1871.000000	63.399789
1870.000000	63.411456
1869.000000	63.424905
1868.000000	63.437945
1867.000000	63.447738
1866.000000	63.455947
1865.000000	63.464796
1864.000000	63.472641
1863.000000	63.475722
1862.000000	63.472319
1861.000000	63.465382
1860.000000	63.461882
1859.000000	63.469403
1858.000000	63.491856
1857.000000	63.527314
1856.000000	63.569456
1855.000000	63.614188
1854.000000	63.659281
1853.000000	63.704776
1852.000000	63.749811
1851.000000	63.790339
1850.000000	63.830397
1849.000000	63.876439
1848.000000	63.926707
1847.000000	63.971684
1846.000000	64.005662
1845.000000	64.033504
1844.000000	64.060806
1843.000000	64.083603
1842.000000	64.096032
1841.000000	64.104494
1840.000000	64.119255
1839.000000	64.142665
1838.000000	64.167095
1837.000000	64.183015
1836.000000	64.194582
1835.000000	64.213863
1834.000000	64.243162
1833.000000	64.274271
1832.000000	64.298723
1831.000000	64.319622
1830.000000	64.349038
1829.000000	64.383031
1828.000000	64.404970
1827.000000	64.413017
1826.000000	64.425426
1825.000000	64.455066
1824.000000	64.492367
1823.000000	64.524719
1822.000000	64.555214
1821.000000	64.593037
1820.000000	64.636013
1819.000000	64.676923
1818.000000	64.715157
1817.000000	64.752526
1816.000000	64.791223
1815.000000	64.829177
1814.000000	64.863200
1813.000000	64.892356
1812.000000	64.916696
1811.000000	64.941871
1810.000000	64.969798
1809.000000	64.996817
1808.000000	65.025306
1807.000000	65.061264
1806.000000	65.103479
1805.000000	65.140460
1804.000000	65.165280
1803.000000	65.180413
1802.000000	65.193118
1801.000000	65.207590
1800.000000	65.219441
1799.000000	65.228007
1798.000000	65.236654
1797.000000	65.248939
1796.000000	65.266603
1795.000000	65.283215
1794.000000	65.288214
1793.000000	65.277218
1792.000000	65.257859
1791.000000	65.247708
1790.000000	65.257108
1789.000000	65.284320
1788.000000	65.323252
1787.000000	65.368077
1786.000000	65.414042
1785.000000	65.455132
1784.000000	65.488802
1783.000000	65.509648
1782.000000	65.517357
1781.000000	65.523461
1780.000000	65.531393
1779.000000	65.539681
1778.000000	65.547209
1777.000000	65.561870
1776.000000	65.590932
1775.000000	65.625272
1774.000000	65.652595
1773.000000	65.672297
1772.000000	65.685187
1771.000000	65.688111
1770.000000	65.687578
1769.000000	65.699377
1768.000000	65.740225
1767.000000	65.807289
1766.000000	65.874920
1765.000000	65.920477
1764.000000	65.942926
1763.000000	65.956406
1762.000000	65.973746
1761.000000	65.990719
1760.000000	65.995532
1759.000000	65.991999
1758.000000	65.991716
1757.000000	66.009267
1756.000000	66.043428
1755.000000	66.078498
1754.000000	66.107263
1753.000000	66.134808
1752.000000	66.165041
1751.000000	66.195181
1750.000000	66.217892
1749.000000	66.229836
1748.000000	66.243192
1747.000000	66.260458
1746.000000	66.271892
1745.000000	66.269898
1744.000000	66.256240
1743.000000	66.239842
1742.000000	66.214829
1741.000000	66.162230
1740.000000	66.088295
1739.000000	66.028877
1738.000000	65.997647
1737.000000	65.975235
1736.000000	65.941946
1735.000000	65.899460
1734.000000	65.855428
1733.000000	65.797052
1732.000000	65.721411
1731.000000	65.662054
1730.000000	65.643952
1729.000000	65.652436
1728.000000	65.656053
1727.000000	65.639767
1726.000000	65.611764
1725.000000	65.575995
1724.000000	65.530776
1723.000000	65.491089
1722.000000	65.464472
1721.000000	65.437557
1720.000000	65.392993
1719.000000	65.328674
1718.000000	65.244237
1717.000000	65.126450
1716.000000	64.989803
1715.000000	64.880501
1714.000000	64.820503
1713.000000	64.787771
1712.000000	64.755193
1711.000000	64.719248
1710.000000	64.683168
1709.000000	64.639139
1708.000000	64.569959
1707.000000	64.471162
1706.000000	64.360191
1705.000000	64.257058
1704.000000	64.172616
1703.000000	64.097584
1702.000000	64.001938
1701.000000	63.857101
1700.000000	63.678616
1699.000000	63.507502
1698.000000	63.350837
1697.000000	63.191677
1696.000000	63.029755
1695.000000	62.878221
1694.000000	62.733112
1693.000000	62.587828
1692.000000	62.448856
1691.000000	62.318421
1690.000000	62.186209
1689.000000	62.053726
1688.000000	61.935320
1687.000000	61.826876
1686.000000	61.686765
1685.000000	61.447073
1684.000000	61.111327
1683.000000	60.778320
1682.000000	60.508991
1681.000000	60.295616
1680.000000	60.124754
1679.000000	59.981636
1678.000000	59.839699
1677.000000	59.662178
1676.000000	59.428083
1675.000000	59.159927
1674.000000	58.905321
1673.000000	58.682084
1672.000000	58.473817
1671.000000	58.261557
1670.000000	58.021116
1669.000000	57.747368
1668.000000	57.474607
1667.000000	57.242177
1666.000000	57.053498
1665.000000	56.871293
1664.000000	56.655608
1663.000000	56.400681
1662.000000	56.131844
1661.000000	55.879318
1660.000000	55.653282
1659.000000	55.461731
1658.000000	55.314113
1657.000000	55.212975
1656.000000	55.137679
1655.000000	55.049241
1654.000000	54.872236
1653.000000	54.550361
1652.000000	54.194040
1651.000000	53.933841
1650.000000	53.775710
1649.000000	53.676240
1648.000000	53.572694
1647.000000	53.417815
1646.000000	53.230215
1645.000000	53.056077
1644.000000	52.918158
1643.000000	52.820227
1642.000000	52.754035
1641.000000	52.702532
1640.000000	52.650225
1639.000000	52.602018
1638.000000	52.564310
1637.000000	52.515058
1636.000000	52.417123
1635.000000	52.285750
1634.000000	52.187484
1633.000000	52.148538
1632.000000	52.162583
1631.000000	52.218756
1630.000000	52.301206
1629.000000	52.391373
1628.000000	52.479999
1627.000000	52.574459
1626.000000	52.688752
1625.000000	52.829146
1624.000000	52.991534
1623.000000	53.172426
1622.000000	53.369269
1621.000000	53.581926
1620.000000	53.816234
1619.000000	54.089271
1618.000000	54.419153
1617.000000	54.792136
1616.000000	55.152193
1615.000000	55.465958
1614.000000	55.766536
1613.000000	56.097528
1612.000000	56.462129
1611.000000	56.828538
1610.000000	57.169365
1609.000000	57.482152
1608.000000	57.769945
1607.000000	58.027193
1606.000000	58.251506
1605.000000	58.440148
1604.000000	58.565639
1603.000000	58.580681
1602.000000	58.433796
1601.000000	58.056305
1600.000000	57.336348
1599.000000	56.149725
1598.000000	54.422953
1597.000000	52.196709
1596.000000	49.701352
1595.000000	47.392043
1594.000000	45.781718
1593.000000	45.121138
1592.000000	45.296236
1591.000000	46.031751
1590.000000	47.108387
1589.000000	48.374157
1588.000000	49.672386
1587.000000	50.860767
1586.000000	51.895963
1585.000000	52.867962
1584.000000	53.887260
1583.000000	54.951679
1582.000000	55.956158
1581.000000	56.815211
1580.000000	57.550725
1579.000000	58.267598
1578.000000	59.077774
1577.000000	60.010461
1576.000000	60.936139
1575.000000	61.658986
1574.000000	62.145544
1573.000000	62.513199
1572.000000	62.858383
1571.000000	63.214763
1570.000000	63.569579
1569.000000	63.891740
1568.000000	64.158356
1567.000000	64.375682
1566.000000	64.579904
1565.000000	64.801956
1564.000000	65.036153
1563.000000	65.255667
1562.000000	65.455136
1561.000000	65.647180
1560.000000	65.838305
1559.000000	65.991565
1558.000000	66.084600
1557.000000	66.150626
1556.000000	66.226895
1555.000000	66.340251
1554.000000	66.494068
1553.000000	66.659553
1552.000000	66.799909
1551.000000	66.919321
1550.000000	67.049778
1549.000000	67.196916
1548.000000	67.333860
1547.000000	67.435621
1546.000000	67.515674
1545.000000	67.607575
1544.000000	67.717827
1543.000000	67.823725
1542.000000	67.907893
1541.000000	67.961440
1540.000000	67.981724
1539.000000	67.982218
1538.000000	67.984542
1537.000000	67.999115
1536.000000	68.034632
1535.000000	68.088943
1534.000000	68.159598
1533.000000	68.245207
1532.000000	68.327936
1531.000000	68.399339
1530.000000	68.467612
1529.000000	68.539222
1528.000000	68.611663
1527.000000	68.678965
1526.000000	68.748675
1525.000000	68.831682
1524.000000	68.914273
1523.000000	68.974934
1522.000000	69.016231
1521.000000	69.060914
1520.000000	69.109070
1519.000000	69.142571
1518.000000	69.178222
1517.000000	69.249024
1516.000000	69.352943
1515.000000	69.453366
1514.000000	69.530243
1513.000000	69.592176
1512.000000	69.645231
1511.000000	69.687400
1510.000000	69.718627
1509.000000	69.745189
1508.000000	69.769220
1507.000000	69.791233
1506.000000	69.823422
1505.000000	69.869278
1504.000000	69.907247
1503.000000	69.940880
1502.000000	69.989787
1501.000000	70.058319
1500.000000	70.132166
1499.000000	70.192023
1498.000000	70.235300
1497.000000	70.267931
1496.000000	70.297909
1495.000000	70.330327
1494.000000	70.363997
1493.000000	70.399450
1492.000000	70.434456
1491.000000	70.467980
1490.000000	70.506832
1489.000000	70.558943
1488.000000	70.624701
1487.000000	70.703015
1486.000000	70.786143
1485.000000	70.869854
1484.000000	70.949609
1483.000000	71.017277
1482.000000	71.081738
1481.000000	71.153673
1480.000000	71.229398
1479.000000	71.294854
1478.000000	71.351368
1477.000000	71.412985
1476.000000	71.487432
1475.000000	71.563375
1474.000000	71.629431
1473.000000	71.699335
1472.000000	71.784156
1471.000000	71.875033
1470.000000	71.961884
1469.000000	72.046853
1468.000000	72.129452
1467.000000	72.196317
1466.000000	72.227993
1465.000000	72.219410
1464.000000	72.172227
1463.000000	72.093031
1462.000000	71.999825
1461.000000	71.917493
1460.000000	71.867631
1459.000000	71.856159
1458.000000	71.881802
1457.000000	71.937925
1456.000000	71.994927
1455.000000	71.992019
1454.000000	71.885726
1453.000000	71.651336
1452.000000	71.262930
1451.000000	70.705793
1450.000000	69.942274
1449.000000	68.871789
1448.000000	67.425398
1447.000000	65.744662
1446.000000	64.189845
1445.000000	63.158443
1444.000000	62.906002
1443.000000	63.454034
1442.000000	64.557857
1441.000000	65.835066
1440.000000	66.973454
1439.000000	67.834696
1438.000000	68.414889
1437.000000	68.771130
1436.000000	69.001030
1435.000000	69.205071
1434.000000	69.445195
1433.000000	69.741766
1432.000000	70.079287
1431.000000	70.411635
1430.000000	70.700381
1429.000000	70.936661
1428.000000	71.127094
1427.000000	71.271495
1426.000000	71.373905
1425.000000	71.459020
1424.000000	71.542856
1423.000000	71.625061
1422.000000	71.702205
1421.000000	71.775445
1420.000000	71.847652
1419.000000	71.926800
1418.000000	72.026068
1417.000000	72.148221
1416.000000	72.287314
1415.000000	72.431969
1414.000000	72.570411
1413.000000	72.694087
1412.000000	72.794866
1411.000000	72.871570
1410.000000	72.934502
1409.000000	72.988013
1408.000000	73.024498
1407.000000	73.036250
1406.000000	73.028673
1405.000000	73.023561
1404.000000	73.032724
1403.000000	73.052256
1402.000000	73.076634
1401.000000	73.106392
1400.000000	73.145196
1399.000000	73.195359
1398.000000	73.257143
1397.000000	73.324398
1396.000000	73.386352
1395.000000	73.427437
1394.000000	73.429179
1393.000000	73.369948
1392.000000	73.228758
1391.000000	73.006390
1390.000000	72.725216
1389.000000	72.405553
1388.000000	72.062433
1387.000000	71.738325
1386.000000	71.508007
1385.000000	71.431653
1384.000000	71.523530
1383.000000	71.764333
1382.000000	72.109460
1381.000000	72.495360
1380.000000	72.865810
1379.000000	73.191184
1378.000000	73.466255
1377.000000	73.691694
1376.000000	73.863786
1375.000000	73.981636
1374.000000	74.053616
1373.000000	74.078288
1372.000000	74.017985
1371.000000	73.786670
1370.000000	73.245832
1369.000000	72.236551
1368.000000	70.700869
1367.000000	68.839444
1366.000000	67.091154
1365.000000	65.921084
1364.000000	65.618863
1363.000000	66.174752
1362.000000	67.274555
1361.000000	68.507636
1360.000000	69.608082
1359.000000	70.495822
1358.000000	71.193565
1357.000000	71.755055
1356.000000	72.223036
1355.000000	72.614323
1354.000000	72.934421
1353.000000	73.193482
1352.000000	73.402758
1351.000000	73.563761
1350.000000	73.676330
1349.000000	73.755352
1348.000000	73.816916
1347.000000	73.867541
1346.000000	73.913864
1345.000000	73.970597
1344.000000	74.045892
1343.000000	74.130404
1342.000000	74.213289
1341.000000	74.299675
1340.000000	74.400548
1339.000000	74.513854
1338.000000	74.627597
1337.000000	74.732835
1336.000000	74.822330
1335.000000	74.887123
1334.000000	74.925262
1333.000000	74.945441
1332.000000	74.954814
1331.000000	74.951055
1330.000000	74.932900
1329.000000	74.909534
1328.000000	74.891022
1327.000000	74.877926
1326.000000	74.867526
1325.000000	74.862361
1324.000000	74.862259
1323.000000	74.855660
1322.000000	74.824570
1321.000000	74.745140
1320.000000	74.565977
1319.000000	74.195900
1318.000000	73.547770
1317.000000	72.631000
1316.000000	71.614562
1315.000000	70.782295
1314.000000	70.376390
1313.000000	70.446938
1312.000000	70.851161
1311.000000	71.397387
1310.000000	71.979782
1309.000000	72.570711
1308.000000	73.141991
1307.000000	73.647023
1306.000000	74.062669
1305.000000	74.406866
1304.000000	74.703399
1303.000000	74.961163
1302.000000	75.189454
1301.000000	75.402902
1300.000000	75.600056
1299.000000	75.763289
1298.000000	75.884583
1297.000000	75.969044
1296.000000	76.014052
1295.000000	76.000206
1294.000000	75.895554
1293.000000	75.638045
1292.000000	75.138818
1291.000000	74.385406
1290.000000	73.566542
1289.000000	73.020988
1288.000000	72.995769
1287.000000	73.450483
1286.000000	74.118266
1285.000000	74.747501
1284.000000	75.242849
1283.000000	75.619947
1282.000000	75.914867
1281.000000	76.148184
1280.000000	76.321472
1279.000000	76.412338
1278.000000	76.378042
1277.000000	76.148318
1276.000000	75.594914
1275.000000	74.533814
1274.000000	72.865778
1273.000000	70.805246
1272.000000	68.947736
1271.000000	67.977901
1270.000000	68.208390
1269.000000	69.385419
1268.000000	70.927212
1267.000000	72.337587
1266.000000	73.416673
1265.000000	74.190764
1264.000000	74.751015
1263.000000	75.165478
1262.000000	75.477494
1261.000000	75.715798
1260.000000	75.891370
1259.000000	76.005649
1258.000000	76.070461
1257.000000	76.101810
1256.000000	76.105275
1255.000000	76.082512
1254.000000	76.044570
1253.000000	76.007975
1252.000000	75.980396
1251.000000	75.963767
1250.000000	75.966936
1249.000000	76.002333
1248.000000	76.071979
1247.000000	76.168413
1246.000000	76.286208
1245.000000	76.420202
1244.000000	76.555622
1243.000000	76.672888
1242.000000	76.762472
1241.000000	76.824168
1240.000000	76.854628
1239.000000	76.848084
1238.000000	76.809007
1237.000000	76.749800
1236.000000	76.676883
1235.000000	76.591714
1234.000000	76.502555
1233.000000	76.423032
1232.000000	76.359112
1231.000000	76.309021
1230.000000	76.274442
1229.000000	76.259156
1228.000000	76.256776
1227.000000	76.251255
1226.000000	76.229271
1225.000000	76.182070
1224.000000	76.095948
1223.000000	75.956010
1222.000000	75.760900
1221.000000	75.522110
1220.000000	75.250173
1219.000000	74.947539
1218.000000	74.614228
1217.000000	74.246047
1216.000000	73.824182
1215.000000	73.321964
1214.000000	72.721385
1213.000000	72.020817
1212.000000	71.233068
1211.000000	70.389084
1210.000000	69.547103
1209.000000	68.786909
1208.000000	68.183043
1207.000000	67.767972
1206.000000	67.509072
1205.000000	67.321240
1204.000000	67.130390
1203.000000	66.944453
1202.000000	66.861329
1201.000000	67.001121
1200.000000	67.407261
1199.000000	68.012720
1198.000000	68.691164
1197.000000	69.331454
1196.000000	69.881710
1195.000000	70.346586
1194.000000	70.765668
1193.000000	71.186448
1192.000000	71.638260
1191.000000	72.123747
1190.000000	72.629872
1189.000000	73.138166
1188.000000	73.623900
1187.000000	74.060975
1186.000000	74.434272
1185.000000	74.743632
1184.000000	74.992811
1183.000000	75.181896
1182.000000	75.315443
1181.000000	75.404029
1180.000000	75.457065
1179.000000	75.482330
1178.000000	75.492218
1177.000000	75.502707
1176.000000	75.522858
1175.000000	75.555433
1174.000000	75.607344
1173.000000	75.688645
1172.000000	75.799536
1171.000000	75.928356
1170.000000	76.063684
1169.000000	76.198661
1168.000000	76.323269
1167.000000	76.424672
1166.000000	76.498562
1165.000000	76.550159
1164.000000	76.582070
1163.000000	76.590402
1162.000000	76.575354
1161.000000	76.543630
1160.000000	76.498828
1159.000000	76.441333
1158.000000	76.379129
1157.000000	76.328610
1156.000000	76.301755
1155.000000	76.300929
1154.000000	76.325856
1153.000000	76.375061
1152.000000	76.438386
1151.000000	76.499639
1150.000000	76.550818
1149.000000	76.594882
1148.000000	76.633160
1147.000000	76.660112
1146.000000	76.671920
1145.000000	76.668586
1144.000000	76.645674
1143.000000	76.593785
1142.000000	76.511003
1141.000000	76.407585
1140.000000	76.296013
1139.000000	76.185942
1138.000000	76.088694
1137.000000	76.015948
1136.000000	75.969731
1135.000000	75.940338
1134.000000	75.916383
1133.000000	75.890056
1132.000000	75.851406
1131.000000	75.786939
1130.000000	75.685799
1129.000000	75.542361
1128.000000	75.346608
1127.000000	75.076213
1126.000000	74.703740
1125.000000	74.193862
1124.000000	73.502833
1123.000000	72.571785
1122.000000	71.316166
1121.000000	69.622386
1120.000000	67.330925
1119.000000	64.283533
1118.000000	60.460320
1117.000000	56.173971
1116.000000	52.157791
1115.000000	49.381491
1114.000000	48.580637
1113.000000	49.839046
1112.000000	52.569551
1111.000000	55.841481
1110.000000	58.836415
1109.000000	61.119056
1108.000000	62.600864
1107.000000	63.301498
1106.000000	63.151100
1105.000000	62.044354
1104.000000	60.134492
1103.000000	58.050741
1102.000000	56.690894
1101.000000	56.685319
1100.000000	58.021299
1099.000000	60.151890
1098.000000	62.429945
1097.000000	64.457774
1096.000000	66.118507
1095.000000	67.446816
1094.000000	68.524410
1093.000000	69.431003
1092.000000	70.214377
1091.000000	70.892493
1090.000000	71.479534
1089.000000	71.994047
1088.000000	72.445881
1087.000000	72.831138
1086.000000	73.157987
1085.000000	73.450740
1084.000000	73.723112
1083.000000	73.972846
1082.000000	74.201742
1081.000000	74.421797
1080.000000	74.635148
1079.000000	74.831164
1078.000000	75.010688
1077.000000	75.189399
1076.000000	75.374421
1075.000000	75.558757
1074.000000	75.741850
1073.000000	75.932572
1072.000000	76.126195
1071.000000	76.301356
1070.000000	76.445415
1069.000000	76.560103
1068.000000	76.640818
1067.000000	76.669498
1066.000000	76.633109
1065.000000	76.526656
1064.000000	76.324251
1063.000000	75.978677
1062.000000	75.441783
1061.000000	74.670795
1060.000000	73.616878
1059.000000	72.216866
1058.000000	70.425061
1057.000000	68.236209
1056.000000	65.713797
1055.000000	63.043787
1054.000000	60.569726
1053.000000	58.720825
1052.000000	57.849887
1051.000000	58.077701
1050.000000	59.234984
1049.000000	60.973255
1048.000000	62.912652
1047.000000	64.762579
1046.000000	66.382552
1045.000000	67.752896
1044.000000	68.912015
1043.000000	69.901636
1042.000000	70.755057
1041.000000	71.496600
1040.000000	72.139278
1039.000000	72.685335
1038.000000	73.144934
1037.000000	73.540841
1036.000000	73.887371
1035.000000	74.188931
1034.000000	74.455779
1033.000000	74.708346
1032.000000	74.959255
1031.000000	75.205446
1030.000000	75.444885
1029.000000	75.681094
1028.000000	75.909986
1027.000000	76.122242
1026.000000	76.324827
1025.000000	76.541333
1024.000000	76.785344
1023.000000	77.049775
1022.000000	77.325614
1021.000000	77.610154
1020.000000	77.892228
1019.000000	78.150159
1018.000000	78.370448
1017.000000	78.551627
1016.000000	78.678806
1015.000000	78.719439
1014.000000	78.641073
1013.000000	78.409751
1012.000000	77.973709
1011.000000	77.239273
1010.000000	76.073214
1009.000000	74.305600
1008.000000	71.794496
1007.000000	68.623844
1006.000000	65.286155
1005.000000	62.602011
1004.000000	61.320694
1003.000000	61.682279
1002.000000	63.297186
1001.000000	65.429762
1000.000000	67.368377
999.000000	68.610845
998.000000	68.898947
997.000000	68.254340
996.000000	67.058369
995.000000	65.984480
994.000000	65.676866
993.000000	66.375779
992.000000	67.830230
991.000000	69.550193
990.000000	71.144122
989.000000	72.458775
988.000000	73.500242
987.000000	74.314980
986.000000	74.952904
985.000000	75.461620
984.000000	75.872442
983.000000	76.197195
982.000000	76.457525
981.000000	76.690255
980.000000	76.920332
979.000000	77.153003
978.000000	77.391853
977.000000	77.645173
976.000000	77.905982
975.000000	78.149399
974.000000	78.360068
973.000000	78.540754
972.000000	78.692050
971.000000	78.805457
970.000000	78.882069
969.000000	78.936469
968.000000	78.972902
967.000000	78.981148
966.000000	78.961151
965.000000	78.930907
964.000000	78.905674
963.000000	78.890546
962.000000	78.897749
961.000000	78.947713
960.000000	79.044837
959.000000	79.171216
958.000000	79.310248
957.000000	79.456184
956.000000	79.596542
955.000000	79.709655
954.000000	79.788267
953.000000	79.844167
952.000000	79.882658
951.000000	79.893558
950.000000	79.872234
949.000000	79.827999
948.000000	79.764988
947.000000	79.678995
946.000000	79.581066
945.000000	79.500904
944.000000	79.459625
943.000000	79.458867
942.000000	79.500563
941.000000	79.592510
940.000000	79.727722
939.000000	79.879835
938.000000	80.029020
937.000000	80.172975
936.000000	80.305580
935.000000	80.409120
934.000000	80.475188
933.000000	80.510130
932.000000	80.510923
931.000000	80.461750
930.000000	80.360848
929.000000	80.229989
928.000000	80.090400
927.000000	79.952563
926.000000	79.835880
925.000000	79.770572
924.000000	79.769665
923.000000	79.819522
922.000000	79.906543
921.000000	80.027829
920.000000	80.171105
919.000000	80.309897
918.000000	80.430279
917.000000	80.538328
916.000000	80.630950
915.000000	80.684696
914.000000	80.683161
913.000000	80.631452
912.000000	80.532766
911.000000	80.382553
910.000000	80.195314
909.000000	80.010796
908.000000	79.860190
907.000000	79.750057
906.000000	79.685989
905.000000	79.680890
904.000000	79.726747
903.000000	79.786544
902.000000	79.833250
901.000000	79.872782
900.000000	79.919151
899.000000	79.969745
898.000000	80.012817
897.000000	80.024596
896.000000	79.954138
895.000000	79.751234
894.000000	79.419444
893.000000	78.993750
892.000000	78.445984
891.000000	77.692233
890.000000	76.757414
889.000000	75.895139
888.000000	75.448874
887.000000	75.579847
886.000000	76.147506
885.000000	76.853626
884.000000	77.474602
883.000000	77.948477
882.000000	78.317280
881.000000	78.632915
880.000000	78.909251
879.000000	79.129821
878.000000	79.277221
877.000000	79.344043
876.000000	79.325374
875.000000	79.220516
874.000000	79.045702
873.000000	78.836359
872.000000	78.626962
871.000000	78.439200
870.000000	78.290279
869.000000	78.195403
868.000000	78.155916
867.000000	78.159408
866.000000	78.199619
865.000000	78.282366
864.000000	78.408061
863.000000	78.560357
862.000000	78.718436
861.000000	78.863856
860.000000	78.969423
859.000000	79.000272
858.000000	78.938856
857.000000	78.796212
856.000000	78.592556
855.000000	78.346120
854.000000	78.083053
853.000000	77.837947
852.000000	77.632152
851.000000	77.466452
850.000000	77.341034
849.000000	77.266319
848.000000	77.247970
847.000000	77.279021
846.000000	77.356131
845.000000	77.482215
844.000000	77.644599
843.000000	77.805594
842.000000	77.926409
841.000000	77.985140
840.000000	77.967025
839.000000	77.859847
838.000000	77.671630
837.000000	77.434362
836.000000	77.176917
835.000000	76.912275
834.000000	76.654482
833.000000	76.427646
832.000000	76.247123
831.000000	76.111677
830.000000	76.024052
829.000000	76.001808
828.000000	76.055614
827.000000	76.171484
826.000000	76.326817
825.000000	76.501981
824.000000	76.665292
823.000000	76.769542
822.000000	76.783853
821.000000	76.711588
820.000000	76.567629
819.000000	76.360242
818.000000	76.103739
817.000000	75.825346
816.000000	75.540263
815.000000	75.239581
814.000000	74.910344
813.000000	74.540909
812.000000	74.092707
811.000000	73.490761
810.000000	72.686550
809.000000	71.741350
808.000000	70.839994
807.000000	70.206378
806.000000	69.984734
805.000000	70.165957
804.000000	70.607779
803.000000	71.132878
802.000000	71.618650
801.000000	72.015199
800.000000	72.304525
799.000000	72.476312
798.000000	72.541494
797.000000	72.533630
796.000000	72.484029
795.000000	72.414236
794.000000	72.355955
793.000000	72.351218
792.000000	72.423453
791.000000	72.565853
790.000000	72.762563
789.000000	72.998775
788.000000	73.244824
787.000000	73.456273
786.000000	73.604095
785.000000	73.686748
784.000000	73.706947
783.000000	73.658491
782.000000	73.544710
781.000000	73.384927
780.000000	73.192082
779.000000	72.966893
778.000000	72.722053
777.000000	72.492357
776.000000	72.310508
775.000000	72.192611
774.000000	72.151518
773.000000	72.200878
772.000000	72.333074
771.000000	72.512766
770.000000	72.704382
769.000000	72.888958
768.000000	73.048962
767.000000	73.160065
766.000000	73.211136
765.000000	73.209612
764.000000	73.156247
763.000000	73.034980
762.000000	72.839424
761.000000	72.588806
760.000000	72.308673
759.000000	72.019477
758.000000	71.752401
757.000000	71.551627
756.000000	71.444601
755.000000	71.426834
754.000000	71.483170
753.000000	71.603386
752.000000	71.767472
751.000000	71.940178
750.000000	72.096805
749.000000	72.235088
748.000000	72.350377
747.000000	72.419296
746.000000	72.421003
745.000000	72.352873
744.000000	72.214817
743.000000	72.002614
742.000000	71.731215
741.000000	71.443141
740.000000	71.179462
739.000000	70.960540
738.000000	70.801453
737.000000	70.721083
736.000000	70.721080
735.000000	70.777281
734.000000	70.866005
733.000000	70.979060
732.000000	71.100934
731.000000	71.193851
730.000000	71.220212
729.000000	71.157848
728.000000	70.984890
727.000000	70.680262
726.000000	70.260448
725.000000	69.795689
724.000000	69.372308
723.000000	69.051045
722.000000	68.864249
721.000000	68.820907
720.000000	68.893869
719.000000	69.028345
718.000000	69.185032
717.000000	69.361076
716.000000	69.561439
715.000000	69.776508
714.000000	69.998870
713.000000	70.233430
712.000000	70.471100
711.000000	70.675179
710.000000	70.812292
709.000000	70.874309
708.000000	70.858492
707.000000	70.755844
706.000000	70.576522
705.000000	70.359808
704.000000	70.141461
703.000000	69.931434
702.000000	69.737659
701.000000	69.584962
700.000000	69.490504
699.000000	69.448171
698.000000	69.454797
697.000000	69.526388
696.000000	69.668839
695.000000	69.855598
694.000000	70.053498
693.000000	70.246370
692.000000	70.413142
691.000000	70.515206
690.000000	70.529682
689.000000	70.471141
688.000000	70.361391
687.000000	70.203020
686.000000	70.005118
685.000000	69.802565
684.000000	69.622930
683.000000	69.462594
682.000000	69.319877
681.000000	69.222627
680.000000	69.197702
679.000000	69.240470
678.000000	69.340085
677.000000	69.500007
676.000000	69.711629
675.000000	69.926191
674.000000	70.098322
673.000000	70.221421
672.000000	70.258696
671.000000	70.101920
670.000000	69.675278
669.000000	69.105368
668.000000	68.649192
667.000000	68.516072
666.000000	68.758327
665.000000	69.075160
664.000000	69.190740
663.000000	69.139489
662.000000	69.060173
661.000000	69.053230
660.000000	69.131776
659.000000	69.274495
658.000000	69.460767
657.000000	69.667867
656.000000	69.867441
655.000000	70.027918
654.000000	70.132300
653.000000	70.187883
652.000000	70.201708
651.000000	70.165843
650.000000	70.077161
649.000000	69.949953
648.000000	69.795625
647.000000	69.615550
646.000000	69.425417
645.000000	69.264700
644.000000	69.166328
643.000000	69.136329
642.000000	69.173113
641.000000	69.280949
640.000000	69.449279
639.000000	69.641713
638.000000	69.824698
637.000000	69.989376
636.000000	70.130525
635.000000	70.228030
634.000000	70.270794
633.000000	70.272556
632.000000	70.241653
631.000000	70.162821
630.000000	70.028893
629.000000	69.863057
628.000000	69.692588
627.000000	69.529950
626.000000	69.395955
625.000000	69.329038
624.000000	69.347718
623.000000	69.430011
622.000000	69.549869
621.000000	69.704817
620.000000	69.888697
619.000000	70.070520
618.000000	70.225283
617.000000	70.357824
616.000000	70.469774
615.000000	70.535243
614.000000	70.535731
613.000000	70.486777
612.000000	70.402850
611.000000	70.274561
610.000000	70.107863
609.000000	69.947047
608.000000	69.830825
607.000000	69.759137
606.000000	69.728541
605.000000	69.760005
604.000000	69.860893
603.000000	69.995891
602.000000	70.133087
601.000000	70.280452
600.000000	70.443168
599.000000	70.584584
598.000000	70.665957
597.000000	70.680723
596.000000	70.612325
595.000000	70.397807
594.000000	69.948311
593.000000	69.153473
592.000000	67.840713
591.000000	65.879421
590.000000	63.451974
589.000000	61.175726
588.000000	59.824061
587.000000	59.850104
586.000000	61.106107
585.000000	62.981921
584.000000	64.839589
583.000000	66.331144
582.000000	67.421493
581.000000	68.226929
580.000000	68.848913
579.000000	69.318473
578.000000	69.646584
577.000000	69.862560
576.000000	69.990500
575.000000	70.036485
574.000000	70.016227
573.000000	69.969097
572.000000	69.921224
571.000000	69.870953
570.000000	69.826606
569.000000	69.822220
568.000000	69.875966
567.000000	69.970645
566.000000	70.095059
565.000000	70.266310
564.000000	70.486761
563.000000	70.717774
562.000000	70.924046
561.000000	71.104966
560.000000	71.254818
559.000000	71.337624
558.000000	71.338787
557.000000	71.294963
556.000000	71.239041
555.000000	71.161627
554.000000	71.056856
553.000000	70.956176
552.000000	70.885232
551.000000	70.834941
550.000000	70.805568
549.000000	70.832373
548.000000	70.935423
547.000000	71.088682
546.000000	71.267557
545.000000	71.478746
544.000000	71.710990
543.000000	71.909677
542.000000	72.037371
541.000000	72.113586
540.000000	72.158972
539.000000	72.154892
538.000000	72.093857
537.000000	72.014265
536.000000	71.941683
535.000000	71.852262
534.000000	71.732864
533.000000	71.623115
532.000000	71.561604
531.000000	71.540426
530.000000	71.549657
529.000000	71.612481
528.000000	71.738518
527.000000	71.886316
526.000000	72.013297
525.000000	72.118419
524.000000	72.194563
523.000000	72.191101
522.000000	72.070536
521.000000	71.846342
520.000000	71.526687
519.000000	71.071290
518.000000	70.449008
517.000000	69.708099
516.000000	68.946902
515.000000	68.266548
514.000000	67.778157
513.000000	67.596285
512.000000	67.762171
511.000000	68.203652
510.000000	68.802208
509.000000	69.473203
508.000000	70.156122
507.000000	70.769944
506.000000	71.255588
505.000000	71.624158
504.000000	71.907225
503.000000	72.099016
502.000000	72.198070
501.000000	72.244103
500.000000	72.257585
499.000000	72.206856
498.000000	72.080870
497.000000	71.936771
496.000000	71.829760
495.000000	71.755726
494.000000	71.706603
493.000000	71.719972
492.000000	71.815775
491.000000	71.945281
490.000000	72.057531
489.000000	72.159902
488.000000	72.260550
487.000000	72.315493
486.000000	72.286979
485.000000	72.190732
484.000000	72.031683
483.000000	71.749220
482.000000	71.293910
481.000000	70.685054
480.000000	69.927169
479.000000	68.953181
478.000000	67.722507
477.000000	66.341583
476.000000	65.036510
475.000000	64.063534
474.000000	63.661112
473.000000	63.981508
472.000000	64.934726
471.000000	66.175404
470.000000	67.394672
469.000000	68.505940
468.000000	69.502697
467.000000	70.313999
466.000000	70.890176
465.000000	71.294462
464.000000	71.595486
463.000000	71.777248
462.000000	71.838615
461.000000	71.871793
460.000000	71.944588
459.000000	72.026299
458.000000	72.105231
457.000000	72.262881
456.000000	72.521979
455.000000	72.776655
454.000000	72.974141
453.000000	73.196534
452.000000	73.499159
451.000000	73.790608
450.000000	73.983964
449.000000	74.129182
448.000000	74.279213
447.000000	74.370118
446.000000	74.355526
445.000000	74.321823
444.000000	74.338507
443.000000	74.337351
442.000000	74.268962
441.000000	74.232473
440.000000	74.296678
439.000000	74.372557
438.000000	74.392515
437.000000	74.459315
436.000000	74.671469
435.000000	74.940935
434.000000	75.159196
433.000000	75.378155
432.000000	75.645683
431.000000	75.848466
430.000000	75.902470
429.000000	75.918048
428.000000	75.983637
427.000000	75.986793
426.000000	75.841417
425.000000	75.684568
424.000000	75.642495
423.000000	75.606184
422.000000	75.469696
421.000000	75.369812
420.000000	75.467817
419.000000	75.678518
418.000000	75.863700
417.000000	76.131185
416.000000	76.526152
415.000000	76.855827
414.000000	77.006266
413.000000	77.135062
412.000000	77.349813
411.000000	77.453688
410.000000	77.309710
409.000000	77.134118
408.000000	77.080245
407.000000	76.925284
406.000000	76.537486
405.000000	76.242091
404.000000	76.298004
403.000000	76.457105
402.000000	76.433625
401.000000	76.420738
400.000000	76.649079
