PE IR       SUBTECH     SPECTRUM    ASCII       PEDS        4.00        
   -1
23ms073_cis.asc
24/10/22
14:57:28.00
24/10/22
14:57:28.00
Administrator
Sample 1326 By Administrator Date Tuesday, October 22 2024
400.000000
#HDR
-1
-1
#GR
cm-1
%T
1.0
0.0
4000.000000
-1.000000
3601
8
82.947721
3.398282
#DATA
4000.000000	47.318326
3999.000000	47.303892
3998.000000	47.292796
3997.000000	47.284355
3996.000000	47.278002
3995.000000	47.273547
3994.000000	47.271358
3993.000000	47.271849
3992.000000	47.274811
3991.000000	47.279632
3990.000000	47.286290
3989.000000	47.295980
3988.000000	47.310357
3987.000000	47.330171
3986.000000	47.355247
3985.000000	47.385332
3984.000000	47.420268
3983.000000	47.459459
3982.000000	47.501771
3981.000000	47.546340
3980.000000	47.593002
3979.000000	47.642032
3978.000000	47.693467
3977.000000	47.746418
3976.000000	47.799430
3975.000000	47.851044
3974.000000	47.900101
3973.000000	47.946102
3972.000000	47.989376
3971.000000	48.031033
3970.000000	48.072015
3969.000000	48.112972
3968.000000	48.154975
3967.000000	48.199365
3966.000000	48.247496
3965.000000	48.300358
3964.000000	48.358185
3963.000000	48.420271
3962.000000	48.485588
3961.000000	48.553232
3960.000000	48.622785
3959.000000	48.694055
3958.000000	48.765460
3957.000000	48.834994
3956.000000	48.902274
3955.000000	48.968028
3954.000000	49.033001
3953.000000	49.096708
3952.000000	49.158232
3951.000000	49.216849
3950.000000	49.271744
3949.000000	49.323262
3948.000000	49.373016
3947.000000	49.423335
3946.000000	49.475699
3945.000000	49.528468
3944.000000	49.576881
3943.000000	49.616488
3942.000000	49.650067
3941.000000	49.686678
3940.000000	49.731961
3939.000000	49.784577
3938.000000	49.839206
3937.000000	49.892763
3936.000000	49.947332
3935.000000	50.004584
3934.000000	50.061733
3933.000000	50.111920
3932.000000	50.151426
3931.000000	50.182852
3930.000000	50.209809
3929.000000	50.235635
3928.000000	50.261947
3927.000000	50.288939
3926.000000	50.314512
3925.000000	50.333400
3924.000000	50.345785
3923.000000	50.359449
3922.000000	50.378657
3921.000000	50.399417
3920.000000	50.416100
3919.000000	50.429661
3918.000000	50.444498
3917.000000	50.460490
3916.000000	50.475674
3915.000000	50.490511
3914.000000	50.507853
3913.000000	50.528300
3912.000000	50.548991
3911.000000	50.571178
3910.000000	50.598591
3909.000000	50.632975
3908.000000	50.674580
3907.000000	50.718503
3906.000000	50.758133
3905.000000	50.786690
3904.000000	50.805708
3903.000000	50.830274
3902.000000	50.871557
3901.000000	50.924352
3900.000000	50.973477
3899.000000	51.009530
3898.000000	51.041435
3897.000000	51.083790
3896.000000	51.139482
3895.000000	51.204431
3894.000000	51.273059
3893.000000	51.340367
3892.000000	51.399875
3891.000000	51.448054
3890.000000	51.492753
3889.000000	51.545032
3888.000000	51.610955
3887.000000	51.682825
3886.000000	51.741294
3885.000000	51.782398
3884.000000	51.824294
3883.000000	51.876979
3882.000000	51.924133
3881.000000	51.942889
3880.000000	51.935130
3879.000000	51.928140
3878.000000	51.942358
3877.000000	51.972973
3876.000000	52.001664
3875.000000	52.013560
3874.000000	52.011029
3873.000000	52.014882
3872.000000	52.045109
3871.000000	52.093312
3870.000000	52.129863
3869.000000	52.151141
3868.000000	52.181649
3867.000000	52.232699
3866.000000	52.288480
3865.000000	52.322426
3864.000000	52.333579
3863.000000	52.349212
3862.000000	52.381291
3861.000000	52.422110
3860.000000	52.465187
3859.000000	52.510040
3858.000000	52.562652
3857.000000	52.628015
3856.000000	52.709070
3855.000000	52.781834
3854.000000	52.806518
3853.000000	52.801789
3852.000000	52.823896
3851.000000	52.870706
3850.000000	52.904689
3849.000000	52.916286
3848.000000	52.919172
3847.000000	52.934245
3846.000000	52.969737
3845.000000	53.015989
3844.000000	53.062668
3843.000000	53.106763
3842.000000	53.149863
3841.000000	53.200648
3840.000000	53.257947
3839.000000	53.308044
3838.000000	53.348428
3837.000000	53.385533
3836.000000	53.422384
3835.000000	53.453997
3834.000000	53.478074
3833.000000	53.499943
3832.000000	53.522449
3831.000000	53.548360
3830.000000	53.585380
3829.000000	53.633950
3828.000000	53.683850
3827.000000	53.725925
3826.000000	53.758079
3825.000000	53.792278
3824.000000	53.844924
3823.000000	53.914224
3822.000000	53.973986
3821.000000	54.004067
3820.000000	54.026329
3819.000000	54.072089
3818.000000	54.140529
3817.000000	54.202345
3816.000000	54.230228
3815.000000	54.235380
3814.000000	54.252354
3813.000000	54.286589
3812.000000	54.314818
3811.000000	54.329723
3810.000000	54.350962
3809.000000	54.395978
3808.000000	54.457126
3807.000000	54.511671
3806.000000	54.555343
3805.000000	54.607902
3804.000000	54.676203
3803.000000	54.747470
3802.000000	54.793504
3801.000000	54.806566
3800.000000	54.821338
3799.000000	54.857184
3798.000000	54.894548
3797.000000	54.910782
3796.000000	54.909592
3795.000000	54.915606
3794.000000	54.945969
3793.000000	54.992860
3792.000000	55.037145
3791.000000	55.073867
3790.000000	55.111477
3789.000000	55.154126
3788.000000	55.198083
3787.000000	55.238748
3786.000000	55.274510
3785.000000	55.305170
3784.000000	55.331429
3783.000000	55.359347
3782.000000	55.394903
3781.000000	55.432644
3780.000000	55.459198
3779.000000	55.473639
3778.000000	55.491009
3777.000000	55.522342
3776.000000	55.562606
3775.000000	55.601319
3774.000000	55.637254
3773.000000	55.677611
3772.000000	55.727737
3771.000000	55.782527
3770.000000	55.832655
3769.000000	55.880982
3768.000000	55.937027
3767.000000	55.999660
3766.000000	56.060212
3765.000000	56.111051
3764.000000	56.157054
3763.000000	56.212659
3762.000000	56.282002
3761.000000	56.352648
3760.000000	56.407622
3759.000000	56.453165
3758.000000	56.507475
3757.000000	56.568806
3756.000000	56.628873
3755.000000	56.689788
3754.000000	56.760882
3753.000000	56.840801
3752.000000	56.914161
3751.000000	56.981739
3750.000000	57.058216
3749.000000	57.139648
3748.000000	57.210413
3747.000000	57.276151
3746.000000	57.352564
3745.000000	57.419991
3744.000000	57.459523
3743.000000	57.506017
3742.000000	57.574259
3741.000000	57.635311
3740.000000	57.671618
3739.000000	57.701574
3738.000000	57.758638
3737.000000	57.842076
3736.000000	57.920157
3735.000000	57.967773
3734.000000	57.995076
3733.000000	58.024091
3732.000000	58.053917
3731.000000	58.078460
3730.000000	58.101026
3729.000000	58.129462
3728.000000	58.167649
3727.000000	58.206137
3726.000000	58.237516
3725.000000	58.268662
3724.000000	58.306167
3723.000000	58.340867
3722.000000	58.362101
3721.000000	58.382459
3720.000000	58.418238
3719.000000	58.473784
3718.000000	58.542075
3717.000000	58.609191
3716.000000	58.673445
3715.000000	58.742342
3714.000000	58.822115
3713.000000	58.906791
3712.000000	58.983499
3711.000000	59.051870
3710.000000	59.120306
3709.000000	59.192098
3708.000000	59.262974
3707.000000	59.327899
3706.000000	59.387971
3705.000000	59.449256
3704.000000	59.513552
3703.000000	59.575120
3702.000000	59.627684
3701.000000	59.676953
3700.000000	59.731127
3699.000000	59.789757
3698.000000	59.849640
3697.000000	59.905961
3696.000000	59.957054
3695.000000	60.008638
3694.000000	60.066573
3693.000000	60.128615
3692.000000	60.188483
3691.000000	60.243563
3690.000000	60.296515
3689.000000	60.353309
3688.000000	60.417777
3687.000000	60.481970
3686.000000	60.532805
3685.000000	60.568223
3684.000000	60.593210
3683.000000	60.617988
3682.000000	60.655834
3681.000000	60.708061
3680.000000	60.764523
3679.000000	60.815909
3678.000000	60.874714
3677.000000	60.955249
3676.000000	61.031667
3675.000000	61.082394
3674.000000	61.126811
3673.000000	61.179992
3672.000000	61.237241
3671.000000	61.284570
3670.000000	61.307243
3669.000000	61.321307
3668.000000	61.355448
3667.000000	61.402169
3666.000000	61.438140
3665.000000	61.461952
3664.000000	61.486135
3663.000000	61.521910
3662.000000	61.568638
3661.000000	61.614301
3660.000000	61.655705
3659.000000	61.699163
3658.000000	61.750675
3657.000000	61.806129
3656.000000	61.858142
3655.000000	61.910950
3654.000000	61.966455
3653.000000	62.020937
3652.000000	62.075319
3651.000000	62.129366
3650.000000	62.181804
3649.000000	62.242454
3648.000000	62.319877
3647.000000	62.401098
3646.000000	62.467469
3645.000000	62.518281
3644.000000	62.563893
3643.000000	62.612786
3642.000000	62.664585
3641.000000	62.716625
3640.000000	62.772157
3639.000000	62.831558
3638.000000	62.890231
3637.000000	62.944982
3636.000000	62.999665
3635.000000	63.055823
3634.000000	63.103091
3633.000000	63.134323
3632.000000	63.158070
3631.000000	63.190517
3630.000000	63.226185
3629.000000	63.242660
3628.000000	63.247935
3627.000000	63.263275
3626.000000	63.271849
3625.000000	63.249548
3624.000000	63.201438
3623.000000	63.147757
3622.000000	63.103017
3621.000000	63.062818
3620.000000	63.007465
3619.000000	62.930098
3618.000000	62.848686
3617.000000	62.776483
3616.000000	62.707124
3615.000000	62.626667
3614.000000	62.526099
3613.000000	62.410698
3612.000000	62.297748
3611.000000	62.197771
3610.000000	62.104655
3609.000000	62.006180
3608.000000	61.894330
3607.000000	61.770912
3606.000000	61.639478
3605.000000	61.500329
3604.000000	61.356515
3603.000000	61.214314
3602.000000	61.082760
3601.000000	60.970260
3600.000000	60.877758
3599.000000	60.798442
3598.000000	60.723905
3597.000000	60.645435
3596.000000	60.559883
3595.000000	60.465575
3594.000000	60.359354
3593.000000	60.243579
3592.000000	60.125098
3591.000000	60.014924
3590.000000	59.930839
3589.000000	59.890077
3588.000000	59.894619
3587.000000	59.931285
3586.000000	59.980694
3585.000000	60.023137
3584.000000	60.042384
3583.000000	60.032691
3582.000000	60.000537
3581.000000	59.957050
3580.000000	59.909971
3579.000000	59.859637
3578.000000	59.803954
3577.000000	59.743071
3576.000000	59.678486
3575.000000	59.611360
3574.000000	59.540751
3573.000000	59.465152
3572.000000	59.383071
3571.000000	59.291730
3570.000000	59.190993
3569.000000	59.083968
3568.000000	58.971463
3567.000000	58.851598
3566.000000	58.725293
3565.000000	58.592756
3564.000000	58.449680
3563.000000	58.292339
3562.000000	58.121633
3561.000000	57.942058
3560.000000	57.757626
3559.000000	57.569207
3558.000000	57.375881
3557.000000	57.177835
3556.000000	56.975809
3555.000000	56.768823
3554.000000	56.553920
3553.000000	56.328388
3552.000000	56.093090
3551.000000	55.850203
3550.000000	55.599470
3549.000000	55.339429
3548.000000	55.069642
3547.000000	54.790832
3546.000000	54.502971
3545.000000	54.205343
3544.000000	53.897196
3543.000000	53.577423
3542.000000	53.244238
3541.000000	52.897137
3540.000000	52.536952
3539.000000	52.163085
3538.000000	51.773208
3537.000000	51.365837
3536.000000	50.943126
3535.000000	50.507447
3534.000000	50.058279
3533.000000	49.593465
3532.000000	49.111209
3531.000000	48.609624
3530.000000	48.085463
3529.000000	47.537480
3528.000000	46.968935
3527.000000	46.384487
3526.000000	45.785158
3525.000000	45.168463
3524.000000	44.532464
3523.000000	43.877843
3522.000000	43.206605
3521.000000	42.520091
3520.000000	41.818075
3519.000000	41.098787
3518.000000	40.361338
3517.000000	39.608282
3516.000000	38.844327
3515.000000	38.071862
3514.000000	37.290233
3513.000000	36.498990
3512.000000	35.698019
3511.000000	34.885330
3510.000000	34.059944
3509.000000	33.227709
3508.000000	32.398207
3507.000000	31.574090
3506.000000	30.748311
3505.000000	29.913963
3504.000000	29.073279
3503.000000	28.235322
3502.000000	27.408087
3501.000000	26.595040
3500.000000	25.795416
3499.000000	25.004936
3498.000000	24.219629
3497.000000	23.441119
3496.000000	22.676306
3495.000000	21.930694
3494.000000	21.205097
3493.000000	20.499755
3492.000000	19.816285
3491.000000	19.154189
3490.000000	18.510775
3489.000000	17.886376
3488.000000	17.286091
3487.000000	16.714548
3486.000000	16.172046
3485.000000	15.656544
3484.000000	15.164573
3483.000000	14.690406
3482.000000	14.229728
3481.000000	13.785040
3480.000000	13.362930
3479.000000	12.964431
3478.000000	12.583046
3477.000000	12.212552
3476.000000	11.851260
3475.000000	11.498741
3474.000000	11.153564
3473.000000	10.816136
3472.000000	10.489656
3471.000000	10.177157
3470.000000	9.882514
3469.000000	9.613994
3468.000000	9.381697
3467.000000	9.190302
3466.000000	9.037540
3465.000000	8.920057
3464.000000	8.835955
3463.000000	8.783022
3462.000000	8.760611
3461.000000	8.772556
3460.000000	8.823662
3459.000000	8.912391
3458.000000	9.031094
3457.000000	9.172994
3456.000000	9.333298
3455.000000	9.504797
3454.000000	9.678126
3453.000000	9.845885
3452.000000	10.002149
3451.000000	10.138468
3450.000000	10.244780
3449.000000	10.314998
3448.000000	10.347440
3447.000000	10.340362
3446.000000	10.292537
3445.000000	10.206330
3444.000000	10.086535
3443.000000	9.937248
3442.000000	9.762785
3441.000000	9.571406
3440.000000	9.372931
3439.000000	9.173935
3438.000000	8.980286
3437.000000	8.802291
3436.000000	8.651940
3435.000000	8.535076
3434.000000	8.450255
3433.000000	8.394474
3432.000000	8.367048
3431.000000	8.368528
3430.000000	8.401396
3429.000000	8.471723
3428.000000	8.584634
3427.000000	8.740485
3426.000000	8.937328
3425.000000	9.176288
3424.000000	9.461403
3423.000000	9.793821
3422.000000	10.172842
3421.000000	10.599252
3420.000000	11.073298
3419.000000	11.591183
3418.000000	12.145569
3417.000000	12.731108
3416.000000	13.344815
3415.000000	13.982828
3414.000000	14.641582
3413.000000	15.319083
3412.000000	16.012612
3411.000000	16.715939
3410.000000	17.421983
3409.000000	18.127356
3408.000000	18.830149
3407.000000	19.525263
3406.000000	20.205886
3405.000000	20.868307
3404.000000	21.512408
3403.000000	22.139267
3402.000000	22.751666
3401.000000	23.355148
3400.000000	23.953987
3399.000000	24.545877
3398.000000	25.124198
3397.000000	25.684689
3396.000000	26.226789
3395.000000	26.750919
3394.000000	27.258462
3393.000000	27.754441
3392.000000	28.245693
3391.000000	28.735144
3390.000000	29.221069
3389.000000	29.700964
3388.000000	30.173771
3387.000000	30.638939
3386.000000	31.096398
3385.000000	31.547929
3384.000000	31.995860
3383.000000	32.440777
3382.000000	32.882583
3381.000000	33.322862
3380.000000	33.763912
3379.000000	34.206065
3378.000000	34.648221
3377.000000	35.090176
3376.000000	35.531779
3375.000000	35.970861
3374.000000	36.404755
3373.000000	36.833466
3372.000000	37.259128
3371.000000	37.683129
3370.000000	38.106195
3369.000000	38.530036
3368.000000	38.955963
3367.000000	39.382339
3366.000000	39.805866
3365.000000	40.225032
3364.000000	40.640270
3363.000000	41.051735
3362.000000	41.459372
3361.000000	41.864358
3360.000000	42.268147
3359.000000	42.670260
3358.000000	43.068996
3357.000000	43.463866
3356.000000	43.855048
3355.000000	44.241464
3354.000000	44.621570
3353.000000	44.995747
3352.000000	45.366041
3351.000000	45.733537
3350.000000	46.097749
3349.000000	46.458102
3348.000000	46.814102
3347.000000	47.164582
3346.000000	47.508610
3345.000000	47.846804
3344.000000	48.180178
3343.000000	48.507918
3342.000000	48.828332
3341.000000	49.141373
3340.000000	49.448356
3339.000000	49.749460
3338.000000	50.043026
3337.000000	50.327647
3336.000000	50.602613
3335.000000	50.866419
3334.000000	51.116723
3333.000000	51.351312
3332.000000	51.568476
3331.000000	51.765644
3330.000000	51.939430
3329.000000	52.087706
3328.000000	52.209095
3327.000000	52.301339
3326.000000	52.360305
3325.000000	52.380768
3324.000000	52.358530
3323.000000	52.289461
3322.000000	52.170084
3321.000000	51.997687
3320.000000	51.768217
3319.000000	51.476371
3318.000000	51.115031
3317.000000	50.677804
3316.000000	50.158456
3315.000000	49.547428
3314.000000	48.834851
3313.000000	48.012014
3312.000000	47.072472
3311.000000	46.011452
3310.000000	44.823814
3309.000000	43.510286
3308.000000	42.075723
3307.000000	40.525868
3306.000000	38.867481
3305.000000	37.106513
3304.000000	35.251076
3303.000000	33.308463
3302.000000	31.287370
3301.000000	29.203690
3300.000000	27.079881
3299.000000	24.944520
3298.000000	22.833485
3297.000000	20.790785
3296.000000	18.861016
3295.000000	17.081255
3294.000000	15.477137
3293.000000	14.065678
3292.000000	12.853359
3291.000000	11.827333
3290.000000	10.962295
3289.000000	10.226693
3288.000000	9.588283
3287.000000	9.018405
3286.000000	8.493570
3285.000000	8.002530
3284.000000	7.541432
3283.000000	7.109258
3282.000000	6.710366
3281.000000	6.354618
3280.000000	6.054089
3279.000000	5.816823
3278.000000	5.648420
3277.000000	5.556394
3276.000000	5.545365
3275.000000	5.613058
3274.000000	5.751770
3273.000000	5.950937
3272.000000	6.195896
3271.000000	6.464168
3270.000000	6.729464
3269.000000	6.967147
3268.000000	7.154040
3267.000000	7.268676
3266.000000	7.297992
3265.000000	7.242001
3264.000000	7.110588
3263.000000	6.919128
3262.000000	6.687546
3261.000000	6.441243
3260.000000	6.204741
3259.000000	5.995492
3258.000000	5.826574
3257.000000	5.710347
3256.000000	5.654939
3255.000000	5.660543
3254.000000	5.722735
3253.000000	5.835818
3252.000000	5.991879
3251.000000	6.177663
3250.000000	6.378707
3249.000000	6.584751
3248.000000	6.787174
3247.000000	6.976525
3246.000000	7.144811
3245.000000	7.288028
3244.000000	7.403398
3243.000000	7.487606
3242.000000	7.540485
3241.000000	7.568014
3240.000000	7.577926
3239.000000	7.574118
3238.000000	7.559213
3237.000000	7.537393
3236.000000	7.512356
3235.000000	7.485773
3234.000000	7.460166
3233.000000	7.440230
3232.000000	7.426660
3231.000000	7.412264
3230.000000	7.387888
3229.000000	7.348766
3228.000000	7.292902
3227.000000	7.217130
3226.000000	7.119291
3225.000000	7.001331
3224.000000	6.865768
3223.000000	6.712841
3222.000000	6.543911
3221.000000	6.364764
3220.000000	6.182168
3219.000000	5.999391
3218.000000	5.818598
3217.000000	5.643475
3216.000000	5.475957
3215.000000	5.313751
3214.000000	5.154517
3213.000000	4.999243
3212.000000	4.848450
3211.000000	4.699074
3210.000000	4.548719
3209.000000	4.399878
3208.000000	4.256276
3207.000000	4.118687
3206.000000	3.987743
3205.000000	3.866684
3204.000000	3.758290
3203.000000	3.662179
3202.000000	3.578454
3201.000000	3.510481
3200.000000	3.460169
3199.000000	3.425252
3198.000000	3.403915
3197.000000	3.398282
3196.000000	3.410411
3195.000000	3.437969
3194.000000	3.478600
3193.000000	3.533612
3192.000000	3.603922
3191.000000	3.687031
3190.000000	3.780329
3189.000000	3.884517
3188.000000	3.999850
3187.000000	4.122780
3186.000000	4.250516
3185.000000	4.384386
3184.000000	4.525882
3183.000000	4.672815
3182.000000	4.822589
3181.000000	4.975807
3180.000000	5.132787
3179.000000	5.290567
3178.000000	5.446536
3177.000000	5.601522
3176.000000	5.756305
3175.000000	5.908566
3174.000000	6.056380
3173.000000	6.201081
3172.000000	6.343822
3171.000000	6.482738
3170.000000	6.616455
3169.000000	6.746674
3168.000000	6.874385
3167.000000	6.997467
3166.000000	7.114466
3165.000000	7.227182
3164.000000	7.336606
3163.000000	7.439987
3162.000000	7.535058
3161.000000	7.622922
3160.000000	7.704387
3159.000000	7.777349
3158.000000	7.840479
3157.000000	7.896220
3156.000000	7.947008
3155.000000	7.992705
3154.000000	8.034559
3153.000000	8.077443
3152.000000	8.125262
3151.000000	8.177561
3150.000000	8.233485
3149.000000	8.295106
3148.000000	8.363956
3147.000000	8.438098
3146.000000	8.515734
3145.000000	8.597917
3144.000000	8.684837
3143.000000	8.773493
3142.000000	8.861758
3141.000000	8.951094
3140.000000	9.042187
3139.000000	9.131650
3138.000000	9.215844
3137.000000	9.294261
3136.000000	9.366186
3135.000000	9.427550
3134.000000	9.474388
3133.000000	9.505161
3132.000000	9.517491
3131.000000	9.505823
3130.000000	9.464947
3129.000000	9.393631
3128.000000	9.291520
3127.000000	9.157889
3126.000000	8.995869
3125.000000	8.813901
3124.000000	8.621210
3123.000000	8.424092
3122.000000	8.229256
3121.000000	8.045469
3120.000000	7.878262
3119.000000	7.726756
3118.000000	7.588431
3117.000000	7.463225
3116.000000	7.350266
3115.000000	7.245377
3114.000000	7.144880
3113.000000	7.048542
3112.000000	6.955925
3111.000000	6.863985
3110.000000	6.771604
3109.000000	6.682087
3108.000000	6.598680
3107.000000	6.521468
3106.000000	6.451078
3105.000000	6.391667
3104.000000	6.346692
3103.000000	6.316335
3102.000000	6.301989
3101.000000	6.308445
3100.000000	6.339667
3099.000000	6.395144
3098.000000	6.473891
3097.000000	6.577991
3096.000000	6.708373
3095.000000	6.862586
3094.000000	7.038258
3093.000000	7.235621
3092.000000	7.454396
3091.000000	7.691163
3090.000000	7.943436
3089.000000	8.211103
3088.000000	8.492059
3087.000000	8.781031
3086.000000	9.074391
3085.000000	9.372912
3084.000000	9.676795
3083.000000	9.982514
3082.000000	10.287163
3081.000000	10.591327
3080.000000	10.895578
3079.000000	11.197913
3078.000000	11.497137
3077.000000	11.794594
3076.000000	12.090144
3075.000000	12.380291
3074.000000	12.662616
3073.000000	12.938409
3072.000000	13.208650
3071.000000	13.471670
3070.000000	13.726768
3069.000000	13.976342
3068.000000	14.222225
3067.000000	14.463206
3066.000000	14.698604
3065.000000	14.930286
3064.000000	15.159055
3063.000000	15.382902
3062.000000	15.600669
3061.000000	15.814234
3060.000000	16.024960
3059.000000	16.231576
3058.000000	16.433634
3057.000000	16.633168
3056.000000	16.831190
3055.000000	17.025934
3054.000000	17.216593
3053.000000	17.405462
3052.000000	17.594296
3051.000000	17.782100
3050.000000	17.968100
3049.000000	18.153334
3048.000000	18.337635
3047.000000	18.518436
3046.000000	18.694711
3045.000000	18.868796
3044.000000	19.042670
3043.000000	19.215906
3042.000000	19.388607
3041.000000	19.562619
3040.000000	19.737892
3039.000000	19.911274
3038.000000	20.081038
3037.000000	20.249190
3036.000000	20.417745
3035.000000	20.586220
3034.000000	20.754454
3033.000000	20.924292
3032.000000	21.096353
3031.000000	21.268521
3030.000000	21.439452
3029.000000	21.610162
3028.000000	21.780626
3027.000000	21.948489
3026.000000	22.112854
3025.000000	22.275818
3024.000000	22.438039
3023.000000	22.596226
3022.000000	22.746624
3021.000000	22.887354
3020.000000	23.015819
3019.000000	23.126656
3018.000000	23.214801
3017.000000	23.277614
3016.000000	23.313121
3015.000000	23.320954
3014.000000	23.307596
3013.000000	23.288803
3012.000000	23.284107
3011.000000	23.310541
3010.000000	23.380605
3009.000000	23.500229
3008.000000	23.664744
3007.000000	23.858945
3006.000000	24.063141
3005.000000	24.257594
3004.000000	24.421010
3003.000000	24.529122
3002.000000	24.558176
3001.000000	24.488644
3000.000000	24.309757
2999.000000	24.028426
2998.000000	23.681121
2997.000000	23.334411
2996.000000	23.067514
2995.000000	22.947438
2994.000000	23.008604
2993.000000	23.243963
2992.000000	23.607619
2991.000000	24.034315
2990.000000	24.465259
2989.000000	24.863453
2988.000000	25.212817
2987.000000	25.510401
2986.000000	25.761732
2985.000000	25.975328
2984.000000	26.156463
2983.000000	26.304748
2982.000000	26.418534
2981.000000	26.496925
2980.000000	26.536889
2979.000000	26.532150
2978.000000	26.477487
2977.000000	26.374174
2976.000000	26.230406
2975.000000	26.062344
2974.000000	25.895013
2973.000000	25.756966
2972.000000	25.668735
2971.000000	25.633814
2970.000000	25.638013
2969.000000	25.651135
2968.000000	25.629274
2967.000000	25.526482
2966.000000	25.315752
2965.000000	25.003933
2964.000000	24.628273
2963.000000	24.240981
2962.000000	23.894222
2961.000000	23.628088
2960.000000	23.463868
2959.000000	23.405772
2958.000000	23.450686
2957.000000	23.592131
2956.000000	23.815872
2955.000000	24.097885
2954.000000	24.409141
2953.000000	24.720186
2952.000000	24.999898
2951.000000	25.219791
2950.000000	25.364768
2949.000000	25.440643
2948.000000	25.468207
2947.000000	25.468320
2946.000000	25.445897
2945.000000	25.374940
2944.000000	25.198274
2943.000000	24.856136
2942.000000	24.339064
2941.000000	23.725156
2940.000000	23.168734
2939.000000	22.841039
2938.000000	22.856176
2937.000000	23.225545
2936.000000	23.861279
2935.000000	24.627151
2934.000000	25.400351
2933.000000	26.106390
2932.000000	26.716741
2931.000000	27.232054
2930.000000	27.668980
2929.000000	28.048908
2928.000000	28.389147
2927.000000	28.699090
2926.000000	28.984806
2925.000000	29.251713
2924.000000	29.501959
2923.000000	29.733740
2922.000000	29.945842
2921.000000	30.139668
2920.000000	30.315231
2919.000000	30.470224
2918.000000	30.604224
2917.000000	30.720552
2916.000000	30.822290
2915.000000	30.909822
2914.000000	30.983862
2913.000000	31.046952
2912.000000	31.100311
2911.000000	31.142398
2910.000000	31.171389
2909.000000	31.185606
2908.000000	31.180012
2907.000000	31.144629
2906.000000	31.067940
2905.000000	30.938275
2904.000000	30.741408
2903.000000	30.462908
2902.000000	30.097040
2901.000000	29.654009
2900.000000	29.160531
2899.000000	28.657873
2898.000000	28.198401
2897.000000	27.836811
2896.000000	27.614003
2895.000000	27.545911
2894.000000	27.624938
2893.000000	27.826048
2892.000000	28.113474
2891.000000	28.448778
2890.000000	28.800835
2889.000000	29.148759
2888.000000	29.478177
2887.000000	29.778750
2886.000000	30.045670
2885.000000	30.279767
2884.000000	30.482581
2883.000000	30.654856
2882.000000	30.799719
2881.000000	30.923650
2880.000000	31.032858
2879.000000	31.131532
2878.000000	31.224291
2877.000000	31.316214
2876.000000	31.408654
2875.000000	31.497967
2874.000000	31.580529
2873.000000	31.656418
2872.000000	31.728026
2871.000000	31.799165
2870.000000	31.876813
2869.000000	31.969875
2868.000000	32.083254
2867.000000	32.214937
2866.000000	32.359591
2865.000000	32.511734
2864.000000	32.664720
2863.000000	32.811153
2862.000000	32.946909
2861.000000	33.072398
2860.000000	33.188922
2859.000000	33.296619
2858.000000	33.397062
2857.000000	33.494277
2856.000000	33.591293
2855.000000	33.688409
2854.000000	33.785765
2853.000000	33.884152
2852.000000	33.981826
2851.000000	34.073758
2850.000000	34.155760
2849.000000	34.227138
2848.000000	34.288888
2847.000000	34.342710
2846.000000	34.392845
2845.000000	34.445305
2844.000000	34.503640
2843.000000	34.567747
2842.000000	34.637436
2841.000000	34.714181
2840.000000	34.798349
2839.000000	34.887965
2838.000000	34.981615
2837.000000	35.079808
2836.000000	35.182471
2835.000000	35.287955
2834.000000	35.395479
2833.000000	35.505902
2832.000000	35.618998
2831.000000	35.732569
2830.000000	35.845281
2829.000000	35.957752
2828.000000	36.069850
2827.000000	36.179581
2826.000000	36.285543
2825.000000	36.388022
2824.000000	36.486922
2823.000000	36.581149
2822.000000	36.670967
2821.000000	36.758348
2820.000000	36.844022
2819.000000	36.926643
2818.000000	37.005513
2817.000000	37.081557
2816.000000	37.154862
2815.000000	37.223939
2814.000000	37.288444
2813.000000	37.350066
2812.000000	37.409779
2811.000000	37.466738
2810.000000	37.520781
2809.000000	37.573546
2808.000000	37.626092
2807.000000	37.677770
2806.000000	37.728354
2805.000000	37.778963
2804.000000	37.829982
2803.000000	37.880397
2802.000000	37.929954
2801.000000	37.979655
2800.000000	38.029436
2799.000000	38.077720
2798.000000	38.124009
2797.000000	38.169594
2796.000000	38.215008
2795.000000	38.259145
2794.000000	38.301509
2793.000000	38.342929
2792.000000	38.383426
2791.000000	38.421858
2790.000000	38.458276
2789.000000	38.494128
2788.000000	38.529460
2787.000000	38.562397
2786.000000	38.592169
2785.000000	38.620405
2784.000000	38.649038
2783.000000	38.679686
2782.000000	38.715580
2781.000000	38.760932
2780.000000	38.817128
2779.000000	38.881634
2778.000000	38.951250
2777.000000	39.024148
2776.000000	39.098302
2775.000000	39.170932
2774.000000	39.240764
2773.000000	39.308441
2772.000000	39.373935
2771.000000	39.435949
2770.000000	39.494498
2769.000000	39.551538
2768.000000	39.608055
2767.000000	39.662659
2766.000000	39.713870
2765.000000	39.761429
2764.000000	39.804687
2763.000000	39.842301
2762.000000	39.874460
2761.000000	39.903336
2760.000000	39.930517
2759.000000	39.955864
2758.000000	39.979405
2757.000000	40.001800
2756.000000	40.022323
2755.000000	40.038947
2754.000000	40.051408
2753.000000	40.062485
2752.000000	40.075828
2751.000000	40.094476
2750.000000	40.121399
2749.000000	40.158196
2748.000000	40.201927
2747.000000	40.245618
2746.000000	40.283298
2745.000000	40.313314
2744.000000	40.337032
2743.000000	40.356874
2742.000000	40.375811
2741.000000	40.395717
2740.000000	40.414777
2739.000000	40.428567
2738.000000	40.435112
2737.000000	40.438183
2736.000000	40.445880
2735.000000	40.467883
2734.000000	40.513009
2733.000000	40.584852
2732.000000	40.678165
2731.000000	40.781534
2730.000000	40.884513
2729.000000	40.981552
2728.000000	41.070118
2727.000000	41.148859
2726.000000	41.218635
2725.000000	41.282112
2724.000000	41.340565
2723.000000	41.392751
2722.000000	41.437061
2721.000000	41.472562
2720.000000	41.498163
2719.000000	41.513237
2718.000000	41.520156
2717.000000	41.524324
2716.000000	41.530851
2715.000000	41.543067
2714.000000	41.563749
2713.000000	41.594720
2712.000000	41.634588
2711.000000	41.679487
2710.000000	41.726687
2709.000000	41.775466
2708.000000	41.824355
2707.000000	41.870298
2706.000000	41.911265
2705.000000	41.947137
2704.000000	41.977269
2703.000000	41.999658
2702.000000	42.013156
2701.000000	42.017845
2700.000000	42.013036
2699.000000	41.997349
2698.000000	41.971740
2697.000000	41.940641
2696.000000	41.909041
2695.000000	41.880473
2694.000000	41.857650
2693.000000	41.842017
2692.000000	41.831894
2691.000000	41.823604
2690.000000	41.815452
2689.000000	41.808869
2688.000000	41.805497
2687.000000	41.805467
2686.000000	41.809103
2685.000000	41.817541
2684.000000	41.830943
2683.000000	41.848619
2682.000000	41.871289
2681.000000	41.901127
2680.000000	41.938783
2679.000000	41.982303
2678.000000	42.029302
2677.000000	42.077540
2676.000000	42.123307
2675.000000	42.162089
2674.000000	42.191601
2673.000000	42.212201
2672.000000	42.224389
2671.000000	42.228542
2670.000000	42.227597
2669.000000	42.227461
2668.000000	42.233841
2667.000000	42.250507
2666.000000	42.280299
2665.000000	42.324410
2664.000000	42.379577
2663.000000	42.438584
2662.000000	42.494356
2661.000000	42.541890
2660.000000	42.576874
2659.000000	42.595859
2658.000000	42.598890
2657.000000	42.589962
2656.000000	42.574213
2655.000000	42.556617
2654.000000	42.543447
2653.000000	42.541702
2652.000000	42.555899
2651.000000	42.587197
2650.000000	42.635415
2649.000000	42.698812
2648.000000	42.771956
2647.000000	42.846779
2646.000000	42.916863
2645.000000	42.979316
2644.000000	43.032805
2643.000000	43.077405
2642.000000	43.116892
2641.000000	43.157849
2640.000000	43.204952
2639.000000	43.258696
2638.000000	43.317509
2637.000000	43.379113
2636.000000	43.439393
2635.000000	43.493111
2634.000000	43.537410
2633.000000	43.572747
2632.000000	43.600075
2631.000000	43.619701
2630.000000	43.633092
2629.000000	43.643288
2628.000000	43.652235
2627.000000	43.659674
2626.000000	43.665380
2625.000000	43.669796
2624.000000	43.672341
2623.000000	43.671622
2622.000000	43.668091
2621.000000	43.664287
2620.000000	43.661409
2619.000000	43.657854
2618.000000	43.651374
2617.000000	43.640157
2616.000000	43.621580
2615.000000	43.592413
2614.000000	43.551733
2613.000000	43.501887
2612.000000	43.446176
2611.000000	43.388201
2610.000000	43.333596
2609.000000	43.289474
2608.000000	43.260789
2607.000000	43.249042
2606.000000	43.254271
2605.000000	43.276151
2604.000000	43.312487
2603.000000	43.359154
2602.000000	43.413081
2601.000000	43.472391
2600.000000	43.534019
2599.000000	43.593679
2598.000000	43.648674
2597.000000	43.698940
2596.000000	43.744859
2595.000000	43.786729
2594.000000	43.826672
2593.000000	43.868225
2592.000000	43.912912
2591.000000	43.959208
2590.000000	44.004883
2589.000000	44.047972
2588.000000	44.085529
2587.000000	44.114323
2586.000000	44.134013
2585.000000	44.147691
2584.000000	44.159140
2583.000000	44.172034
2582.000000	44.191811
2581.000000	44.224853
2580.000000	44.274459
2579.000000	44.339464
2578.000000	44.416733
2577.000000	44.503007
2576.000000	44.593886
2575.000000	44.684346
2574.000000	44.771826
2573.000000	44.856594
2572.000000	44.939026
2571.000000	45.018398
2570.000000	45.094456
2569.000000	45.167547
2568.000000	45.236702
2567.000000	45.299836
2566.000000	45.356625
2565.000000	45.409244
2564.000000	45.459609
2563.000000	45.508272
2562.000000	45.556020
2561.000000	45.604147
2560.000000	45.652535
2559.000000	45.699413
2558.000000	45.743787
2557.000000	45.786113
2556.000000	45.826572
2555.000000	45.865010
2554.000000	45.902953
2553.000000	45.943437
2552.000000	45.988328
2551.000000	46.037637
2550.000000	46.091316
2549.000000	46.149263
2548.000000	46.209150
2547.000000	46.266754
2546.000000	46.319096
2545.000000	46.365507
2544.000000	46.405538
2543.000000	46.438404
2542.000000	46.464723
2541.000000	46.486139
2540.000000	46.502866
2539.000000	46.513082
2538.000000	46.515396
2537.000000	46.509627
2536.000000	46.494616
2535.000000	46.468541
2534.000000	46.431450
2533.000000	46.385861
2532.000000	46.334391
2531.000000	46.278548
2530.000000	46.220748
2529.000000	46.164588
2528.000000	46.112562
2527.000000	46.065336
2526.000000	46.023476
2525.000000	45.987569
2524.000000	45.956098
2523.000000	45.925453
2522.000000	45.892645
2521.000000	45.856036
2520.000000	45.813410
2519.000000	45.761905
2518.000000	45.700490
2517.000000	45.630582
2516.000000	45.553615
2515.000000	45.470826
2514.000000	45.385618
2513.000000	45.303664
2512.000000	45.229946
2511.000000	45.167831
2510.000000	45.120883
2509.000000	45.092727
2508.000000	45.084468
2507.000000	45.093841
2506.000000	45.118438
2505.000000	45.156587
2504.000000	45.205325
2503.000000	45.260668
2502.000000	45.319678
2501.000000	45.380786
2500.000000	45.441088
2499.000000	45.496079
2498.000000	45.542742
2497.000000	45.580533
2496.000000	45.609181
2495.000000	45.628069
2494.000000	45.638342
2493.000000	45.642940
2492.000000	45.644449
2491.000000	45.644584
2490.000000	45.646033
2489.000000	45.652128
2488.000000	45.663961
2487.000000	45.680141
2486.000000	45.699543
2485.000000	45.722036
2484.000000	45.746406
2483.000000	45.770435
2482.000000	45.793358
2481.000000	45.816121
2480.000000	45.839153
2479.000000	45.862261
2478.000000	45.887027
2477.000000	45.916405
2476.000000	45.951830
2475.000000	45.993262
2474.000000	46.041821
2473.000000	46.099812
2472.000000	46.167354
2471.000000	46.241816
2470.000000	46.320894
2469.000000	46.403170
2468.000000	46.485723
2467.000000	46.563976
2466.000000	46.634973
2465.000000	46.698554
2464.000000	46.755056
2463.000000	46.804291
2462.000000	46.847275
2461.000000	46.886438
2460.000000	46.923061
2459.000000	46.956894
2458.000000	46.987918
2457.000000	47.016335
2456.000000	47.040645
2455.000000	47.058169
2454.000000	47.068500
2453.000000	47.074080
2452.000000	47.077554
2451.000000	47.081003
2450.000000	47.087775
2449.000000	47.102011
2448.000000	47.125540
2447.000000	47.157552
2446.000000	47.197505
2445.000000	47.246078
2444.000000	47.302384
2443.000000	47.363184
2442.000000	47.425388
2441.000000	47.486970
2440.000000	47.545434
2439.000000	47.597874
2438.000000	47.643510
2437.000000	47.683872
2436.000000	47.720129
2435.000000	47.751945
2434.000000	47.779200
2433.000000	47.802125
2432.000000	47.819204
2431.000000	47.827868
2430.000000	47.827274
2429.000000	47.818570
2428.000000	47.801897
2427.000000	47.775230
2426.000000	47.737391
2425.000000	47.689344
2424.000000	47.632955
2423.000000	47.570964
2422.000000	47.508776
2421.000000	47.453868
2420.000000	47.412033
2419.000000	47.385805
2418.000000	47.375874
2417.000000	47.381335
2416.000000	47.397467
2415.000000	47.416475
2414.000000	47.431251
2413.000000	47.436826
2412.000000	47.428441
2411.000000	47.401646
2410.000000	47.355335
2409.000000	47.292403
2408.000000	47.217183
2407.000000	47.133732
2406.000000	47.047391
2405.000000	46.964285
2404.000000	46.888298
2403.000000	46.820580
2402.000000	46.762463
2401.000000	46.716313
2400.000000	46.682841
2399.000000	46.660277
2398.000000	46.646277
2397.000000	46.638494
2396.000000	46.632219
2395.000000	46.621043
2394.000000	46.600815
2393.000000	46.571255
2392.000000	46.533751
2391.000000	46.490767
2390.000000	46.448577
2389.000000	46.416983
2388.000000	46.406165
2387.000000	46.424045
2386.000000	46.477152
2385.000000	46.569899
2384.000000	46.700023
2383.000000	46.858351
2382.000000	47.031597
2381.000000	47.204626
2380.000000	47.359481
2379.000000	47.477022
2378.000000	47.546775
2377.000000	47.570306
2376.000000	47.556427
2375.000000	47.515299
2374.000000	47.458345
2373.000000	47.401304
2372.000000	47.356000
2371.000000	47.323420
2370.000000	47.300697
2369.000000	47.295553
2368.000000	47.314656
2367.000000	47.349498
2366.000000	47.397243
2365.000000	47.471728
2364.000000	47.571102
2363.000000	47.687127
2362.000000	47.811163
2361.000000	47.923493
2360.000000	48.014865
2359.000000	48.061936
2358.000000	48.051535
2357.000000	47.993572
2356.000000	47.892216
2355.000000	47.780161
2354.000000	47.710188
2353.000000	47.772909
2352.000000	47.973202
2351.000000	48.183547
2350.000000	48.282072
2349.000000	48.237914
2348.000000	48.160749
2347.000000	48.151185
2346.000000	48.212869
2345.000000	48.298007
2344.000000	48.341670
2343.000000	48.369415
2342.000000	48.393049
2341.000000	48.423166
2340.000000	48.453286
2339.000000	48.474148
2338.000000	48.490463
2337.000000	48.506784
2336.000000	48.535242
2335.000000	48.566367
2334.000000	48.585978
2333.000000	48.566259
2332.000000	48.504047
2331.000000	48.376109
2330.000000	48.237792
2329.000000	48.096947
2328.000000	47.999643
2327.000000	47.931745
2326.000000	47.895041
2325.000000	47.879965
2324.000000	47.858924
2323.000000	47.820132
2322.000000	47.750228
2321.000000	47.665313
2320.000000	47.582131
2319.000000	47.511985
2318.000000	47.472558
2317.000000	47.454918
2316.000000	47.458138
2315.000000	47.444430
2314.000000	47.406822
2313.000000	47.319884
2312.000000	47.199991
2311.000000	47.041750
2310.000000	46.869586
2309.000000	46.681667
2308.000000	46.492846
2307.000000	46.297344
2306.000000	46.107638
2305.000000	45.923306
2304.000000	45.751517
2303.000000	45.582752
2302.000000	45.420441
2301.000000	45.258158
2300.000000	45.102066
2299.000000	44.946414
2298.000000	44.800753
2297.000000	44.665330
2296.000000	44.549469
2295.000000	44.452491
2294.000000	44.382292
2293.000000	44.341905
2292.000000	44.333969
2291.000000	44.354578
2290.000000	44.400374
2289.000000	44.468315
2288.000000	44.553610
2287.000000	44.652384
2286.000000	44.761624
2285.000000	44.880492
2284.000000	45.003420
2283.000000	45.125285
2282.000000	45.242257
2281.000000	45.354013
2280.000000	45.457667
2279.000000	45.550618
2278.000000	45.633103
2277.000000	45.707982
2276.000000	45.778248
2275.000000	45.845568
2274.000000	45.915160
2273.000000	45.992861
2272.000000	46.082780
2271.000000	46.185990
2270.000000	46.304414
2269.000000	46.439866
2268.000000	46.591079
2267.000000	46.753772
2266.000000	46.925160
2265.000000	47.103066
2264.000000	47.283739
2263.000000	47.462039
2262.000000	47.634661
2261.000000	47.801263
2260.000000	47.959416
2259.000000	48.106395
2258.000000	48.240730
2257.000000	48.363811
2256.000000	48.476720
2255.000000	48.580079
2254.000000	48.677200
2253.000000	48.772517
2252.000000	48.869594
2251.000000	48.968953
2250.000000	49.071438
2249.000000	49.176771
2248.000000	49.282479
2247.000000	49.383666
2246.000000	49.477033
2245.000000	49.561395
2244.000000	49.636157
2243.000000	49.701269
2242.000000	49.758710
2241.000000	49.811420
2240.000000	49.859804
2239.000000	49.901668
2238.000000	49.934910
2237.000000	49.958611
2236.000000	49.971936
2235.000000	49.975007
2234.000000	49.971316
2233.000000	49.967239
2232.000000	49.968595
2231.000000	49.979046
2230.000000	50.000541
2229.000000	50.032464
2228.000000	50.070361
2227.000000	50.107969
2226.000000	50.141156
2225.000000	50.168447
2224.000000	50.189120
2223.000000	50.203232
2222.000000	50.213327
2221.000000	50.223203
2220.000000	50.235024
2219.000000	50.249381
2218.000000	50.267614
2217.000000	50.291561
2216.000000	50.321389
2215.000000	50.356049
2214.000000	50.395705
2213.000000	50.441279
2212.000000	50.492138
2211.000000	50.546432
2210.000000	50.603240
2209.000000	50.661736
2208.000000	50.718713
2207.000000	50.769501
2206.000000	50.811170
2205.000000	50.842923
2204.000000	50.863926
2203.000000	50.873591
2202.000000	50.873640
2201.000000	50.867573
2200.000000	50.858060
2199.000000	50.846812
2198.000000	50.836416
2197.000000	50.829671
2196.000000	50.827584
2195.000000	50.830246
2194.000000	50.839518
2193.000000	50.858375
2192.000000	50.887932
2191.000000	50.927485
2190.000000	50.976727
2189.000000	51.035555
2188.000000	51.101895
2187.000000	51.172367
2186.000000	51.244554
2185.000000	51.316593
2184.000000	51.385378
2183.000000	51.447761
2182.000000	51.503340
2181.000000	51.553725
2180.000000	51.599937
2179.000000	51.642536
2178.000000	51.683201
2177.000000	51.723227
2176.000000	51.760710
2175.000000	51.791775
2174.000000	51.814125
2173.000000	51.827453
2172.000000	51.831419
2171.000000	51.826261
2170.000000	51.815071
2169.000000	51.802650
2168.000000	51.792091
2167.000000	51.784391
2166.000000	51.780489
2165.000000	51.780828
2164.000000	51.783411
2163.000000	51.785407
2162.000000	51.786606
2161.000000	51.789218
2160.000000	51.794874
2159.000000	51.804461
2158.000000	51.820213
2157.000000	51.844698
2156.000000	51.877530
2155.000000	51.915312
2154.000000	51.954607
2153.000000	51.992728
2152.000000	52.026648
2151.000000	52.054281
2150.000000	52.076882
2149.000000	52.097811
2148.000000	52.118987
2147.000000	52.140626
2146.000000	52.163164
2145.000000	52.186702
2144.000000	52.209011
2143.000000	52.226816
2142.000000	52.239131
2141.000000	52.247339
2140.000000	52.252577
2139.000000	52.255505
2138.000000	52.257923
2137.000000	52.261666
2136.000000	52.265911
2135.000000	52.267686
2134.000000	52.264757
2133.000000	52.255723
2132.000000	52.238347
2131.000000	52.210870
2130.000000	52.175020
2129.000000	52.135305
2128.000000	52.095775
2127.000000	52.059553
2126.000000	52.030399
2125.000000	52.011521
2124.000000	52.002860
2123.000000	52.002452
2122.000000	52.010294
2121.000000	52.028496
2120.000000	52.058162
2119.000000	52.098688
2118.000000	52.149264
2117.000000	52.208113
2116.000000	52.270440
2115.000000	52.329843
2114.000000	52.381927
2113.000000	52.424667
2112.000000	52.456425
2111.000000	52.476552
2110.000000	52.487357
2109.000000	52.492915
2108.000000	52.496249
2107.000000	52.499627
2106.000000	52.506618
2105.000000	52.520511
2104.000000	52.540649
2103.000000	52.562702
2102.000000	52.581687
2101.000000	52.592767
2100.000000	52.590268
2099.000000	52.569586
2098.000000	52.530960
2097.000000	52.478947
2096.000000	52.419512
2095.000000	52.359755
2094.000000	52.308584
2093.000000	52.273968
2092.000000	52.259545
2091.000000	52.265792
2090.000000	52.293076
2089.000000	52.340481
2088.000000	52.402683
2087.000000	52.471882
2086.000000	52.542227
2085.000000	52.609623
2084.000000	52.669153
2083.000000	52.716071
2082.000000	52.748506
2081.000000	52.766667
2080.000000	52.770227
2079.000000	52.759083
2078.000000	52.736100
2077.000000	52.704979
2076.000000	52.666798
2075.000000	52.620975
2074.000000	52.567954
2073.000000	52.508685
2072.000000	52.441443
2071.000000	52.363593
2070.000000	52.276121
2069.000000	52.182441
2068.000000	52.083351
2067.000000	51.977455
2066.000000	51.866188
2065.000000	51.754117
2064.000000	51.643350
2063.000000	51.531625
2062.000000	51.416671
2061.000000	51.298540
2060.000000	51.177513
2059.000000	51.053436
2058.000000	50.928118
2057.000000	50.805206
2056.000000	50.687320
2055.000000	50.575822
2054.000000	50.473297
2053.000000	50.383059
2052.000000	50.305228
2051.000000	50.237043
2050.000000	50.177292
2049.000000	50.127086
2048.000000	50.086061
2047.000000	50.052631
2046.000000	50.027863
2045.000000	50.013972
2044.000000	50.009609
2043.000000	50.011461
2042.000000	50.019809
2041.000000	50.038088
2040.000000	50.066917
2039.000000	50.104115
2038.000000	50.150414
2037.000000	50.209723
2036.000000	50.284100
2035.000000	50.372518
2034.000000	50.474063
2033.000000	50.587575
2032.000000	50.708318
2031.000000	50.829430
2030.000000	50.946889
2029.000000	51.059495
2028.000000	51.165181
2027.000000	51.262461
2026.000000	51.353559
2025.000000	51.443367
2024.000000	51.533443
2023.000000	51.622484
2022.000000	51.711333
2021.000000	51.801813
2020.000000	51.891350
2019.000000	51.975021
2018.000000	52.053487
2017.000000	52.133515
2016.000000	52.219977
2015.000000	52.312571
2014.000000	52.410515
2013.000000	52.514750
2012.000000	52.624358
2011.000000	52.735673
2010.000000	52.846007
2009.000000	52.954523
2008.000000	53.059719
2007.000000	53.160272
2006.000000	53.257352
2005.000000	53.354408
2004.000000	53.452273
2003.000000	53.549485
2002.000000	53.645701
2001.000000	53.740105
2000.000000	53.830451
1999.000000	53.912449
1998.000000	53.984602
1997.000000	54.051007
1996.000000	54.116712
1995.000000	54.181658
1994.000000	54.243650
1993.000000	54.306024
1992.000000	54.377856
1991.000000	54.464588
1990.000000	54.562301
1989.000000	54.662858
1988.000000	54.761304
1987.000000	54.857240
1986.000000	54.951314
1985.000000	55.043441
1984.000000	55.134109
1983.000000	55.226122
1982.000000	55.322549
1981.000000	55.422929
1980.000000	55.525422
1979.000000	55.627045
1978.000000	55.725192
1977.000000	55.819004
1976.000000	55.910095
1975.000000	56.000262
1974.000000	56.089987
1973.000000	56.179901
1972.000000	56.271720
1971.000000	56.365072
1970.000000	56.454302
1969.000000	56.531529
1968.000000	56.592945
1967.000000	56.640836
1966.000000	56.678847
1965.000000	56.706597
1964.000000	56.720880
1963.000000	56.720512
1962.000000	56.708010
1961.000000	56.688415
1960.000000	56.665968
1959.000000	56.642258
1958.000000	56.617171
1957.000000	56.590940
1956.000000	56.566865
1955.000000	56.550858
1954.000000	56.548006
1953.000000	56.560596
1952.000000	56.586904
1951.000000	56.625673
1950.000000	56.674694
1949.000000	56.726371
1948.000000	56.772650
1947.000000	56.812180
1946.000000	56.846366
1945.000000	56.870312
1944.000000	56.876221
1943.000000	56.868727
1942.000000	56.865648
1941.000000	56.878084
1940.000000	56.899957
1939.000000	56.920057
1938.000000	56.934233
1937.000000	56.943366
1936.000000	56.945800
1935.000000	56.937050
1934.000000	56.917025
1933.000000	56.891428
1932.000000	56.863621
1931.000000	56.838412
1930.000000	56.820779
1929.000000	56.811726
1928.000000	56.811184
1927.000000	56.818864
1926.000000	56.836251
1925.000000	56.853891
1924.000000	56.860680
1923.000000	56.865444
1922.000000	56.889567
1921.000000	56.935528
1920.000000	56.980641
1919.000000	57.005763
1918.000000	57.021395
1917.000000	57.042743
1916.000000	57.059901
1915.000000	57.055284
1914.000000	57.029738
1913.000000	56.996531
1912.000000	56.961755
1911.000000	56.926526
1910.000000	56.896800
1909.000000	56.881384
1908.000000	56.881547
1907.000000	56.889309
1906.000000	56.904726
1905.000000	56.928261
1904.000000	56.955488
1903.000000	56.987316
1902.000000	57.031547
1901.000000	57.092682
1900.000000	57.167578
1899.000000	57.250748
1898.000000	57.342103
1897.000000	57.435844
1896.000000	57.518538
1895.000000	57.587374
1894.000000	57.654708
1893.000000	57.726434
1892.000000	57.790462
1891.000000	57.835910
1890.000000	57.874648
1889.000000	57.927263
1888.000000	57.993175
1887.000000	58.056160
1886.000000	58.108514
1885.000000	58.152928
1884.000000	58.192192
1883.000000	58.230249
1882.000000	58.272647
1881.000000	58.322292
1880.000000	58.378626
1879.000000	58.439565
1878.000000	58.507211
1877.000000	58.582157
1876.000000	58.652782
1875.000000	58.708687
1874.000000	58.756593
1873.000000	58.808514
1872.000000	58.862704
1871.000000	58.907107
1870.000000	58.941106
1869.000000	58.984523
1868.000000	59.050664
1867.000000	59.129431
1866.000000	59.208102
1865.000000	59.281119
1864.000000	59.343923
1863.000000	59.396175
1862.000000	59.445995
1861.000000	59.500767
1860.000000	59.559601
1859.000000	59.620847
1858.000000	59.689234
1857.000000	59.767048
1856.000000	59.844502
1855.000000	59.911520
1854.000000	59.967994
1853.000000	60.015783
1852.000000	60.060090
1851.000000	60.099479
1850.000000	60.134646
1849.000000	60.177321
1848.000000	60.243001
1847.000000	60.333576
1846.000000	60.427015
1845.000000	60.499570
1844.000000	60.560872
1843.000000	60.627552
1842.000000	60.687628
1841.000000	60.728491
1840.000000	60.755296
1839.000000	60.782227
1838.000000	60.825601
1837.000000	60.884055
1836.000000	60.943779
1835.000000	61.001707
1834.000000	61.064034
1833.000000	61.129544
1832.000000	61.183924
1831.000000	61.209680
1830.000000	61.227814
1829.000000	61.278593
1828.000000	61.363055
1827.000000	61.449897
1826.000000	61.520037
1825.000000	61.589874
1824.000000	61.675879
1823.000000	61.762176
1822.000000	61.827675
1821.000000	61.875802
1820.000000	61.919324
1819.000000	61.959977
1818.000000	62.001609
1817.000000	62.051282
1816.000000	62.109508
1815.000000	62.166695
1814.000000	62.211088
1813.000000	62.240249
1812.000000	62.248552
1811.000000	62.235179
1810.000000	62.216336
1809.000000	62.204851
1808.000000	62.197230
1807.000000	62.190174
1806.000000	62.194373
1805.000000	62.216655
1804.000000	62.245102
1803.000000	62.264180
1802.000000	62.269660
1801.000000	62.277567
1800.000000	62.292925
1799.000000	62.307877
1798.000000	62.323148
1797.000000	62.349637
1796.000000	62.395873
1795.000000	62.460188
1794.000000	62.524133
1793.000000	62.574833
1792.000000	62.615419
1791.000000	62.647366
1790.000000	62.666538
1789.000000	62.677433
1788.000000	62.685210
1787.000000	62.690670
1786.000000	62.701334
1785.000000	62.727577
1784.000000	62.770303
1783.000000	62.816381
1782.000000	62.838799
1781.000000	62.839908
1780.000000	62.841516
1779.000000	62.856001
1778.000000	62.876002
1777.000000	62.899680
1776.000000	62.951864
1775.000000	63.048528
1774.000000	63.160931
1773.000000	63.264548
1772.000000	63.383040
1771.000000	63.509877
1770.000000	63.604943
1769.000000	63.658290
1768.000000	63.694553
1767.000000	63.743970
1766.000000	63.811680
1765.000000	63.889590
1764.000000	63.963776
1763.000000	64.016215
1762.000000	64.048220
1761.000000	64.087025
1760.000000	64.132695
1759.000000	64.168703
1758.000000	64.177344
1757.000000	64.172995
1756.000000	64.203786
1755.000000	64.276776
1754.000000	64.357444
1753.000000	64.423112
1752.000000	64.481348
1751.000000	64.550021
1750.000000	64.625759
1749.000000	64.680973
1748.000000	64.724111
1747.000000	64.781181
1746.000000	64.846458
1745.000000	64.910084
1744.000000	64.979327
1743.000000	65.067091
1742.000000	65.166247
1741.000000	65.245148
1740.000000	65.283104
1739.000000	65.306209
1738.000000	65.339904
1737.000000	65.393981
1736.000000	65.442803
1735.000000	65.445070
1734.000000	65.472649
1733.000000	65.571968
1732.000000	65.639689
1731.000000	65.628871
1730.000000	65.580616
1729.000000	65.538149
1728.000000	65.519543
1727.000000	65.513827
1726.000000	65.506815
1725.000000	65.506318
1724.000000	65.515171
1723.000000	65.538567
1722.000000	65.588417
1721.000000	65.664312
1720.000000	65.733966
1719.000000	65.751265
1718.000000	65.753630
1717.000000	65.815374
1716.000000	65.893070
1715.000000	65.924176
1714.000000	65.942223
1713.000000	65.989751
1712.000000	66.052880
1711.000000	66.108152
1710.000000	66.163541
1709.000000	66.236472
1708.000000	66.317281
1707.000000	66.369978
1706.000000	66.401018
1705.000000	66.462141
1704.000000	66.573737
1703.000000	66.732027
1702.000000	66.890088
1701.000000	66.988522
1700.000000	67.108147
1699.000000	67.268400
1698.000000	67.393635
1697.000000	67.472798
1696.000000	67.534080
1695.000000	67.633890
1694.000000	67.743479
1693.000000	67.810321
1692.000000	67.848405
1691.000000	67.887133
1690.000000	67.933368
1689.000000	67.980437
1688.000000	68.045048
1687.000000	68.148629
1686.000000	68.256491
1685.000000	68.293608
1684.000000	68.339527
1683.000000	68.454395
1682.000000	68.527247
1681.000000	68.514784
1680.000000	68.478054
1679.000000	68.482341
1678.000000	68.525741
1677.000000	68.546296
1676.000000	68.510192
1675.000000	68.479849
1674.000000	68.490387
1673.000000	68.504468
1672.000000	68.502051
1671.000000	68.502084
1670.000000	68.524767
1669.000000	68.563765
1668.000000	68.588326
1667.000000	68.586066
1666.000000	68.569356
1665.000000	68.536910
1664.000000	68.473970
1663.000000	68.416562
1662.000000	68.394540
1661.000000	68.363846
1660.000000	68.280096
1659.000000	68.148326
1658.000000	67.987152
1657.000000	67.814741
1656.000000	67.655733
1655.000000	67.434177
1654.000000	66.977635
1653.000000	66.378488
1652.000000	65.800607
1651.000000	65.140083
1650.000000	64.326542
1649.000000	63.272265
1648.000000	61.762224
1647.000000	59.661973
1646.000000	57.074952
1645.000000	54.158615
1644.000000	50.946854
1643.000000	47.393200
1642.000000	43.480950
1641.000000	39.354691
1640.000000	35.359172
1639.000000	31.831168
1638.000000	28.905320
1637.000000	26.598530
1636.000000	25.069163
1635.000000	24.533997
1634.000000	24.895960
1633.000000	25.868734
1632.000000	27.269151
1631.000000	29.013529
1630.000000	31.036934
1629.000000	33.263518
1628.000000	35.592342
1627.000000	37.875425
1626.000000	40.008364
1625.000000	42.036970
1624.000000	44.067851
1623.000000	46.086622
1622.000000	47.929306
1621.000000	49.495318
1620.000000	50.860957
1619.000000	52.155006
1618.000000	53.445055
1617.000000	54.738804
1616.000000	55.968303
1615.000000	56.983541
1614.000000	57.728785
1613.000000	58.301177
1612.000000	58.814365
1611.000000	59.290774
1610.000000	59.664187
1609.000000	59.884412
1608.000000	59.945837
1607.000000	59.816158
1606.000000	59.407608
1605.000000	58.653604
1604.000000	57.548473
1603.000000	56.095032
1602.000000	54.316491
1601.000000	52.328595
1600.000000	50.332524
1599.000000	48.519112
1598.000000	46.994621
1597.000000	45.796103
1596.000000	44.918441
1595.000000	44.298304
1594.000000	43.806791
1593.000000	43.321459
1592.000000	42.793742
1591.000000	42.216819
1590.000000	41.573800
1589.000000	40.851023
1588.000000	40.061916
1587.000000	39.209121
1586.000000	38.254113
1585.000000	37.163506
1584.000000	35.971234
1583.000000	34.728100
1582.000000	33.439829
1581.000000	32.111660
1580.000000	30.791969
1579.000000	29.484301
1578.000000	28.046659
1577.000000	26.283667
1576.000000	24.263591
1575.000000	22.359873
1574.000000	20.800540
1573.000000	19.507956
1572.000000	18.353743
1571.000000	17.306624
1570.000000	16.416063
1569.000000	15.741350
1568.000000	15.315593
1567.000000	15.142194
1566.000000	15.172348
1565.000000	15.325588
1564.000000	15.569818
1563.000000	15.924320
1562.000000	16.409734
1561.000000	17.037209
1560.000000	17.892086
1559.000000	19.079983
1558.000000	20.363973
1557.000000	21.375741
1556.000000	22.123081
1555.000000	22.781855
1554.000000	23.403433
1553.000000	23.935598
1552.000000	24.361725
1551.000000	24.759307
1550.000000	25.219700
1549.000000	25.772526
1548.000000	26.418113
1547.000000	27.184587
1546.000000	28.094811
1545.000000	29.110998
1544.000000	30.165526
1543.000000	31.228107
1542.000000	32.318999
1541.000000	33.455191
1540.000000	34.626497
1539.000000	35.757101
1538.000000	36.724761
1537.000000	37.510625
1536.000000	38.228566
1535.000000	39.006319
1534.000000	39.886704
1533.000000	40.809379
1532.000000	41.673799
1531.000000	42.456350
1530.000000	43.200853
1529.000000	43.927081
1528.000000	44.635096
1527.000000	45.337814
1526.000000	46.027781
1525.000000	46.667971
1524.000000	47.249374
1523.000000	47.804570
1522.000000	48.353495
1521.000000	48.879235
1520.000000	49.351890
1519.000000	49.772048
1518.000000	50.167541
1517.000000	50.556746
1516.000000	50.955594
1515.000000	51.369670
1514.000000	51.777002
1513.000000	52.156410
1512.000000	52.504901
1511.000000	52.842904
1510.000000	53.185597
1509.000000	53.533897
1508.000000	53.886319
1507.000000	54.300359
1506.000000	54.803348
1505.000000	55.258988
1504.000000	55.583971
1503.000000	55.848618
1502.000000	56.116000
1501.000000	56.387138
1500.000000	56.657202
1499.000000	56.939915
1498.000000	57.242499
1497.000000	57.557316
1496.000000	57.876273
1495.000000	58.196086
1494.000000	58.497666
1493.000000	58.764409
1492.000000	59.001284
1491.000000	59.230181
1490.000000	59.467694
1489.000000	59.701941
1488.000000	59.910908
1487.000000	60.101668
1486.000000	60.264545
1485.000000	60.341641
1484.000000	60.307857
1483.000000	60.157553
1482.000000	59.853132
1481.000000	59.348818
1480.000000	58.638643
1479.000000	57.690609
1478.000000	56.364424
1477.000000	54.525808
1476.000000	52.220677
1475.000000	49.609504
1474.000000	46.748554
1473.000000	43.724687
1472.000000	40.917318
1471.000000	38.731637
1470.000000	37.222851
1469.000000	36.242622
1468.000000	35.713823
1467.000000	35.673205
1466.000000	36.186983
1465.000000	37.232826
1464.000000	38.602001
1463.000000	39.952007
1462.000000	41.014707
1461.000000	41.678105
1460.000000	41.911760
1459.000000	41.671536
1458.000000	40.894328
1457.000000	39.726557
1456.000000	38.604329
1455.000000	37.818274
1454.000000	37.319864
1453.000000	36.983612
1452.000000	36.751256
1451.000000	36.610793
1450.000000	36.567136
1449.000000	36.643954
1448.000000	36.863619
1447.000000	37.203837
1446.000000	37.601896
1445.000000	38.040170
1444.000000	38.559864
1443.000000	39.202088
1442.000000	39.994784
1441.000000	40.967784
1440.000000	42.149833
1439.000000	43.557951
1438.000000	45.206145
1437.000000	47.041232
1436.000000	48.841390
1435.000000	50.336806
1434.000000	51.485997
1433.000000	52.433947
1432.000000	53.284852
1431.000000	54.044404
1430.000000	54.699324
1429.000000	55.266998
1428.000000	55.760284
1427.000000	56.187283
1426.000000	56.562310
1425.000000	56.913540
1424.000000	57.266125
1423.000000	57.617782
1422.000000	57.965819
1421.000000	58.312672
1420.000000	58.640053
1419.000000	58.925980
1418.000000	59.181081
1417.000000	59.428040
1416.000000	59.677783
1415.000000	59.930976
1414.000000	60.191123
1413.000000	60.469925
1412.000000	60.764933
1411.000000	61.052456
1410.000000	61.322287
1409.000000	61.587181
1408.000000	61.845587
1407.000000	62.086863
1406.000000	62.311329
1405.000000	62.532805
1404.000000	62.750484
1403.000000	62.928784
1402.000000	63.016041
1401.000000	62.936777
1400.000000	62.602330
1399.000000	62.016588
1398.000000	61.356179
1397.000000	60.867692
1396.000000	60.712697
1395.000000	60.900738
1394.000000	61.289195
1393.000000	61.698770
1392.000000	62.058088
1391.000000	62.419714
1390.000000	62.871387
1389.000000	63.455807
1388.000000	64.144040
1387.000000	64.859511
1386.000000	65.524147
1385.000000	66.096024
1384.000000	66.571892
1383.000000	66.964079
1382.000000	67.298185
1381.000000	67.596808
1380.000000	67.857026
1379.000000	68.050638
1378.000000	68.134617
1377.000000	68.027866
1376.000000	67.542638
1375.000000	66.347563
1374.000000	64.039718
1373.000000	60.352570
1372.000000	55.379193
1371.000000	49.689521
1370.000000	44.294173
1369.000000	40.382079
1368.000000	38.758198
1367.000000	39.334332
1366.000000	41.242818
1365.000000	43.398837
1364.000000	44.911031
1363.000000	45.254281
1362.000000	44.417793
1361.000000	42.975091
1360.000000	41.854507
1359.000000	41.892776
1358.000000	43.437318
1357.000000	46.197995
1356.000000	49.480116
1355.000000	52.615796
1354.000000	55.253551
1353.000000	57.359260
1352.000000	59.035773
1351.000000	60.392519
1350.000000	61.510617
1349.000000	62.445178
1348.000000	63.229859
1347.000000	63.892543
1346.000000	64.468666
1345.000000	64.990148
1344.000000	65.473609
1343.000000	65.923903
1342.000000	66.348881
1341.000000	66.758106
1340.000000	67.153039
1339.000000	67.530068
1338.000000	67.887314
1337.000000	68.223323
1336.000000	68.527700
1335.000000	68.778700
1334.000000	68.943238
1333.000000	68.950637
1332.000000	68.671843
1331.000000	67.945417
1330.000000	66.646079
1329.000000	64.747754
1328.000000	62.296854
1327.000000	59.338102
1326.000000	55.910260
1325.000000	52.186618
1324.000000	48.651138
1323.000000	46.018798
1322.000000	44.820593
1321.000000	45.024733
1320.000000	46.090066
1319.000000	47.377959
1318.000000	48.531125
1317.000000	49.509664
1316.000000	50.389737
1315.000000	51.227664
1314.000000	52.071851
1313.000000	53.015158
1312.000000	54.168670
1311.000000	55.574039
1310.000000	57.148155
1309.000000	58.709893
1308.000000	60.057630
1307.000000	61.045342
1306.000000	61.614403
1305.000000	61.758980
1304.000000	61.478837
1303.000000	60.759720
1302.000000	59.588967
1301.000000	58.009953
1300.000000	56.186347
1299.000000	54.423407
1298.000000	53.070530
1297.000000	52.335543
1296.000000	52.163454
1295.000000	52.273469
1294.000000	52.307213
1293.000000	51.966886
1292.000000	51.081693
1291.000000	49.608342
1290.000000	47.584144
1289.000000	45.097922
1288.000000	42.338469
1287.000000	39.667266
1286.000000	37.560692
1285.000000	36.397125
1284.000000	36.268225
1283.000000	36.991235
1282.000000	38.308331
1281.000000	40.050301
1280.000000	42.111473
1279.000000	44.299682
1278.000000	46.274348
1277.000000	47.678873
1276.000000	48.325601
1275.000000	48.265055
1274.000000	47.734050
1273.000000	47.076974
1272.000000	46.679416
1271.000000	46.877848
1270.000000	47.837248
1269.000000	49.477750
1268.000000	51.525708
1267.000000	53.660230
1266.000000	55.645036
1265.000000	57.374308
1264.000000	58.840749
1263.000000	60.081205
1262.000000	61.142522
1261.000000	62.066923
1260.000000	62.882846
1259.000000	63.604414
1258.000000	64.245624
1257.000000	64.819559
1256.000000	65.331308
1255.000000	65.783139
1254.000000	66.183886
1253.000000	66.550210
1252.000000	66.894774
1251.000000	67.225157
1250.000000	67.551801
1249.000000	67.884067
1248.000000	68.220326
1247.000000	68.549401
1246.000000	68.862661
1245.000000	69.156502
1244.000000	69.424333
1243.000000	69.659781
1242.000000	69.866680
1241.000000	70.055264
1240.000000	70.228778
1239.000000	70.381734
1238.000000	70.511217
1237.000000	70.616496
1236.000000	70.688967
1235.000000	70.716349
1234.000000	70.694955
1233.000000	70.630679
1232.000000	70.527699
1231.000000	70.386161
1230.000000	70.210521
1229.000000	70.001136
1228.000000	69.741041
1227.000000	69.396440
1226.000000	68.925317
1225.000000	68.283092
1224.000000	67.410931
1223.000000	66.244876
1222.000000	64.734422
1221.000000	62.845535
1220.000000	60.574577
1219.000000	57.960577
1218.000000	55.094123
1217.000000	52.105089
1216.000000	49.142091
1215.000000	46.364689
1214.000000	43.940411
1213.000000	42.028323
1212.000000	40.751163
1211.000000	40.165839
1210.000000	40.214928
1209.000000	40.727308
1208.000000	41.465658
1207.000000	42.180687
1206.000000	42.666177
1205.000000	42.786818
1204.000000	42.484860
1203.000000	41.774600
1202.000000	40.738278
1201.000000	39.529955
1200.000000	38.371500
1199.000000	37.514968
1198.000000	37.166242
1197.000000	37.413245
1196.000000	38.220507
1195.000000	39.465683
1194.000000	40.998084
1193.000000	42.692693
1192.000000	44.464068
1191.000000	46.264883
1190.000000	48.067033
1189.000000	49.848115
1188.000000	51.585525
1187.000000	53.250069
1186.000000	54.808284
1185.000000	56.233123
1184.000000	57.511997
1183.000000	58.644813
1182.000000	59.645494
1181.000000	60.531069
1180.000000	61.312429
1179.000000	61.997803
1178.000000	62.595483
1177.000000	63.115721
1176.000000	63.554900
1175.000000	63.891060
1174.000000	64.095066
1173.000000	64.126020
1172.000000	63.932863
1171.000000	63.452565
1170.000000	62.620149
1169.000000	61.384516
1168.000000	59.717041
1167.000000	57.652642
1166.000000	55.329443
1165.000000	52.992091
1164.000000	50.946562
1163.000000	49.482187
1162.000000	48.777161
1161.000000	48.850825
1160.000000	49.585105
1159.000000	50.773779
1158.000000	52.198634
1157.000000	53.673783
1156.000000	55.062366
1155.000000	56.277630
1154.000000	57.272346
1153.000000	58.028067
1152.000000	58.540845
1151.000000	58.811007
1150.000000	58.834125
1149.000000	58.606010
1148.000000	58.104305
1147.000000	57.286719
1146.000000	56.098413
1145.000000	54.460774
1144.000000	52.292154
1143.000000	49.530213
1142.000000	46.184299
1141.000000	42.390113
1140.000000	38.416615
1139.000000	34.612208
1138.000000	31.276289
1137.000000	28.537766
1136.000000	26.327938
1135.000000	24.475992
1134.000000	22.837674
1133.000000	21.426794
1132.000000	20.457112
1131.000000	20.238644
1130.000000	21.030877
1129.000000	22.893809
1128.000000	25.649176
1127.000000	28.921824
1126.000000	32.213441
1125.000000	35.004008
1124.000000	36.846244
1123.000000	37.439175
1122.000000	36.687977
1121.000000	34.732575
1120.000000	31.870422
1119.000000	28.473148
1118.000000	24.958461
1117.000000	21.813180
1116.000000	19.581538
1115.000000	18.728049
1114.000000	19.429148
1113.000000	21.468343
1112.000000	24.302563
1111.000000	27.202083
1110.000000	29.492284
1109.000000	30.834805
1108.000000	31.386796
1107.000000	31.680420
1106.000000	32.263903
1105.000000	33.377651
1104.000000	34.876133
1103.000000	36.349512
1102.000000	37.282235
1101.000000	37.235210
1100.000000	36.044997
1099.000000	33.989374
1098.000000	31.774504
1097.000000	30.270080
1096.000000	30.120077
1095.000000	31.472324
1094.000000	33.976542
1093.000000	37.027807
1092.000000	40.085337
1091.000000	42.831435
1090.000000	45.166743
1089.000000	47.124797
1088.000000	48.786182
1087.000000	50.236955
1086.000000	51.552806
1085.000000	52.785500
1084.000000	53.952891
1083.000000	55.054995
1082.000000	56.085847
1081.000000	57.040156
1080.000000	57.910713
1079.000000	58.682692
1078.000000	59.344418
1077.000000	59.873107
1076.000000	60.224168
1075.000000	60.332352
1074.000000	60.103232
1073.000000	59.423335
1072.000000	58.129566
1071.000000	56.015889
1070.000000	52.872352
1069.000000	48.521079
1068.000000	42.942459
1067.000000	36.408991
1066.000000	29.552169
1065.000000	23.252369
1064.000000	18.352675
1063.000000	15.304743
1062.000000	13.941996
1061.000000	13.554926
1060.000000	13.263446
1059.000000	12.502736
1058.000000	11.263725
1057.000000	10.026480
1056.000000	9.436236
1055.000000	9.909263
1054.000000	11.472860
1053.000000	13.839990
1052.000000	16.624538
1051.000000	19.506847
1050.000000	22.275994
1049.000000	24.840934
1048.000000	27.202675
1047.000000	29.400266
1046.000000	31.458967
1045.000000	33.377319
1044.000000	35.140212
1043.000000	36.735115
1042.000000	38.160850
1041.000000	39.425886
1040.000000	40.551529
1039.000000	41.557854
1038.000000	42.457688
1037.000000	43.259932
1036.000000	43.968552
1035.000000	44.587067
1034.000000	45.116372
1033.000000	45.559545
1032.000000	45.928013
1031.000000	46.238599
1030.000000	46.513305
1029.000000	46.772708
1028.000000	47.028133
1027.000000	47.277601
1026.000000	47.503641
1025.000000	47.680722
1024.000000	47.779157
1023.000000	47.769328
1022.000000	47.631557
1021.000000	47.352141
1020.000000	46.920883
1019.000000	46.319004
1018.000000	45.509542
1017.000000	44.442781
1016.000000	43.059719
1015.000000	41.327353
1014.000000	39.286132
1013.000000	37.086248
1012.000000	34.979058
1011.000000	33.233918
1010.000000	32.005175
1009.000000	31.231246
1008.000000	30.665983
1007.000000	30.050261
1006.000000	29.345184
1005.000000	28.822346
1004.000000	28.912543
1003.000000	29.905585
1002.000000	31.726070
1001.000000	33.987527
1000.000000	36.215367
999.000000	38.041918
998.000000	39.275070
997.000000	39.872887
996.000000	39.909103
995.000000	39.558881
994.000000	39.088659
993.000000	38.811071
992.000000	38.994850
991.000000	39.757957
990.000000	41.014832
989.000000	42.538385
988.000000	44.095285
987.000000	45.537909
986.000000	46.817278
985.000000	47.944908
984.000000	48.948289
983.000000	49.847686
982.000000	50.652651
981.000000	51.366706
980.000000	51.994528
979.000000	52.550419
978.000000	53.053778
977.000000	53.524034
976.000000	53.975433
975.000000	54.414372
974.000000	54.842202
973.000000	55.253996
972.000000	55.641191
971.000000	55.997066
970.000000	56.321196
969.000000	56.620045
968.000000	56.902430
967.000000	57.177869
966.000000	57.455822
965.000000	57.741354
964.000000	58.031869
963.000000	58.318830
962.000000	58.593631
961.000000	58.850303
960.000000	59.084877
959.000000	59.298408
958.000000	59.499996
957.000000	59.703012
956.000000	59.917155
955.000000	60.145852
954.000000	60.389195
953.000000	60.643352
952.000000	60.898047
951.000000	61.140920
950.000000	61.365872
949.000000	61.574450
948.000000	61.770758
947.000000	61.960526
946.000000	62.153683
945.000000	62.359874
944.000000	62.580236
943.000000	62.807481
942.000000	63.033506
941.000000	63.252041
940.000000	63.455445
939.000000	63.638023
938.000000	63.803687
937.000000	63.963901
936.000000	64.127591
935.000000	64.298231
934.000000	64.478912
933.000000	64.671227
932.000000	64.868603
931.000000	65.059234
930.000000	65.236509
929.000000	65.400874
928.000000	65.552998
927.000000	65.693974
926.000000	65.832047
925.000000	65.978706
924.000000	66.136793
923.000000	66.300024
922.000000	66.463772
921.000000	66.627155
920.000000	66.784828
919.000000	66.928286
918.000000	67.057598
917.000000	67.181930
916.000000	67.307707
915.000000	67.435743
914.000000	67.569019
913.000000	67.712167
912.000000	67.858260
911.000000	67.989373
910.000000	68.084812
909.000000	68.114585
908.000000	68.023547
907.000000	67.728536
906.000000	67.145139
905.000000	66.205103
904.000000	64.873262
903.000000	63.207852
902.000000	61.437449
901.000000	59.953209
900.000000	59.160096
899.000000	59.265001
898.000000	60.162673
897.000000	61.526255
896.000000	62.994166
895.000000	64.320290
894.000000	65.416303
893.000000	66.294427
892.000000	67.000941
891.000000	67.579493
890.000000	68.064265
889.000000	68.475673
888.000000	68.818227
887.000000	69.072624
886.000000	69.187765
885.000000	69.079793
884.000000	68.663603
883.000000	67.940968
882.000000	67.049916
881.000000	66.192025
880.000000	65.470679
879.000000	64.813009
878.000000	64.086368
877.000000	63.299188
876.000000	62.678156
875.000000	62.523052
874.000000	62.982773
873.000000	63.947272
872.000000	65.135125
871.000000	66.274087
870.000000	67.221121
869.000000	67.963487
868.000000	68.546169
867.000000	69.018241
866.000000	69.418143
865.000000	69.772560
864.000000	70.090092
863.000000	70.367380
862.000000	70.604460
861.000000	70.807789
860.000000	70.983398
859.000000	71.135155
858.000000	71.274244
857.000000	71.417114
856.000000	71.570961
855.000000	71.731068
854.000000	71.891767
853.000000	72.050530
852.000000	72.200134
851.000000	72.329132
850.000000	72.434878
849.000000	72.527123
848.000000	72.617611
847.000000	72.714869
846.000000	72.828677
845.000000	72.967231
844.000000	73.126221
843.000000	73.289936
842.000000	73.445004
841.000000	73.584438
840.000000	73.700488
839.000000	73.788090
838.000000	73.858295
837.000000	73.935399
836.000000	74.036449
835.000000	74.162691
834.000000	74.310245
833.000000	74.475661
832.000000	74.648263
831.000000	74.810984
830.000000	74.955206
829.000000	75.086588
828.000000	75.214669
827.000000	75.348000
826.000000	75.500743
825.000000	75.688302
824.000000	75.910312
823.000000	76.148490
822.000000	76.383689
821.000000	76.603058
820.000000	76.792233
819.000000	76.938783
818.000000	77.046965
817.000000	77.135735
816.000000	77.218619
815.000000	77.297305
814.000000	77.372404
813.000000	77.440856
812.000000	77.480926
811.000000	77.452412
810.000000	77.318722
809.000000	77.058326
808.000000	76.649589
807.000000	76.067493
806.000000	75.290215
805.000000	74.295525
804.000000	73.045898
803.000000	71.479530
802.000000	69.534039
801.000000	67.159860
800.000000	64.329313
799.000000	61.060621
798.000000	57.435310
797.000000	53.596699
796.000000	49.716596
795.000000	45.966909
794.000000	42.504221
793.000000	39.465214
792.000000	36.958369
791.000000	35.059702
790.000000	33.817069
789.000000	33.242153
788.000000	33.308011
787.000000	33.936109
786.000000	35.007374
785.000000	36.385773
784.000000	37.922609
783.000000	39.463661
782.000000	40.860447
781.000000	41.990738
780.000000	42.768569
779.000000	43.155330
778.000000	43.172217
777.000000	42.892238
776.000000	42.401210
775.000000	41.762585
774.000000	41.029042
773.000000	40.280052
772.000000	39.646009
771.000000	39.291411
770.000000	39.371798
769.000000	39.978127
768.000000	41.099333
767.000000	42.628294
766.000000	44.413215
765.000000	46.316114
764.000000	48.230732
763.000000	50.082139
762.000000	51.828489
761.000000	53.458645
760.000000	54.973539
759.000000	56.372487
758.000000	57.660808
757.000000	58.854336
756.000000	59.968027
755.000000	61.008322
754.000000	61.985168
753.000000	62.915876
752.000000	63.809257
751.000000	64.658073
750.000000	65.451885
749.000000	66.186903
748.000000	66.856710
747.000000	67.450525
746.000000	67.970929
745.000000	68.438997
744.000000	68.875188
743.000000	69.287095
742.000000	69.680126
741.000000	70.062662
740.000000	70.429834
739.000000	70.757421
738.000000	71.021057
737.000000	71.209364
736.000000	71.314313
735.000000	71.326604
734.000000	71.252247
733.000000	71.120147
732.000000	70.964781
731.000000	70.812198
730.000000	70.683019
729.000000	70.588177
728.000000	70.510939
727.000000	70.401439
726.000000	70.202271
725.000000	69.877437
724.000000	69.405145
723.000000	68.743616
722.000000	67.807187
721.000000	66.483525
720.000000	64.692657
719.000000	62.454527
718.000000	59.911449
717.000000	57.297262
716.000000	54.885053
715.000000	52.935150
714.000000	51.652503
713.000000	51.144188
712.000000	51.387362
711.000000	52.245578
710.000000	53.540655
709.000000	55.112730
708.000000	56.825296
707.000000	58.557366
706.000000	60.223059
705.000000	61.787210
704.000000	63.239194
703.000000	64.571321
702.000000	65.794587
701.000000	66.941877
700.000000	68.033919
699.000000	69.060250
698.000000	70.003662
697.000000	70.863030
696.000000	71.635785
695.000000	72.307107
694.000000	72.880688
693.000000	73.393122
692.000000	73.880417
691.000000	74.350706
690.000000	74.803559
689.000000	75.250502
688.000000	75.692034
687.000000	76.100514
686.000000	76.450510
685.000000	76.742891
684.000000	76.984620
683.000000	77.175419
682.000000	77.333044
681.000000	77.499564
680.000000	77.696141
679.000000	77.908669
678.000000	78.107415
677.000000	78.282631
676.000000	78.439495
675.000000	78.551472
674.000000	78.653052
673.000000	78.927807
672.000000	79.622252
671.000000	80.802391
670.000000	82.189685
669.000000	82.947721
668.000000	82.279388
667.000000	80.918897
666.000000	80.022670
665.000000	79.629051
664.000000	79.501401
663.000000	79.481214
662.000000	79.516001
661.000000	79.582601
660.000000	79.669055
659.000000	79.783617
658.000000	79.925213
657.000000	80.059612
656.000000	80.158655
655.000000	80.206654
654.000000	80.203568
653.000000	80.160666
652.000000	80.102169
651.000000	80.057346
650.000000	80.037446
649.000000	80.026410
648.000000	80.003511
647.000000	79.962174
646.000000	79.899827
645.000000	79.805703
644.000000	79.666317
643.000000	79.481265
642.000000	79.269200
641.000000	79.056258
640.000000	78.865261
639.000000	78.711649
638.000000	78.594762
637.000000	78.492321
636.000000	78.370361
635.000000	78.199583
634.000000	77.966720
633.000000	77.675525
632.000000	77.343301
631.000000	76.998755
630.000000	76.672343
629.000000	76.379203
628.000000	76.113475
627.000000	75.852359
626.000000	75.563626
625.000000	75.217869
624.000000	74.797095
623.000000	74.303764
622.000000	73.765137
621.000000	73.221579
620.000000	72.696657
619.000000	72.170852
618.000000	71.588074
617.000000	70.897464
616.000000	70.093416
615.000000	69.201235
614.000000	68.227436
613.000000	67.146941
612.000000	65.940844
611.000000	64.627198
610.000000	63.234802
609.000000	61.764232
608.000000	60.200379
607.000000	58.536546
606.000000	56.761619
605.000000	54.846955
604.000000	52.777215
603.000000	50.583675
602.000000	48.312677
601.000000	45.986494
600.000000	43.632012
599.000000	41.314861
598.000000	39.092917
597.000000	36.968919
596.000000	34.935064
595.000000	33.023357
594.000000	31.263792
593.000000	29.634333
592.000000	28.119738
591.000000	26.763825
590.000000	25.601930
589.000000	24.596012
588.000000	23.685664
587.000000	22.848455
586.000000	22.049760
585.000000	21.200665
584.000000	20.241675
583.000000	19.217887
582.000000	18.220239
581.000000	17.311322
580.000000	16.561440
579.000000	16.091408
578.000000	15.989940
577.000000	16.243082
576.000000	16.784479
575.000000	17.537536
574.000000	18.374503
573.000000	19.118268
572.000000	19.669793
571.000000	20.100441
570.000000	20.581099
569.000000	21.254322
568.000000	22.186250
567.000000	23.363776
566.000000	24.676404
565.000000	25.958419
564.000000	27.103358
563.000000	28.107663
562.000000	28.999811
561.000000	29.786063
560.000000	30.486207
559.000000	31.158645
558.000000	31.849310
557.000000	32.555070
556.000000	33.262744
555.000000	33.984248
554.000000	34.722321
553.000000	35.448628
552.000000	36.146650
551.000000	36.838100
550.000000	37.541179
549.000000	38.239092
548.000000	38.916088
547.000000	39.587359
546.000000	40.266626
545.000000	40.936665
544.000000	41.577929
543.000000	42.196821
542.000000	42.804240
541.000000	43.392577
540.000000	43.957543
539.000000	44.516191
538.000000	45.080832
537.000000	45.634774
536.000000	46.151999
535.000000	46.626001
534.000000	47.061319
533.000000	47.455353
532.000000	47.803122
531.000000	48.107135
530.000000	48.367925
529.000000	48.567763
528.000000	48.670710
527.000000	48.637604
526.000000	48.424897
525.000000	47.992087
524.000000	47.333034
523.000000	46.503068
522.000000	45.617806
521.000000	44.804827
520.000000	44.136789
519.000000	43.562840
518.000000	42.865543
517.000000	41.735034
516.000000	39.954949
515.000000	37.567034
514.000000	34.868601
513.000000	32.273150
512.000000	30.166375
511.000000	28.822430
510.000000	28.342792
509.000000	28.659974
508.000000	29.641938
507.000000	31.136264
506.000000	32.947619
505.000000	34.871926
504.000000	36.780237
503.000000	38.633534
502.000000	40.398793
501.000000	42.022603
500.000000	43.488074
499.000000	44.835886
498.000000	46.105614
497.000000	47.298180
496.000000	48.398405
495.000000	49.402988
494.000000	50.324740
493.000000	51.181848
492.000000	52.001821
491.000000	52.817435
490.000000	53.645110
489.000000	54.479539
488.000000	55.298536
487.000000	56.071823
486.000000	56.768617
485.000000	57.371268
484.000000	57.890073
483.000000	58.357065
482.000000	58.808671
481.000000	59.273402
480.000000	59.764730
479.000000	60.274385
478.000000	60.760829
477.000000	61.156134
476.000000	61.382767
475.000000	61.349366
474.000000	60.951373
473.000000	60.097964
472.000000	58.786903
471.000000	57.172458
470.000000	55.531898
469.000000	54.172954
468.000000	53.336652
467.000000	53.055423
466.000000	53.029627
465.000000	52.741344
464.000000	51.773850
463.000000	50.094617
462.000000	48.141921
461.000000	46.608157
460.000000	46.104702
459.000000	46.941078
458.000000	48.980482
457.000000	51.622157
456.000000	54.168100
455.000000	56.275222
454.000000	57.932987
453.000000	59.213677
452.000000	60.172011
451.000000	60.867799
450.000000	61.330667
449.000000	61.499496
448.000000	61.230937
447.000000	60.391962
446.000000	58.996916
445.000000	57.266568
444.000000	55.592400
443.000000	54.421875
442.000000	54.050668
441.000000	54.465597
440.000000	55.433188
439.000000	56.679350
438.000000	57.966970
437.000000	59.116355
436.000000	60.015563
435.000000	60.627701
434.000000	60.975242
433.000000	61.112084
432.000000	61.101132
431.000000	61.015768
430.000000	60.928536
429.000000	60.872579
428.000000	60.829310
427.000000	60.749014
426.000000	60.581319
425.000000	60.296751
424.000000	59.915082
423.000000	59.518370
422.000000	59.189782
421.000000	58.944636
420.000000	58.753309
419.000000	58.627629
418.000000	58.598849
417.000000	58.613515
416.000000	58.598443
415.000000	58.545638
414.000000	58.478857
413.000000	58.414851
412.000000	58.378930
411.000000	58.427318
410.000000	58.611133
409.000000	58.904786
408.000000	59.219269
407.000000	59.488612
406.000000	59.703757
405.000000	59.875638
404.000000	60.008493
403.000000	60.130176
402.000000	60.295379
401.000000	60.572644
400.000000	60.959664
