PE IR       SUBTECH     SPECTRUM    ASCII       PEDS        4.00        
   -1
23ms123-trans-ir.asc
24/10/15
16:19:33.00
24/10/15
16:19:33.00
Administrator
Sample 1278 By Administrator Date Tuesday, October 15 2024
400.000000
#HDR
-1
-1
#GR
cm-1
%T
1.0
0.0
4000.000000
-1.000000
3601
8
111.872534
25.014163
#DATA
4000.000000	88.898278
3999.000000	88.839310
3998.000000	88.785927
3997.000000	88.736153
3996.000000	88.686942
3995.000000	88.637519
3994.000000	88.589733
3993.000000	88.544315
3992.000000	88.498769
3991.000000	88.448957
3990.000000	88.390370
3989.000000	88.319780
3988.000000	88.237543
3987.000000	88.148066
3986.000000	88.057378
3985.000000	87.969727
3984.000000	87.887277
3983.000000	87.811109
3982.000000	87.742225
3981.000000	87.683371
3980.000000	87.638891
3979.000000	87.613149
3978.000000	87.610809
3977.000000	87.634246
3976.000000	87.680851
3975.000000	87.743769
3974.000000	87.816628
3973.000000	87.898628
3972.000000	87.990887
3971.000000	88.093506
3970.000000	88.203069
3969.000000	88.312123
3968.000000	88.414128
3967.000000	88.506627
3966.000000	88.590518
3965.000000	88.667524
3964.000000	88.737448
3963.000000	88.797053
3962.000000	88.844935
3961.000000	88.883662
3960.000000	88.913966
3959.000000	88.939070
3958.000000	88.964346
3957.000000	88.992485
3956.000000	89.024582
3955.000000	89.060665
3954.000000	89.102723
3953.000000	89.151638
3952.000000	89.207046
3951.000000	89.270240
3950.000000	89.337908
3949.000000	89.403712
3948.000000	89.471649
3947.000000	89.556545
3946.000000	89.664966
3945.000000	89.783058
3944.000000	89.889650
3943.000000	89.969825
3942.000000	90.025874
3941.000000	90.077498
3940.000000	90.134775
3939.000000	90.194262
3938.000000	90.248509
3937.000000	90.291257
3936.000000	90.327359
3935.000000	90.367580
3934.000000	90.425815
3933.000000	90.500814
3932.000000	90.571222
3931.000000	90.618573
3930.000000	90.639201
3929.000000	90.657442
3928.000000	90.698103
3927.000000	90.749322
3926.000000	90.783526
3925.000000	90.789956
3924.000000	90.780516
3923.000000	90.772919
3922.000000	90.772033
3921.000000	90.784522
3920.000000	90.820098
3919.000000	90.872788
3918.000000	90.924777
3917.000000	90.968591
3916.000000	91.015123
3915.000000	91.069723
3914.000000	91.121145
3913.000000	91.170570
3912.000000	91.212590
3911.000000	91.240386
3910.000000	91.256786
3909.000000	91.276356
3908.000000	91.325534
3907.000000	91.399749
3906.000000	91.458948
3905.000000	91.469877
3904.000000	91.448052
3903.000000	91.462870
3902.000000	91.555367
3901.000000	91.682893
3900.000000	91.783934
3899.000000	91.828489
3898.000000	91.825305
3897.000000	91.815410
3896.000000	91.828480
3895.000000	91.890073
3894.000000	91.995853
3893.000000	92.087759
3892.000000	92.080284
3891.000000	91.975281
3890.000000	91.891031
3889.000000	91.906261
3888.000000	91.996419
3887.000000	92.097819
3886.000000	92.139565
3885.000000	92.120762
3884.000000	92.117630
3883.000000	92.178719
3882.000000	92.268484
3881.000000	92.299825
3880.000000	92.230468
3879.000000	92.138533
3878.000000	92.126597
3877.000000	92.197064
3876.000000	92.270613
3875.000000	92.278770
3874.000000	92.247761
3873.000000	92.254854
3872.000000	92.315032
3871.000000	92.368674
3870.000000	92.357277
3869.000000	92.331827
3868.000000	92.368880
3867.000000	92.444463
3866.000000	92.523445
3865.000000	92.592687
3864.000000	92.597231
3863.000000	92.541463
3862.000000	92.483936
3861.000000	92.464440
3860.000000	92.473879
3859.000000	92.487911
3858.000000	92.526451
3857.000000	92.641847
3856.000000	92.863793
3855.000000	93.101700
3854.000000	93.097618
3853.000000	92.816308
3852.000000	92.613275
3851.000000	92.653167
3850.000000	92.765976
3849.000000	92.839635
3848.000000	92.858151
3847.000000	92.838909
3846.000000	92.820997
3845.000000	92.811565
3844.000000	92.781241
3843.000000	92.751633
3842.000000	92.758197
3841.000000	92.818182
3840.000000	92.920981
3839.000000	93.005164
3838.000000	93.020291
3837.000000	92.986138
3836.000000	92.971234
3835.000000	93.013234
3834.000000	93.076971
3833.000000	93.110684
3832.000000	93.094668
3831.000000	93.054748
3830.000000	93.051862
3829.000000	93.107896
3828.000000	93.150089
3827.000000	93.125873
3826.000000	93.075710
3825.000000	93.083978
3824.000000	93.188973
3823.000000	93.342524
3822.000000	93.409261
3821.000000	93.309136
3820.000000	93.195062
3819.000000	93.229416
3818.000000	93.379117
3817.000000	93.511607
3816.000000	93.527351
3815.000000	93.460947
3814.000000	93.418413
3813.000000	93.426073
3812.000000	93.450394
3811.000000	93.489495
3810.000000	93.571326
3809.000000	93.672414
3808.000000	93.702427
3807.000000	93.623956
3806.000000	93.536893
3805.000000	93.580834
3804.000000	93.746920
3803.000000	93.930203
3802.000000	93.996488
3801.000000	93.900154
3800.000000	93.795403
3799.000000	93.806506
3798.000000	93.891249
3797.000000	93.952389
3796.000000	93.949290
3795.000000	93.913608
3794.000000	93.898859
3793.000000	93.925347
3792.000000	93.971868
3791.000000	94.005094
3790.000000	94.019264
3789.000000	94.030913
3788.000000	94.058808
3787.000000	94.101990
3786.000000	94.131930
3785.000000	94.133037
3784.000000	94.128228
3783.000000	94.156139
3782.000000	94.225214
3781.000000	94.302125
3780.000000	94.329977
3779.000000	94.301024
3778.000000	94.270763
3777.000000	94.274048
3776.000000	94.286652
3775.000000	94.291852
3774.000000	94.312916
3773.000000	94.360388
3772.000000	94.400854
3771.000000	94.402379
3770.000000	94.363302
3769.000000	94.320033
3768.000000	94.317518
3767.000000	94.343779
3766.000000	94.356944
3765.000000	94.343828
3764.000000	94.328906
3763.000000	94.346164
3762.000000	94.391370
3761.000000	94.453955
3760.000000	94.492769
3759.000000	94.459835
3758.000000	94.389173
3757.000000	94.347357
3756.000000	94.359412
3755.000000	94.405705
3754.000000	94.480072
3753.000000	94.610473
3752.000000	94.752346
3751.000000	94.770710
3750.000000	94.651931
3749.000000	94.578679
3748.000000	94.682404
3747.000000	94.898022
3746.000000	95.119068
3745.000000	95.197665
3744.000000	95.037444
3743.000000	94.861128
3742.000000	94.829283
3741.000000	94.861221
3740.000000	94.900299
3739.000000	94.937673
3738.000000	94.987952
3737.000000	95.060034
3736.000000	95.167192
3735.000000	95.296265
3734.000000	95.387674
3733.000000	95.414755
3732.000000	95.390605
3731.000000	95.353794
3730.000000	95.341398
3729.000000	95.348281
3728.000000	95.368014
3727.000000	95.393680
3726.000000	95.414711
3725.000000	95.430947
3724.000000	95.451113
3723.000000	95.481502
3722.000000	95.491713
3721.000000	95.487572
3720.000000	95.493418
3719.000000	95.487389
3718.000000	95.459530
3717.000000	95.439239
3716.000000	95.466707
3715.000000	95.557925
3714.000000	95.698528
3713.000000	95.849623
3712.000000	95.934874
3711.000000	95.920843
3710.000000	95.874725
3709.000000	95.861785
3708.000000	95.882611
3707.000000	95.914013
3706.000000	95.950829
3705.000000	96.005283
3704.000000	96.072418
3703.000000	96.116020
3702.000000	96.093446
3701.000000	96.024690
3700.000000	95.984632
3699.000000	95.990706
3698.000000	96.005827
3697.000000	96.016088
3696.000000	96.022621
3695.000000	96.023025
3694.000000	96.024179
3693.000000	96.056375
3692.000000	96.137042
3691.000000	96.236208
3690.000000	96.290536
3689.000000	96.259527
3688.000000	96.201437
3687.000000	96.204907
3686.000000	96.256519
3685.000000	96.294783
3684.000000	96.307985
3683.000000	96.306134
3682.000000	96.287213
3681.000000	96.230090
3680.000000	96.170421
3679.000000	96.181202
3678.000000	96.278128
3677.000000	96.411547
3676.000000	96.434895
3675.000000	96.301967
3674.000000	96.207840
3673.000000	96.264958
3672.000000	96.399197
3671.000000	96.520608
3670.000000	96.522609
3669.000000	96.395215
3668.000000	96.286928
3667.000000	96.279343
3666.000000	96.308904
3665.000000	96.319520
3664.000000	96.306616
3663.000000	96.271120
3662.000000	96.217658
3661.000000	96.151718
3660.000000	96.114000
3659.000000	96.131952
3658.000000	96.167085
3657.000000	96.137790
3656.000000	96.015577
3655.000000	95.889607
3654.000000	95.825434
3653.000000	95.797778
3652.000000	95.796246
3651.000000	95.825391
3650.000000	95.823933
3649.000000	95.731896
3648.000000	95.606079
3647.000000	95.540269
3646.000000	95.526382
3645.000000	95.513620
3644.000000	95.480638
3643.000000	95.431178
3642.000000	95.370967
3641.000000	95.292361
3640.000000	95.198418
3639.000000	95.099224
3638.000000	95.009970
3637.000000	94.935485
3636.000000	94.856331
3635.000000	94.750546
3634.000000	94.620444
3633.000000	94.507503
3632.000000	94.452353
3631.000000	94.464490
3630.000000	94.476813
3629.000000	94.356622
3628.000000	94.128357
3627.000000	93.971097
3626.000000	93.915745
3625.000000	93.864865
3624.000000	93.782924
3623.000000	93.693126
3622.000000	93.615934
3621.000000	93.545993
3620.000000	93.435874
3619.000000	93.235093
3618.000000	92.994348
3617.000000	92.812108
3616.000000	92.706571
3615.000000	92.628618
3614.000000	92.528297
3613.000000	92.395702
3612.000000	92.266148
3611.000000	92.172591
3610.000000	92.109199
3609.000000	92.050476
3608.000000	91.967620
3607.000000	91.852742
3606.000000	91.728096
3605.000000	91.611544
3604.000000	91.509506
3603.000000	91.406436
3602.000000	91.276710
3601.000000	91.121528
3600.000000	90.965776
3599.000000	90.815148
3598.000000	90.673573
3597.000000	90.544226
3596.000000	90.412659
3595.000000	90.257803
3594.000000	90.067166
3593.000000	89.863262
3592.000000	89.684073
3591.000000	89.542794
3590.000000	89.432117
3589.000000	89.336305
3588.000000	89.219225
3587.000000	89.056545
3586.000000	88.880606
3585.000000	88.737299
3584.000000	88.630370
3583.000000	88.531407
3582.000000	88.419844
3581.000000	88.297480
3580.000000	88.174609
3579.000000	88.052809
3578.000000	87.928380
3577.000000	87.809991
3576.000000	87.702635
3575.000000	87.600002
3574.000000	87.491616
3573.000000	87.374605
3572.000000	87.261663
3571.000000	87.166788
3570.000000	87.098832
3569.000000	87.065272
3568.000000	87.056622
3567.000000	87.039802
3566.000000	87.003136
3565.000000	86.969994
3564.000000	86.955382
3563.000000	86.953725
3562.000000	86.955256
3561.000000	86.957273
3560.000000	86.960364
3559.000000	86.961692
3558.000000	86.957248
3557.000000	86.953358
3556.000000	86.962064
3555.000000	86.983187
3554.000000	87.003866
3553.000000	87.010013
3552.000000	86.999372
3551.000000	86.980734
3550.000000	86.961919
3549.000000	86.950818
3548.000000	86.955859
3547.000000	86.976450
3546.000000	87.000981
3545.000000	87.022896
3544.000000	87.043829
3543.000000	87.063930
3542.000000	87.078531
3541.000000	87.086503
3540.000000	87.092706
3539.000000	87.096067
3538.000000	87.094546
3537.000000	87.089298
3536.000000	87.083311
3535.000000	87.073345
3534.000000	87.052867
3533.000000	87.024924
3532.000000	86.997614
3531.000000	86.971234
3530.000000	86.934190
3529.000000	86.877884
3528.000000	86.807581
3527.000000	86.735762
3526.000000	86.672082
3525.000000	86.621420
3524.000000	86.579145
3523.000000	86.528847
3522.000000	86.457092
3521.000000	86.366733
3520.000000	86.269536
3519.000000	86.166044
3518.000000	86.048193
3517.000000	85.914523
3516.000000	85.771609
3515.000000	85.624354
3514.000000	85.472698
3513.000000	85.317375
3512.000000	85.159781
3511.000000	84.994416
3510.000000	84.811632
3509.000000	84.612100
3508.000000	84.407714
3507.000000	84.205274
3506.000000	84.000429
3505.000000	83.789879
3504.000000	83.576997
3503.000000	83.365922
3502.000000	83.158538
3501.000000	82.958275
3500.000000	82.768450
3499.000000	82.586294
3498.000000	82.406889
3497.000000	82.230766
3496.000000	82.062331
3495.000000	81.902497
3494.000000	81.750377
3493.000000	81.609095
3492.000000	81.483038
3491.000000	81.371305
3490.000000	81.269333
3489.000000	81.177559
3488.000000	81.101292
3487.000000	81.042762
3486.000000	81.001789
3485.000000	80.979304
3484.000000	80.973635
3483.000000	80.977064
3482.000000	80.984348
3481.000000	81.003658
3480.000000	81.047856
3479.000000	81.117391
3478.000000	81.200172
3477.000000	81.287062
3476.000000	81.376930
3475.000000	81.467657
3474.000000	81.555367
3473.000000	81.640928
3472.000000	81.729099
3471.000000	81.823141
3470.000000	81.925031
3469.000000	82.038807
3468.000000	82.166262
3467.000000	82.300793
3466.000000	82.433514
3465.000000	82.561668
3464.000000	82.685971
3463.000000	82.804251
3462.000000	82.915899
3461.000000	83.029217
3460.000000	83.153755
3459.000000	83.288018
3458.000000	83.423075
3457.000000	83.553332
3456.000000	83.681195
3455.000000	83.809735
3454.000000	83.937807
3453.000000	84.064675
3452.000000	84.191107
3451.000000	84.318037
3450.000000	84.445156
3449.000000	84.571166
3448.000000	84.693631
3447.000000	84.809877
3446.000000	84.922481
3445.000000	85.039043
3444.000000	85.162378
3443.000000	85.285017
3442.000000	85.397450
3441.000000	85.499193
3440.000000	85.597556
3439.000000	85.697946
3438.000000	85.801569
3437.000000	85.908889
3436.000000	86.022370
3435.000000	86.141423
3434.000000	86.259028
3433.000000	86.369104
3432.000000	86.472173
3431.000000	86.574539
3430.000000	86.681249
3429.000000	86.792596
3428.000000	86.905643
3427.000000	87.016557
3426.000000	87.124135
3425.000000	87.231115
3424.000000	87.341693
3423.000000	87.456774
3422.000000	87.573857
3421.000000	87.691129
3420.000000	87.809290
3419.000000	87.929103
3418.000000	88.049006
3417.000000	88.167052
3416.000000	88.283154
3415.000000	88.398888
3414.000000	88.516247
3413.000000	88.636627
3412.000000	88.759655
3411.000000	88.883295
3410.000000	89.006574
3409.000000	89.131723
3408.000000	89.260463
3407.000000	89.388909
3406.000000	89.510804
3405.000000	89.624026
3404.000000	89.732428
3403.000000	89.842451
3402.000000	89.961485
3401.000000	90.096404
3400.000000	90.246001
3399.000000	90.397570
3398.000000	90.536401
3397.000000	90.658889
3396.000000	90.772079
3395.000000	90.883110
3394.000000	90.995720
3393.000000	91.114662
3392.000000	91.244580
3391.000000	91.382903
3390.000000	91.520793
3389.000000	91.652192
3388.000000	91.777713
3387.000000	91.899490
3386.000000	92.018546
3385.000000	92.136998
3384.000000	92.257603
3383.000000	92.380243
3382.000000	92.502900
3381.000000	92.626349
3380.000000	92.752498
3379.000000	92.880263
3378.000000	93.007231
3377.000000	93.134426
3376.000000	93.263849
3375.000000	93.392425
3374.000000	93.514588
3373.000000	93.630386
3372.000000	93.746362
3371.000000	93.868827
3370.000000	94.000500
3369.000000	94.141820
3368.000000	94.290785
3367.000000	94.441885
3366.000000	94.589788
3365.000000	94.733825
3364.000000	94.876152
3363.000000	95.017798
3362.000000	95.160116
3361.000000	95.307440
3360.000000	95.463092
3359.000000	95.624169
3358.000000	95.784641
3357.000000	95.942195
3356.000000	96.097304
3355.000000	96.248466
3354.000000	96.394524
3353.000000	96.540593
3352.000000	96.695438
3351.000000	96.862276
3350.000000	97.035708
3349.000000	97.207002
3348.000000	97.370052
3347.000000	97.522399
3346.000000	97.666327
3345.000000	97.808675
3344.000000	97.954160
3343.000000	98.099577
3342.000000	98.237865
3341.000000	98.367792
3340.000000	98.495181
3339.000000	98.624326
3338.000000	98.751943
3337.000000	98.870196
3336.000000	98.972080
3335.000000	99.053477
3334.000000	99.113282
3333.000000	99.151702
3332.000000	99.167570
3331.000000	99.156033
3330.000000	99.110812
3329.000000	99.029023
3328.000000	98.910758
3327.000000	98.755651
3326.000000	98.561009
3325.000000	98.322010
3324.000000	98.032412
3323.000000	97.683584
3322.000000	97.268243
3321.000000	96.781782
3320.000000	96.217052
3319.000000	95.562135
3318.000000	94.800557
3317.000000	93.917040
3316.000000	92.895816
3315.000000	91.714953
3314.000000	90.353517
3313.000000	88.797242
3312.000000	87.041971
3311.000000	85.093364
3310.000000	82.965038
3309.000000	80.686154
3308.000000	78.296698
3307.000000	75.839094
3306.000000	73.357249
3305.000000	70.894698
3304.000000	68.492838
3303.000000	66.188009
3302.000000	64.014882
3301.000000	62.009376
3300.000000	60.204640
3299.000000	58.623206
3298.000000	57.281459
3297.000000	56.192595
3296.000000	55.350109
3295.000000	54.719197
3294.000000	54.240184
3293.000000	53.845015
3292.000000	53.469622
3291.000000	53.056468
3290.000000	52.570226
3289.000000	52.007597
3288.000000	51.389922
3287.000000	50.745909
3286.000000	50.098788
3285.000000	49.462223
3284.000000	48.835052
3283.000000	48.200070
3282.000000	47.535030
3281.000000	46.826629
3280.000000	46.073273
3279.000000	45.283432
3278.000000	44.480588
3277.000000	43.706453
3276.000000	43.008437
3275.000000	42.424093
3274.000000	41.978050
3273.000000	41.687438
3272.000000	41.564133
3271.000000	41.607707
3270.000000	41.809323
3269.000000	42.158243
3268.000000	42.639535
3267.000000	43.234637
3266.000000	43.920011
3265.000000	44.667800
3264.000000	45.439214
3263.000000	46.179533
3262.000000	46.826030
3261.000000	47.318230
3260.000000	47.597604
3259.000000	47.607797
3258.000000	47.308274
3257.000000	46.674971
3256.000000	45.699947
3255.000000	44.382296
3254.000000	42.730734
3253.000000	40.782760
3252.000000	38.600183
3251.000000	36.271456
3250.000000	33.913095
3249.000000	31.659554
3248.000000	29.637221
3247.000000	27.937216
3246.000000	26.610083
3245.000000	25.678688
3244.000000	25.151139
3243.000000	25.014163
3242.000000	25.235893
3241.000000	25.754611
3240.000000	26.468083
3239.000000	27.253041
3238.000000	27.994316
3237.000000	28.616892
3236.000000	29.090468
3235.000000	29.417887
3234.000000	29.625155
3233.000000	29.746807
3232.000000	29.808674
3231.000000	29.824033
3230.000000	29.808944
3229.000000	29.792193
3228.000000	29.808572
3227.000000	29.888635
3226.000000	30.059492
3225.000000	30.346323
3224.000000	30.763718
3223.000000	31.306632
3222.000000	31.955807
3221.000000	32.684813
3220.000000	33.456032
3219.000000	34.221023
3218.000000	34.933051
3217.000000	35.558840
3216.000000	36.077634
3215.000000	36.479007
3214.000000	36.768009
3213.000000	36.968525
3212.000000	37.112165
3211.000000	37.226910
3210.000000	37.339813
3209.000000	37.479203
3208.000000	37.668118
3207.000000	37.917586
3206.000000	38.231173
3205.000000	38.610643
3204.000000	39.053280
3203.000000	39.549017
3202.000000	40.086030
3201.000000	40.655973
3200.000000	41.248537
3199.000000	41.848787
3198.000000	42.443461
3197.000000	43.025641
3196.000000	43.589942
3195.000000	44.127956
3194.000000	44.632333
3193.000000	45.099819
3192.000000	45.526484
3191.000000	45.904245
3190.000000	46.228627
3189.000000	46.503656
3188.000000	46.735710
3187.000000	46.928981
3186.000000	47.088511
3185.000000	47.223465
3184.000000	47.340836
3183.000000	47.441087
3182.000000	47.524337
3181.000000	47.594182
3180.000000	47.653956
3179.000000	47.704554
3178.000000	47.751223
3177.000000	47.807609
3176.000000	47.888615
3175.000000	48.003285
3174.000000	48.158163
3173.000000	48.361972
3172.000000	48.621438
3171.000000	48.940822
3170.000000	49.326735
3169.000000	49.789578
3168.000000	50.336079
3167.000000	50.961411
3166.000000	51.655466
3165.000000	52.407918
3164.000000	53.206348
3163.000000	54.036230
3162.000000	54.884625
3161.000000	55.741294
3160.000000	56.590650
3159.000000	57.408354
3158.000000	58.166664
3157.000000	58.839757
3156.000000	59.400328
3155.000000	59.818427
3154.000000	60.068573
3153.000000	60.133265
3152.000000	60.008673
3151.000000	59.709694
3150.000000	59.276665
3149.000000	58.770964
3148.000000	58.248977
3147.000000	57.742637
3146.000000	57.253777
3145.000000	56.758694
3144.000000	56.217125
3143.000000	55.582899
3142.000000	54.824426
3141.000000	53.935086
3140.000000	52.926477
3139.000000	51.821667
3138.000000	50.654094
3137.000000	49.468259
3136.000000	48.309846
3135.000000	47.217333
3134.000000	46.225032
3133.000000	45.366553
3132.000000	44.667793
3131.000000	44.141241
3130.000000	43.792166
3129.000000	43.619287
3128.000000	43.613646
3127.000000	43.757738
3126.000000	44.032187
3125.000000	44.421704
3124.000000	44.906065
3123.000000	45.461416
3122.000000	46.068592
3121.000000	46.715437
3120.000000	47.390084
3119.000000	48.075194
3118.000000	48.756165
3117.000000	49.425063
3116.000000	50.073487
3115.000000	50.686993
3114.000000	51.250683
3113.000000	51.753914
3112.000000	52.187122
3111.000000	52.542008
3110.000000	52.814144
3109.000000	53.003484
3108.000000	53.106421
3107.000000	53.115107
3106.000000	53.028256
3105.000000	52.853856
3104.000000	52.604891
3103.000000	52.295540
3102.000000	51.947277
3101.000000	51.592402
3100.000000	51.264931
3099.000000	50.991895
3098.000000	50.793707
3097.000000	50.686821
3096.000000	50.678245
3095.000000	50.763483
3094.000000	50.931498
3093.000000	51.169547
3092.000000	51.462324
3091.000000	51.789712
3090.000000	52.132267
3089.000000	52.473983
3088.000000	52.800471
3087.000000	53.101311
3086.000000	53.375497
3085.000000	53.630711
3084.000000	53.873907
3083.000000	54.107286
3082.000000	54.335191
3081.000000	54.568375
3080.000000	54.818400
3079.000000	55.092233
3078.000000	55.394152
3077.000000	55.726819
3076.000000	56.087384
3075.000000	56.468467
3074.000000	56.865326
3073.000000	57.277730
3072.000000	57.703416
3071.000000	58.135101
3070.000000	58.567743
3069.000000	59.003097
3068.000000	59.443809
3067.000000	59.887017
3066.000000	60.326464
3065.000000	60.757707
3064.000000	61.177993
3063.000000	61.584738
3062.000000	61.976806
3061.000000	62.355081
3060.000000	62.719903
3059.000000	63.070332
3058.000000	63.408025
3057.000000	63.737369
3056.000000	64.060625
3055.000000	64.376093
3054.000000	64.682374
3053.000000	64.982073
3052.000000	65.277851
3051.000000	65.568225
3050.000000	65.849168
3049.000000	66.117299
3048.000000	66.371013
3047.000000	66.610583
3046.000000	66.839320
3045.000000	67.062189
3044.000000	67.281606
3043.000000	67.497678
3042.000000	67.712379
3041.000000	67.929455
3040.000000	68.149274
3039.000000	68.367399
3038.000000	68.581056
3037.000000	68.793594
3036.000000	69.010462
3035.000000	69.233988
3034.000000	69.463362
3033.000000	69.696222
3032.000000	69.928397
3031.000000	70.155770
3030.000000	70.378362
3029.000000	70.599483
3028.000000	70.820330
3027.000000	71.039461
3026.000000	71.258136
3025.000000	71.481078
3024.000000	71.709687
3023.000000	71.938830
3022.000000	72.162791
3021.000000	72.381389
3020.000000	72.598132
3019.000000	72.814875
3018.000000	73.030820
3017.000000	73.244257
3016.000000	73.453074
3015.000000	73.655275
3014.000000	73.850755
3013.000000	74.041081
3012.000000	74.226301
3011.000000	74.403145
3010.000000	74.567551
3009.000000	74.715919
3008.000000	74.842653
3007.000000	74.938665
3006.000000	74.990756
3005.000000	74.979819
3004.000000	74.874078
3003.000000	74.629575
3002.000000	74.209714
3001.000000	73.616410
3000.000000	72.909508
2999.000000	72.188730
2998.000000	71.549490
2997.000000	71.046801
2996.000000	70.698116
2995.000000	70.512194
2994.000000	70.502209
2993.000000	70.666656
2992.000000	70.964316
2991.000000	71.323667
2990.000000	71.676937
2989.000000	71.983471
2988.000000	72.226111
2987.000000	72.397853
2986.000000	72.495236
2985.000000	72.514174
2984.000000	72.448618
2983.000000	72.300119
2982.000000	72.095879
2981.000000	71.892769
2980.000000	71.755816
2979.000000	71.726774
2978.000000	71.810711
2977.000000	71.986898
2976.000000	72.231158
2975.000000	72.531515
2974.000000	72.886434
2973.000000	73.289672
2972.000000	73.717459
2971.000000	74.133575
2970.000000	74.503375
2969.000000	74.802851
2968.000000	75.014851
2967.000000	75.124809
2966.000000	75.119624
2965.000000	74.981757
2964.000000	74.679824
2963.000000	74.161994
2962.000000	73.374107
2961.000000	72.298888
2960.000000	70.996564
2959.000000	69.607267
2958.000000	68.297457
2957.000000	67.188307
2956.000000	66.323592
2955.000000	65.704438
2954.000000	65.332498
2953.000000	65.207712
2952.000000	65.291730
2951.000000	65.502010
2950.000000	65.755533
2949.000000	66.010197
2948.000000	66.270039
2947.000000	66.560371
2946.000000	66.903493
2945.000000	67.299717
2944.000000	67.719071
2943.000000	68.117444
2942.000000	68.468098
2941.000000	68.781950
2940.000000	69.099491
2939.000000	69.468402
2938.000000	69.925068
2937.000000	70.482528
2936.000000	71.125515
2935.000000	71.818959
2934.000000	72.525677
2933.000000	73.217570
2932.000000	73.875194
2931.000000	74.487062
2930.000000	75.051418
2929.000000	75.572646
2928.000000	76.053699
2927.000000	76.495282
2926.000000	76.902195
2925.000000	77.282473
2924.000000	77.639036
2923.000000	77.967237
2922.000000	78.261873
2921.000000	78.521262
2920.000000	78.743438
2919.000000	78.925659
2918.000000	79.069088
2917.000000	79.179770
2916.000000	79.264000
2915.000000	79.326392
2914.000000	79.372695
2913.000000	79.408382
2912.000000	79.434525
2911.000000	79.449460
2910.000000	79.455303
2909.000000	79.458622
2908.000000	79.463616
2907.000000	79.470660
2906.000000	79.480955
2905.000000	79.497646
2904.000000	79.519976
2903.000000	79.543145
2902.000000	79.564040
2901.000000	79.582036
2900.000000	79.595568
2899.000000	79.600228
2898.000000	79.594049
2897.000000	79.578575
2896.000000	79.554110
2895.000000	79.518311
2894.000000	79.470968
2893.000000	79.415362
2892.000000	79.353075
2891.000000	79.281778
2890.000000	79.199568
2889.000000	79.107618
2888.000000	79.007449
2887.000000	78.900061
2886.000000	78.789251
2885.000000	78.681609
2884.000000	78.581918
2883.000000	78.491859
2882.000000	78.413831
2881.000000	78.351563
2880.000000	78.305451
2879.000000	78.271504
2878.000000	78.246115
2877.000000	78.228899
2876.000000	78.221320
2875.000000	78.226953
2874.000000	78.252958
2873.000000	78.305200
2872.000000	78.380415
2871.000000	78.468450
2870.000000	78.564218
2869.000000	78.673630
2868.000000	78.807381
2867.000000	78.973206
2866.000000	79.173845
2865.000000	79.405445
2864.000000	79.654887
2863.000000	79.904294
2862.000000	80.141310
2861.000000	80.362511
2860.000000	80.567548
2859.000000	80.755635
2858.000000	80.929807
2857.000000	81.099254
2856.000000	81.274126
2855.000000	81.460806
2854.000000	81.662285
2853.000000	81.877751
2852.000000	82.099491
2851.000000	82.314350
2850.000000	82.510944
2849.000000	82.683516
2848.000000	82.829624
2847.000000	82.949377
2846.000000	83.048407
2845.000000	83.136893
2844.000000	83.222913
2843.000000	83.308939
2842.000000	83.395901
2841.000000	83.487253
2840.000000	83.586857
2839.000000	83.695624
2838.000000	83.811844
2837.000000	83.932821
2836.000000	84.055373
2835.000000	84.176906
2834.000000	84.296892
2833.000000	84.415725
2832.000000	84.532240
2831.000000	84.644503
2830.000000	84.752850
2829.000000	84.859567
2828.000000	84.965592
2827.000000	85.070084
2826.000000	85.172847
2825.000000	85.274283
2824.000000	85.373186
2823.000000	85.467429
2822.000000	85.556774
2821.000000	85.642117
2820.000000	85.722232
2819.000000	85.794571
2818.000000	85.859315
2817.000000	85.919536
2816.000000	85.977151
2815.000000	86.031605
2814.000000	86.082737
2813.000000	86.132086
2812.000000	86.181099
2811.000000	86.230779
2810.000000	86.282974
2809.000000	86.339136
2808.000000	86.397897
2807.000000	86.456640
2806.000000	86.515224
2805.000000	86.575313
2804.000000	86.636322
2803.000000	86.695395
2802.000000	86.751516
2801.000000	86.806662
2800.000000	86.862973
2799.000000	86.921501
2798.000000	86.983359
2797.000000	87.048795
2796.000000	87.115083
2795.000000	87.178375
2794.000000	87.237711
2793.000000	87.294639
2792.000000	87.349636
2791.000000	87.402144
2790.000000	87.453441
2789.000000	87.505624
2788.000000	87.557713
2787.000000	87.606347
2786.000000	87.650577
2785.000000	87.692778
2784.000000	87.734846
2783.000000	87.777007
2782.000000	87.820324
2781.000000	87.866528
2780.000000	87.914671
2779.000000	87.961302
2778.000000	88.004658
2777.000000	88.045674
2776.000000	88.084474
2775.000000	88.119049
2774.000000	88.148263
2773.000000	88.173411
2772.000000	88.195997
2771.000000	88.216519
2770.000000	88.235871
2769.000000	88.255355
2768.000000	88.274891
2767.000000	88.293263
2766.000000	88.310192
2765.000000	88.325933
2764.000000	88.339267
2763.000000	88.348866
2762.000000	88.356622
2761.000000	88.366793
2760.000000	88.381827
2759.000000	88.401529
2758.000000	88.425818
2757.000000	88.454992
2756.000000	88.487043
2755.000000	88.517715
2754.000000	88.543826
2753.000000	88.564360
2752.000000	88.578607
2751.000000	88.586275
2750.000000	88.589557
2749.000000	88.592141
2748.000000	88.595836
2747.000000	88.600398
2746.000000	88.606426
2745.000000	88.615613
2744.000000	88.628058
2743.000000	88.642095
2742.000000	88.657147
2741.000000	88.674484
2740.000000	88.695434
2739.000000	88.721565
2738.000000	88.756071
2737.000000	88.802052
2736.000000	88.859035
2735.000000	88.923286
2734.000000	88.991571
2733.000000	89.062125
2732.000000	89.132536
2731.000000	89.199778
2730.000000	89.262405
2729.000000	89.320418
2728.000000	89.373079
2727.000000	89.418854
2726.000000	89.457044
2725.000000	89.487497
2724.000000	89.509323
2723.000000	89.522720
2722.000000	89.531503
2721.000000	89.541091
2720.000000	89.554538
2719.000000	89.572580
2718.000000	89.596335
2717.000000	89.626863
2716.000000	89.662568
2715.000000	89.700082
2714.000000	89.737583
2713.000000	89.774782
2712.000000	89.810397
2711.000000	89.842608
2710.000000	89.871451
2709.000000	89.897884
2708.000000	89.920965
2707.000000	89.938704
2706.000000	89.951206
2705.000000	89.960561
2704.000000	89.968305
2703.000000	89.975705
2702.000000	89.985868
2701.000000	90.002479
2700.000000	90.026582
2699.000000	90.056932
2698.000000	90.092544
2697.000000	90.132138
2696.000000	90.172304
2695.000000	90.209468
2694.000000	90.243282
2693.000000	90.275497
2692.000000	90.306301
2691.000000	90.334612
2690.000000	90.360942
2689.000000	90.386576
2688.000000	90.410518
2687.000000	90.430506
2686.000000	90.446353
2685.000000	90.459431
2684.000000	90.469645
2683.000000	90.476112
2682.000000	90.480365
2681.000000	90.485530
2680.000000	90.492755
2679.000000	90.501577
2678.000000	90.513201
2677.000000	90.530006
2676.000000	90.552262
2675.000000	90.578531
2674.000000	90.608980
2673.000000	90.645207
2672.000000	90.686765
2671.000000	90.731140
2670.000000	90.777018
2669.000000	90.824474
2668.000000	90.872318
2667.000000	90.918199
2666.000000	90.961533
2665.000000	91.003818
2664.000000	91.046294
2663.000000	91.089847
2662.000000	91.136396
2661.000000	91.187357
2660.000000	91.240916
2659.000000	91.293424
2658.000000	91.343015
2657.000000	91.389447
2656.000000	91.431226
2655.000000	91.465948
2654.000000	91.493268
2653.000000	91.514549
2652.000000	91.530361
2651.000000	91.540970
2650.000000	91.548534
2649.000000	91.556024
2648.000000	91.564202
2647.000000	91.572534
2646.000000	91.582621
2645.000000	91.597707
2644.000000	91.619094
2643.000000	91.645760
2642.000000	91.676805
2641.000000	91.711484
2640.000000	91.747517
2639.000000	91.782263
2638.000000	91.815357
2637.000000	91.847544
2636.000000	91.877651
2635.000000	91.903814
2634.000000	91.927179
2633.000000	91.951454
2632.000000	91.978971
2631.000000	92.009821
2630.000000	92.044357
2629.000000	92.083434
2628.000000	92.126359
2627.000000	92.171125
2626.000000	92.216472
2625.000000	92.261561
2624.000000	92.304340
2623.000000	92.342833
2622.000000	92.377419
2621.000000	92.409337
2620.000000	92.437543
2619.000000	92.459785
2618.000000	92.475891
2617.000000	92.487217
2616.000000	92.493867
2615.000000	92.495025
2614.000000	92.491602
2613.000000	92.485652
2612.000000	92.477449
2611.000000	92.466164
2610.000000	92.452696
2609.000000	92.439267
2608.000000	92.426736
2607.000000	92.414948
2606.000000	92.405239
2605.000000	92.399937
2604.000000	92.399836
2603.000000	92.404646
2602.000000	92.415310
2601.000000	92.432756
2600.000000	92.455125
2599.000000	92.478961
2598.000000	92.502554
2597.000000	92.525567
2596.000000	92.546027
2595.000000	92.560904
2594.000000	92.569590
2593.000000	92.574204
2592.000000	92.576662
2591.000000	92.577884
2590.000000	92.579232
2589.000000	92.582048
2588.000000	92.586074
2587.000000	92.590474
2586.000000	92.595942
2585.000000	92.603705
2584.000000	92.613361
2583.000000	92.624006
2582.000000	92.636513
2581.000000	92.652110
2580.000000	92.669834
2579.000000	92.688144
2578.000000	92.707928
2577.000000	92.731235
2576.000000	92.757873
2575.000000	92.786154
2574.000000	92.816206
2573.000000	92.849415
2572.000000	92.885422
2571.000000	92.922364
2570.000000	92.959462
2569.000000	92.996806
2568.000000	93.033270
2567.000000	93.067484
2566.000000	93.100211
2565.000000	93.133271
2564.000000	93.167050
2563.000000	93.201538
2562.000000	93.238744
2561.000000	93.281123
2560.000000	93.328337
2559.000000	93.378411
2558.000000	93.430976
2557.000000	93.486613
2556.000000	93.543831
2555.000000	93.599630
2554.000000	93.652521
2553.000000	93.702233
2552.000000	93.747227
2551.000000	93.785391
2550.000000	93.816912
2549.000000	93.843696
2548.000000	93.866709
2547.000000	93.885987
2546.000000	93.902303
2545.000000	93.916593
2544.000000	93.928440
2543.000000	93.937986
2542.000000	93.948400
2541.000000	93.963667
2540.000000	93.984658
2539.000000	94.009797
2538.000000	94.038430
2537.000000	94.070676
2536.000000	94.104866
2535.000000	94.138073
2534.000000	94.168952
2533.000000	94.197703
2532.000000	94.224065
2531.000000	94.247975
2530.000000	94.271369
2529.000000	94.296675
2528.000000	94.324001
2527.000000	94.351930
2526.000000	94.379783
2525.000000	94.406640
2524.000000	94.429122
2523.000000	94.443142
2522.000000	94.447471
2521.000000	94.442870
2520.000000	94.429261
2519.000000	94.406171
2518.000000	94.375137
2517.000000	94.339109
2516.000000	94.299457
2515.000000	94.256664
2514.000000	94.212867
2513.000000	94.171097
2512.000000	94.132697
2511.000000	94.097935
2510.000000	94.068461
2509.000000	94.046425
2508.000000	94.031679
2507.000000	94.022106
2506.000000	94.016296
2505.000000	94.013238
2504.000000	94.010462
2503.000000	94.005384
2502.000000	93.997852
2501.000000	93.989363
2500.000000	93.980645
2499.000000	93.972547
2498.000000	93.968558
2497.000000	93.972986
2496.000000	93.987444
2495.000000	94.011010
2494.000000	94.042704
2493.000000	94.081468
2492.000000	94.124315
2491.000000	94.167950
2490.000000	94.211508
2489.000000	94.255476
2488.000000	94.299285
2487.000000	94.342300
2486.000000	94.386190
2485.000000	94.433249
2484.000000	94.482945
2483.000000	94.532821
2482.000000	94.581874
2481.000000	94.630635
2480.000000	94.679095
2479.000000	94.727247
2478.000000	94.776643
2477.000000	94.828334
2476.000000	94.879833
2475.000000	94.926683
2474.000000	94.966584
2473.000000	94.999515
2472.000000	95.025252
2471.000000	95.043442
2470.000000	95.055356
2469.000000	95.063268
2468.000000	95.068376
2467.000000	95.071851
2466.000000	95.076680
2465.000000	95.085653
2464.000000	95.098299
2463.000000	95.111930
2462.000000	95.124867
2461.000000	95.136330
2460.000000	95.144511
2459.000000	95.147917
2458.000000	95.147906
2457.000000	95.147407
2456.000000	95.147780
2455.000000	95.149286
2454.000000	95.153450
2453.000000	95.162096
2452.000000	95.174875
2451.000000	95.190373
2450.000000	95.209064
2449.000000	95.232320
2448.000000	95.259594
2447.000000	95.289181
2446.000000	95.320821
2445.000000	95.354980
2444.000000	95.390111
2443.000000	95.423551
2442.000000	95.454380
2441.000000	95.482970
2440.000000	95.508668
2439.000000	95.530654
2438.000000	95.550278
2437.000000	95.569841
2436.000000	95.589857
2435.000000	95.609950
2434.000000	95.631410
2433.000000	95.655890
2432.000000	95.682327
2431.000000	95.708056
2430.000000	95.732194
2429.000000	95.755060
2428.000000	95.775092
2427.000000	95.789396
2426.000000	95.797222
2425.000000	95.800008
2424.000000	95.798764
2423.000000	95.794257
2422.000000	95.789170
2421.000000	95.787053
2420.000000	95.788880
2419.000000	95.793282
2418.000000	95.799751
2417.000000	95.809103
2416.000000	95.821156
2415.000000	95.834892
2414.000000	95.850428
2413.000000	95.867913
2412.000000	95.884691
2411.000000	95.896528
2410.000000	95.901664
2409.000000	95.901070
2408.000000	95.895254
2407.000000	95.883566
2406.000000	95.866818
2405.000000	95.847252
2404.000000	95.825630
2403.000000	95.801304
2402.000000	95.774767
2401.000000	95.747330
2400.000000	95.717608
2399.000000	95.680969
2398.000000	95.633301
2397.000000	95.571744
2396.000000	95.492380
2395.000000	95.390748
2394.000000	95.265336
2393.000000	95.119378
2392.000000	94.957054
2391.000000	94.782085
2390.000000	94.600777
2389.000000	94.421180
2388.000000	94.249598
2387.000000	94.087407
2386.000000	93.934654
2385.000000	93.794388
2384.000000	93.667500
2383.000000	93.552213
2382.000000	93.444284
2381.000000	93.339503
2380.000000	93.233449
2379.000000	93.117792
2378.000000	92.987681
2377.000000	92.843881
2376.000000	92.692754
2375.000000	92.543063
2374.000000	92.411561
2373.000000	92.320014
2372.000000	92.278482
2371.000000	92.280797
2370.000000	92.315130
2369.000000	92.374249
2368.000000	92.444162
2367.000000	92.509758
2366.000000	92.569772
2365.000000	92.618207
2364.000000	92.652555
2363.000000	92.673633
2362.000000	92.672380
2361.000000	92.660297
2360.000000	92.646273
2359.000000	92.633337
2358.000000	92.637102
2357.000000	92.646874
2356.000000	92.652260
2355.000000	92.639430
2354.000000	92.592046
2353.000000	92.482754
2352.000000	92.324401
2351.000000	92.242145
2350.000000	92.364007
2349.000000	92.714040
2348.000000	93.176563
2347.000000	93.507312
2346.000000	93.532075
2345.000000	93.286053
2344.000000	93.001467
2343.000000	92.838541
2342.000000	92.791537
2341.000000	92.817242
2340.000000	92.871242
2339.000000	92.940496
2338.000000	93.017662
2337.000000	93.106328
2336.000000	93.201187
2335.000000	93.310373
2334.000000	93.428541
2333.000000	93.538155
2332.000000	93.581989
2331.000000	93.571336
2330.000000	93.541046
2329.000000	93.534982
2328.000000	93.567571
2327.000000	93.617786
2326.000000	93.676877
2325.000000	93.705418
2324.000000	93.687029
2323.000000	93.622982
2322.000000	93.531187
2321.000000	93.435391
2320.000000	93.338549
2319.000000	93.265538
2318.000000	93.224261
2317.000000	93.218203
2316.000000	93.209267
2315.000000	93.172402
2314.000000	93.091682
2313.000000	92.981502
2312.000000	92.855054
2311.000000	92.733101
2310.000000	92.626979
2309.000000	92.540707
2308.000000	92.469084
2307.000000	92.413788
2306.000000	92.380012
2305.000000	92.367892
2304.000000	92.364551
2303.000000	92.361195
2302.000000	92.351989
2301.000000	92.337407
2300.000000	92.313205
2299.000000	92.280682
2298.000000	92.241579
2297.000000	92.196684
2296.000000	92.143021
2295.000000	92.081084
2294.000000	92.019906
2293.000000	91.966502
2292.000000	91.924452
2291.000000	91.894360
2290.000000	91.879041
2289.000000	91.874741
2288.000000	91.872359
2287.000000	91.863767
2286.000000	91.848975
2285.000000	91.830462
2284.000000	91.810644
2283.000000	91.794035
2282.000000	91.788673
2281.000000	91.801570
2280.000000	91.835874
2279.000000	91.894608
2278.000000	91.979649
2277.000000	92.088404
2276.000000	92.212058
2275.000000	92.344737
2274.000000	92.485529
2273.000000	92.632211
2272.000000	92.777819
2271.000000	92.916543
2270.000000	93.048228
2269.000000	93.173341
2268.000000	93.290264
2267.000000	93.400718
2266.000000	93.510963
2265.000000	93.625183
2264.000000	93.742278
2263.000000	93.860424
2262.000000	93.981593
2261.000000	94.105449
2260.000000	94.228516
2259.000000	94.349928
2258.000000	94.473487
2257.000000	94.601709
2256.000000	94.731589
2255.000000	94.861318
2254.000000	94.992604
2253.000000	95.126656
2252.000000	95.261015
2251.000000	95.395011
2250.000000	95.532025
2249.000000	95.673338
2248.000000	95.817115
2247.000000	95.962406
2246.000000	96.110858
2245.000000	96.260528
2244.000000	96.404454
2243.000000	96.537395
2242.000000	96.658879
2241.000000	96.767977
2240.000000	96.861302
2239.000000	96.938503
2238.000000	97.004014
2237.000000	97.060570
2236.000000	97.106946
2235.000000	97.143570
2234.000000	97.174928
2233.000000	97.203954
2232.000000	97.229677
2231.000000	97.252759
2230.000000	97.277262
2229.000000	97.304719
2228.000000	97.331754
2227.000000	97.355734
2226.000000	97.377240
2225.000000	97.394950
2224.000000	97.403931
2223.000000	97.401711
2222.000000	97.390674
2221.000000	97.372936
2220.000000	97.348413
2219.000000	97.320113
2218.000000	97.295343
2217.000000	97.279051
2216.000000	97.270993
2215.000000	97.271012
2214.000000	97.281271
2213.000000	97.301026
2212.000000	97.325069
2211.000000	97.349647
2210.000000	97.374775
2209.000000	97.399121
2208.000000	97.418656
2207.000000	97.432300
2206.000000	97.442809
2205.000000	97.450134
2204.000000	97.450007
2203.000000	97.441485
2202.000000	97.430384
2201.000000	97.423864
2200.000000	97.427634
2199.000000	97.450019
2198.000000	97.500557
2197.000000	97.580596
2196.000000	97.680080
2195.000000	97.786080
2194.000000	97.889088
2193.000000	97.980291
2192.000000	98.051267
2191.000000	98.100268
2190.000000	98.133511
2189.000000	98.157327
2188.000000	98.174146
2187.000000	98.187339
2186.000000	98.202710
2185.000000	98.222341
2184.000000	98.242829
2183.000000	98.262174
2182.000000	98.282405
2181.000000	98.303265
2180.000000	98.319856
2179.000000	98.328999
2178.000000	98.332146
2177.000000	98.329894
2176.000000	98.320109
2175.000000	98.303914
2174.000000	98.287420
2173.000000	98.275224
2172.000000	98.268062
2171.000000	98.268740
2170.000000	98.283313
2169.000000	98.313771
2168.000000	98.355397
2167.000000	98.403615
2166.000000	98.457130
2165.000000	98.512315
2164.000000	98.561743
2163.000000	98.601325
2162.000000	98.633093
2161.000000	98.658873
2160.000000	98.677847
2159.000000	98.692310
2158.000000	98.708722
2157.000000	98.730302
2156.000000	98.754746
2155.000000	98.780962
2154.000000	98.811228
2153.000000	98.844691
2152.000000	98.876023
2151.000000	98.902892
2150.000000	98.928002
2149.000000	98.951480
2148.000000	98.968308
2147.000000	98.976031
2146.000000	98.977713
2145.000000	98.974676
2144.000000	98.963731
2143.000000	98.944425
2142.000000	98.921766
2141.000000	98.900050
2140.000000	98.880560
2139.000000	98.867007
2138.000000	98.865824
2137.000000	98.878496
2136.000000	98.900447
2135.000000	98.929539
2134.000000	98.968195
2133.000000	99.014885
2132.000000	99.061502
2131.000000	99.101886
2130.000000	99.135856
2129.000000	99.162687
2128.000000	99.178416
2127.000000	99.182820
2126.000000	99.181691
2125.000000	99.178790
2124.000000	99.172407
2123.000000	99.162117
2122.000000	99.151319
2121.000000	99.140338
2120.000000	99.124547
2119.000000	99.101957
2118.000000	99.075881
2117.000000	99.047864
2116.000000	99.015089
2115.000000	98.977111
2114.000000	98.937875
2113.000000	98.898853
2112.000000	98.857531
2111.000000	98.815068
2110.000000	98.778204
2109.000000	98.751172
2108.000000	98.732587
2107.000000	98.722201
2106.000000	98.723072
2105.000000	98.734837
2104.000000	98.752331
2103.000000	98.773020
2102.000000	98.799006
2101.000000	98.829334
2100.000000	98.858571
2099.000000	98.884847
2098.000000	98.911800
2097.000000	98.940786
2096.000000	98.967974
2095.000000	98.992397
2094.000000	99.017886
2093.000000	99.044397
2092.000000	99.066676
2091.000000	99.084312
2090.000000	99.104833
2089.000000	99.134543
2088.000000	99.174305
2087.000000	99.226516
2086.000000	99.295939
2085.000000	99.380798
2084.000000	99.471625
2083.000000	99.561782
2082.000000	99.651118
2081.000000	99.737829
2080.000000	99.816393
2079.000000	99.886360
2078.000000	99.953862
2077.000000	100.021888
2076.000000	100.087402
2075.000000	100.150910
2074.000000	100.217493
2073.000000	100.286341
2072.000000	100.350364
2071.000000	100.405872
2070.000000	100.456193
2069.000000	100.502944
2068.000000	100.542675
2067.000000	100.574429
2066.000000	100.601948
2065.000000	100.627237
2064.000000	100.649568
2063.000000	100.672779
2062.000000	100.703728
2061.000000	100.741801
2060.000000	100.779297
2059.000000	100.813983
2058.000000	100.851429
2057.000000	100.893100
2056.000000	100.933303
2055.000000	100.969770
2054.000000	101.006308
2053.000000	101.043168
2052.000000	101.075901
2051.000000	101.103902
2050.000000	101.132427
2049.000000	101.164316
2048.000000	101.196749
2047.000000	101.227983
2046.000000	101.261084
2045.000000	101.296515
2044.000000	101.328669
2043.000000	101.354202
2042.000000	101.376930
2041.000000	101.400713
2040.000000	101.424884
2039.000000	101.450370
2038.000000	101.481217
2037.000000	101.516599
2036.000000	101.549662
2035.000000	101.578153
2034.000000	101.607425
2033.000000	101.639309
2032.000000	101.668715
2031.000000	101.695208
2030.000000	101.725977
2029.000000	101.763191
2028.000000	101.798709
2027.000000	101.825623
2026.000000	101.846920
2025.000000	101.865945
2024.000000	101.880889
2023.000000	101.889841
2022.000000	101.897782
2021.000000	101.910251
2020.000000	101.924903
2019.000000	101.936565
2018.000000	101.945546
2017.000000	101.954946
2016.000000	101.965580
2015.000000	101.979423
2014.000000	102.000270
2013.000000	102.025911
2012.000000	102.046903
2011.000000	102.059333
2010.000000	102.071106
2009.000000	102.088788
2008.000000	102.108096
2007.000000	102.124667
2006.000000	102.143416
2005.000000	102.167478
2004.000000	102.191136
2003.000000	102.208122
2002.000000	102.221675
2001.000000	102.235150
2000.000000	102.244481
1999.000000	102.250791
1998.000000	102.258984
1997.000000	102.271722
1996.000000	102.288513
1995.000000	102.307291
1994.000000	102.321590
1993.000000	102.321049
1992.000000	102.301621
1991.000000	102.273639
1990.000000	102.250948
1989.000000	102.234882
1988.000000	102.217414
1987.000000	102.196040
1986.000000	102.178529
1985.000000	102.171874
1984.000000	102.174985
1983.000000	102.184690
1982.000000	102.201727
1981.000000	102.226883
1980.000000	102.258923
1979.000000	102.298963
1978.000000	102.343755
1977.000000	102.388302
1976.000000	102.432871
1975.000000	102.481990
1974.000000	102.534509
1973.000000	102.583848
1972.000000	102.627854
1971.000000	102.668049
1970.000000	102.698922
1969.000000	102.709233
1968.000000	102.695021
1967.000000	102.664008
1966.000000	102.627671
1965.000000	102.594031
1964.000000	102.567140
1963.000000	102.545849
1962.000000	102.524682
1961.000000	102.503617
1960.000000	102.494655
1959.000000	102.507381
1958.000000	102.532162
1957.000000	102.549878
1956.000000	102.554018
1955.000000	102.551808
1954.000000	102.546673
1953.000000	102.535351
1952.000000	102.519409
1951.000000	102.506149
1950.000000	102.504443
1949.000000	102.513915
1948.000000	102.529848
1947.000000	102.555991
1946.000000	102.596826
1945.000000	102.645136
1944.000000	102.687435
1943.000000	102.719686
1942.000000	102.751374
1941.000000	102.792817
1940.000000	102.847389
1939.000000	102.910924
1938.000000	102.970518
1937.000000	103.013278
1936.000000	103.041877
1935.000000	103.069889
1934.000000	103.101292
1933.000000	103.129328
1932.000000	103.149759
1931.000000	103.167496
1930.000000	103.192740
1929.000000	103.217794
1928.000000	103.229962
1927.000000	103.234937
1926.000000	103.244421
1925.000000	103.255648
1924.000000	103.241326
1923.000000	103.197185
1922.000000	103.154914
1921.000000	103.134343
1920.000000	103.122056
1919.000000	103.101886
1918.000000	103.080586
1917.000000	103.075150
1916.000000	103.084849
1915.000000	103.105645
1914.000000	103.137104
1913.000000	103.166525
1912.000000	103.174239
1911.000000	103.160864
1910.000000	103.145672
1909.000000	103.127664
1908.000000	103.093415
1907.000000	103.049878
1906.000000	103.018504
1905.000000	103.003617
1904.000000	102.977255
1903.000000	102.938020
1902.000000	102.919751
1901.000000	102.928231
1900.000000	102.938472
1899.000000	102.948038
1898.000000	102.979029
1897.000000	103.032665
1896.000000	103.072496
1895.000000	103.085842
1894.000000	103.106234
1893.000000	103.150395
1892.000000	103.189934
1891.000000	103.202187
1890.000000	103.200865
1889.000000	103.206551
1888.000000	103.221464
1887.000000	103.252344
1886.000000	103.314174
1885.000000	103.392362
1884.000000	103.450267
1883.000000	103.487158
1882.000000	103.537001
1881.000000	103.598200
1880.000000	103.635554
1879.000000	103.641910
1878.000000	103.641953
1877.000000	103.647282
1876.000000	103.635831
1875.000000	103.594531
1874.000000	103.549955
1873.000000	103.523439
1872.000000	103.497018
1871.000000	103.456329
1870.000000	103.418647
1869.000000	103.404460
1868.000000	103.412322
1867.000000	103.448096
1866.000000	103.535244
1865.000000	103.661088
1864.000000	103.769861
1863.000000	103.832973
1862.000000	103.879994
1861.000000	103.933056
1860.000000	103.969704
1859.000000	103.981491
1858.000000	104.006366
1857.000000	104.066302
1856.000000	104.132363
1855.000000	104.185690
1854.000000	104.250957
1853.000000	104.332443
1852.000000	104.401877
1851.000000	104.459337
1850.000000	104.518813
1849.000000	104.578293
1848.000000	104.618785
1847.000000	104.641551
1846.000000	104.662362
1845.000000	104.669800
1844.000000	104.656326
1843.000000	104.656673
1842.000000	104.700310
1841.000000	104.765598
1840.000000	104.821668
1839.000000	104.859088
1838.000000	104.893040
1837.000000	104.940128
1836.000000	104.988354
1835.000000	105.035057
1834.000000	105.094357
1833.000000	105.163292
1832.000000	105.226684
1831.000000	105.262638
1830.000000	105.257578
1829.000000	105.245203
1828.000000	105.265825
1827.000000	105.320592
1826.000000	105.387960
1825.000000	105.456618
1824.000000	105.528581
1823.000000	105.607652
1822.000000	105.697620
1821.000000	105.797749
1820.000000	105.889923
1819.000000	105.950794
1818.000000	105.995314
1817.000000	106.057179
1816.000000	106.120669
1815.000000	106.156025
1814.000000	106.175964
1813.000000	106.208421
1812.000000	106.241612
1811.000000	106.238772
1810.000000	106.231808
1809.000000	106.274044
1808.000000	106.338474
1807.000000	106.379372
1806.000000	106.415025
1805.000000	106.472875
1804.000000	106.519897
1803.000000	106.524427
1802.000000	106.512484
1801.000000	106.520559
1800.000000	106.539883
1799.000000	106.541704
1798.000000	106.550494
1797.000000	106.586579
1796.000000	106.612076
1795.000000	106.605038
1794.000000	106.596541
1793.000000	106.615302
1792.000000	106.646071
1791.000000	106.664590
1790.000000	106.698521
1789.000000	106.765458
1788.000000	106.827722
1787.000000	106.852260
1786.000000	106.868527
1785.000000	106.914999
1784.000000	106.970769
1783.000000	107.013577
1782.000000	107.047894
1781.000000	107.074927
1780.000000	107.103945
1779.000000	107.138896
1778.000000	107.194967
1777.000000	107.268492
1776.000000	107.342368
1775.000000	107.419244
1774.000000	107.493027
1773.000000	107.548846
1772.000000	107.601117
1771.000000	107.644151
1770.000000	107.660543
1769.000000	107.687701
1768.000000	107.760425
1767.000000	107.848034
1766.000000	107.916490
1765.000000	107.979822
1764.000000	108.061388
1763.000000	108.132026
1762.000000	108.150193
1761.000000	108.153292
1760.000000	108.187910
1759.000000	108.225198
1758.000000	108.231774
1757.000000	108.202312
1756.000000	108.184187
1755.000000	108.187754
1754.000000	108.163372
1753.000000	108.115276
1752.000000	108.104687
1751.000000	108.149462
1750.000000	108.194921
1749.000000	108.204162
1748.000000	108.195422
1747.000000	108.200023
1746.000000	108.194280
1745.000000	108.163655
1744.000000	108.144144
1743.000000	108.136671
1742.000000	108.118446
1741.000000	108.102545
1740.000000	108.114639
1739.000000	108.139825
1738.000000	108.145550
1737.000000	108.130396
1736.000000	108.127129
1735.000000	108.122733
1734.000000	108.136442
1733.000000	108.215542
1732.000000	108.310338
1731.000000	108.352438
1730.000000	108.359023
1729.000000	108.347821
1728.000000	108.338180
1727.000000	108.348549
1726.000000	108.361805
1725.000000	108.368871
1724.000000	108.365413
1723.000000	108.344766
1722.000000	108.343767
1721.000000	108.384496
1720.000000	108.428126
1719.000000	108.402420
1718.000000	108.337251
1717.000000	108.367231
1716.000000	108.447982
1715.000000	108.467451
1714.000000	108.488732
1713.000000	108.576954
1712.000000	108.658206
1711.000000	108.684099
1710.000000	108.724151
1709.000000	108.824777
1708.000000	108.936606
1707.000000	109.010795
1706.000000	109.084050
1705.000000	109.204563
1704.000000	109.308974
1703.000000	109.363208
1702.000000	109.452271
1701.000000	109.596963
1700.000000	109.735553
1699.000000	109.798323
1698.000000	109.834024
1697.000000	109.917443
1696.000000	110.022908
1695.000000	110.099827
1694.000000	110.179486
1693.000000	110.260688
1692.000000	110.327174
1691.000000	110.379093
1690.000000	110.423024
1689.000000	110.463829
1688.000000	110.519816
1687.000000	110.611075
1686.000000	110.717679
1685.000000	110.747053
1684.000000	110.722302
1683.000000	110.773302
1682.000000	110.865599
1681.000000	110.888605
1680.000000	110.886684
1679.000000	110.921855
1678.000000	110.973519
1677.000000	110.996843
1676.000000	111.007537
1675.000000	111.065133
1674.000000	111.130039
1673.000000	111.134465
1672.000000	111.118773
1671.000000	111.125318
1670.000000	111.124719
1669.000000	111.081942
1668.000000	111.042798
1667.000000	111.048609
1666.000000	111.053768
1665.000000	111.014577
1664.000000	110.929811
1663.000000	110.841062
1662.000000	110.774410
1661.000000	110.684138
1660.000000	110.587181
1659.000000	110.537187
1658.000000	110.491472
1657.000000	110.396243
1656.000000	110.282854
1655.000000	110.183027
1654.000000	109.877923
1653.000000	109.388875
1652.000000	109.013651
1651.000000	108.705262
1650.000000	108.267794
1649.000000	107.693251
1648.000000	106.894186
1647.000000	105.807817
1646.000000	104.568606
1645.000000	103.340458
1644.000000	102.108031
1643.000000	100.807125
1642.000000	99.450131
1641.000000	98.108150
1640.000000	96.923364
1639.000000	95.998107
1638.000000	95.365087
1637.000000	95.028122
1636.000000	95.052697
1635.000000	95.502531
1634.000000	96.230940
1633.000000	97.051074
1632.000000	97.903497
1631.000000	98.816313
1630.000000	99.790823
1629.000000	100.776747
1628.000000	101.722772
1627.000000	102.608918
1626.000000	103.414133
1625.000000	104.131776
1624.000000	104.801719
1623.000000	105.467502
1622.000000	106.096271
1621.000000	106.612513
1620.000000	107.046196
1619.000000	107.490329
1618.000000	107.953652
1617.000000	108.362490
1616.000000	108.691956
1615.000000	108.943628
1614.000000	109.054075
1613.000000	108.971558
1612.000000	108.721206
1611.000000	108.346168
1610.000000	107.795652
1609.000000	106.952370
1608.000000	105.770839
1607.000000	104.252938
1606.000000	102.288742
1605.000000	99.666741
1604.000000	96.273422
1603.000000	92.099228
1602.000000	87.201286
1601.000000	81.806049
1600.000000	76.344735
1599.000000	71.240732
1598.000000	66.560025
1597.000000	61.995092
1596.000000	57.289119
1595.000000	52.628918
1594.000000	48.535541
1593.000000	45.447220
1592.000000	43.538025
1591.000000	42.790490
1590.000000	43.047112
1589.000000	43.975243
1588.000000	45.155381
1587.000000	46.214539
1586.000000	46.867915
1585.000000	47.006345
1584.000000	46.813331
1583.000000	46.667406
1582.000000	46.824759
1581.000000	47.291129
1580.000000	47.990844
1579.000000	48.895945
1578.000000	49.940130
1577.000000	50.929740
1576.000000	51.680632
1575.000000	52.204503
1574.000000	52.591723
1573.000000	52.899971
1572.000000	53.268294
1571.000000	53.939874
1570.000000	55.108389
1569.000000	56.713621
1568.000000	58.581877
1567.000000	60.654226
1566.000000	62.878228
1565.000000	65.074536
1564.000000	67.042951
1563.000000	68.746644
1562.000000	70.282290
1561.000000	71.810683
1560.000000	73.516334
1559.000000	75.540106
1558.000000	77.589164
1557.000000	79.259208
1556.000000	80.593499
1555.000000	81.856832
1554.000000	83.097826
1553.000000	84.204594
1552.000000	85.148203
1551.000000	85.980862
1550.000000	86.743157
1549.000000	87.423883
1548.000000	88.026792
1547.000000	88.612734
1546.000000	89.214232
1545.000000	89.793055
1544.000000	90.319719
1543.000000	90.813836
1542.000000	91.317626
1541.000000	91.829321
1540.000000	92.324692
1539.000000	92.839037
1538.000000	93.352169
1537.000000	93.785927
1536.000000	94.156746
1535.000000	94.533020
1534.000000	94.912766
1533.000000	95.265898
1532.000000	95.597926
1531.000000	95.914686
1530.000000	96.230039
1529.000000	96.536449
1528.000000	96.788806
1527.000000	96.993855
1526.000000	97.200374
1525.000000	97.423775
1524.000000	97.649432
1523.000000	97.862488
1522.000000	98.054787
1521.000000	98.235640
1520.000000	98.411183
1519.000000	98.573598
1518.000000	98.710275
1517.000000	98.814376
1516.000000	98.887491
1515.000000	98.958860
1514.000000	99.055634
1513.000000	99.193105
1512.000000	99.343486
1511.000000	99.460418
1510.000000	99.551858
1509.000000	99.669204
1508.000000	99.783512
1507.000000	99.829912
1506.000000	99.937198
1505.000000	100.176901
1504.000000	100.402239
1503.000000	100.545495
1502.000000	100.657011
1501.000000	100.774863
1500.000000	100.896762
1499.000000	100.992293
1498.000000	101.070286
1497.000000	101.215034
1496.000000	101.456709
1495.000000	101.727625
1494.000000	101.990343
1493.000000	102.254623
1492.000000	102.509432
1491.000000	102.719252
1490.000000	102.897943
1489.000000	103.102687
1488.000000	103.318272
1487.000000	103.508639
1486.000000	103.718195
1485.000000	103.936077
1484.000000	104.113649
1483.000000	104.261794
1482.000000	104.404917
1481.000000	104.548328
1480.000000	104.673404
1479.000000	104.791055
1478.000000	104.927279
1477.000000	105.075386
1476.000000	105.190153
1475.000000	105.283960
1474.000000	105.417649
1473.000000	105.598812
1472.000000	105.805839
1471.000000	106.008447
1470.000000	106.180850
1469.000000	106.300539
1468.000000	106.338052
1467.000000	106.260510
1466.000000	106.003533
1465.000000	105.458115
1464.000000	104.577662
1463.000000	103.365222
1462.000000	101.807857
1461.000000	99.913033
1460.000000	97.713879
1459.000000	95.201742
1458.000000	92.289237
1457.000000	89.209963
1456.000000	86.600727
1455.000000	84.676093
1454.000000	83.040174
1453.000000	81.369282
1452.000000	79.677165
1451.000000	78.114028
1450.000000	76.735543
1449.000000	75.493883
1448.000000	74.403911
1447.000000	73.639916
1446.000000	73.447369
1445.000000	74.045876
1444.000000	75.553785
1443.000000	77.812820
1442.000000	80.404459
1441.000000	82.908458
1440.000000	85.088269
1439.000000	86.869484
1438.000000	88.290816
1437.000000	89.504613
1436.000000	90.670078
1435.000000	91.799634
1434.000000	92.858425
1433.000000	93.907633
1432.000000	94.986050
1431.000000	96.005057
1430.000000	96.862673
1429.000000	97.583893
1428.000000	98.227083
1427.000000	98.794170
1426.000000	99.268598
1425.000000	99.676183
1424.000000	100.086844
1423.000000	100.490069
1422.000000	100.835442
1421.000000	101.141015
1420.000000	101.452222
1419.000000	101.741384
1418.000000	101.969984
1417.000000	102.212680
1416.000000	102.527848
1415.000000	102.863020
1414.000000	103.141272
1413.000000	103.367176
1412.000000	103.594696
1411.000000	103.806741
1410.000000	103.952254
1409.000000	104.055636
1408.000000	104.149205
1407.000000	104.191227
1406.000000	104.101964
1405.000000	103.842342
1404.000000	103.450514
1403.000000	102.963382
1402.000000	102.405758
1401.000000	101.837075
1400.000000	101.328780
1399.000000	100.904338
1398.000000	100.546224
1397.000000	100.272967
1396.000000	100.155408
1395.000000	100.256754
1394.000000	100.536512
1393.000000	100.878741
1392.000000	101.190906
1391.000000	101.411096
1390.000000	101.516604
1389.000000	101.560338
1388.000000	101.661337
1387.000000	101.929605
1386.000000	102.382720
1385.000000	102.951301
1384.000000	103.550317
1383.000000	104.099406
1382.000000	104.550365
1381.000000	104.919586
1380.000000	105.248149
1379.000000	105.547669
1378.000000	105.795156
1377.000000	105.956831
1376.000000	105.983618
1375.000000	105.791333
1374.000000	105.255620
1373.000000	104.236371
1372.000000	102.564877
1371.000000	100.044615
1370.000000	96.596114
1369.000000	92.522677
1368.000000	88.614174
1367.000000	85.760427
1366.000000	84.412037
1365.000000	84.453759
1364.000000	85.458845
1363.000000	86.982360
1362.000000	88.733549
1361.000000	90.611678
1360.000000	92.595253
1359.000000	94.611075
1358.000000	96.519178
1357.000000	98.187650
1356.000000	99.563082
1355.000000	100.666827
1354.000000	101.555046
1353.000000	102.294646
1352.000000	102.930226
1351.000000	103.480111
1350.000000	103.951658
1349.000000	104.352234
1348.000000	104.704087
1347.000000	105.025497
1346.000000	105.322703
1345.000000	105.602844
1344.000000	105.877734
1343.000000	106.148766
1342.000000	106.404281
1341.000000	106.635284
1340.000000	106.842451
1339.000000	107.027530
1338.000000	107.187419
1337.000000	107.326752
1336.000000	107.456868
1335.000000	107.582490
1334.000000	107.706216
1333.000000	107.839811
1332.000000	107.993690
1331.000000	108.159514
1330.000000	108.315902
1329.000000	108.450544
1328.000000	108.554899
1327.000000	108.602483
1326.000000	108.540276
1325.000000	108.296340
1324.000000	107.793242
1323.000000	106.934493
1322.000000	105.616011
1321.000000	103.772381
1320.000000	101.416590
1319.000000	98.682831
1318.000000	95.860691
1317.000000	93.353605
1316.000000	91.529924
1315.000000	90.560183
1314.000000	90.367354
1313.000000	90.746377
1312.000000	91.516116
1311.000000	92.554823
1310.000000	93.765005
1309.000000	95.059127
1308.000000	96.389593
1307.000000	97.755507
1306.000000	99.152827
1305.000000	100.533637
1304.000000	101.816562
1303.000000	102.923237
1302.000000	103.815350
1301.000000	104.507368
1300.000000	105.034351
1299.000000	105.413424
1298.000000	105.622784
1297.000000	105.582418
1296.000000	105.155528
1295.000000	104.219178
1294.000000	102.812627
1293.000000	101.211780
1292.000000	99.793012
1291.000000	98.787253
1290.000000	98.155514
1289.000000	97.681260
1288.000000	97.117544
1287.000000	96.249039
1286.000000	94.934295
1285.000000	93.210009
1284.000000	91.362032
1283.000000	89.835405
1282.000000	89.021258
1281.000000	89.071718
1280.000000	89.857520
1279.000000	91.022364
1278.000000	92.072752
1277.000000	92.518757
1276.000000	92.046056
1275.000000	90.678591
1274.000000	88.861421
1273.000000	87.364099
1272.000000	86.961572
1271.000000	88.009673
1270.000000	90.252467
1269.000000	93.040401
1268.000000	95.745872
1267.000000	98.033622
1266.000000	99.848618
1265.000000	101.278067
1264.000000	102.436784
1263.000000	103.404857
1262.000000	104.216383
1261.000000	104.890535
1260.000000	105.455974
1259.000000	105.938103
1258.000000	106.350480
1257.000000	106.705683
1256.000000	107.025975
1255.000000	107.331617
1254.000000	107.628579
1253.000000	107.921409
1252.000000	108.220955
1251.000000	108.531190
1250.000000	108.840791
1249.000000	109.136864
1248.000000	109.417298
1247.000000	109.679144
1246.000000	109.910001
1245.000000	110.103599
1244.000000	110.269803
1243.000000	110.421109
1242.000000	110.562059
1241.000000	110.699754
1240.000000	110.850056
1239.000000	111.022074
1238.000000	111.208624
1237.000000	111.397864
1236.000000	111.580462
1235.000000	111.739238
1234.000000	111.844599
1233.000000	111.872534
1232.000000	111.814113
1231.000000	111.661657
1230.000000	111.404458
1229.000000	111.036060
1228.000000	110.556502
1227.000000	109.951451
1226.000000	109.174401
1225.000000	108.162050
1224.000000	106.837918
1223.000000	105.118796
1222.000000	102.939516
1221.000000	100.291416
1220.000000	97.259363
1219.000000	93.996652
1218.000000	90.671223
1217.000000	87.425621
1216.000000	84.357907
1215.000000	81.512681
1214.000000	78.884901
1213.000000	76.453725
1212.000000	74.224081
1211.000000	72.242027
1210.000000	70.565959
1209.000000	69.270570
1208.000000	68.454777
1207.000000	68.191023
1206.000000	68.471815
1205.000000	69.192621
1204.000000	70.211343
1203.000000	71.401531
1202.000000	72.666348
1201.000000	73.974223
1200.000000	75.361433
1199.000000	76.887663
1198.000000	78.581669
1197.000000	80.429102
1196.000000	82.399830
1195.000000	84.449294
1194.000000	86.512790
1193.000000	88.527147
1192.000000	90.454375
1191.000000	92.268993
1190.000000	93.940861
1189.000000	95.446393
1188.000000	96.779342
1187.000000	97.941741
1186.000000	98.925937
1185.000000	99.730645
1184.000000	100.377097
1183.000000	100.888866
1182.000000	101.278890
1181.000000	101.555062
1180.000000	101.737481
1179.000000	101.856618
1178.000000	101.937312
1177.000000	102.002120
1176.000000	102.072195
1175.000000	102.156919
1174.000000	102.250981
1173.000000	102.348858
1172.000000	102.456230
1171.000000	102.578741
1170.000000	102.712335
1169.000000	102.854082
1168.000000	103.010741
1167.000000	103.184626
1166.000000	103.361155
1165.000000	103.521161
1164.000000	103.657582
1163.000000	103.776527
1162.000000	103.895706
1161.000000	104.050723
1160.000000	104.285672
1159.000000	104.619413
1158.000000	105.028093
1157.000000	105.467869
1156.000000	105.905890
1155.000000	106.323276
1154.000000	106.705412
1153.000000	107.044136
1152.000000	107.339280
1151.000000	107.586945
1150.000000	107.775634
1149.000000	107.905469
1148.000000	107.996643
1147.000000	108.071596
1146.000000	108.136914
1145.000000	108.184155
1144.000000	108.198688
1143.000000	108.149028
1142.000000	107.984289
1141.000000	107.657485
1140.000000	107.137532
1139.000000	106.406775
1138.000000	105.438498
1137.000000	104.194717
1136.000000	102.636706
1135.000000	100.702149
1134.000000	98.305957
1133.000000	95.350422
1132.000000	91.761648
1131.000000	87.546033
1130.000000	82.826459
1129.000000	77.877336
1128.000000	73.097010
1127.000000	68.877562
1126.000000	65.417696
1125.000000	62.637209
1124.000000	60.268589
1123.000000	58.065136
1122.000000	55.982076
1121.000000	54.178192
1120.000000	52.845306
1119.000000	51.936659
1118.000000	51.119919
1117.000000	50.133008
1116.000000	49.196104
1115.000000	49.033027
1114.000000	50.353619
1113.000000	53.312911
1112.000000	57.439943
1111.000000	61.950295
1110.000000	66.109402
1109.000000	69.413322
1108.000000	71.568436
1107.000000	72.365613
1106.000000	71.638400
1105.000000	69.408562
1104.000000	66.180165
1103.000000	63.059017
1102.000000	61.365620
1101.000000	61.916576
1100.000000	64.576780
1099.000000	68.457173
1098.000000	72.546042
1097.000000	76.230495
1096.000000	79.341386
1095.000000	81.924127
1094.000000	84.064501
1093.000000	85.856441
1092.000000	87.399303
1091.000000	88.771350
1090.000000	90.023346
1089.000000	91.202487
1088.000000	92.362070
1087.000000	93.525859
1086.000000	94.684422
1085.000000	95.821534
1084.000000	96.919880
1083.000000	97.949952
1082.000000	98.875290
1081.000000	99.683739
1080.000000	100.389132
1079.000000	101.001006
1078.000000	101.522156
1077.000000	101.962945
1076.000000	102.337853
1075.000000	102.642212
1074.000000	102.844741
1073.000000	102.916784
1072.000000	102.824358
1071.000000	102.504586
1070.000000	101.867354
1069.000000	100.799964
1068.000000	99.185643
1067.000000	96.882609
1066.000000	93.751235
1065.000000	89.740935
1064.000000	84.938166
1063.000000	79.591887
1062.000000	74.046580
1061.000000	68.625392
1060.000000	63.502246
1059.000000	58.623272
1058.000000	53.779038
1057.000000	48.859085
1056.000000	44.126412
1055.000000	40.229289
1054.000000	37.962623
1053.000000	37.868332
1052.000000	39.992042
1051.000000	43.883068
1050.000000	48.759675
1049.000000	53.851468
1048.000000	58.622290
1047.000000	62.816807
1046.000000	66.397885
1045.000000	69.449009
1044.000000	72.093327
1043.000000	74.422229
1042.000000	76.474614
1041.000000	78.264725
1040.000000	79.826194
1039.000000	81.195576
1038.000000	82.397119
1037.000000	83.456410
1036.000000	84.402030
1035.000000	85.259536
1034.000000	86.039845
1033.000000	86.755670
1032.000000	87.432003
1031.000000	88.085925
1030.000000	88.718198
1029.000000	89.328069
1028.000000	89.926747
1027.000000	90.528453
1026.000000	91.141587
1025.000000	91.778079
1024.000000	92.454198
1023.000000	93.170489
1022.000000	93.904254
1021.000000	94.624483
1020.000000	95.303743
1019.000000	95.902681
1018.000000	96.355468
1017.000000	96.586673
1016.000000	96.503041
1015.000000	95.992318
1014.000000	94.923481
1013.000000	93.166733
1012.000000	90.636245
1011.000000	87.285691
1010.000000	83.135541
1009.000000	78.339436
1008.000000	73.273068
1007.000000	68.571497
1006.000000	65.024863
1005.000000	63.298460
1004.000000	63.608046
1003.000000	65.576351
1002.000000	68.376531
1001.000000	71.106864
1000.000000	73.075905
999.000000	73.851737
998.000000	73.239327
997.000000	71.364612
996.000000	68.791820
995.000000	66.415345
994.000000	65.054317
993.000000	65.043311
992.000000	66.163061
991.000000	67.922432
990.000000	69.909094
989.000000	71.949134
988.000000	74.041202
987.000000	76.187126
986.000000	78.316974
985.000000	80.328072
984.000000	82.144852
983.000000	83.737332
982.000000	85.111825
981.000000	86.301097
980.000000	87.345733
979.000000	88.278461
978.000000	89.114570
977.000000	89.867696
976.000000	90.553717
975.000000	91.178012
974.000000	91.739834
973.000000	92.243452
972.000000	92.702523
971.000000	93.127483
970.000000	93.520076
969.000000	93.886153
968.000000	94.236413
967.000000	94.575634
966.000000	94.900624
965.000000	95.210297
964.000000	95.508917
963.000000	95.796301
962.000000	96.068609
961.000000	96.329698
960.000000	96.588938
959.000000	96.847723
958.000000	97.098817
957.000000	97.340251
956.000000	97.577261
955.000000	97.808737
954.000000	98.026312
953.000000	98.227493
952.000000	98.417973
951.000000	98.599816
950.000000	98.769250
949.000000	98.928339
948.000000	99.085224
947.000000	99.241569
946.000000	99.391879
945.000000	99.535458
944.000000	99.677688
943.000000	99.818947
942.000000	99.954864
941.000000	100.088058
940.000000	100.226402
939.000000	100.369817
938.000000	100.511018
937.000000	100.649278
936.000000	100.790396
935.000000	100.932794
934.000000	101.067468
933.000000	101.191964
932.000000	101.311504
931.000000	101.426301
930.000000	101.530661
929.000000	101.625324
928.000000	101.718390
927.000000	101.813819
926.000000	101.911138
925.000000	102.014963
924.000000	102.132049
923.000000	102.259446
922.000000	102.387659
921.000000	102.513918
920.000000	102.640145
919.000000	102.761028
918.000000	102.867832
917.000000	102.961821
916.000000	103.050821
915.000000	103.135422
914.000000	103.212138
913.000000	103.287042
912.000000	103.371079
911.000000	103.465171
910.000000	103.563764
909.000000	103.669287
908.000000	103.786214
907.000000	103.900183
906.000000	103.979072
905.000000	103.997382
904.000000	103.955783
903.000000	103.884151
902.000000	103.828220
901.000000	103.817802
900.000000	103.827497
899.000000	103.777876
898.000000	103.598908
897.000000	103.285056
896.000000	102.894048
895.000000	102.505284
894.000000	102.166576
893.000000	101.827555
892.000000	101.294226
891.000000	100.330649
890.000000	98.914970
889.000000	97.398671
888.000000	96.313705
887.000000	95.981780
886.000000	96.312406
885.000000	96.968472
884.000000	97.670659
883.000000	98.303149
882.000000	98.841465
881.000000	99.287275
880.000000	99.675358
879.000000	100.079751
878.000000	100.566949
877.000000	101.152734
876.000000	101.798469
875.000000	102.435966
874.000000	103.000572
873.000000	103.460366
872.000000	103.819139
871.000000	104.092390
870.000000	104.290788
869.000000	104.422635
868.000000	104.498983
867.000000	104.523905
866.000000	104.492315
865.000000	104.408041
864.000000	104.294245
863.000000	104.186152
862.000000	104.120962
861.000000	104.133353
860.000000	104.242443
859.000000	104.433962
858.000000	104.664150
857.000000	104.888773
856.000000	105.083960
855.000000	105.240870
854.000000	105.358877
853.000000	105.448756
852.000000	105.529151
851.000000	105.612713
850.000000	105.703326
849.000000	105.806928
848.000000	105.932864
847.000000	106.082177
846.000000	106.245037
845.000000	106.411292
844.000000	106.572512
843.000000	106.714841
842.000000	106.823831
841.000000	106.897937
840.000000	106.946990
839.000000	106.977324
838.000000	106.990363
837.000000	106.994734
836.000000	107.005729
835.000000	107.032612
834.000000	107.077825
833.000000	107.147551
832.000000	107.249325
831.000000	107.378732
830.000000	107.520677
829.000000	107.664321
828.000000	107.805060
827.000000	107.933364
826.000000	108.035982
825.000000	108.108217
824.000000	108.151929
823.000000	108.163943
822.000000	108.143029
821.000000	108.104460
820.000000	108.072075
819.000000	108.055858
818.000000	108.046084
817.000000	108.025058
816.000000	107.959557
815.000000	107.780937
814.000000	107.381023
813.000000	106.633537
812.000000	105.443105
811.000000	103.815368
810.000000	101.930324
809.000000	100.136715
808.000000	98.821363
807.000000	98.223269
806.000000	98.338280
805.000000	98.970282
804.000000	99.860163
803.000000	100.795630
802.000000	101.650330
801.000000	102.376994
800.000000	102.968178
799.000000	103.419140
798.000000	103.719303
797.000000	103.860199
796.000000	103.832211
795.000000	103.618467
794.000000	103.211110
793.000000	102.630132
792.000000	101.926420
791.000000	101.170017
790.000000	100.444360
789.000000	99.837241
788.000000	99.414671
787.000000	99.199086
786.000000	99.177184
785.000000	99.321340
784.000000	99.589983
783.000000	99.920680
782.000000	100.241788
781.000000	100.498138
780.000000	100.662397
779.000000	100.734061
778.000000	100.746343
777.000000	100.764196
776.000000	100.854641
775.000000	101.053770
774.000000	101.364509
773.000000	101.774755
772.000000	102.262904
771.000000	102.796348
770.000000	103.343857
769.000000	103.886727
768.000000	104.408046
767.000000	104.879682
766.000000	105.274705
765.000000	105.584137
764.000000	105.811050
763.000000	105.959208
762.000000	106.042027
761.000000	106.090758
760.000000	106.136801
759.000000	106.194788
758.000000	106.272417
757.000000	106.382706
756.000000	106.530338
755.000000	106.698623
754.000000	106.866550
753.000000	107.027242
752.000000	107.175811
751.000000	107.293478
750.000000	107.360954
749.000000	107.376600
748.000000	107.345847
747.000000	107.266545
746.000000	107.141806
745.000000	106.992503
744.000000	106.839818
743.000000	106.688861
742.000000	106.544492
741.000000	106.425926
740.000000	106.347426
739.000000	106.299951
738.000000	106.266837
737.000000	106.236015
736.000000	106.177253
735.000000	106.027455
734.000000	105.721949
733.000000	105.227610
732.000000	104.536916
731.000000	103.665875
730.000000	102.685728
729.000000	101.732665
728.000000	100.958832
727.000000	100.470719
726.000000	100.312869
725.000000	100.482415
724.000000	100.923745
723.000000	101.529394
722.000000	102.188380
721.000000	102.834717
720.000000	103.437883
719.000000	103.969438
718.000000	104.406010
717.000000	104.745603
716.000000	104.994833
715.000000	105.155908
714.000000	105.245649
713.000000	105.306237
712.000000	105.374413
711.000000	105.456954
710.000000	105.556478
709.000000	105.690570
708.000000	105.865480
707.000000	106.057713
706.000000	106.238248
705.000000	106.401397
704.000000	106.544592
703.000000	106.639972
702.000000	106.669826
701.000000	106.657010
700.000000	106.626915
699.000000	106.583048
698.000000	106.534105
697.000000	106.518911
696.000000	106.563020
695.000000	106.635989
694.000000	106.711588
693.000000	106.809787
692.000000	106.937123
691.000000	107.050404
690.000000	107.113207
689.000000	107.154599
688.000000	107.206274
687.000000	107.228183
686.000000	107.184322
685.000000	107.114120
684.000000	107.058927
683.000000	106.996275
682.000000	106.914889
681.000000	106.875934
680.000000	106.920652
679.000000	106.996175
678.000000	107.070626
677.000000	107.175303
676.000000	107.308324
675.000000	107.444719
674.000000	107.574499
673.000000	107.713502
672.000000	107.856687
671.000000	107.948021
670.000000	107.973191
669.000000	107.803293
668.000000	107.184530
667.000000	106.700416
666.000000	106.942270
665.000000	107.390416
664.000000	107.654224
663.000000	107.776633
662.000000	107.893567
661.000000	108.035747
660.000000	108.160425
659.000000	108.252137
658.000000	108.319487
657.000000	108.330023
656.000000	108.255117
655.000000	108.172508
654.000000	108.131966
653.000000	108.082187
652.000000	108.007528
651.000000	107.979107
650.000000	108.023105
649.000000	108.064532
648.000000	108.070373
647.000000	108.104002
646.000000	108.188570
645.000000	108.260440
644.000000	108.284132
643.000000	108.302470
642.000000	108.341953
641.000000	108.355690
640.000000	108.313249
639.000000	108.254352
638.000000	108.202837
637.000000	108.127388
636.000000	108.027818
635.000000	107.961506
634.000000	107.957280
633.000000	107.982069
632.000000	108.015954
631.000000	108.084798
630.000000	108.188589
629.000000	108.271818
628.000000	108.302278
627.000000	108.305503
626.000000	108.294109
625.000000	108.245356
624.000000	108.160724
623.000000	108.086302
622.000000	108.048946
621.000000	108.027331
620.000000	108.005729
619.000000	107.997993
618.000000	108.008332
617.000000	108.021946
616.000000	108.045745
615.000000	108.103536
614.000000	108.180619
613.000000	108.232126
612.000000	108.251556
611.000000	108.273402
610.000000	108.308112
609.000000	108.324647
608.000000	108.307875
607.000000	108.275628
606.000000	108.227602
605.000000	108.145774
604.000000	108.039202
603.000000	107.938559
602.000000	107.842186
601.000000	107.712091
600.000000	107.524018
599.000000	107.275028
598.000000	106.934273
597.000000	106.430504
596.000000	105.701126
595.000000	104.694347
594.000000	103.287805
593.000000	101.247544
592.000000	98.326251
591.000000	94.504368
590.000000	90.228792
589.000000	86.427579
588.000000	84.147942
587.000000	83.953869
586.000000	85.527892
585.000000	87.925186
584.000000	90.313900
583.000000	92.386622
582.000000	94.168773
581.000000	95.710466
580.000000	97.025105
579.000000	98.142964
578.000000	99.078730
577.000000	99.812253
576.000000	100.359307
575.000000	100.795699
574.000000	101.163816
573.000000	101.440046
572.000000	101.622944
571.000000	101.769249
570.000000	101.914231
569.000000	102.023446
568.000000	102.067438
567.000000	102.055268
566.000000	101.959304
565.000000	101.688013
564.000000	101.176213
563.000000	100.456125
562.000000	99.612070
561.000000	98.732804
560.000000	97.921941
559.000000	97.263873
558.000000	96.739364
557.000000	96.261096
556.000000	95.842234
555.000000	95.649877
554.000000	95.845806
553.000000	96.436803
552.000000	97.308931
551.000000	98.314490
550.000000	99.284438
549.000000	100.069357
548.000000	100.629261
547.000000	101.029584
546.000000	101.328497
545.000000	101.527168
544.000000	101.636226
543.000000	101.703988
542.000000	101.752606
541.000000	101.752845
540.000000	101.697171
539.000000	101.627521
538.000000	101.567929
537.000000	101.496130
536.000000	101.406800
535.000000	101.334421
534.000000	101.288053
533.000000	101.234664
532.000000	101.156411
531.000000	101.076949
530.000000	101.003295
529.000000	100.894785
528.000000	100.712666
527.000000	100.459321
526.000000	100.132326
525.000000	99.701166
524.000000	99.155378
523.000000	98.503276
522.000000	97.719112
521.000000	96.741239
520.000000	95.543779
519.000000	94.162452
518.000000	92.644798
517.000000	91.052701
516.000000	89.536335
515.000000	88.310712
514.000000	87.518588
513.000000	87.178881
512.000000	87.259878
511.000000	87.730275
510.000000	88.511722
509.000000	89.472674
508.000000	90.519454
507.000000	91.628380
506.000000	92.771194
505.000000	93.891278
504.000000	94.974054
503.000000	96.051084
502.000000	97.105029
501.000000	98.048654
500.000000	98.827424
499.000000	99.468198
498.000000	99.995678
497.000000	100.397115
496.000000	100.686151
495.000000	100.925830
494.000000	101.164878
493.000000	101.392063
492.000000	101.598717
491.000000	101.819756
490.000000	102.065977
489.000000	102.292632
488.000000	102.455704
487.000000	102.549865
486.000000	102.545411
485.000000	102.340094
484.000000	101.833770
483.000000	100.995139
482.000000	99.825279
481.000000	98.325664
480.000000	96.556106
479.000000	94.645140
478.000000	92.674330
477.000000	90.653361
476.000000	88.656985
475.000000	86.905148
474.000000	85.636367
473.000000	85.004906
472.000000	85.116770
471.000000	86.010069
470.000000	87.538129
469.000000	89.386186
468.000000	91.272361
467.000000	93.045134
466.000000	94.612736
465.000000	95.910542
464.000000	96.944039
463.000000	97.806279
462.000000	98.584881
461.000000	99.289038
460.000000	99.910719
459.000000	100.484555
458.000000	101.035245
457.000000	101.537954
456.000000	101.974821
455.000000	102.352521
454.000000	102.646025
453.000000	102.798987
452.000000	102.821005
451.000000	102.812615
450.000000	102.828224
449.000000	102.827762
448.000000	102.794983
447.000000	102.798976
446.000000	102.891595
445.000000	103.043619
444.000000	103.214136
443.000000	103.411293
442.000000	103.631780
441.000000	103.819730
440.000000	103.942013
439.000000	104.009657
438.000000	104.002604
437.000000	103.861528
436.000000	103.604848
435.000000	103.351558
434.000000	103.163518
433.000000	102.978056
432.000000	102.754199
431.000000	102.566498
430.000000	102.494950
429.000000	102.506698
428.000000	102.547166
427.000000	102.638823
426.000000	102.772995
425.000000	102.825340
424.000000	102.718860
423.000000	102.570904
422.000000	102.502296
421.000000	102.430066
420.000000	102.218940
419.000000	101.999328
418.000000	102.055216
417.000000	102.377770
416.000000	102.802500
415.000000	103.302568
414.000000	103.865460
413.000000	104.357703
412.000000	104.657880
411.000000	104.781372
410.000000	104.759473
409.000000	104.497880
408.000000	103.952652
407.000000	103.310512
406.000000	102.809875
405.000000	102.498750
404.000000	102.359986
403.000000	102.466911
402.000000	102.841560
401.000000	103.306378
400.000000	103.718365
