PE IR       SUBTECH     SPECTRUM    ASCII       PEDS        4.00        
   -1
23ms075-trans.asc
24/10/15
15:56:51.00
24/10/15
15:56:51.00
Administrator
Sample 1274 By Administrator Date Tuesday, October 15 2024
400.000000
#HDR
-1
-1
#GR
cm-1
%T
1.0
0.0
4000.000000
-1.000000
3601
8
118.528469
16.296148
#DATA
4000.000000	88.206846
3999.000000	88.157106
3998.000000	88.116373
3997.000000	88.080597
3996.000000	88.041749
3995.000000	87.997540
3994.000000	87.954367
3993.000000	87.918307
3992.000000	87.886215
3991.000000	87.849930
3990.000000	87.805353
3989.000000	87.754009
3988.000000	87.698318
3987.000000	87.638971
3986.000000	87.576448
3985.000000	87.510835
3984.000000	87.440296
3983.000000	87.361378
3982.000000	87.271799
3981.000000	87.175200
3980.000000	87.082005
3979.000000	87.003746
3978.000000	86.948920
3977.000000	86.922027
3976.000000	86.922506
3975.000000	86.945013
3974.000000	86.983261
3973.000000	87.037512
3972.000000	87.110809
3971.000000	87.201777
3970.000000	87.303670
3969.000000	87.405136
3968.000000	87.495972
3967.000000	87.572433
3966.000000	87.637840
3965.000000	87.697313
3964.000000	87.750022
3963.000000	87.786347
3962.000000	87.798480
3961.000000	87.793811
3960.000000	87.785188
3959.000000	87.779056
3958.000000	87.778341
3957.000000	87.783870
3956.000000	87.798154
3955.000000	87.823682
3954.000000	87.864818
3953.000000	87.927549
3952.000000	88.014571
3951.000000	88.125420
3950.000000	88.247897
3949.000000	88.356682
3948.000000	88.444161
3947.000000	88.545140
3946.000000	88.701962
3945.000000	88.907532
3944.000000	89.104365
3943.000000	89.239306
3942.000000	89.314582
3941.000000	89.384647
3940.000000	89.484772
3939.000000	89.593478
3938.000000	89.678399
3937.000000	89.738569
3936.000000	89.805710
3935.000000	89.900702
3934.000000	90.015434
3933.000000	90.124923
3932.000000	90.198991
3931.000000	90.225464
3930.000000	90.215448
3929.000000	90.212238
3928.000000	90.269526
3927.000000	90.378064
3926.000000	90.461227
3925.000000	90.464359
3924.000000	90.416978
3923.000000	90.387811
3922.000000	90.398854
3921.000000	90.436476
3920.000000	90.504158
3919.000000	90.601305
3918.000000	90.687975
3917.000000	90.724740
3916.000000	90.733432
3915.000000	90.773683
3914.000000	90.859151
3913.000000	90.964278
3912.000000	91.057224
3911.000000	91.109992
3910.000000	91.126452
3909.000000	91.136981
3908.000000	91.196229
3907.000000	91.325650
3906.000000	91.470014
3905.000000	91.541581
3904.000000	91.519627
3903.000000	91.504223
3902.000000	91.608393
3901.000000	91.794582
3900.000000	91.925267
3899.000000	91.937902
3898.000000	91.879979
3897.000000	91.841845
3896.000000	91.871496
3895.000000	91.993268
3894.000000	92.216494
3893.000000	92.453548
3892.000000	92.503155
3891.000000	92.267793
3890.000000	91.985319
3889.000000	91.958443
3888.000000	92.199244
3887.000000	92.474814
3886.000000	92.526874
3885.000000	92.347173
3884.000000	92.214638
3883.000000	92.323923
3882.000000	92.572619
3881.000000	92.705237
3880.000000	92.572684
3879.000000	92.325990
3878.000000	92.247242
3877.000000	92.397337
3876.000000	92.585126
3875.000000	92.594613
3874.000000	92.452765
3873.000000	92.417480
3872.000000	92.604354
3871.000000	92.799256
3870.000000	92.722982
3869.000000	92.464011
3868.000000	92.383411
3867.000000	92.563278
3866.000000	92.794479
3865.000000	92.937816
3864.000000	92.955393
3863.000000	92.883030
3862.000000	92.799626
3861.000000	92.740559
3860.000000	92.694175
3859.000000	92.632516
3858.000000	92.595861
3857.000000	92.700196
3856.000000	93.046624
3855.000000	93.554879
3854.000000	93.751424
3853.000000	93.246625
3852.000000	92.564636
3851.000000	92.381801
3850.000000	92.594344
3849.000000	92.871095
3848.000000	93.081440
3847.000000	93.213862
3846.000000	93.300693
3845.000000	93.354111
3844.000000	93.321184
3843.000000	93.215416
3842.000000	93.160036
3841.000000	93.232648
3840.000000	93.402798
3839.000000	93.543701
3838.000000	93.528971
3837.000000	93.367497
3836.000000	93.222150
3835.000000	93.243509
3834.000000	93.409155
3833.000000	93.563196
3832.000000	93.586205
3831.000000	93.509943
3830.000000	93.479628
3829.000000	93.586373
3828.000000	93.714312
3827.000000	93.679703
3826.000000	93.504287
3825.000000	93.422085
3824.000000	93.606705
3823.000000	93.968249
3822.000000	94.160822
3821.000000	93.895283
3820.000000	93.470499
3819.000000	93.422965
3818.000000	93.776569
3817.000000	94.134010
3816.000000	94.147866
3815.000000	93.894987
3814.000000	93.727935
3813.000000	93.751501
3812.000000	93.829116
3811.000000	93.914737
3810.000000	94.093959
3809.000000	94.373678
3808.000000	94.531144
3807.000000	94.345579
3806.000000	93.986513
3805.000000	93.897238
3804.000000	94.216478
3803.000000	94.672501
3802.000000	94.852436
3801.000000	94.589346
3800.000000	94.261277
3799.000000	94.263352
3798.000000	94.514095
3797.000000	94.723570
3796.000000	94.753189
3795.000000	94.692629
3794.000000	94.682142
3793.000000	94.749019
3792.000000	94.842761
3791.000000	94.913310
3790.000000	94.946918
3789.000000	94.965949
3788.000000	95.006527
3787.000000	95.082568
3786.000000	95.140740
3785.000000	95.116663
3784.000000	95.042635
3783.000000	95.036714
3782.000000	95.156655
3781.000000	95.327119
3780.000000	95.402320
3779.000000	95.324295
3778.000000	95.206496
3777.000000	95.170172
3776.000000	95.187119
3775.000000	95.183728
3774.000000	95.191224
3773.000000	95.285637
3772.000000	95.434511
3771.000000	95.506780
3770.000000	95.426307
3769.000000	95.281019
3768.000000	95.240386
3767.000000	95.321275
3766.000000	95.369625
3765.000000	95.294407
3764.000000	95.193301
3763.000000	95.216487
3762.000000	95.351822
3761.000000	95.489781
3760.000000	95.556391
3759.000000	95.498903
3758.000000	95.331036
3757.000000	95.154558
3756.000000	95.082920
3755.000000	95.144692
3754.000000	95.291141
3753.000000	95.498993
3752.000000	95.729899
3751.000000	95.775562
3750.000000	95.458085
3749.000000	95.034051
3748.000000	94.994452
3747.000000	95.451655
3746.000000	96.105905
3745.000000	96.446358
3744.000000	96.097145
3743.000000	95.531797
3742.000000	95.380759
3741.000000	95.541639
3740.000000	95.755340
3739.000000	95.966745
3738.000000	96.187747
3737.000000	96.374734
3736.000000	96.477840
3735.000000	96.558135
3734.000000	96.665346
3733.000000	96.726275
3732.000000	96.654619
3731.000000	96.520473
3730.000000	96.503266
3729.000000	96.649287
3728.000000	96.841555
3727.000000	96.957247
3726.000000	96.984111
3725.000000	97.004191
3724.000000	97.052677
3723.000000	97.105835
3722.000000	97.119818
3721.000000	97.100661
3720.000000	97.107943
3719.000000	97.121464
3718.000000	97.083344
3717.000000	97.024340
3716.000000	97.038121
3715.000000	97.175876
3714.000000	97.402494
3713.000000	97.636272
3712.000000	97.756922
3711.000000	97.692148
3710.000000	97.547231
3709.000000	97.469681
3708.000000	97.480067
3707.000000	97.535997
3706.000000	97.629389
3705.000000	97.781206
3704.000000	97.974900
3703.000000	98.127896
3702.000000	98.140061
3701.000000	98.008263
3700.000000	97.885689
3699.000000	97.889434
3698.000000	97.957140
3697.000000	97.989480
3696.000000	97.973105
3695.000000	97.948256
3694.000000	97.939273
3693.000000	97.967455
3692.000000	98.069942
3691.000000	98.251244
3690.000000	98.414775
3689.000000	98.384390
3688.000000	98.144515
3687.000000	97.949434
3686.000000	97.979178
3685.000000	98.134191
3684.000000	98.274299
3683.000000	98.362791
3682.000000	98.403583
3681.000000	98.346686
3680.000000	98.195027
3679.000000	98.136223
3678.000000	98.331596
3677.000000	98.680042
3676.000000	98.764806
3675.000000	98.341174
3674.000000	97.893071
3673.000000	97.936815
3672.000000	98.337348
3671.000000	98.705874
3670.000000	98.748920
3669.000000	98.480945
3668.000000	98.239113
3667.000000	98.232354
3666.000000	98.360860
3665.000000	98.476589
3664.000000	98.540010
3663.000000	98.543081
3662.000000	98.473726
3661.000000	98.348957
3660.000000	98.265808
3659.000000	98.320427
3658.000000	98.455828
3657.000000	98.460303
3656.000000	98.189234
3655.000000	97.818643
3654.000000	97.625895
3653.000000	97.643705
3652.000000	97.757420
3651.000000	97.883309
3650.000000	97.925631
3649.000000	97.781225
3648.000000	97.485048
3647.000000	97.221330
3646.000000	97.114497
3645.000000	97.145948
3644.000000	97.230115
3643.000000	97.278775
3642.000000	97.258689
3641.000000	97.187903
3640.000000	97.092966
3639.000000	96.972285
3638.000000	96.834522
3637.000000	96.725258
3636.000000	96.638601
3635.000000	96.484792
3634.000000	96.212529
3633.000000	95.939488
3632.000000	95.843820
3631.000000	95.963877
3630.000000	96.106242
3629.000000	95.920203
3628.000000	95.379473
3627.000000	94.925604
3626.000000	94.784075
3625.000000	94.769914
3624.000000	94.721112
3623.000000	94.648495
3622.000000	94.605399
3621.000000	94.574996
3620.000000	94.458157
3619.000000	94.153051
3618.000000	93.734228
3617.000000	93.423172
3616.000000	93.312721
3615.000000	93.293265
3614.000000	93.212002
3613.000000	93.023121
3612.000000	92.815460
3611.000000	92.692727
3610.000000	92.644915
3609.000000	92.576547
3608.000000	92.418915
3607.000000	92.196185
3606.000000	91.991419
3605.000000	91.843384
3604.000000	91.736561
3603.000000	91.632539
3602.000000	91.485191
3601.000000	91.272880
3600.000000	91.030600
3599.000000	90.799080
3598.000000	90.598223
3597.000000	90.434599
3596.000000	90.275533
3595.000000	90.066733
3594.000000	89.780836
3593.000000	89.457978
3592.000000	89.180691
3591.000000	88.999811
3590.000000	88.900542
3589.000000	88.818001
3588.000000	88.657467
3587.000000	88.373147
3586.000000	88.051174
3585.000000	87.810100
3584.000000	87.668083
3583.000000	87.565460
3582.000000	87.451137
3581.000000	87.314785
3580.000000	87.166787
3579.000000	87.016569
3578.000000	86.865993
3577.000000	86.725386
3576.000000	86.600106
3575.000000	86.476827
3574.000000	86.338360
3573.000000	86.180797
3572.000000	86.028114
3571.000000	85.922685
3570.000000	85.893062
3569.000000	85.928441
3568.000000	85.970687
3567.000000	85.947988
3566.000000	85.863684
3565.000000	85.802624
3564.000000	85.817403
3563.000000	85.887442
3562.000000	85.972368
3561.000000	86.051549
3560.000000	86.121755
3559.000000	86.183956
3558.000000	86.239357
3557.000000	86.297983
3556.000000	86.380070
3555.000000	86.493148
3554.000000	86.617704
3553.000000	86.719148
3552.000000	86.780323
3551.000000	86.823872
3550.000000	86.887155
3549.000000	86.986804
3548.000000	87.114132
3547.000000	87.247622
3546.000000	87.365227
3545.000000	87.463388
3544.000000	87.554891
3543.000000	87.648053
3542.000000	87.739203
3541.000000	87.822360
3540.000000	87.901252
3539.000000	87.977314
3538.000000	88.046128
3537.000000	88.101534
3536.000000	88.140849
3535.000000	88.167465
3534.000000	88.186731
3533.000000	88.205131
3532.000000	88.225842
3531.000000	88.244438
3530.000000	88.246961
3529.000000	88.218268
3528.000000	88.157281
3527.000000	88.082950
3526.000000	88.019391
3525.000000	87.974304
3524.000000	87.931150
3523.000000	87.862674
3522.000000	87.759684
3521.000000	87.636522
3520.000000	87.507126
3519.000000	87.363575
3518.000000	87.190729
3517.000000	86.989804
3516.000000	86.770952
3515.000000	86.536858
3514.000000	86.287816
3513.000000	86.031546
3512.000000	85.774099
3511.000000	85.504664
3510.000000	85.202245
3509.000000	84.862577
3508.000000	84.508267
3507.000000	84.164061
3506.000000	83.831934
3505.000000	83.497849
3504.000000	83.149708
3503.000000	82.785920
3502.000000	82.416424
3501.000000	82.058135
3500.000000	81.722382
3499.000000	81.405211
3498.000000	81.095347
3497.000000	80.788373
3496.000000	80.488924
3495.000000	80.202137
3494.000000	79.932406
3493.000000	79.687050
3492.000000	79.472098
3491.000000	79.287430
3490.000000	79.129077
3489.000000	78.994632
3488.000000	78.885067
3487.000000	78.803138
3486.000000	78.755548
3485.000000	78.750061
3484.000000	78.783409
3483.000000	78.839245
3482.000000	78.905187
3481.000000	78.989361
3480.000000	79.110061
3479.000000	79.272632
3478.000000	79.465508
3477.000000	79.675296
3476.000000	79.895257
3475.000000	80.120024
3474.000000	80.345153
3473.000000	80.572338
3472.000000	80.805852
3471.000000	81.047370
3470.000000	81.299517
3469.000000	81.567424
3468.000000	81.850962
3467.000000	82.140472
3466.000000	82.427453
3465.000000	82.712288
3464.000000	82.995427
3463.000000	83.269816
3462.000000	83.531110
3461.000000	83.788777
3460.000000	84.056448
3459.000000	84.334093
3458.000000	84.611543
3457.000000	84.881541
3456.000000	85.144761
3455.000000	85.405168
3454.000000	85.662855
3453.000000	85.915442
3452.000000	86.162816
3451.000000	86.411501
3450.000000	86.670516
3449.000000	86.938917
3448.000000	87.202195
3447.000000	87.447562
3446.000000	87.683624
3445.000000	87.932769
3444.000000	88.202228
3443.000000	88.474849
3442.000000	88.731477
3441.000000	88.971579
3440.000000	89.206972
3439.000000	89.443862
3438.000000	89.681746
3437.000000	89.920575
3436.000000	90.162598
3435.000000	90.407788
3434.000000	90.649159
3433.000000	90.879221
3432.000000	91.097026
3431.000000	91.308898
3430.000000	91.522061
3429.000000	91.738167
3428.000000	91.953199
3427.000000	92.160722
3426.000000	92.358051
3425.000000	92.549602
3424.000000	92.743030
3423.000000	92.941165
3422.000000	93.139663
3421.000000	93.333242
3420.000000	93.521633
3419.000000	93.708910
3418.000000	93.897994
3417.000000	94.088304
3416.000000	94.278226
3415.000000	94.467717
3414.000000	94.658177
3413.000000	94.850678
3412.000000	95.044601
3411.000000	95.238361
3410.000000	95.431594
3409.000000	95.626169
3408.000000	95.823538
3407.000000	96.020035
3406.000000	96.209783
3405.000000	96.391310
3404.000000	96.568811
3403.000000	96.748552
3402.000000	96.937726
3401.000000	97.144509
3400.000000	97.369175
3399.000000	97.596984
3398.000000	97.808895
3397.000000	98.000738
3396.000000	98.185044
3395.000000	98.373898
3394.000000	98.568679
3393.000000	98.767109
3392.000000	98.970651
3391.000000	99.179681
3390.000000	99.388496
3389.000000	99.590266
3388.000000	99.784047
3387.000000	99.972352
3386.000000	100.156232
3385.000000	100.335892
3384.000000	100.512677
3383.000000	100.688430
3382.000000	100.864204
3381.000000	101.041368
3380.000000	101.219934
3379.000000	101.397140
3378.000000	101.571182
3377.000000	101.744976
3376.000000	101.921670
3375.000000	102.097782
3374.000000	102.266742
3373.000000	102.428521
3372.000000	102.590983
3371.000000	102.762433
3370.000000	102.947207
3369.000000	103.145853
3368.000000	103.354365
3367.000000	103.564253
3366.000000	103.768328
3365.000000	103.966564
3364.000000	104.163659
3363.000000	104.362632
3362.000000	104.564396
3361.000000	104.771372
3360.000000	104.985910
3359.000000	105.205942
3358.000000	105.426154
3357.000000	105.643187
3356.000000	105.856040
3355.000000	106.063378
3354.000000	106.265919
3353.000000	106.470590
3352.000000	106.686510
3351.000000	106.915562
3350.000000	107.150486
3349.000000	107.380868
3348.000000	107.599703
3347.000000	107.805021
3346.000000	107.999724
3345.000000	108.190718
3344.000000	108.381838
3343.000000	108.567689
3342.000000	108.738787
3341.000000	108.892463
3340.000000	109.034623
3339.000000	109.169501
3338.000000	109.291077
3337.000000	109.386726
3336.000000	109.445636
3335.000000	109.463039
3334.000000	109.438921
3333.000000	109.372537
3332.000000	109.259554
3331.000000	109.091236
3330.000000	108.857710
3329.000000	108.553135
3328.000000	108.174903
3327.000000	107.721377
3326.000000	107.188892
3325.000000	106.570305
3324.000000	105.856622
3323.000000	105.035583
3322.000000	104.097079
3321.000000	103.033595
3320.000000	101.831916
3319.000000	100.472020
3318.000000	98.926879
3317.000000	97.170562
3316.000000	95.176212
3315.000000	92.908593
3314.000000	90.337223
3313.000000	87.446685
3312.000000	84.243230
3311.000000	80.753869
3310.000000	77.021487
3309.000000	73.113979
3308.000000	69.117733
3307.000000	65.121995
3306.000000	61.211734
3305.000000	57.462232
3304.000000	53.933865
3303.000000	50.670883
3302.000000	47.707756
3301.000000	45.074235
3300.000000	42.794233
3299.000000	40.875743
3298.000000	39.319412
3297.000000	38.125995
3296.000000	37.276431
3295.000000	36.723299
3294.000000	36.391906
3293.000000	36.197876
3292.000000	36.061968
3291.000000	35.912128
3290.000000	35.704939
3289.000000	35.436728
3288.000000	35.135899
3287.000000	34.844511
3286.000000	34.601166
3285.000000	34.434087
3284.000000	34.350398
3283.000000	34.332954
3282.000000	34.352671
3281.000000	34.381723
3280.000000	34.394972
3279.000000	34.368372
3278.000000	34.287721
3277.000000	34.157041
3276.000000	33.991882
3275.000000	33.808999
3274.000000	33.628860
3273.000000	33.482510
3272.000000	33.406935
3271.000000	33.432209
3270.000000	33.578786
3269.000000	33.859883
3268.000000	34.278533
3267.000000	34.827416
3266.000000	35.490175
3265.000000	36.243382
3264.000000	37.049898
3263.000000	37.854120
3262.000000	38.592274
3261.000000	39.203528
3260.000000	39.630143
3259.000000	39.819871
3258.000000	39.741803
3257.000000	39.390229
3256.000000	38.780705
3255.000000	37.937648
3254.000000	36.891552
3253.000000	35.685752
3252.000000	34.358336
3251.000000	32.934338
3250.000000	31.432373
3249.000000	29.876119
3248.000000	28.300152
3247.000000	26.744274
3246.000000	25.258043
3245.000000	23.904082
3244.000000	22.744620
3243.000000	21.817491
3242.000000	21.127225
3241.000000	20.642669
3240.000000	20.298700
3239.000000	20.015748
3238.000000	19.726355
3237.000000	19.396840
3236.000000	19.023880
3235.000000	18.620687
3234.000000	18.211467
3233.000000	17.821295
3232.000000	17.462366
3231.000000	17.132132
3230.000000	16.830434
3229.000000	16.574223
3228.000000	16.388698
3227.000000	16.296148
3226.000000	16.317855
3225.000000	16.475959
3224.000000	16.786243
3223.000000	17.247109
3222.000000	17.844550
3221.000000	18.558066
3220.000000	19.353302
3219.000000	20.181288
3218.000000	20.990814
3217.000000	21.741545
3216.000000	22.403491
3215.000000	22.955957
3214.000000	23.396904
3213.000000	23.747850
3212.000000	24.041372
3211.000000	24.307857
3210.000000	24.577523
3209.000000	24.883162
3208.000000	25.252178
3207.000000	25.698867
3206.000000	26.229766
3205.000000	26.849073
3204.000000	27.555210
3203.000000	28.337222
3202.000000	29.181529
3201.000000	30.078509
3200.000000	31.015856
3199.000000	31.975372
3198.000000	32.939512
3197.000000	33.896416
3196.000000	34.835124
3195.000000	35.741506
3194.000000	36.603666
3193.000000	37.415157
3192.000000	38.168794
3191.000000	38.851620
3190.000000	39.453514
3189.000000	39.973016
3188.000000	40.411899
3187.000000	40.771785
3186.000000	41.058242
3185.000000	41.285335
3184.000000	41.467847
3183.000000	41.615572
3182.000000	41.738800
3181.000000	41.849973
3180.000000	41.958516
3179.000000	42.068079
3178.000000	42.184575
3177.000000	42.321518
3176.000000	42.492627
3175.000000	42.704700
3174.000000	42.961483
3173.000000	43.268113
3172.000000	43.625333
3171.000000	44.027628
3170.000000	44.469298
3169.000000	44.948725
3168.000000	45.463557
3167.000000	46.005772
3166.000000	46.568419
3165.000000	47.148724
3164.000000	47.742308
3163.000000	48.340377
3162.000000	48.934869
3161.000000	49.520106
3160.000000	50.084864
3159.000000	50.608816
3158.000000	51.067046
3157.000000	51.434667
3156.000000	51.680371
3155.000000	51.764620
3154.000000	51.650289
3153.000000	51.312061
3152.000000	50.748166
3151.000000	49.989201
3150.000000	49.104807
3149.000000	48.192225
3148.000000	47.339946
3147.000000	46.598576
3146.000000	45.972916
3145.000000	45.428318
3144.000000	44.902208
3143.000000	44.322684
3142.000000	43.635954
3141.000000	42.822120
3140.000000	41.888455
3139.000000	40.859137
3138.000000	39.773377
3137.000000	38.683277
3136.000000	37.640785
3135.000000	36.687996
3134.000000	35.860756
3133.000000	35.193460
3132.000000	34.710677
3131.000000	34.421377
3130.000000	34.327402
3129.000000	34.424400
3128.000000	34.699685
3127.000000	35.131378
3126.000000	35.697658
3125.000000	36.383738
3124.000000	37.170121
3123.000000	38.032036
3122.000000	38.948295
3121.000000	39.905119
3120.000000	40.889328
3119.000000	41.881902
3118.000000	42.867061
3117.000000	43.836635
3116.000000	44.782325
3115.000000	45.690882
3114.000000	46.551576
3113.000000	47.361199
3112.000000	48.118236
3111.000000	48.820714
3110.000000	49.469666
3109.000000	50.069732
3108.000000	50.620155
3107.000000	51.113743
3106.000000	51.548086
3105.000000	51.928600
3104.000000	52.262810
3103.000000	52.555969
3102.000000	52.817774
3101.000000	53.067518
3100.000000	53.327252
3099.000000	53.614835
3098.000000	53.944765
3097.000000	54.329308
3096.000000	54.772573
3095.000000	55.268809
3094.000000	55.808624
3093.000000	56.383736
3092.000000	56.984446
3091.000000	57.597631
3090.000000	58.211542
3089.000000	58.817983
3088.000000	59.409147
3087.000000	59.978013
3086.000000	60.523228
3085.000000	61.047909
3084.000000	61.552063
3083.000000	62.030952
3082.000000	62.482582
3081.000000	62.911905
3080.000000	63.324438
3079.000000	63.721636
3078.000000	64.104895
3077.000000	64.477087
3076.000000	64.838447
3075.000000	65.185935
3074.000000	65.518863
3073.000000	65.841066
3072.000000	66.154832
3071.000000	66.458568
3070.000000	66.752707
3069.000000	67.042974
3068.000000	67.334812
3067.000000	67.627448
3066.000000	67.916609
3065.000000	68.199948
3064.000000	68.477469
3063.000000	68.749273
3062.000000	69.015425
3061.000000	69.276226
3060.000000	69.530997
3059.000000	69.778495
3058.000000	70.019779
3057.000000	70.257574
3056.000000	70.491631
3055.000000	70.718519
3054.000000	70.936477
3053.000000	71.148067
3052.000000	71.356003
3051.000000	71.558984
3050.000000	71.753658
3049.000000	71.938097
3048.000000	72.112582
3047.000000	72.279154
3046.000000	72.441857
3045.000000	72.605081
3044.000000	72.770073
3043.000000	72.935200
3042.000000	73.100275
3041.000000	73.266710
3040.000000	73.433340
3039.000000	73.595894
3038.000000	73.752127
3037.000000	73.904966
3036.000000	74.058928
3035.000000	74.216525
3034.000000	74.378759
3033.000000	74.544859
3032.000000	74.710263
3031.000000	74.869716
3030.000000	75.023908
3029.000000	75.178552
3028.000000	75.336072
3027.000000	75.493489
3026.000000	75.649481
3025.000000	75.807433
3024.000000	75.969073
3023.000000	76.130350
3022.000000	76.286748
3021.000000	76.438976
3020.000000	76.590874
3019.000000	76.744104
3018.000000	76.897554
3017.000000	77.049302
3016.000000	77.196620
3015.000000	77.336139
3014.000000	77.465723
3013.000000	77.584520
3012.000000	77.689695
3011.000000	77.774577
3010.000000	77.831902
3009.000000	77.855480
3008.000000	77.837664
3007.000000	77.768187
3006.000000	77.636058
3005.000000	77.433534
3004.000000	77.156628
3003.000000	76.806276
3002.000000	76.390699
3001.000000	75.923521
3000.000000	75.418423
2999.000000	74.882776
2998.000000	74.320752
2997.000000	73.743911
2996.000000	73.183657
2995.000000	72.694868
2994.000000	72.338869
2993.000000	72.152151
2992.000000	72.122418
2991.000000	72.198202
2990.000000	72.320402
2989.000000	72.446036
2988.000000	72.550528
2987.000000	72.621130
2986.000000	72.657428
2985.000000	72.671053
2984.000000	72.680205
2983.000000	72.704889
2982.000000	72.765824
2981.000000	72.881062
2980.000000	73.056665
2979.000000	73.282592
2978.000000	73.541155
2977.000000	73.818804
2976.000000	74.112443
2975.000000	74.427799
2974.000000	74.772680
2973.000000	75.145194
2972.000000	75.524810
2971.000000	75.876555
2970.000000	76.163178
2969.000000	76.353999
2968.000000	76.422835
2967.000000	76.347909
2966.000000	76.116192
2965.000000	75.725086
2964.000000	75.180157
2963.000000	74.492441
2962.000000	73.683134
2961.000000	72.782145
2960.000000	71.819277
2959.000000	70.816632
2958.000000	69.790549
2957.000000	68.763256
2956.000000	67.773422
2955.000000	66.881894
2954.000000	66.156285
2953.000000	65.635216
2952.000000	65.299360
2951.000000	65.085728
2950.000000	64.938775
2949.000000	64.845384
2948.000000	64.829213
2947.000000	64.918681
2946.000000	65.120155
2945.000000	65.403769
2944.000000	65.704968
2943.000000	65.953567
2942.000000	66.116980
2941.000000	66.226077
2940.000000	66.362131
2939.000000	66.618458
2938.000000	67.064536
2937.000000	67.724591
2936.000000	68.573493
2935.000000	69.552473
2934.000000	70.594424
2933.000000	71.641952
2932.000000	72.651594
2931.000000	73.595208
2930.000000	74.461043
2929.000000	75.248363
2928.000000	75.959391
2927.000000	76.597313
2926.000000	77.171064
2925.000000	77.692915
2924.000000	78.169764
2923.000000	78.600607
2922.000000	78.983169
2921.000000	79.317973
2920.000000	79.604749
2919.000000	79.842189
2918.000000	80.032199
2917.000000	80.180882
2916.000000	80.294400
2915.000000	80.377344
2914.000000	80.436186
2913.000000	80.478567
2912.000000	80.509321
2911.000000	80.530932
2910.000000	80.547775
2909.000000	80.566472
2908.000000	80.590073
2907.000000	80.617601
2906.000000	80.649452
2905.000000	80.688591
2904.000000	80.735163
2903.000000	80.785526
2902.000000	80.837117
2901.000000	80.889273
2900.000000	80.939805
2899.000000	80.983163
2898.000000	81.014716
2897.000000	81.030919
2896.000000	81.025010
2895.000000	80.987241
2894.000000	80.911015
2893.000000	80.795063
2892.000000	80.638131
2891.000000	80.436779
2890.000000	80.190298
2889.000000	79.904176
2888.000000	79.587318
2887.000000	79.250362
2886.000000	78.908332
2885.000000	78.579821
2884.000000	78.281484
2883.000000	78.024868
2882.000000	77.819504
2881.000000	77.674289
2880.000000	77.593375
2879.000000	77.575435
2878.000000	77.617807
2877.000000	77.717854
2876.000000	77.869256
2875.000000	78.061332
2874.000000	78.282688
2873.000000	78.521785
2872.000000	78.764031
2871.000000	78.994245
2870.000000	79.205166
2869.000000	79.399521
2868.000000	79.583480
2867.000000	79.761677
2866.000000	79.938086
2865.000000	80.115724
2864.000000	80.293217
2863.000000	80.466492
2862.000000	80.635518
2861.000000	80.805230
2860.000000	80.978603
2859.000000	81.153955
2858.000000	81.330707
2857.000000	81.512892
2856.000000	81.704847
2855.000000	81.907267
2854.000000	82.118485
2853.000000	82.334578
2852.000000	82.546031
2851.000000	82.738503
2850.000000	82.900177
2849.000000	83.026484
2848.000000	83.118186
2847.000000	83.179942
2846.000000	83.222110
2845.000000	83.258908
2844.000000	83.301430
2843.000000	83.354099
2842.000000	83.418780
2841.000000	83.499262
2840.000000	83.599382
2839.000000	83.719610
2838.000000	83.857205
2837.000000	84.007698
2836.000000	84.165620
2835.000000	84.326207
2834.000000	84.487365
2833.000000	84.648402
2832.000000	84.807105
2831.000000	84.960227
2830.000000	85.106709
2829.000000	85.247613
2828.000000	85.382860
2827.000000	85.511036
2826.000000	85.632135
2825.000000	85.747377
2824.000000	85.856270
2823.000000	85.956741
2822.000000	86.048444
2821.000000	86.133072
2820.000000	86.211328
2819.000000	86.282760
2818.000000	86.348630
2817.000000	86.411639
2816.000000	86.472451
2815.000000	86.529478
2814.000000	86.582701
2813.000000	86.635097
2812.000000	86.689905
2811.000000	86.749086
2810.000000	86.814198
2809.000000	86.885575
2808.000000	86.960510
2807.000000	87.035244
2806.000000	87.108967
2805.000000	87.183141
2804.000000	87.257084
2803.000000	87.327566
2802.000000	87.393075
2801.000000	87.455298
2800.000000	87.516112
2799.000000	87.575938
2798.000000	87.635037
2797.000000	87.693288
2796.000000	87.748448
2795.000000	87.797586
2794.000000	87.840608
2793.000000	87.879893
2792.000000	87.916748
2791.000000	87.951194
2790.000000	87.984689
2789.000000	88.019428
2788.000000	88.054902
2787.000000	88.088608
2786.000000	88.120470
2785.000000	88.153405
2784.000000	88.189373
2783.000000	88.228386
2782.000000	88.271572
2781.000000	88.321310
2780.000000	88.377532
2779.000000	88.437161
2778.000000	88.497937
2777.000000	88.559855
2776.000000	88.622171
2775.000000	88.682014
2774.000000	88.736941
2773.000000	88.786316
2772.000000	88.829691
2771.000000	88.866692
2770.000000	88.899050
2769.000000	88.930090
2768.000000	88.961603
2767.000000	88.993173
2766.000000	89.024509
2765.000000	89.055829
2764.000000	89.085980
2763.000000	89.113206
2762.000000	89.138023
2761.000000	89.162657
2760.000000	89.187447
2759.000000	89.210317
2758.000000	89.229711
2757.000000	89.244895
2756.000000	89.253382
2755.000000	89.251111
2754.000000	89.235784
2753.000000	89.207957
2752.000000	89.168825
2751.000000	89.120103
2750.000000	89.066545
2749.000000	89.015420
2748.000000	88.972686
2747.000000	88.941869
2746.000000	88.926399
2745.000000	88.930082
2744.000000	88.954762
2743.000000	88.999381
2742.000000	89.061668
2741.000000	89.138305
2740.000000	89.223285
2739.000000	89.309482
2738.000000	89.392133
2737.000000	89.468946
2736.000000	89.537790
2735.000000	89.596990
2734.000000	89.647822
2733.000000	89.693765
2732.000000	89.736726
2731.000000	89.776274
2730.000000	89.812459
2729.000000	89.846445
2728.000000	89.878332
2727.000000	89.906691
2726.000000	89.930372
2725.000000	89.949011
2724.000000	89.962090
2723.000000	89.970006
2722.000000	89.975831
2721.000000	89.983509
2720.000000	89.994582
2719.000000	90.008649
2718.000000	90.026167
2717.000000	90.048204
2716.000000	90.074101
2715.000000	90.102187
2714.000000	90.132558
2713.000000	90.166499
2712.000000	90.203552
2711.000000	90.241822
2710.000000	90.280515
2709.000000	90.319615
2708.000000	90.357649
2707.000000	90.392504
2706.000000	90.424178
2705.000000	90.454356
2704.000000	90.483990
2703.000000	90.513725
2702.000000	90.545698
2701.000000	90.581960
2700.000000	90.621650
2699.000000	90.662216
2698.000000	90.702384
2697.000000	90.741212
2696.000000	90.775435
2695.000000	90.801336
2694.000000	90.818610
2693.000000	90.829485
2692.000000	90.834963
2691.000000	90.834867
2690.000000	90.830898
2689.000000	90.826171
2688.000000	90.821942
2687.000000	90.817933
2686.000000	90.815084
2685.000000	90.814849
2684.000000	90.816425
2683.000000	90.818021
2682.000000	90.820467
2681.000000	90.826343
2680.000000	90.835876
2679.000000	90.846874
2678.000000	90.858480
2677.000000	90.871649
2676.000000	90.886458
2675.000000	90.902171
2674.000000	90.919821
2673.000000	90.941771
2672.000000	90.968749
2671.000000	91.000289
2670.000000	91.037547
2669.000000	91.082368
2668.000000	91.134069
2667.000000	91.189892
2666.000000	91.248477
2665.000000	91.310016
2664.000000	91.373425
2663.000000	91.436798
2662.000000	91.500057
2661.000000	91.564049
2660.000000	91.627347
2659.000000	91.686875
2658.000000	91.741483
2657.000000	91.792257
2656.000000	91.839808
2655.000000	91.884088
2654.000000	91.926374
2653.000000	91.967943
2652.000000	92.007236
2651.000000	92.040907
2650.000000	92.067173
2649.000000	92.085837
2648.000000	92.095884
2647.000000	92.096665
2646.000000	92.091169
2645.000000	92.084772
2644.000000	92.081095
2643.000000	92.081513
2642.000000	92.087806
2641.000000	92.102017
2640.000000	92.124036
2639.000000	92.152367
2638.000000	92.187210
2637.000000	92.229706
2636.000000	92.278578
2635.000000	92.330912
2634.000000	92.385610
2633.000000	92.443375
2632.000000	92.503684
2631.000000	92.564656
2630.000000	92.625790
2629.000000	92.687680
2628.000000	92.749396
2627.000000	92.808867
2626.000000	92.865345
2625.000000	92.918704
2624.000000	92.967134
2623.000000	93.008365
2622.000000	93.042611
2621.000000	93.071657
2620.000000	93.095397
2619.000000	93.112552
2618.000000	93.123977
2617.000000	93.131983
2616.000000	93.137141
2615.000000	93.138589
2614.000000	93.137362
2613.000000	93.136253
2612.000000	93.136342
2611.000000	93.136765
2610.000000	93.137481
2609.000000	93.139430
2608.000000	93.142092
2607.000000	93.143676
2606.000000	93.143686
2605.000000	93.142772
2604.000000	93.140546
2603.000000	93.136270
2602.000000	93.131254
2601.000000	93.127767
2600.000000	93.125846
2599.000000	93.123717
2598.000000	93.120794
2597.000000	93.117344
2596.000000	93.111917
2595.000000	93.102111
2594.000000	93.087802
2593.000000	93.071065
2592.000000	93.053112
2591.000000	93.033991
2590.000000	93.014626
2589.000000	92.996354
2588.000000	92.978842
2587.000000	92.961131
2586.000000	92.944328
2585.000000	92.930742
2584.000000	92.920967
2583.000000	92.914362
2582.000000	92.911892
2581.000000	92.915516
2580.000000	92.925459
2579.000000	92.940892
2578.000000	92.962344
2577.000000	92.990963
2576.000000	93.025731
2575.000000	93.064271
2574.000000	93.105984
2573.000000	93.151358
2572.000000	93.199362
2571.000000	93.248129
2570.000000	93.297571
2569.000000	93.348880
2568.000000	93.401902
2567.000000	93.455768
2566.000000	93.510997
2565.000000	93.568320
2564.000000	93.626674
2563.000000	93.684999
2562.000000	93.744944
2561.000000	93.808775
2560.000000	93.875677
2559.000000	93.943239
2558.000000	94.011259
2557.000000	94.080850
2556.000000	94.150819
2555.000000	94.218319
2554.000000	94.282469
2553.000000	94.344175
2552.000000	94.403107
2551.000000	94.458035
2550.000000	94.509728
2549.000000	94.560338
2548.000000	94.610481
2547.000000	94.659479
2546.000000	94.707542
2545.000000	94.754956
2544.000000	94.799830
2543.000000	94.839991
2542.000000	94.876582
2541.000000	94.912771
2540.000000	94.949590
2539.000000	94.985673
2538.000000	95.020428
2537.000000	95.054358
2536.000000	95.086563
2535.000000	95.115100
2534.000000	95.139513
2533.000000	95.160767
2532.000000	95.179232
2531.000000	95.195067
2530.000000	95.210083
2529.000000	95.226538
2528.000000	95.244677
2527.000000	95.263519
2526.000000	95.282803
2525.000000	95.301801
2524.000000	95.317405
2523.000000	95.326363
2522.000000	95.328702
2521.000000	95.326096
2520.000000	95.318373
2519.000000	95.304112
2518.000000	95.283468
2517.000000	95.257416
2516.000000	95.224523
2515.000000	95.182292
2514.000000	95.130892
2513.000000	95.072931
2512.000000	95.010736
2511.000000	94.946355
2510.000000	94.883648
2509.000000	94.826783
2508.000000	94.776876
2507.000000	94.732767
2506.000000	94.694335
2505.000000	94.661967
2504.000000	94.633678
2503.000000	94.606390
2502.000000	94.579565
2501.000000	94.555288
2500.000000	94.535133
2499.000000	94.519900
2498.000000	94.512156
2497.000000	94.515045
2496.000000	94.529463
2495.000000	94.554380
2494.000000	94.589038
2493.000000	94.632362
2492.000000	94.680588
2491.000000	94.729300
2490.000000	94.777088
2489.000000	94.824726
2488.000000	94.872392
2487.000000	94.920438
2486.000000	94.971986
2485.000000	95.030964
2484.000000	95.097719
2483.000000	95.169644
2482.000000	95.244959
2481.000000	95.323034
2480.000000	95.402070
2479.000000	95.479805
2478.000000	95.556084
2477.000000	95.631421
2476.000000	95.703820
2475.000000	95.770060
2474.000000	95.829655
2473.000000	95.884134
2472.000000	95.933277
2471.000000	95.974981
2470.000000	96.008228
2469.000000	96.033694
2468.000000	96.051409
2467.000000	96.061294
2466.000000	96.065358
2465.000000	96.066199
2464.000000	96.064088
2463.000000	96.057486
2462.000000	96.046219
2461.000000	96.031410
2460.000000	96.012976
2459.000000	95.990624
2458.000000	95.966448
2457.000000	95.943783
2456.000000	95.923795
2455.000000	95.905881
2454.000000	95.890763
2453.000000	95.880128
2452.000000	95.873832
2451.000000	95.870416
2450.000000	95.870211
2449.000000	95.874754
2448.000000	95.883918
2447.000000	95.896501
2446.000000	95.913059
2445.000000	95.935518
2444.000000	95.963960
2443.000000	95.996882
2442.000000	96.034012
2441.000000	96.075807
2440.000000	96.121089
2439.000000	96.167819
2438.000000	96.216088
2437.000000	96.267671
2436.000000	96.322972
2435.000000	96.381359
2434.000000	96.443223
2433.000000	96.508748
2432.000000	96.575217
2431.000000	96.638612
2430.000000	96.697316
2429.000000	96.751313
2428.000000	96.798645
2427.000000	96.835854
2426.000000	96.862042
2425.000000	96.879004
2424.000000	96.888116
2423.000000	96.890050
2422.000000	96.886878
2421.000000	96.881670
2420.000000	96.875464
2419.000000	96.867899
2418.000000	96.860511
2417.000000	96.856452
2416.000000	96.857256
2415.000000	96.862763
2414.000000	96.873810
2413.000000	96.891452
2412.000000	96.913493
2411.000000	96.934836
2410.000000	96.951618
2409.000000	96.962383
2408.000000	96.965861
2407.000000	96.961018
2406.000000	96.949649
2405.000000	96.935492
2404.000000	96.920262
2403.000000	96.903488
2402.000000	96.885546
2401.000000	96.867417
2400.000000	96.846801
2399.000000	96.817833
2398.000000	96.775793
2397.000000	96.718269
2396.000000	96.642150
2395.000000	96.543501
2394.000000	96.421750
2393.000000	96.281790
2392.000000	96.129474
2391.000000	95.969261
2390.000000	95.806968
2389.000000	95.649526
2388.000000	95.502484
2387.000000	95.368023
2386.000000	95.249485
2385.000000	95.155375
2384.000000	95.092299
2383.000000	95.063134
2382.000000	95.066883
2381.000000	95.100685
2380.000000	95.158721
2379.000000	95.225214
2378.000000	95.283130
2377.000000	95.321132
2376.000000	95.331831
2375.000000	95.310616
2374.000000	95.259346
2373.000000	95.193113
2372.000000	95.130062
2371.000000	95.078097
2370.000000	95.034032
2369.000000	95.005428
2368.000000	95.001684
2367.000000	95.015198
2366.000000	95.033065
2365.000000	95.064102
2364.000000	95.117799
2363.000000	95.171578
2362.000000	95.213029
2361.000000	95.242014
2360.000000	95.267759
2359.000000	95.304052
2358.000000	95.328877
2357.000000	95.334865
2356.000000	95.293875
2355.000000	95.175679
2354.000000	94.984914
2353.000000	94.811319
2352.000000	94.829979
2351.000000	95.081356
2350.000000	95.465404
2349.000000	95.840492
2348.000000	96.124175
2347.000000	96.307664
2346.000000	96.339514
2345.000000	96.252288
2344.000000	96.098970
2343.000000	95.953366
2342.000000	95.867190
2341.000000	95.831284
2340.000000	95.837013
2339.000000	95.853706
2338.000000	95.895294
2337.000000	95.964325
2336.000000	96.075322
2335.000000	96.202272
2334.000000	96.336269
2333.000000	96.423373
2332.000000	96.469641
2331.000000	96.458119
2330.000000	96.453807
2329.000000	96.485310
2328.000000	96.546800
2327.000000	96.617149
2326.000000	96.649954
2325.000000	96.647717
2324.000000	96.595877
2323.000000	96.500440
2322.000000	96.375520
2321.000000	96.226047
2320.000000	96.087687
2319.000000	95.966343
2318.000000	95.890913
2317.000000	95.828520
2316.000000	95.761709
2315.000000	95.649893
2314.000000	95.504232
2313.000000	95.324378
2312.000000	95.131796
2311.000000	94.928406
2310.000000	94.726964
2309.000000	94.522466
2308.000000	94.315115
2307.000000	94.103741
2306.000000	93.900492
2305.000000	93.705608
2304.000000	93.521138
2303.000000	93.340732
2302.000000	93.176140
2301.000000	93.029150
2300.000000	92.906002
2299.000000	92.803043
2298.000000	92.724635
2297.000000	92.666851
2296.000000	92.623442
2295.000000	92.588747
2294.000000	92.560920
2293.000000	92.539127
2292.000000	92.515679
2291.000000	92.487182
2290.000000	92.451563
2289.000000	92.409543
2288.000000	92.357564
2287.000000	92.298499
2286.000000	92.239631
2285.000000	92.187807
2284.000000	92.142208
2283.000000	92.101329
2282.000000	92.067605
2281.000000	92.044395
2280.000000	92.033498
2279.000000	92.037261
2278.000000	92.061821
2277.000000	92.108623
2276.000000	92.174404
2275.000000	92.255661
2274.000000	92.354015
2273.000000	92.470042
2272.000000	92.599502
2271.000000	92.738267
2270.000000	92.886316
2269.000000	93.042834
2268.000000	93.203683
2267.000000	93.365663
2266.000000	93.529644
2265.000000	93.695031
2264.000000	93.855735
2263.000000	94.007736
2262.000000	94.151206
2261.000000	94.288562
2260.000000	94.419820
2259.000000	94.547866
2258.000000	94.680089
2257.000000	94.821010
2256.000000	94.970213
2255.000000	95.125775
2254.000000	95.289930
2253.000000	95.462597
2252.000000	95.640462
2251.000000	95.821021
2250.000000	96.006178
2249.000000	96.195979
2248.000000	96.386911
2247.000000	96.576380
2246.000000	96.764919
2245.000000	96.951081
2244.000000	97.129146
2243.000000	97.295840
2242.000000	97.453020
2241.000000	97.602344
2240.000000	97.741577
2239.000000	97.869618
2238.000000	97.988985
2237.000000	98.100710
2236.000000	98.201916
2235.000000	98.290680
2234.000000	98.368407
2233.000000	98.435135
2232.000000	98.488055
2231.000000	98.527363
2230.000000	98.558243
2229.000000	98.584520
2228.000000	98.605838
2227.000000	98.622610
2226.000000	98.638562
2225.000000	98.654976
2224.000000	98.668288
2223.000000	98.675941
2222.000000	98.679789
2221.000000	98.681610
2220.000000	98.680702
2219.000000	98.678767
2218.000000	98.681472
2217.000000	98.692212
2216.000000	98.708924
2215.000000	98.729575
2214.000000	98.755505
2213.000000	98.786880
2212.000000	98.820198
2211.000000	98.853101
2210.000000	98.886951
2209.000000	98.922411
2208.000000	98.957588
2207.000000	98.992582
2206.000000	99.030144
2205.000000	99.069404
2204.000000	99.104547
2203.000000	99.132511
2202.000000	99.157077
2201.000000	99.183387
2200.000000	99.214119
2199.000000	99.253336
2198.000000	99.307465
2197.000000	99.378846
2196.000000	99.462880
2195.000000	99.554034
2194.000000	99.649555
2193.000000	99.745290
2192.000000	99.834358
2191.000000	99.912969
2190.000000	99.982674
2189.000000	100.044510
2188.000000	100.096312
2187.000000	100.137918
2186.000000	100.172755
2185.000000	100.201946
2184.000000	100.222415
2183.000000	100.233582
2182.000000	100.240118
2181.000000	100.245376
2180.000000	100.247778
2179.000000	100.246132
2178.000000	100.243194
2177.000000	100.241089
2176.000000	100.238704
2175.000000	100.236063
2174.000000	100.236066
2173.000000	100.239541
2172.000000	100.243886
2171.000000	100.248711
2170.000000	100.257166
2169.000000	100.269731
2168.000000	100.282274
2167.000000	100.292457
2166.000000	100.302114
2165.000000	100.311199
2164.000000	100.315671
2163.000000	100.314106
2162.000000	100.310443
2161.000000	100.307786
2160.000000	100.305484
2159.000000	100.304544
2158.000000	100.309507
2157.000000	100.321977
2156.000000	100.338375
2155.000000	100.356684
2154.000000	100.379547
2153.000000	100.408414
2152.000000	100.441056
2151.000000	100.477590
2150.000000	100.522584
2149.000000	100.577974
2148.000000	100.639591
2147.000000	100.703517
2146.000000	100.769573
2145.000000	100.835926
2144.000000	100.897184
2143.000000	100.950976
2142.000000	101.000191
2141.000000	101.046698
2140.000000	101.088447
2139.000000	101.124727
2138.000000	101.157721
2137.000000	101.186938
2136.000000	101.208525
2135.000000	101.222284
2134.000000	101.232974
2133.000000	101.242653
2132.000000	101.248362
2131.000000	101.249294
2130.000000	101.249398
2129.000000	101.250290
2128.000000	101.248171
2127.000000	101.240231
2126.000000	101.227635
2125.000000	101.209519
2124.000000	101.181200
2123.000000	101.141277
2122.000000	101.094197
2121.000000	101.043311
2120.000000	100.988136
2119.000000	100.930474
2118.000000	100.876256
2117.000000	100.828273
2116.000000	100.782996
2115.000000	100.737250
2114.000000	100.691808
2113.000000	100.646572
2112.000000	100.599123
2111.000000	100.550871
2110.000000	100.508492
2109.000000	100.476778
2108.000000	100.455581
2107.000000	100.445246
2106.000000	100.448111
2105.000000	100.462520
2104.000000	100.482139
2103.000000	100.503151
2102.000000	100.526267
2101.000000	100.549782
2100.000000	100.568654
2099.000000	100.582375
2098.000000	100.596715
2097.000000	100.616081
2096.000000	100.640049
2095.000000	100.670627
2094.000000	100.714098
2093.000000	100.772278
2092.000000	100.840142
2091.000000	100.914613
2090.000000	100.997932
2089.000000	101.090344
2088.000000	101.187368
2087.000000	101.287102
2086.000000	101.391691
2085.000000	101.499169
2084.000000	101.602528
2083.000000	101.699121
2082.000000	101.792600
2081.000000	101.883914
2080.000000	101.969313
2079.000000	102.049422
2078.000000	102.130805
2077.000000	102.215925
2076.000000	102.299623
2075.000000	102.379189
2074.000000	102.457502
2073.000000	102.534051
2072.000000	102.603789
2071.000000	102.664588
2070.000000	102.720162
2069.000000	102.772443
2068.000000	102.818740
2067.000000	102.858453
2066.000000	102.894925
2065.000000	102.929590
2064.000000	102.961671
2063.000000	102.995079
2062.000000	103.036300
2061.000000	103.084448
2060.000000	103.132241
2059.000000	103.178136
2058.000000	103.227957
2057.000000	103.282976
2056.000000	103.337265
2055.000000	103.388430
2054.000000	103.440285
2053.000000	103.493156
2052.000000	103.542538
2051.000000	103.587281
2050.000000	103.631671
2049.000000	103.677542
2048.000000	103.721213
2047.000000	103.760190
2046.000000	103.797358
2045.000000	103.834167
2044.000000	103.866573
2043.000000	103.892007
2042.000000	103.914031
2041.000000	103.936301
2040.000000	103.958660
2039.000000	103.982659
2038.000000	104.012694
2037.000000	104.048588
2036.000000	104.084770
2035.000000	104.120204
2034.000000	104.160910
2033.000000	104.209150
2032.000000	104.259897
2031.000000	104.311888
2030.000000	104.370831
2029.000000	104.437883
2028.000000	104.504892
2027.000000	104.564373
2026.000000	104.617131
2025.000000	104.663306
2024.000000	104.698698
2023.000000	104.720176
2022.000000	104.732366
2021.000000	104.741479
2020.000000	104.747000
2019.000000	104.745817
2018.000000	104.739524
2017.000000	104.732498
2016.000000	104.727868
2015.000000	104.729926
2014.000000	104.742890
2013.000000	104.762934
2012.000000	104.778750
2011.000000	104.785465
2010.000000	104.790426
2009.000000	104.799301
2008.000000	104.807006
2007.000000	104.809138
2006.000000	104.811708
2005.000000	104.819530
2004.000000	104.828642
2003.000000	104.833758
2002.000000	104.837966
2001.000000	104.844438
2000.000000	104.849279
1999.000000	104.854429
1998.000000	104.865148
1997.000000	104.883607
1996.000000	104.909141
1995.000000	104.940986
1994.000000	104.974285
1993.000000	104.998892
1992.000000	105.009761
1991.000000	105.017239
1990.000000	105.036923
1989.000000	105.070696
1988.000000	105.107495
1987.000000	105.139991
1986.000000	105.172864
1985.000000	105.212197
1984.000000	105.255842
1983.000000	105.298515
1982.000000	105.339406
1981.000000	105.379672
1980.000000	105.418852
1979.000000	105.459167
1978.000000	105.498771
1977.000000	105.534034
1976.000000	105.565857
1975.000000	105.599251
1974.000000	105.634880
1973.000000	105.669030
1972.000000	105.702055
1971.000000	105.737899
1970.000000	105.774814
1969.000000	105.805162
1968.000000	105.825268
1967.000000	105.839949
1966.000000	105.858250
1965.000000	105.888019
1964.000000	105.931866
1963.000000	105.983145
1962.000000	106.029696
1961.000000	106.067386
1960.000000	106.106561
1959.000000	106.155816
1958.000000	106.205687
1957.000000	106.239271
1956.000000	106.252686
1955.000000	106.254189
1954.000000	106.247935
1953.000000	106.231937
1952.000000	106.207209
1951.000000	106.176484
1950.000000	106.143227
1949.000000	106.104653
1948.000000	106.056037
1947.000000	106.002399
1946.000000	105.952978
1945.000000	105.908740
1944.000000	105.863060
1943.000000	105.814580
1942.000000	105.775708
1941.000000	105.764101
1940.000000	105.790502
1939.000000	105.851307
1938.000000	105.928204
1937.000000	106.003139
1936.000000	106.075446
1935.000000	106.154483
1934.000000	106.238353
1933.000000	106.315417
1932.000000	106.379979
1931.000000	106.436023
1930.000000	106.492931
1929.000000	106.543984
1928.000000	106.578835
1927.000000	106.606084
1926.000000	106.639420
1925.000000	106.679310
1924.000000	106.699569
1923.000000	106.692608
1922.000000	106.687300
1921.000000	106.706488
1920.000000	106.740432
1919.000000	106.767638
1918.000000	106.781702
1917.000000	106.793996
1916.000000	106.811558
1915.000000	106.837850
1914.000000	106.870323
1913.000000	106.892757
1912.000000	106.888350
1911.000000	106.862125
1910.000000	106.833244
1909.000000	106.798800
1908.000000	106.747097
1907.000000	106.687834
1906.000000	106.638924
1905.000000	106.599055
1904.000000	106.536843
1903.000000	106.449354
1902.000000	106.369048
1901.000000	106.301522
1900.000000	106.225183
1899.000000	106.143701
1898.000000	106.084775
1897.000000	106.055666
1896.000000	106.025495
1895.000000	105.983616
1894.000000	105.963501
1893.000000	105.983653
1892.000000	106.018107
1891.000000	106.040944
1890.000000	106.054884
1889.000000	106.070236
1888.000000	106.088038
1887.000000	106.118243
1886.000000	106.174342
1885.000000	106.237036
1884.000000	106.268675
1883.000000	106.271995
1882.000000	106.285456
1881.000000	106.311484
1880.000000	106.319534
1879.000000	106.307357
1878.000000	106.301969
1877.000000	106.315922
1876.000000	106.329555
1875.000000	106.330394
1874.000000	106.342159
1873.000000	106.383261
1872.000000	106.435030
1871.000000	106.480417
1870.000000	106.524377
1869.000000	106.567657
1868.000000	106.599365
1867.000000	106.635728
1866.000000	106.716030
1865.000000	106.837203
1864.000000	106.948916
1863.000000	107.026696
1862.000000	107.101382
1861.000000	107.192428
1860.000000	107.273285
1859.000000	107.331744
1858.000000	107.400802
1857.000000	107.496628
1856.000000	107.587260
1855.000000	107.653922
1854.000000	107.721676
1853.000000	107.795520
1852.000000	107.850382
1851.000000	107.893905
1850.000000	107.944059
1849.000000	107.998499
1848.000000	108.041571
1847.000000	108.084119
1846.000000	108.148488
1845.000000	108.213933
1844.000000	108.249611
1843.000000	108.279464
1842.000000	108.344904
1841.000000	108.433343
1840.000000	108.507787
1839.000000	108.549089
1838.000000	108.570370
1837.000000	108.597037
1836.000000	108.625828
1835.000000	108.656741
1834.000000	108.706460
1833.000000	108.779023
1832.000000	108.864471
1831.000000	108.935873
1830.000000	108.962217
1829.000000	108.968251
1828.000000	109.006988
1827.000000	109.092982
1826.000000	109.199278
1825.000000	109.296811
1824.000000	109.380407
1823.000000	109.463566
1822.000000	109.559034
1821.000000	109.663869
1820.000000	109.756272
1819.000000	109.816030
1818.000000	109.862582
1817.000000	109.930043
1816.000000	109.999907
1815.000000	110.041992
1814.000000	110.070631
1813.000000	110.111609
1812.000000	110.148840
1811.000000	110.141923
1810.000000	110.122949
1809.000000	110.150111
1808.000000	110.202986
1807.000000	110.241091
1806.000000	110.283890
1805.000000	110.357580
1804.000000	110.429910
1803.000000	110.473380
1802.000000	110.516322
1801.000000	110.587567
1800.000000	110.669075
1799.000000	110.727818
1798.000000	110.787630
1797.000000	110.867998
1796.000000	110.932169
1795.000000	110.962577
1794.000000	110.990431
1793.000000	111.030002
1792.000000	111.049442
1791.000000	111.030771
1790.000000	111.024508
1789.000000	111.060190
1788.000000	111.098939
1787.000000	111.104878
1786.000000	111.105810
1785.000000	111.138819
1784.000000	111.184935
1783.000000	111.228806
1782.000000	111.279039
1781.000000	111.327697
1780.000000	111.376326
1779.000000	111.430599
1778.000000	111.510718
1777.000000	111.610918
1776.000000	111.709358
1775.000000	111.814641
1774.000000	111.930289
1773.000000	112.032413
1772.000000	112.110032
1771.000000	112.156894
1770.000000	112.181044
1769.000000	112.232397
1768.000000	112.333705
1767.000000	112.439106
1766.000000	112.518067
1765.000000	112.597620
1764.000000	112.705775
1763.000000	112.805958
1762.000000	112.846779
1761.000000	112.866816
1760.000000	112.929479
1759.000000	113.018679
1758.000000	113.100861
1757.000000	113.156280
1756.000000	113.214685
1755.000000	113.285084
1754.000000	113.328066
1753.000000	113.352012
1752.000000	113.408881
1751.000000	113.501804
1750.000000	113.574772
1749.000000	113.604928
1748.000000	113.614556
1747.000000	113.632277
1746.000000	113.638087
1745.000000	113.620857
1744.000000	113.612860
1743.000000	113.608709
1742.000000	113.587860
1741.000000	113.566605
1740.000000	113.557508
1739.000000	113.531049
1738.000000	113.472539
1737.000000	113.411863
1736.000000	113.393100
1735.000000	113.385423
1734.000000	113.366203
1733.000000	113.386777
1732.000000	113.450164
1731.000000	113.497718
1730.000000	113.517136
1729.000000	113.506690
1728.000000	113.485502
1727.000000	113.479609
1726.000000	113.472732
1725.000000	113.450347
1724.000000	113.404631
1723.000000	113.327360
1722.000000	113.262448
1721.000000	113.244572
1720.000000	113.240508
1719.000000	113.170512
1718.000000	113.047110
1717.000000	113.003227
1716.000000	113.021137
1715.000000	113.006894
1714.000000	113.017036
1713.000000	113.112335
1712.000000	113.224846
1711.000000	113.309852
1710.000000	113.432868
1709.000000	113.634101
1708.000000	113.862991
1707.000000	114.070207
1706.000000	114.274595
1705.000000	114.495391
1704.000000	114.667893
1703.000000	114.791848
1702.000000	114.988089
1701.000000	115.265730
1700.000000	115.488508
1699.000000	115.581232
1698.000000	115.664168
1697.000000	115.828641
1696.000000	116.007535
1695.000000	116.117161
1694.000000	116.215684
1693.000000	116.335725
1692.000000	116.454942
1691.000000	116.558373
1690.000000	116.646568
1689.000000	116.724300
1688.000000	116.816847
1687.000000	116.964584
1686.000000	117.172403
1685.000000	117.347273
1684.000000	117.451898
1683.000000	117.587236
1682.000000	117.762401
1681.000000	117.882559
1680.000000	117.971016
1679.000000	118.076546
1678.000000	118.184224
1677.000000	118.262015
1676.000000	118.321619
1675.000000	118.400716
1674.000000	118.460203
1673.000000	118.461863
1672.000000	118.465026
1671.000000	118.503764
1670.000000	118.528469
1669.000000	118.490509
1668.000000	118.448174
1667.000000	118.464554
1666.000000	118.498083
1665.000000	118.497053
1664.000000	118.447543
1663.000000	118.370993
1662.000000	118.281528
1661.000000	118.138774
1660.000000	117.970564
1659.000000	117.829052
1658.000000	117.662040
1657.000000	117.414659
1656.000000	117.131322
1655.000000	116.841549
1654.000000	116.259913
1653.000000	115.299927
1652.000000	114.355388
1651.000000	113.570560
1650.000000	112.720840
1649.000000	111.643629
1648.000000	110.113019
1647.000000	108.001826
1646.000000	105.529953
1645.000000	103.039174
1644.000000	100.613702
1643.000000	98.172809
1642.000000	95.698478
1641.000000	93.294199
1640.000000	91.195623
1639.000000	89.586024
1638.000000	88.528043
1637.000000	88.046599
1636.000000	88.227341
1635.000000	89.072614
1634.000000	90.309744
1633.000000	91.690444
1632.000000	93.152050
1631.000000	94.715079
1630.000000	96.358377
1629.000000	98.007593
1628.000000	99.587600
1627.000000	101.048559
1626.000000	102.360522
1625.000000	103.547629
1624.000000	104.686314
1623.000000	105.807787
1622.000000	106.838221
1621.000000	107.700836
1620.000000	108.461878
1619.000000	109.246748
1618.000000	110.082510
1617.000000	110.895800
1616.000000	111.637050
1615.000000	112.286225
1614.000000	112.785829
1613.000000	113.110504
1612.000000	113.306418
1611.000000	113.404854
1610.000000	113.321056
1609.000000	112.919117
1608.000000	112.148203
1607.000000	110.983718
1606.000000	109.276980
1605.000000	106.819267
1604.000000	103.582867
1603.000000	99.721991
1602.000000	95.465485
1601.000000	91.063728
1600.000000	86.640334
1599.000000	82.001415
1598.000000	76.611618
1597.000000	69.980448
1596.000000	62.178284
1595.000000	53.957184
1594.000000	46.360163
1593.000000	40.190511
1592.000000	35.837491
1591.000000	33.342515
1590.000000	32.412276
1589.000000	32.449986
1588.000000	32.819324
1587.000000	33.083049
1586.000000	32.969208
1585.000000	32.368788
1584.000000	31.447325
1583.000000	30.590063
1582.000000	30.090417
1581.000000	29.979693
1580.000000	30.184328
1579.000000	30.671773
1578.000000	31.367373
1577.000000	32.056323
1576.000000	32.527553
1575.000000	32.788734
1574.000000	32.938715
1573.000000	33.019504
1572.000000	33.163136
1571.000000	33.666852
1570.000000	34.798027
1569.000000	36.505234
1568.000000	38.573348
1567.000000	40.946293
1566.000000	43.599739
1565.000000	46.317599
1564.000000	48.805030
1563.000000	50.961347
1562.000000	52.918562
1561.000000	54.954044
1560.000000	57.449846
1559.000000	60.586134
1558.000000	63.734931
1557.000000	66.250801
1556.000000	68.285032
1555.000000	70.242781
1554.000000	72.199096
1553.000000	73.977973
1552.000000	75.512102
1551.000000	76.898613
1550.000000	78.216333
1549.000000	79.430542
1548.000000	80.511114
1547.000000	81.536334
1546.000000	82.575925
1545.000000	83.590449
1544.000000	84.518066
1543.000000	85.375259
1542.000000	86.234150
1541.000000	87.107279
1540.000000	87.928084
1539.000000	88.674322
1538.000000	89.340011
1537.000000	89.897501
1536.000000	90.387231
1535.000000	90.890992
1534.000000	91.405739
1533.000000	91.871749
1532.000000	92.286750
1531.000000	92.690506
1530.000000	93.120148
1529.000000	93.562828
1528.000000	93.963442
1527.000000	94.328332
1526.000000	94.701929
1525.000000	95.081989
1524.000000	95.449003
1523.000000	95.807139
1522.000000	96.155405
1521.000000	96.470210
1520.000000	96.742568
1519.000000	97.000705
1518.000000	97.254188
1517.000000	97.473550
1516.000000	97.632331
1515.000000	97.766636
1514.000000	97.926997
1513.000000	98.127637
1512.000000	98.327064
1511.000000	98.479470
1510.000000	98.606837
1509.000000	98.767367
1508.000000	98.929389
1507.000000	99.011702
1506.000000	99.115869
1505.000000	99.333212
1504.000000	99.569654
1503.000000	99.768783
1502.000000	99.966003
1501.000000	100.186284
1500.000000	100.420361
1499.000000	100.644179
1498.000000	100.874542
1497.000000	101.183967
1496.000000	101.578141
1495.000000	101.983050
1494.000000	102.371719
1493.000000	102.756259
1492.000000	103.123936
1491.000000	103.441462
1490.000000	103.719054
1489.000000	104.004006
1488.000000	104.285683
1487.000000	104.545337
1486.000000	104.836374
1485.000000	105.146911
1484.000000	105.431068
1483.000000	105.711050
1482.000000	106.011741
1481.000000	106.322370
1480.000000	106.615369
1479.000000	106.912662
1478.000000	107.246936
1477.000000	107.595306
1476.000000	107.895854
1475.000000	108.169184
1474.000000	108.488398
1473.000000	108.837932
1472.000000	109.161981
1471.000000	109.434249
1470.000000	109.646183
1469.000000	109.768268
1468.000000	109.756973
1467.000000	109.565004
1466.000000	109.081421
1465.000000	108.115721
1464.000000	106.571096
1463.000000	104.448018
1462.000000	101.710188
1461.000000	98.323244
1460.000000	94.317066
1459.000000	89.713106
1458.000000	84.476575
1457.000000	79.080472
1456.000000	74.611228
1455.000000	71.490622
1454.000000	69.138586
1453.000000	67.022651
1452.000000	65.141253
1451.000000	63.796492
1450.000000	63.276609
1449.000000	63.741709
1448.000000	65.161418
1447.000000	67.213830
1446.000000	69.463615
1445.000000	71.708540
1444.000000	74.003150
1443.000000	76.357856
1442.000000	78.643137
1441.000000	80.739294
1440.000000	82.620512
1439.000000	84.323193
1438.000000	85.946839
1437.000000	87.639849
1436.000000	89.412837
1435.000000	91.078526
1434.000000	92.529031
1433.000000	93.857436
1432.000000	95.140595
1431.000000	96.312362
1430.000000	97.290207
1429.000000	98.114095
1428.000000	98.844190
1427.000000	99.484621
1426.000000	100.033109
1425.000000	100.522325
1424.000000	101.006546
1423.000000	101.459443
1422.000000	101.839098
1421.000000	102.181242
1420.000000	102.529674
1419.000000	102.841243
1418.000000	103.084154
1417.000000	103.355227
1416.000000	103.714793
1415.000000	104.102565
1414.000000	104.445905
1413.000000	104.756715
1412.000000	105.083968
1411.000000	105.399585
1410.000000	105.647329
1409.000000	105.843082
1408.000000	105.993488
1407.000000	106.018420
1406.000000	105.796464
1405.000000	105.240974
1404.000000	104.359803
1403.000000	103.224252
1402.000000	101.949979
1401.000000	100.681388
1400.000000	99.538091
1399.000000	98.567549
1398.000000	97.769657
1397.000000	97.204059
1396.000000	97.042212
1395.000000	97.474452
1394.000000	98.491539
1393.000000	99.852965
1392.000000	101.285371
1391.000000	102.595783
1390.000000	103.694334
1389.000000	104.613585
1388.000000	105.469941
1387.000000	106.348064
1386.000000	107.217785
1385.000000	107.980971
1384.000000	108.561549
1383.000000	108.919742
1382.000000	109.075569
1381.000000	109.121799
1380.000000	109.153544
1379.000000	109.204777
1378.000000	109.250927
1377.000000	109.240975
1376.000000	109.097932
1375.000000	108.709497
1374.000000	107.949162
1373.000000	106.730556
1372.000000	104.991078
1371.000000	102.630275
1370.000000	99.563850
1369.000000	95.935760
1368.000000	92.283728
1367.000000	89.316073
1366.000000	87.460739
1365.000000	86.674524
1364.000000	86.639960
1363.000000	87.105337
1362.000000	88.072178
1361.000000	89.680106
1360.000000	91.932064
1359.000000	94.578093
1358.000000	97.229881
1357.000000	99.553782
1356.000000	101.400688
1355.000000	102.796214
1354.000000	103.854574
1353.000000	104.705668
1352.000000	105.436154
1351.000000	106.084145
1350.000000	106.663483
1349.000000	107.181091
1348.000000	107.655517
1347.000000	108.101581
1346.000000	108.522830
1345.000000	108.921995
1344.000000	109.305186
1343.000000	109.671070
1342.000000	110.009628
1341.000000	110.315134
1340.000000	110.592331
1339.000000	110.849441
1338.000000	111.089360
1337.000000	111.315816
1336.000000	111.531670
1335.000000	111.730888
1334.000000	111.906377
1333.000000	112.061600
1332.000000	112.204108
1331.000000	112.331945
1330.000000	112.433415
1329.000000	112.499254
1328.000000	112.515073
1327.000000	112.443370
1326.000000	112.208953
1325.000000	111.693287
1324.000000	110.752847
1323.000000	109.236858
1322.000000	107.049349
1321.000000	104.251934
1320.000000	101.121542
1319.000000	98.085133
1318.000000	95.518319
1317.000000	93.563558
1316.000000	92.149901
1315.000000	91.192178
1314.000000	90.729776
1313.000000	90.856025
1312.000000	91.524284
1311.000000	92.467869
1310.000000	93.381792
1309.000000	94.176111
1308.000000	95.028480
1307.000000	96.195610
1306.000000	97.775332
1305.000000	99.641006
1304.000000	101.551450
1303.000000	103.283087
1302.000000	104.706672
1301.000000	105.802507
1300.000000	106.612196
1299.000000	107.175756
1298.000000	107.507487
1297.000000	107.605262
1296.000000	107.460643
1295.000000	107.043611
1294.000000	106.312567
1293.000000	105.250494
1292.000000	103.878008
1291.000000	102.248007
1290.000000	100.408019
1289.000000	98.352170
1288.000000	95.978115
1287.000000	93.100384
1286.000000	89.597880
1285.000000	85.623023
1284.000000	81.683460
1283.000000	78.493387
1282.000000	76.676930
1281.000000	76.500312
1280.000000	77.823799
1279.000000	80.219954
1278.000000	83.137427
1277.000000	86.075124
1276.000000	88.657571
1275.000000	90.648682
1274.000000	91.998327
1273.000000	92.903486
1272.000000	93.759381
1271.000000	94.931277
1270.000000	96.524371
1269.000000	98.367270
1268.000000	100.196925
1267.000000	101.837204
1266.000000	103.245055
1265.000000	104.457958
1264.000000	105.524920
1263.000000	106.472827
1262.000000	107.309937
1261.000000	108.048849
1260.000000	108.710998
1259.000000	109.309910
1258.000000	109.850022
1257.000000	110.338435
1256.000000	110.787025
1255.000000	111.201541
1254.000000	111.580536
1253.000000	111.929841
1252.000000	112.261913
1251.000000	112.582169
1250.000000	112.888383
1249.000000	113.182334
1248.000000	113.471177
1247.000000	113.753808
1246.000000	114.020138
1245.000000	114.266805
1244.000000	114.498287
1243.000000	114.713413
1242.000000	114.905498
1241.000000	115.076817
1240.000000	115.238851
1239.000000	115.396663
1238.000000	115.547741
1237.000000	115.694480
1236.000000	115.842196
1235.000000	115.985340
1234.000000	116.108308
1233.000000	116.201865
1232.000000	116.262813
1231.000000	116.276089
1230.000000	116.216048
1229.000000	116.055064
1228.000000	115.761062
1227.000000	115.274581
1226.000000	114.493781
1225.000000	113.293194
1224.000000	111.523443
1223.000000	109.037717
1222.000000	105.755144
1221.000000	101.723807
1220.000000	97.159558
1219.000000	92.388937
1218.000000	87.740518
1217.000000	83.448048
1216.000000	79.609018
1215.000000	76.203950
1214.000000	73.160426
1213.000000	70.428121
1212.000000	68.015751
1211.000000	65.971619
1210.000000	64.310343
1209.000000	63.010311
1208.000000	62.064184
1207.000000	61.490140
1206.000000	61.314949
1205.000000	61.531624
1204.000000	62.093869
1203.000000	62.919621
1202.000000	63.905930
1201.000000	65.010556
1200.000000	66.296261
1199.000000	67.889324
1198.000000	69.887016
1197.000000	72.297049
1196.000000	75.053289
1195.000000	78.032756
1194.000000	81.079817
1193.000000	84.054145
1192.000000	86.863027
1191.000000	89.450327
1190.000000	91.777969
1189.000000	93.832629
1188.000000	95.626399
1187.000000	97.181327
1186.000000	98.506545
1185.000000	99.612725
1184.000000	100.526497
1183.000000	101.269117
1182.000000	101.850095
1181.000000	102.270432
1180.000000	102.535711
1179.000000	102.659417
1178.000000	102.658605
1177.000000	102.566057
1176.000000	102.424964
1175.000000	102.271853
1174.000000	102.132805
1173.000000	102.034761
1172.000000	102.009898
1171.000000	102.080601
1170.000000	102.250686
1169.000000	102.514763
1168.000000	102.863145
1167.000000	103.265547
1166.000000	103.664768
1165.000000	103.998595
1164.000000	104.225272
1163.000000	104.338491
1162.000000	104.379455
1161.000000	104.439435
1160.000000	104.624461
1159.000000	104.993594
1158.000000	105.533765
1157.000000	106.191960
1156.000000	106.918618
1155.000000	107.677497
1154.000000	108.437229
1153.000000	109.171567
1152.000000	109.854227
1151.000000	110.445871
1150.000000	110.901445
1149.000000	111.203685
1148.000000	111.373600
1147.000000	111.449516
1146.000000	111.467690
1145.000000	111.454513
1144.000000	111.421243
1143.000000	111.340444
1142.000000	111.146326
1141.000000	110.768818
1140.000000	110.145101
1139.000000	109.219386
1138.000000	107.919784
1137.000000	106.158367
1136.000000	103.843398
1135.000000	100.852017
1134.000000	97.049584
1133.000000	92.316520
1132.000000	86.605971
1131.000000	80.028027
1130.000000	72.900692
1129.000000	65.759710
1128.000000	59.280820
1127.000000	54.096992
1126.000000	50.575800
1125.000000	48.751622
1124.000000	48.376095
1123.000000	49.008848
1122.000000	50.103525
1121.000000	51.101727
1120.000000	51.585628
1119.000000	51.328099
1118.000000	50.288203
1117.000000	48.666719
1116.000000	46.958769
1115.000000	45.878859
1114.000000	46.077687
1113.000000	47.864385
1112.000000	51.124825
1111.000000	55.378789
1110.000000	59.926161
1109.000000	64.050241
1108.000000	67.224645
1107.000000	69.217310
1106.000000	70.064540
1105.000000	69.996318
1104.000000	69.399684
1103.000000	68.791058
1102.000000	68.697028
1101.000000	69.475534
1100.000000	71.191969
1099.000000	73.637404
1098.000000	76.466791
1097.000000	79.355758
1096.000000	82.074077
1095.000000	84.491318
1094.000000	86.572333
1093.000000	88.366894
1092.000000	89.969927
1091.000000	91.468720
1090.000000	92.924555
1089.000000	94.387905
1088.000000	95.903860
1087.000000	97.483730
1086.000000	99.096314
1085.000000	100.687200
1084.000000	102.193989
1083.000000	103.557129
1082.000000	104.734059
1081.000000	105.720200
1080.000000	106.538758
1079.000000	107.207740
1078.000000	107.739785
1077.000000	108.146189
1076.000000	108.429409
1075.000000	108.567642
1074.000000	108.509653
1073.000000	108.206314
1072.000000	107.595550
1071.000000	106.584469
1070.000000	105.055314
1069.000000	102.855287
1068.000000	99.820112
1067.000000	95.766892
1066.000000	90.550730
1065.000000	84.184324
1064.000000	76.908610
1063.000000	69.213572
1062.000000	61.713897
1061.000000	54.938706
1060.000000	49.131483
1059.000000	44.176941
1058.000000	39.711583
1057.000000	35.455940
1056.000000	31.559980
1055.000000	28.618967
1054.000000	27.400695
1053.000000	28.389841
1052.000000	31.533174
1051.000000	36.279695
1050.000000	41.799036
1049.000000	47.349168
1048.000000	52.478049
1047.000000	57.024071
1046.000000	61.012362
1045.000000	64.545745
1044.000000	67.732518
1043.000000	70.632702
1042.000000	73.251977
1041.000000	75.577476
1040.000000	77.626590
1039.000000	79.431557
1038.000000	81.022869
1037.000000	82.436995
1036.000000	83.710159
1035.000000	84.871131
1034.000000	85.930412
1033.000000	86.897436
1032.000000	87.792173
1031.000000	88.627428
1030.000000	89.406163
1029.000000	90.132987
1028.000000	90.820333
1027.000000	91.479061
1026.000000	92.113646
1025.000000	92.735188
1024.000000	93.359597
1023.000000	93.988816
1022.000000	94.609615
1021.000000	95.206428
1020.000000	95.765439
1019.000000	96.255484
1018.000000	96.618410
1017.000000	96.785706
1016.000000	96.663016
1015.000000	96.124989
1014.000000	95.025182
1013.000000	93.228598
1012.000000	90.666843
1011.000000	87.368892
1010.000000	83.513521
1009.000000	79.445488
1008.000000	75.608394
1007.000000	72.427922
1006.000000	70.233235
1005.000000	69.216711
1004.000000	69.385051
1003.000000	70.502190
1002.000000	72.094906
1001.000000	73.612858
1000.000000	74.598867
999.000000	74.745408
998.000000	73.898990
997.000000	72.124739
996.000000	69.784870
995.000000	67.468012
994.000000	65.730243
993.000000	64.846486
992.000000	64.776515
991.000000	65.336423
990.000000	66.389355
989.000000	67.909516
988.000000	69.922515
987.000000	72.369375
986.000000	75.060880
985.000000	77.753412
984.000000	80.254057
983.000000	82.470486
982.000000	84.388196
981.000000	86.037682
980.000000	87.466760
979.000000	88.722297
978.000000	89.833491
977.000000	90.821922
976.000000	91.709255
975.000000	92.508896
974.000000	93.229195
973.000000	93.877907
972.000000	94.468871
971.000000	95.014239
970.000000	95.517170
969.000000	95.982158
968.000000	96.417072
967.000000	96.826188
966.000000	97.206642
965.000000	97.555090
964.000000	97.874136
963.000000	98.165918
962.000000	98.430739
961.000000	98.674489
960.000000	98.908037
959.000000	99.138124
958.000000	99.364412
957.000000	99.588255
956.000000	99.815265
955.000000	100.045934
954.000000	100.273840
953.000000	100.495061
952.000000	100.711590
951.000000	100.923610
950.000000	101.126890
949.000000	101.320635
948.000000	101.508307
947.000000	101.688984
946.000000	101.856791
945.000000	102.009286
944.000000	102.148837
943.000000	102.274584
942.000000	102.382900
941.000000	102.477379
940.000000	102.567795
939.000000	102.659171
938.000000	102.750387
937.000000	102.844001
936.000000	102.947342
935.000000	103.062804
934.000000	103.186944
933.000000	103.320174
932.000000	103.467635
931.000000	103.628771
930.000000	103.796087
929.000000	103.964621
928.000000	104.133775
927.000000	104.299696
926.000000	104.455701
925.000000	104.600140
924.000000	104.734734
923.000000	104.855770
922.000000	104.956338
921.000000	105.037334
920.000000	105.105628
919.000000	105.163550
918.000000	105.210391
917.000000	105.252361
916.000000	105.300479
915.000000	105.358976
914.000000	105.426005
913.000000	105.504321
912.000000	105.600710
911.000000	105.715491
910.000000	105.843687
909.000000	105.984856
908.000000	106.140903
907.000000	106.306538
906.000000	106.472528
905.000000	106.636503
904.000000	106.798719
903.000000	106.950141
902.000000	107.074052
901.000000	107.157650
900.000000	107.186915
899.000000	107.130836
898.000000	106.949315
897.000000	106.618364
896.000000	106.156284
895.000000	105.628864
894.000000	105.118291
893.000000	104.659057
892.000000	104.183666
891.000000	103.561840
890.000000	102.730458
889.000000	101.783288
888.000000	100.906963
887.000000	100.243504
886.000000	99.834394
885.000000	99.672881
884.000000	99.750239
883.000000	100.015504
882.000000	100.351009
881.000000	100.643660
880.000000	100.887734
879.000000	101.197532
878.000000	101.702709
877.000000	102.441436
876.000000	103.331036
875.000000	104.224207
874.000000	104.998185
873.000000	105.606736
872.000000	106.067528
871.000000	106.415030
870.000000	106.674420
869.000000	106.859358
868.000000	106.972608
867.000000	106.998621
866.000000	106.912578
865.000000	106.709451
864.000000	106.418659
863.000000	106.101016
862.000000	105.837357
861.000000	105.708522
860.000000	105.760668
859.000000	105.979721
858.000000	106.303591
857.000000	106.663872
856.000000	107.015727
855.000000	107.336225
854.000000	107.618126
853.000000	107.866804
852.000000	108.090107
851.000000	108.287026
850.000000	108.453347
849.000000	108.594388
848.000000	108.721681
847.000000	108.840193
846.000000	108.949483
845.000000	109.055284
844.000000	109.166373
843.000000	109.283231
842.000000	109.401661
841.000000	109.524491
840.000000	109.657561
839.000000	109.796620
838.000000	109.930749
837.000000	110.056516
836.000000	110.176449
835.000000	110.287171
834.000000	110.381300
833.000000	110.458510
832.000000	110.523162
831.000000	110.573876
830.000000	110.608491
829.000000	110.635819
828.000000	110.670362
827.000000	110.718249
826.000000	110.779109
825.000000	110.855827
824.000000	110.948128
823.000000	111.042576
822.000000	111.125046
821.000000	111.198515
820.000000	111.274372
819.000000	111.353020
818.000000	111.426874
817.000000	111.495587
816.000000	111.562121
815.000000	111.619200
814.000000	111.652875
813.000000	111.652393
812.000000	111.602837
811.000000	111.475480
810.000000	111.250095
809.000000	110.951557
808.000000	110.651051
807.000000	110.426275
806.000000	110.320717
805.000000	110.327931
804.000000	110.399222
803.000000	110.468859
802.000000	110.487466
801.000000	110.436982
800.000000	110.313326
799.000000	110.105106
798.000000	109.791400
797.000000	109.349166
796.000000	108.745280
795.000000	107.934507
794.000000	106.886424
793.000000	105.612739
792.000000	104.173853
791.000000	102.668736
790.000000	101.225992
789.000000	99.981909
788.000000	99.040406
787.000000	98.442518
786.000000	98.172999
785.000000	98.185509
784.000000	98.408098
783.000000	98.744825
782.000000	99.092649
781.000000	99.371139
780.000000	99.541141
779.000000	99.611822
778.000000	99.650070
777.000000	99.764628
776.000000	100.054326
775.000000	100.560358
774.000000	101.262724
773.000000	102.108059
772.000000	103.028074
771.000000	103.951900
770.000000	104.827931
769.000000	105.634590
768.000000	106.362937
767.000000	106.998935
766.000000	107.534656
765.000000	107.980807
764.000000	108.354148
763.000000	108.662625
762.000000	108.916215
761.000000	109.137774
760.000000	109.346393
759.000000	109.543397
758.000000	109.725910
757.000000	109.900478
756.000000	110.069537
755.000000	110.220160
754.000000	110.342521
753.000000	110.444352
752.000000	110.533041
751.000000	110.599233
750.000000	110.632469
749.000000	110.637004
748.000000	110.615389
747.000000	110.552961
746.000000	110.435820
745.000000	110.267307
744.000000	110.051853
743.000000	109.781474
742.000000	109.456194
741.000000	109.100669
740.000000	108.744114
739.000000	108.402423
738.000000	108.092593
737.000000	107.838060
736.000000	107.636306
735.000000	107.440885
734.000000	107.197207
733.000000	106.878970
732.000000	106.479311
731.000000	106.001889
730.000000	105.487831
729.000000	105.024834
728.000000	104.702916
727.000000	104.568004
726.000000	104.626353
725.000000	104.867222
724.000000	105.250246
723.000000	105.696877
722.000000	106.135653
721.000000	106.549400
720.000000	106.956023
719.000000	107.360074
718.000000	107.748190
717.000000	108.110197
716.000000	108.435006
715.000000	108.702911
714.000000	108.908023
713.000000	109.071630
712.000000	109.213405
711.000000	109.330867
710.000000	109.427551
709.000000	109.530189
708.000000	109.657230
707.000000	109.797037
706.000000	109.934684
705.000000	110.078952
704.000000	110.234927
703.000000	110.373876
702.000000	110.470798
701.000000	110.536566
700.000000	110.580967
699.000000	110.589342
698.000000	110.557262
697.000000	110.518542
696.000000	110.498347
695.000000	110.471867
694.000000	110.425277
693.000000	110.397620
692.000000	110.417700
691.000000	110.461282
690.000000	110.506987
689.000000	110.590721
688.000000	110.737162
687.000000	110.889418
686.000000	110.993589
685.000000	111.074492
684.000000	111.157621
683.000000	111.203012
682.000000	111.186467
681.000000	111.164982
680.000000	111.176843
679.000000	111.175212
678.000000	111.137327
677.000000	111.110822
676.000000	111.124749
675.000000	111.155653
674.000000	111.211182
673.000000	111.391303
672.000000	111.807986
671.000000	112.465930
670.000000	113.301035
669.000000	113.935158
668.000000	113.671726
667.000000	112.898053
666.000000	112.552188
665.000000	112.530641
664.000000	112.556685
663.000000	112.625806
662.000000	112.776398
661.000000	112.948855
660.000000	113.062630
659.000000	113.114443
658.000000	113.124820
657.000000	113.054812
656.000000	112.883683
655.000000	112.693518
654.000000	112.542007
653.000000	112.385661
652.000000	112.209938
651.000000	112.083843
650.000000	112.030826
649.000000	111.977113
648.000000	111.897709
647.000000	111.869352
646.000000	111.926826
645.000000	112.010314
644.000000	112.084059
643.000000	112.190612
642.000000	112.351608
641.000000	112.507539
640.000000	112.611361
639.000000	112.686117
638.000000	112.739482
637.000000	112.723947
636.000000	112.625644
635.000000	112.496366
634.000000	112.369233
633.000000	112.222046
632.000000	112.049817
631.000000	111.899366
630.000000	111.794918
629.000000	111.701085
628.000000	111.599087
627.000000	111.525875
626.000000	111.503973
625.000000	111.511129
624.000000	111.539927
623.000000	111.625135
622.000000	111.781420
621.000000	111.967946
620.000000	112.140816
619.000000	112.285807
618.000000	112.388878
617.000000	112.427775
616.000000	112.409442
615.000000	112.364669
614.000000	112.292294
613.000000	112.162825
612.000000	111.981108
611.000000	111.790759
610.000000	111.611896
609.000000	111.423444
608.000000	111.220124
607.000000	111.028876
606.000000	110.855147
605.000000	110.680087
604.000000	110.511134
603.000000	110.381715
602.000000	110.291661
601.000000	110.195281
600.000000	110.057417
599.000000	109.874405
598.000000	109.628164
597.000000	109.274589
596.000000	108.796423
595.000000	108.220106
594.000000	107.559472
593.000000	106.776870
592.000000	105.806752
591.000000	104.601600
590.000000	103.180480
589.000000	101.686770
588.000000	100.379576
587.000000	99.478774
586.000000	98.998608
585.000000	98.802877
584.000000	98.840025
583.000000	99.206232
582.000000	99.959060
581.000000	100.988514
580.000000	102.106672
579.000000	103.179777
578.000000	104.123048
577.000000	104.873435
576.000000	105.428660
575.000000	105.850831
574.000000	106.182671
573.000000	106.410695
572.000000	106.528271
571.000000	106.564678
570.000000	106.529501
569.000000	106.378948
568.000000	106.077164
567.000000	105.617601
566.000000	104.953497
565.000000	103.978371
564.000000	102.619625
563.000000	100.934263
562.000000	99.087813
561.000000	97.282948
560.000000	95.708539
559.000000	94.464792
558.000000	93.485915
557.000000	92.627221
556.000000	91.906892
555.000000	91.581693
554.000000	91.928005
553.000000	92.993665
552.000000	94.587999
551.000000	96.405240
550.000000	98.109453
549.000000	99.443083
548.000000	100.337510
547.000000	100.885070
546.000000	101.192074
545.000000	101.309288
544.000000	101.288884
543.000000	101.210483
542.000000	101.116780
541.000000	100.981868
540.000000	100.788563
539.000000	100.570681
538.000000	100.354632
537.000000	100.125162
536.000000	99.881632
535.000000	99.665460
534.000000	99.499994
533.000000	99.365416
532.000000	99.248684
531.000000	99.172762
530.000000	99.140111
529.000000	99.097178
528.000000	98.981318
527.000000	98.761258
526.000000	98.399245
525.000000	97.842744
524.000000	97.085137
523.000000	96.171857
522.000000	95.145796
521.000000	94.036475
520.000000	92.912577
519.000000	91.873798
518.000000	90.954742
517.000000	90.098140
516.000000	89.260482
515.000000	88.472401
514.000000	87.776514
513.000000	87.196721
512.000000	86.794511
511.000000	86.684730
510.000000	86.932907
509.000000	87.491001
508.000000	88.277903
507.000000	89.251099
506.000000	90.365904
505.000000	91.553899
504.000000	92.782509
503.000000	94.059065
502.000000	95.335246
501.000000	96.489849
500.000000	97.445213
499.000000	98.226262
498.000000	98.875286
497.000000	99.402366
496.000000	99.834499
495.000000	100.233546
494.000000	100.636210
493.000000	101.015374
492.000000	101.349669
491.000000	101.667425
490.000000	101.979880
489.000000	102.246684
488.000000	102.430060
487.000000	102.533430
486.000000	102.535608
485.000000	102.334920
484.000000	101.819700
483.000000	100.949244
482.000000	99.745753
481.000000	98.284583
480.000000	96.755460
479.000000	95.438553
478.000000	94.515389
477.000000	93.942521
476.000000	93.548499
475.000000	93.195701
474.000000	92.807525
473.000000	92.381043
472.000000	92.074574
471.000000	92.158590
470.000000	92.769582
469.000000	93.809146
468.000000	95.111789
467.000000	96.553064
466.000000	97.996399
465.000000	99.295041
464.000000	100.376796
463.000000	101.274765
462.000000	102.034220
461.000000	102.644664
460.000000	103.094661
459.000000	103.417255
458.000000	103.648180
457.000000	103.807138
456.000000	103.938677
455.000000	104.092778
454.000000	104.260478
453.000000	104.384873
452.000000	104.457637
451.000000	104.543510
450.000000	104.667849
449.000000	104.779392
448.000000	104.850392
447.000000	104.924183
446.000000	105.028424
445.000000	105.130229
444.000000	105.202919
443.000000	105.273320
442.000000	105.353287
441.000000	105.399041
440.000000	105.388636
439.000000	105.349810
438.000000	105.284606
437.000000	105.147272
436.000000	104.942009
435.000000	104.741087
434.000000	104.546023
433.000000	104.243999
432.000000	103.764114
431.000000	103.181650
430.000000	102.612505
429.000000	102.087831
428.000000	101.634040
427.000000	101.355040
426.000000	101.290272
425.000000	101.315812
424.000000	101.331880
423.000000	101.418770
422.000000	101.648826
421.000000	101.901286
420.000000	102.025928
419.000000	102.115909
418.000000	102.377393
417.000000	102.763031
416.000000	103.120680
415.000000	103.432422
414.000000	103.699157
413.000000	103.837830
412.000000	103.807899
411.000000	103.709031
410.000000	103.637506
409.000000	103.540556
408.000000	103.387408
407.000000	103.317839
406.000000	103.421864
405.000000	103.548362
404.000000	103.559352
403.000000	103.553383
402.000000	103.677795
401.000000	103.866650
400.000000	104.005389
