PE IR       SUBTECH     SPECTRUM    ASCII       PEDS        4.00        
   -1
23ms260-cis.asc
24/10/18
15:53:33.00
24/10/18
15:53:33.00
Administrator
Sample 1307 By Administrator Date Friday, October 18 2024
400.000000
#HDR
-1
-1
#GR
cm-1
%T
1.0
0.0
4000.000000
-1.000000
3601
8
85.714936
6.521714
#DATA
4000.000000	54.033627
3999.000000	54.021347
3998.000000	54.012878
3997.000000	54.006721
3996.000000	54.001673
3995.000000	53.997426
3994.000000	53.994190
3993.000000	53.992326
3992.000000	53.992317
3991.000000	53.994747
3990.000000	53.999770
3989.000000	54.007018
3988.000000	54.016647
3987.000000	54.029827
3986.000000	54.047830
3985.000000	54.070809
3984.000000	54.097830
3983.000000	54.127870
3982.000000	54.160237
3981.000000	54.194482
3980.000000	54.230284
3979.000000	54.267572
3978.000000	54.306866
3977.000000	54.348673
3976.000000	54.392433
3975.000000	54.436323
3974.000000	54.478452
3973.000000	54.518002
3972.000000	54.555036
3971.000000	54.590214
3970.000000	54.624442
3969.000000	54.658417
3968.000000	54.692656
3967.000000	54.727989
3966.000000	54.765514
3965.000000	54.806332
3964.000000	54.851080
3963.000000	54.899505
3962.000000	54.950803
3961.000000	55.003896
3960.000000	55.057717
3959.000000	55.112431
3958.000000	55.168988
3957.000000	55.227145
3956.000000	55.284819
3955.000000	55.340067
3954.000000	55.392495
3953.000000	55.442417
3952.000000	55.489669
3951.000000	55.533817
3950.000000	55.574442
3949.000000	55.611039
3948.000000	55.644438
3947.000000	55.676828
3946.000000	55.710320
3945.000000	55.746718
3944.000000	55.787393
3943.000000	55.830833
3942.000000	55.872312
3941.000000	55.908984
3940.000000	55.943907
3939.000000	55.983918
3938.000000	56.032000
3937.000000	56.083310
3936.000000	56.129680
3935.000000	56.167803
3934.000000	56.201750
3933.000000	56.235871
3932.000000	56.268699
3931.000000	56.295926
3930.000000	56.317122
3929.000000	56.337464
3928.000000	56.361359
3927.000000	56.388298
3926.000000	56.416040
3925.000000	56.442686
3924.000000	56.463703
3923.000000	56.473999
3922.000000	56.475420
3921.000000	56.477031
3920.000000	56.485073
3919.000000	56.496703
3918.000000	56.507163
3917.000000	56.518598
3916.000000	56.535511
3915.000000	56.557193
3914.000000	56.580994
3913.000000	56.608711
3912.000000	56.641840
3911.000000	56.677412
3910.000000	56.710174
3909.000000	56.739061
3908.000000	56.765808
3907.000000	56.789166
3906.000000	56.803198
3905.000000	56.803453
3904.000000	56.791031
3903.000000	56.772109
3902.000000	56.756722
3901.000000	56.756791
3900.000000	56.781874
3899.000000	56.830463
3898.000000	56.889744
3897.000000	56.950708
3896.000000	57.014813
3895.000000	57.087101
3894.000000	57.164842
3893.000000	57.237486
3892.000000	57.295062
3891.000000	57.339127
3890.000000	57.374526
3889.000000	57.400553
3888.000000	57.418259
3887.000000	57.440722
3886.000000	57.481708
3885.000000	57.534706
3884.000000	57.576651
3883.000000	57.599107
3882.000000	57.617512
3881.000000	57.647473
3880.000000	57.684892
3879.000000	57.714638
3878.000000	57.729412
3877.000000	57.736001
3876.000000	57.747930
3875.000000	57.775392
3874.000000	57.812426
3873.000000	57.835491
3872.000000	57.827369
3871.000000	57.803780
3870.000000	57.799439
3869.000000	57.823932
3868.000000	57.852200
3867.000000	57.867648
3866.000000	57.888172
3865.000000	57.935250
3864.000000	57.995731
3863.000000	58.041199
3862.000000	58.067435
3861.000000	58.092629
3860.000000	58.130572
3859.000000	58.186939
3858.000000	58.260583
3857.000000	58.339585
3856.000000	58.396304
3855.000000	58.405110
3854.000000	58.369997
3853.000000	58.321314
3852.000000	58.286227
3851.000000	58.277658
3850.000000	58.301876
3849.000000	58.359291
3848.000000	58.437847
3847.000000	58.519097
3846.000000	58.591550
3845.000000	58.651790
3844.000000	58.698159
3843.000000	58.733174
3842.000000	58.758965
3841.000000	58.775418
3840.000000	58.783264
3839.000000	58.786987
3838.000000	58.792301
3837.000000	58.806750
3836.000000	58.834412
3835.000000	58.872670
3834.000000	58.914881
3833.000000	58.958457
3832.000000	59.006300
3831.000000	59.058375
3830.000000	59.108851
3829.000000	59.153606
3828.000000	59.194808
3827.000000	59.241139
3826.000000	59.295592
3825.000000	59.345718
3824.000000	59.374076
3823.000000	59.383114
3822.000000	59.396437
3821.000000	59.430133
3820.000000	59.468447
3819.000000	59.486239
3818.000000	59.484506
3817.000000	59.490548
3816.000000	59.529713
3815.000000	59.592878
3814.000000	59.648937
3813.000000	59.688053
3812.000000	59.727936
3811.000000	59.780870
3810.000000	59.836816
3809.000000	59.877558
3808.000000	59.902631
3807.000000	59.930526
3806.000000	59.968659
3805.000000	60.001355
3804.000000	60.015013
3803.000000	60.020772
3802.000000	60.041382
3801.000000	60.080089
3800.000000	60.113477
3799.000000	60.128415
3798.000000	60.141572
3797.000000	60.174871
3796.000000	60.230651
3795.000000	60.291976
3794.000000	60.345286
3793.000000	60.393174
3792.000000	60.444194
3791.000000	60.498175
3790.000000	60.548114
3789.000000	60.589956
3788.000000	60.625888
3787.000000	60.658984
3786.000000	60.690571
3785.000000	60.721016
3784.000000	60.748872
3783.000000	60.769247
3782.000000	60.779945
3781.000000	60.788457
3780.000000	60.805378
3779.000000	60.832356
3778.000000	60.860959
3777.000000	60.885195
3776.000000	60.909498
3775.000000	60.944028
3774.000000	60.989982
3773.000000	61.035237
3772.000000	61.069045
3771.000000	61.097366
3770.000000	61.130532
3769.000000	61.165185
3768.000000	61.192688
3767.000000	61.217806
3766.000000	61.255636
3765.000000	61.311913
3764.000000	61.372731
3763.000000	61.419783
3762.000000	61.452879
3761.000000	61.490133
3760.000000	61.540087
3759.000000	61.589608
3758.000000	61.628120
3757.000000	61.663406
3756.000000	61.701464
3755.000000	61.735775
3754.000000	61.761580
3753.000000	61.785354
3752.000000	61.809700
3751.000000	61.822994
3750.000000	61.826722
3749.000000	61.845451
3748.000000	61.884552
3747.000000	61.921130
3746.000000	61.946976
3745.000000	61.989208
3744.000000	62.067328
3743.000000	62.153079
3742.000000	62.213993
3741.000000	62.258644
3740.000000	62.308184
3739.000000	62.361562
3738.000000	62.407476
3737.000000	62.455273
3736.000000	62.524310
3735.000000	62.603071
3734.000000	62.659541
3733.000000	62.691755
3732.000000	62.727650
3731.000000	62.780793
3730.000000	62.837794
3729.000000	62.883208
3728.000000	62.922442
3727.000000	62.972286
3726.000000	63.033801
3725.000000	63.088433
3724.000000	63.127253
3723.000000	63.162354
3722.000000	63.205138
3721.000000	63.254276
3720.000000	63.302551
3719.000000	63.347167
3718.000000	63.392939
3717.000000	63.444175
3716.000000	63.493563
3715.000000	63.529243
3714.000000	63.552709
3713.000000	63.579356
3712.000000	63.621274
3711.000000	63.675154
3710.000000	63.734527
3709.000000	63.799617
3708.000000	63.871792
3707.000000	63.951619
3706.000000	64.034759
3705.000000	64.116101
3704.000000	64.193279
3703.000000	64.269369
3702.000000	64.344866
3701.000000	64.414214
3700.000000	64.470719
3699.000000	64.513945
3698.000000	64.553398
3697.000000	64.601012
3696.000000	64.655294
3695.000000	64.700158
3694.000000	64.728756
3693.000000	64.752718
3692.000000	64.785829
3691.000000	64.826001
3690.000000	64.863208
3689.000000	64.896924
3688.000000	64.936735
3687.000000	64.986143
3686.000000	65.036949
3685.000000	65.086596
3684.000000	65.139594
3683.000000	65.196258
3682.000000	65.248137
3681.000000	65.289212
3680.000000	65.321867
3679.000000	65.341680
3678.000000	65.336839
3677.000000	65.320105
3676.000000	65.334465
3675.000000	65.390551
3674.000000	65.442550
3673.000000	65.453081
3672.000000	65.441241
3671.000000	65.463806
3670.000000	65.549341
3669.000000	65.659792
3668.000000	65.747454
3667.000000	65.808360
3666.000000	65.861274
3665.000000	65.919580
3664.000000	65.983530
3663.000000	66.046230
3662.000000	66.102967
3661.000000	66.151600
3660.000000	66.188833
3659.000000	66.211401
3658.000000	66.225319
3657.000000	66.246262
3656.000000	66.281690
3655.000000	66.315360
3654.000000	66.322956
3653.000000	66.300980
3652.000000	66.276059
3651.000000	66.281621
3650.000000	66.322986
3649.000000	66.376415
3648.000000	66.432946
3647.000000	66.502300
3646.000000	66.580908
3645.000000	66.656518
3644.000000	66.729226
3643.000000	66.809383
3642.000000	66.900016
3641.000000	66.989958
3640.000000	67.066179
3639.000000	67.128171
3638.000000	67.181209
3637.000000	67.224116
3636.000000	67.253761
3635.000000	67.276731
3634.000000	67.300982
3633.000000	67.316170
3632.000000	67.301507
3631.000000	67.261187
3630.000000	67.239875
3629.000000	67.274441
3628.000000	67.336964
3627.000000	67.377552
3626.000000	67.385428
3625.000000	67.379254
3624.000000	67.374185
3623.000000	67.369106
3622.000000	67.355264
3621.000000	67.333285
3620.000000	67.309713
3619.000000	67.279478
3618.000000	67.228328
3617.000000	67.151065
3616.000000	67.056049
3615.000000	66.961254
3614.000000	66.882097
3613.000000	66.814814
3612.000000	66.740431
3611.000000	66.649027
3610.000000	66.555565
3609.000000	66.486414
3608.000000	66.446615
3607.000000	66.413721
3606.000000	66.364888
3605.000000	66.296512
3604.000000	66.218736
3603.000000	66.143260
3602.000000	66.076059
3601.000000	66.017979
3600.000000	65.964420
3599.000000	65.905210
3598.000000	65.836612
3597.000000	65.764310
3596.000000	65.696700
3595.000000	65.636342
3594.000000	65.578504
3593.000000	65.512135
3592.000000	65.429320
3591.000000	65.332218
3590.000000	65.240356
3589.000000	65.185665
3588.000000	65.185416
3587.000000	65.219202
3586.000000	65.248755
3585.000000	65.254468
3584.000000	65.240315
3583.000000	65.218540
3582.000000	65.196804
3581.000000	65.175335
3580.000000	65.150344
3579.000000	65.117609
3578.000000	65.076330
3577.000000	65.028015
3576.000000	64.974766
3575.000000	64.916765
3574.000000	64.853063
3573.000000	64.779499
3572.000000	64.690183
3571.000000	64.580516
3570.000000	64.454203
3569.000000	64.329598
3568.000000	64.229306
3567.000000	64.154777
3566.000000	64.082489
3565.000000	63.991545
3564.000000	63.880623
3563.000000	63.761159
3562.000000	63.642952
3561.000000	63.526182
3560.000000	63.404182
3559.000000	63.270255
3558.000000	63.121869
3557.000000	62.959970
3556.000000	62.786898
3555.000000	62.605317
3554.000000	62.418673
3553.000000	62.229468
3552.000000	62.035380
3551.000000	61.829113
3550.000000	61.604106
3549.000000	61.362535
3548.000000	61.115151
3547.000000	60.871591
3546.000000	60.631424
3545.000000	60.386951
3544.000000	60.131771
3543.000000	59.864144
3542.000000	59.584469
3541.000000	59.292550
3540.000000	58.987371
3539.000000	58.667306
3538.000000	58.331430
3537.000000	57.980195
3536.000000	57.613634
3535.000000	57.229933
3534.000000	56.826792
3533.000000	56.404706
3532.000000	55.966379
3531.000000	55.512299
3530.000000	55.038972
3529.000000	54.543370
3528.000000	54.026522
3527.000000	53.490773
3526.000000	52.936417
3525.000000	52.363982
3524.000000	51.776669
3523.000000	51.176607
3522.000000	50.561551
3521.000000	49.927501
3520.000000	49.273201
3519.000000	48.599554
3518.000000	47.906591
3517.000000	47.193837
3516.000000	46.462703
3515.000000	45.716675
3514.000000	44.958888
3513.000000	44.190123
3512.000000	43.409049
3511.000000	42.613641
3510.000000	41.803878
3509.000000	40.984797
3508.000000	40.163348
3507.000000	39.340566
3506.000000	38.510314
3505.000000	37.667570
3504.000000	36.815327
3503.000000	35.961795
3502.000000	35.113891
3501.000000	34.274723
3500.000000	33.443938
3499.000000	32.617968
3498.000000	31.793342
3497.000000	30.971270
3496.000000	30.157221
3495.000000	29.355568
3494.000000	28.567742
3493.000000	27.795907
3492.000000	27.043401
3491.000000	26.310486
3490.000000	25.594450
3489.000000	24.895710
3488.000000	24.220291
3487.000000	23.574137
3486.000000	22.958363
3485.000000	22.371036
3484.000000	21.808271
3483.000000	21.263904
3482.000000	20.733614
3481.000000	20.220772
3480.000000	19.733601
3479.000000	19.274248
3478.000000	18.835686
3477.000000	18.409696
3476.000000	17.992489
3475.000000	17.582614
3474.000000	17.178730
3473.000000	16.781819
3472.000000	16.395881
3471.000000	16.025552
3470.000000	15.677634
3469.000000	15.363564
3468.000000	15.095137
3467.000000	14.876700
3466.000000	14.704966
3465.000000	14.576558
3464.000000	14.490463
3463.000000	14.445169
3462.000000	14.440388
3461.000000	14.480281
3460.000000	14.569739
3459.000000	14.706094
3458.000000	14.879193
3457.000000	15.079296
3456.000000	15.298703
3455.000000	15.527463
3454.000000	15.753659
3453.000000	15.967742
3452.000000	16.161913
3451.000000	16.325788
3450.000000	16.447295
3449.000000	16.518762
3448.000000	16.537793
3447.000000	16.502568
3446.000000	16.412850
3445.000000	16.273234
3444.000000	16.091359
3443.000000	15.873750
3442.000000	15.626047
3441.000000	15.357697
3440.000000	15.080838
3439.000000	14.805842
3438.000000	14.542933
3437.000000	14.305956
3436.000000	14.108733
3435.000000	13.957388
3434.000000	13.849895
3433.000000	13.782565
3432.000000	13.754978
3431.000000	13.769141
3430.000000	13.829685
3429.000000	13.944474
3428.000000	14.118605
3427.000000	14.351254
3426.000000	14.639382
3425.000000	14.983485
3424.000000	15.387207
3423.000000	15.850790
3422.000000	16.372612
3421.000000	16.952176
3420.000000	17.587188
3419.000000	18.270599
3418.000000	18.992120
3417.000000	19.744412
3416.000000	20.522830
3415.000000	21.321747
3414.000000	22.136022
3413.000000	22.962125
3412.000000	23.795334
3411.000000	24.627434
3410.000000	25.450654
3409.000000	26.262086
3408.000000	27.060440
3407.000000	27.840603
3406.000000	28.595819
3405.000000	29.323105
3404.000000	30.023040
3403.000000	30.697407
3402.000000	31.350096
3401.000000	31.987933
3400.000000	32.615824
3399.000000	33.231049
3398.000000	33.826251
3397.000000	34.396842
3396.000000	34.942791
3395.000000	35.466615
3394.000000	35.972768
3393.000000	36.468166
3392.000000	36.958913
3391.000000	37.445602
3390.000000	37.925101
3389.000000	38.395079
3388.000000	38.855311
3387.000000	39.306226
3386.000000	39.748854
3385.000000	40.185614
3384.000000	40.618119
3383.000000	41.045757
3382.000000	41.468067
3381.000000	41.886854
3380.000000	42.303943
3379.000000	42.718680
3378.000000	43.130113
3377.000000	43.539828
3376.000000	43.949723
3375.000000	44.358443
3374.000000	44.762615
3373.000000	45.160723
3372.000000	45.553791
3371.000000	45.943357
3370.000000	46.331345
3369.000000	46.720407
3368.000000	47.111906
3367.000000	47.503946
3366.000000	47.893015
3365.000000	48.277054
3364.000000	48.655618
3363.000000	49.028600
3362.000000	49.396710
3361.000000	49.761849
3360.000000	50.125136
3359.000000	50.485505
3358.000000	50.841719
3357.000000	51.194705
3356.000000	51.545739
3355.000000	51.893858
3354.000000	52.237072
3353.000000	52.575243
3352.000000	52.909941
3351.000000	53.241899
3350.000000	53.570292
3349.000000	53.893834
3348.000000	54.211088
3347.000000	54.520611
3346.000000	54.822195
3345.000000	55.117834
3344.000000	55.409794
3343.000000	55.697881
3342.000000	55.980001
3341.000000	56.254690
3340.000000	56.522341
3339.000000	56.784403
3338.000000	57.041948
3337.000000	57.294908
3336.000000	57.541294
3335.000000	57.777643
3334.000000	58.001040
3333.000000	58.209873
3332.000000	58.402952
3331.000000	58.578232
3330.000000	58.733311
3329.000000	58.866991
3328.000000	58.978457
3327.000000	59.066710
3326.000000	59.130285
3325.000000	59.166973
3324.000000	59.173519
3323.000000	59.145077
3322.000000	59.077099
3321.000000	58.966586
3320.000000	58.809678
3319.000000	58.601728
3318.000000	58.336335
3317.000000	58.007343
3316.000000	57.607806
3315.000000	57.128230
3314.000000	56.559434
3313.000000	55.893014
3312.000000	55.120597
3311.000000	54.234352
3310.000000	53.226215
3309.000000	52.093582
3308.000000	50.835840
3307.000000	49.450965
3306.000000	47.937786
3305.000000	46.294072
3304.000000	44.520456
3303.000000	42.616769
3302.000000	40.586110
3301.000000	38.441009
3300.000000	36.201486
3299.000000	33.895135
3298.000000	31.559668
3297.000000	29.244651
3296.000000	27.004477
3295.000000	24.887347
3294.000000	22.931992
3293.000000	21.169780
3292.000000	19.621314
3291.000000	18.284080
3290.000000	17.138661
3289.000000	16.155033
3288.000000	15.299189
3287.000000	14.537772
3286.000000	13.840630
3285.000000	13.190777
3284.000000	12.579741
3283.000000	12.003681
3282.000000	11.466751
3281.000000	10.981618
3280.000000	10.565093
3279.000000	10.230143
3278.000000	9.987324
3277.000000	9.850043
3276.000000	9.828021
3275.000000	9.921262
3274.000000	10.120864
3273.000000	10.411721
3272.000000	10.772228
3271.000000	11.169630
3270.000000	11.565131
3269.000000	11.920777
3268.000000	12.200889
3267.000000	12.374013
3266.000000	12.421581
3265.000000	12.343268
3264.000000	12.152405
3263.000000	11.871345
3262.000000	11.529355
3261.000000	11.163819
3260.000000	10.811692
3259.000000	10.501679
3258.000000	10.256403
3257.000000	10.095656
3256.000000	10.031447
3255.000000	10.063325
3254.000000	10.183408
3253.000000	10.380531
3252.000000	10.640517
3251.000000	10.942430
3250.000000	11.264199
3249.000000	11.589681
3248.000000	11.905335
3247.000000	12.196745
3246.000000	12.450595
3245.000000	12.658917
3244.000000	12.817550
3243.000000	12.925115
3242.000000	12.985306
3241.000000	13.008130
3240.000000	13.004181
3239.000000	12.978565
3238.000000	12.935321
3237.000000	12.880850
3236.000000	12.821761
3235.000000	12.762460
3234.000000	12.707005
3233.000000	12.659671
3232.000000	12.618461
3231.000000	12.572744
3230.000000	12.511659
3229.000000	12.430787
3228.000000	12.328605
3227.000000	12.201104
3226.000000	12.044770
3225.000000	11.861343
3224.000000	11.653991
3223.000000	11.423765
3222.000000	11.173048
3221.000000	10.909358
3220.000000	10.641709
3219.000000	10.375350
3218.000000	10.114005
3217.000000	9.862288
3216.000000	9.622074
3215.000000	9.390134
3214.000000	9.163218
3213.000000	8.941658
3212.000000	8.724899
3211.000000	8.508458
3210.000000	8.289367
3209.000000	8.070804
3208.000000	7.857164
3207.000000	7.649251
3206.000000	7.448451
3205.000000	7.260340
3204.000000	7.090213
3203.000000	6.938768
3202.000000	6.806333
3201.000000	6.697330
3200.000000	6.615294
3199.000000	6.559096
3198.000000	6.527241
3197.000000	6.521714
3196.000000	6.544347
3195.000000	6.592171
3194.000000	6.662338
3193.000000	6.755605
3192.000000	6.871426
3191.000000	7.005542
3190.000000	7.154455
3189.000000	7.319222
3188.000000	7.500207
3187.000000	7.692670
3186.000000	7.892399
3185.000000	8.099845
3184.000000	8.315750
3183.000000	8.537069
3182.000000	8.761124
3181.000000	8.989603
3180.000000	9.223642
3179.000000	9.459843
3178.000000	9.694739
3177.000000	9.928806
3176.000000	10.162424
3175.000000	10.392201
3174.000000	10.615298
3173.000000	10.833079
3172.000000	11.047036
3171.000000	11.255034
3170.000000	11.455334
3169.000000	11.649931
3168.000000	11.840212
3167.000000	12.023774
3166.000000	12.198475
3165.000000	12.365848
3164.000000	12.526991
3163.000000	12.679007
3162.000000	12.819315
3161.000000	12.948745
3160.000000	13.067797
3159.000000	13.174075
3158.000000	13.266337
3157.000000	13.347740
3156.000000	13.421295
3155.000000	13.486973
3154.000000	13.546450
3153.000000	13.605857
3152.000000	13.670538
3151.000000	13.740640
3150.000000	13.815254
3149.000000	13.896450
3148.000000	13.985881
3147.000000	14.081605
3146.000000	14.181947
3145.000000	14.288486
3144.000000	14.401853
3143.000000	14.518942
3142.000000	14.637057
3141.000000	14.757059
3140.000000	14.879170
3139.000000	14.999817
3138.000000	15.115641
3137.000000	15.226332
3136.000000	15.330523
3135.000000	15.422736
3134.000000	15.497803
3133.000000	15.553422
3132.000000	15.586044
3131.000000	15.588303
3130.000000	15.553142
3129.000000	15.478282
3128.000000	15.362427
3127.000000	15.203716
3126.000000	15.004836
3125.000000	14.775152
3124.000000	14.526120
3123.000000	14.266328
3122.000000	14.004747
3121.000000	13.752575
3120.000000	13.517533
3119.000000	13.300318
3118.000000	13.099460
3117.000000	12.915650
3116.000000	12.748059
3115.000000	12.591865
3114.000000	12.442590
3113.000000	12.299485
3112.000000	12.161449
3111.000000	12.024683
3110.000000	11.888168
3109.000000	11.756416
3108.000000	11.633873
3107.000000	11.521094
3106.000000	11.419162
3105.000000	11.333562
3104.000000	11.269313
3103.000000	11.227528
3102.000000	11.210528
3101.000000	11.224331
3100.000000	11.274015
3099.000000	11.359257
3098.000000	11.478717
3097.000000	11.634224
3096.000000	11.825865
3095.000000	12.050002
3094.000000	12.303560
3093.000000	12.586879
3092.000000	12.899546
3091.000000	13.236547
3090.000000	13.593143
3089.000000	13.967249
3088.000000	14.355240
3087.000000	14.750742
3086.000000	15.149585
3085.000000	15.552294
3084.000000	15.958179
3083.000000	16.362273
3082.000000	16.761055
3081.000000	17.155985
3080.000000	17.548772
3079.000000	17.937422
3078.000000	18.319944
3077.000000	18.696850
3076.000000	19.067424
3075.000000	19.427844
3074.000000	19.775984
3073.000000	20.114080
3072.000000	20.443644
3071.000000	20.762613
3070.000000	21.069872
3069.000000	21.368328
3068.000000	21.660847
3067.000000	21.946567
3066.000000	22.224429
3065.000000	22.495975
3064.000000	22.762106
3063.000000	23.021201
3062.000000	23.272525
3061.000000	23.518209
3060.000000	23.759340
3059.000000	23.994006
3058.000000	24.221610
3057.000000	24.444930
3056.000000	24.665948
3055.000000	24.883269
3054.000000	25.095875
3053.000000	25.305942
3052.000000	25.515464
3051.000000	25.723704
3050.000000	25.929785
3049.000000	26.134125
3048.000000	26.335850
3047.000000	26.532448
3046.000000	26.724008
3045.000000	26.914030
3044.000000	27.104509
3043.000000	27.294105
3042.000000	27.482363
3041.000000	27.671253
3040.000000	27.860685
3039.000000	28.046770
3038.000000	28.227037
3037.000000	28.403535
3036.000000	28.579117
3035.000000	28.754603
3034.000000	28.931144
3033.000000	29.111032
3032.000000	29.293852
3031.000000	29.475951
3030.000000	29.655642
3029.000000	29.834931
3028.000000	30.014443
3027.000000	30.191213
3026.000000	30.363642
3025.000000	30.534127
3024.000000	30.703992
3023.000000	30.869781
3022.000000	31.027252
3021.000000	31.174736
3020.000000	31.310293
3019.000000	31.428400
3018.000000	31.522972
3017.000000	31.590744
3016.000000	31.630045
3015.000000	31.641127
3014.000000	31.630289
3013.000000	31.612245
3012.000000	31.605237
3011.000000	31.625986
3010.000000	31.688344
3009.000000	31.800804
3008.000000	31.961189
3007.000000	32.155753
3006.000000	32.365490
3005.000000	32.570715
3004.000000	32.749626
3003.000000	32.876795
3002.000000	32.927156
3001.000000	32.879373
3000.000000	32.719403
2999.000000	32.449448
2998.000000	32.101326
2997.000000	31.739438
2996.000000	31.444063
2995.000000	31.287348
2994.000000	31.311814
2993.000000	31.519794
2992.000000	31.871763
2991.000000	32.303773
2990.000000	32.753771
2989.000000	33.179493
2988.000000	33.559420
2987.000000	33.885697
2986.000000	34.160881
2985.000000	34.392708
2984.000000	34.587517
2983.000000	34.746124
2982.000000	34.868293
2981.000000	34.955065
2980.000000	35.005779
2979.000000	35.015571
2978.000000	34.978825
2977.000000	34.894930
2976.000000	34.769229
2975.000000	34.614610
2974.000000	34.453302
2973.000000	34.312837
2972.000000	34.215380
2971.000000	34.168352
2970.000000	34.162897
2969.000000	34.173620
2968.000000	34.158836
2967.000000	34.070394
2966.000000	33.875631
2965.000000	33.574405
2964.000000	33.198808
2963.000000	32.798701
2962.000000	32.427446
2961.000000	32.128650
2960.000000	31.928517
2959.000000	31.835706
2958.000000	31.850529
2957.000000	31.968544
2956.000000	32.176176
2955.000000	32.449343
2954.000000	32.759000
2953.000000	33.076449
2952.000000	33.370579
2951.000000	33.610836
2950.000000	33.777628
2949.000000	33.871821
2948.000000	33.911055
2947.000000	33.915979
2946.000000	33.894188
2945.000000	33.823190
2944.000000	33.647259
2943.000000	33.303323
2942.000000	32.774662
2941.000000	32.132867
2940.000000	31.531618
2939.000000	31.149746
2938.000000	31.113499
2937.000000	31.445618
2936.000000	32.062870
2935.000000	32.826241
2934.000000	33.605199
2933.000000	34.317466
2932.000000	34.929563
2931.000000	35.440598
2930.000000	35.868151
2929.000000	36.234962
2928.000000	36.559435
2927.000000	36.851331
2926.000000	37.117703
2925.000000	37.365416
2924.000000	37.598127
2923.000000	37.814455
2922.000000	38.013187
2921.000000	38.196033
2920.000000	38.363996
2919.000000	38.515672
2918.000000	38.650794
2917.000000	38.772048
2916.000000	38.881591
2915.000000	38.979256
2914.000000	39.065901
2913.000000	39.144410
2912.000000	39.215662
2911.000000	39.276929
2910.000000	39.325302
2909.000000	39.359144
2908.000000	39.374402
2907.000000	39.362419
2906.000000	39.312906
2905.000000	39.215239
2904.000000	39.055499
2903.000000	38.818132
2902.000000	38.494255
2901.000000	38.090321
2900.000000	37.628211
2899.000000	37.145445
2898.000000	36.692793
2897.000000	36.326287
2896.000000	36.090045
2895.000000	36.003352
2894.000000	36.061386
2893.000000	36.241070
2892.000000	36.507856
2891.000000	36.823338
2890.000000	37.156087
2889.000000	37.485552
2888.000000	37.798608
2887.000000	38.086115
2886.000000	38.343666
2885.000000	38.571872
2884.000000	38.771667
2883.000000	38.942982
2882.000000	39.088006
2881.000000	39.212661
2880.000000	39.322951
2879.000000	39.422719
2878.000000	39.515741
2877.000000	39.606215
2876.000000	39.695434
2875.000000	39.780760
2874.000000	39.859951
2873.000000	39.933651
2872.000000	40.003370
2871.000000	40.071134
2870.000000	40.142547
2869.000000	40.226330
2868.000000	40.328114
2867.000000	40.446775
2866.000000	40.577598
2865.000000	40.715289
2864.000000	40.852838
2863.000000	40.982249
2862.000000	41.099303
2861.000000	41.205076
2860.000000	41.301617
2859.000000	41.389211
2858.000000	41.469335
2857.000000	41.546368
2856.000000	41.624197
2855.000000	41.703988
2854.000000	41.786557
2853.000000	41.873138
2852.000000	41.961907
2851.000000	42.047208
2850.000000	42.124453
2849.000000	42.193382
2848.000000	42.255704
2847.000000	42.312973
2846.000000	42.368245
2845.000000	42.426108
2844.000000	42.488867
2843.000000	42.555150
2842.000000	42.623647
2841.000000	42.695653
2840.000000	42.772632
2839.000000	42.854245
2838.000000	42.940134
2837.000000	43.030930
2836.000000	43.126174
2835.000000	43.223864
2834.000000	43.323095
2833.000000	43.424744
2832.000000	43.528679
2831.000000	43.632998
2830.000000	43.736876
2829.000000	43.841267
2828.000000	43.945865
2827.000000	44.048293
2826.000000	44.147169
2825.000000	44.243111
2824.000000	44.335973
2823.000000	44.424043
2822.000000	44.507082
2821.000000	44.587104
2820.000000	44.665106
2819.000000	44.739992
2818.000000	44.811633
2817.000000	44.881837
2816.000000	44.951082
2815.000000	45.017317
2814.000000	45.079336
2813.000000	45.138481
2812.000000	45.195793
2811.000000	45.250512
2810.000000	45.302645
2809.000000	45.354071
2808.000000	45.405597
2807.000000	45.455685
2806.000000	45.503452
2805.000000	45.550238
2804.000000	45.596795
2803.000000	45.641711
2802.000000	45.684060
2801.000000	45.725157
2800.000000	45.766433
2799.000000	45.808030
2798.000000	45.850572
2797.000000	45.895540
2796.000000	45.942566
2795.000000	45.988859
2794.000000	46.032512
2793.000000	46.073972
2792.000000	46.113508
2791.000000	46.150125
2790.000000	46.184016
2789.000000	46.217132
2788.000000	46.249947
2787.000000	46.280456
2786.000000	46.307662
2785.000000	46.333529
2784.000000	46.360333
2783.000000	46.389003
2782.000000	46.421304
2781.000000	46.460528
2780.000000	46.508314
2779.000000	46.563128
2778.000000	46.623099
2777.000000	46.687900
2776.000000	46.756493
2775.000000	46.825785
2774.000000	46.893089
2773.000000	46.957638
2772.000000	47.018671
2771.000000	47.074675
2770.000000	47.125796
2769.000000	47.174518
2768.000000	47.222635
2767.000000	47.269625
2766.000000	47.314990
2765.000000	47.359449
2764.000000	47.402585
2763.000000	47.442027
2762.000000	47.476441
2761.000000	47.507224
2760.000000	47.536129
2759.000000	47.563396
2758.000000	47.589255
2757.000000	47.614552
2756.000000	47.638653
2755.000000	47.659142
2754.000000	47.674996
2753.000000	47.688320
2752.000000	47.702173
2751.000000	47.718854
2750.000000	47.740831
2749.000000	47.770260
2748.000000	47.805988
2747.000000	47.843292
2746.000000	47.877811
2745.000000	47.908062
2744.000000	47.933968
2743.000000	47.955851
2742.000000	47.975547
2741.000000	47.995461
2740.000000	48.015028
2739.000000	48.030562
2738.000000	48.040100
2737.000000	48.046836
2736.000000	48.057308
2735.000000	48.078623
2734.000000	48.117368
2733.000000	48.176862
2732.000000	48.253527
2731.000000	48.338309
2730.000000	48.423001
2729.000000	48.503941
2728.000000	48.579662
2727.000000	48.648757
2726.000000	48.711493
2725.000000	48.770191
2724.000000	48.825855
2723.000000	48.876573
2722.000000	48.920150
2721.000000	48.955900
2720.000000	48.983340
2719.000000	49.001821
2718.000000	49.013122
2717.000000	49.022138
2716.000000	49.033354
2715.000000	49.048751
2714.000000	49.069601
2713.000000	49.097399
2712.000000	49.131733
2711.000000	49.169841
2710.000000	49.209650
2709.000000	49.251160
2708.000000	49.293918
2707.000000	49.335631
2706.000000	49.374523
2705.000000	49.410539
2704.000000	49.442965
2703.000000	49.469266
2702.000000	49.487526
2701.000000	49.497563
2700.000000	49.499024
2699.000000	49.490784
2698.000000	49.473545
2697.000000	49.451136
2696.000000	49.427736
2695.000000	49.406015
2694.000000	49.388273
2693.000000	49.376407
2692.000000	49.369527
2691.000000	49.364149
2690.000000	49.358122
2689.000000	49.352549
2688.000000	49.349303
2687.000000	49.349173
2686.000000	49.353303
2685.000000	49.363381
2684.000000	49.379134
2683.000000	49.398410
2682.000000	49.420628
2681.000000	49.447887
2680.000000	49.481471
2679.000000	49.519668
2678.000000	49.560101
2677.000000	49.601269
2676.000000	49.640903
2675.000000	49.675642
2674.000000	49.703670
2673.000000	49.725413
2672.000000	49.740920
2671.000000	49.749291
2670.000000	49.751962
2669.000000	49.754084
2668.000000	49.761220
2667.000000	49.776811
2666.000000	49.803303
2665.000000	49.842354
2664.000000	49.892009
2663.000000	49.946172
2662.000000	49.998193
2661.000000	50.043240
2660.000000	50.077158
2659.000000	50.096462
2658.000000	50.101162
2657.000000	50.095461
2656.000000	50.084378
2655.000000	50.071681
2654.000000	50.061869
2653.000000	50.060732
2652.000000	50.072233
2651.000000	50.096905
2650.000000	50.134175
2649.000000	50.183382
2648.000000	50.241734
2647.000000	50.303851
2646.000000	50.364872
2645.000000	50.422345
2644.000000	50.474360
2643.000000	50.519214
2642.000000	50.558150
2641.000000	50.595696
2640.000000	50.635631
2639.000000	50.678508
2638.000000	50.723751
2637.000000	50.771324
2636.000000	50.820052
2635.000000	50.866792
2634.000000	50.908972
2633.000000	50.945972
2632.000000	50.977261
2631.000000	51.001833
2630.000000	51.020393
2629.000000	51.035802
2628.000000	51.049916
2627.000000	51.062045
2626.000000	51.071610
2625.000000	51.079458
2624.000000	51.085851
2623.000000	51.089662
2622.000000	51.090772
2621.000000	51.090996
2620.000000	51.091214
2619.000000	51.090035
2618.000000	51.086168
2617.000000	51.079460
2616.000000	51.068734
2615.000000	51.051110
2614.000000	51.025201
2613.000000	50.992760
2612.000000	50.956068
2611.000000	50.916610
2610.000000	50.877415
2609.000000	50.843954
2608.000000	50.820765
2607.000000	50.809208
2606.000000	50.809329
2605.000000	50.821645
2604.000000	50.845539
2603.000000	50.878054
2602.000000	50.916467
2601.000000	50.959487
2600.000000	51.005601
2599.000000	51.052369
2598.000000	51.098266
2597.000000	51.143512
2596.000000	51.187901
2595.000000	51.230349
2594.000000	51.271270
2593.000000	51.312800
2592.000000	51.355490
2591.000000	51.397121
2590.000000	51.435553
2589.000000	51.470254
2588.000000	51.500295
2587.000000	51.523471
2586.000000	51.539122
2585.000000	51.549652
2584.000000	51.558275
2583.000000	51.567693
2582.000000	51.581828
2581.000000	51.606031
2580.000000	51.643849
2579.000000	51.695340
2578.000000	51.758866
2577.000000	51.832610
2576.000000	51.913192
2575.000000	51.995651
2574.000000	52.076414
2573.000000	52.154142
2572.000000	52.227533
2571.000000	52.294594
2570.000000	52.354977
2569.000000	52.410569
2568.000000	52.462864
2567.000000	52.511773
2566.000000	52.557746
2565.000000	52.602764
2564.000000	52.648050
2563.000000	52.693354
2562.000000	52.738960
2561.000000	52.785988
2560.000000	52.833895
2559.000000	52.880104
2558.000000	52.923220
2557.000000	52.964183
2556.000000	53.003686
2555.000000	53.041054
2554.000000	53.076656
2553.000000	53.112772
2552.000000	53.150895
2551.000000	53.190467
2550.000000	53.231219
2549.000000	53.274220
2548.000000	53.319502
2547.000000	53.365114
2546.000000	53.409630
2545.000000	53.453322
2544.000000	53.495838
2543.000000	53.535163
2542.000000	53.569936
2541.000000	53.600292
2540.000000	53.625635
2539.000000	53.643658
2538.000000	53.652953
2537.000000	53.654243
2536.000000	53.647586
2535.000000	53.631463
2534.000000	53.605246
2533.000000	53.570852
2532.000000	53.530813
2531.000000	53.486626
2530.000000	53.440671
2529.000000	53.396846
2528.000000	53.358079
2527.000000	53.324912
2526.000000	53.297326
2525.000000	53.275563
2524.000000	53.258125
2523.000000	53.241337
2522.000000	53.222052
2521.000000	53.198729
2520.000000	53.169243
2519.000000	53.130442
2518.000000	53.081124
2517.000000	53.023398
2516.000000	52.959667
2515.000000	52.891247
2514.000000	52.820593
2513.000000	52.752268
2512.000000	52.690319
2511.000000	52.637033
2510.000000	52.595167
2509.000000	52.568488
2508.000000	52.558837
2507.000000	52.564357
2506.000000	52.582759
2505.000000	52.612972
2504.000000	52.652927
2503.000000	52.698791
2502.000000	52.747087
2501.000000	52.796146
2500.000000	52.843916
2499.000000	52.887238
2498.000000	52.924474
2497.000000	52.956484
2496.000000	52.983859
2495.000000	53.005778
2494.000000	53.022524
2493.000000	53.036240
2492.000000	53.048327
2491.000000	53.058357
2490.000000	53.066782
2489.000000	53.076101
2488.000000	53.087973
2487.000000	53.101823
2486.000000	53.117254
2485.000000	53.135172
2484.000000	53.155298
2483.000000	53.175277
2482.000000	53.193603
2481.000000	53.211066
2480.000000	53.228448
2479.000000	53.245419
2478.000000	53.263181
2477.000000	53.285263
2476.000000	53.314384
2475.000000	53.350812
2474.000000	53.394545
2473.000000	53.446694
2472.000000	53.506923
2471.000000	53.572260
2470.000000	53.639815
2469.000000	53.708119
2468.000000	53.775217
2467.000000	53.838001
2466.000000	53.894991
2465.000000	53.947325
2464.000000	53.995926
2463.000000	54.040037
2462.000000	54.079688
2461.000000	54.116937
2460.000000	54.152993
2459.000000	54.186843
2458.000000	54.217596
2457.000000	54.245885
2456.000000	54.271649
2455.000000	54.292855
2454.000000	54.308364
2453.000000	54.319634
2452.000000	54.328552
2451.000000	54.335845
2450.000000	54.342825
2449.000000	54.352439
2448.000000	54.367187
2447.000000	54.388161
2446.000000	54.416923
2445.000000	54.455885
2444.000000	54.505017
2443.000000	54.560684
2442.000000	54.618896
2441.000000	54.677395
2440.000000	54.733978
2439.000000	54.785451
2438.000000	54.830222
2437.000000	54.869600
2436.000000	54.905244
2435.000000	54.937069
2434.000000	54.964756
2433.000000	54.988709
2432.000000	55.007934
2431.000000	55.019786
2430.000000	55.022710
2429.000000	55.017641
2428.000000	55.005437
2427.000000	54.985109
2426.000000	54.956478
2425.000000	54.921562
2424.000000	54.882529
2423.000000	54.840500
2422.000000	54.797873
2421.000000	54.759559
2420.000000	54.729875
2419.000000	54.710222
2418.000000	54.700603
2417.000000	54.701055
2416.000000	54.709609
2415.000000	54.721590
2414.000000	54.732355
2413.000000	54.738850
2412.000000	54.737449
2411.000000	54.723355
2410.000000	54.694132
2409.000000	54.651782
2408.000000	54.600192
2407.000000	54.542267
2406.000000	54.481429
2405.000000	54.422527
2404.000000	54.369139
2403.000000	54.321795
2402.000000	54.280439
2401.000000	54.246526
2400.000000	54.220963
2399.000000	54.202386
2398.000000	54.188836
2397.000000	54.179238
2396.000000	54.171362
2395.000000	54.160926
2394.000000	54.144248
2393.000000	54.120342
2392.000000	54.088861
2391.000000	54.049058
2390.000000	54.002732
2389.000000	53.955067
2388.000000	53.912223
2387.000000	53.878474
2386.000000	53.858090
2385.000000	53.857474
2384.000000	53.880731
2383.000000	53.927937
2382.000000	53.996029
2381.000000	54.080839
2380.000000	54.175822
2379.000000	54.269450
2378.000000	54.349800
2377.000000	54.409512
2376.000000	54.446209
2375.000000	54.458331
2374.000000	54.449078
2373.000000	54.425611
2372.000000	54.395860
2371.000000	54.364375
2370.000000	54.332636
2369.000000	54.304610
2368.000000	54.287324
2367.000000	54.285577
2366.000000	54.300789
2365.000000	54.334861
2364.000000	54.400053
2363.000000	54.490976
2362.000000	54.592526
2361.000000	54.707893
2360.000000	54.823881
2359.000000	54.923584
2358.000000	54.993681
2357.000000	55.019945
2356.000000	55.015549
2355.000000	54.972486
2354.000000	54.909296
2353.000000	54.858035
2352.000000	54.868461
2351.000000	54.963288
2350.000000	55.072273
2349.000000	55.125427
2348.000000	55.104494
2347.000000	55.076551
2346.000000	55.130668
2345.000000	55.247870
2344.000000	55.373425
2343.000000	55.430979
2342.000000	55.442939
2341.000000	55.447187
2340.000000	55.450775
2339.000000	55.452850
2338.000000	55.441921
2337.000000	55.433004
2336.000000	55.418463
2335.000000	55.411536
2334.000000	55.402777
2333.000000	55.407351
2332.000000	55.389396
2331.000000	55.356405
2330.000000	55.266354
2329.000000	55.162101
2328.000000	55.042878
2327.000000	54.942319
2326.000000	54.870921
2325.000000	54.833650
2324.000000	54.833413
2323.000000	54.842827
2322.000000	54.846269
2321.000000	54.833021
2320.000000	54.796168
2319.000000	54.750090
2318.000000	54.691796
2317.000000	54.651402
2316.000000	54.617388
2315.000000	54.606283
2314.000000	54.587878
2313.000000	54.567368
2312.000000	54.511497
2311.000000	54.430024
2310.000000	54.311920
2309.000000	54.181959
2308.000000	54.035883
2307.000000	53.888027
2306.000000	53.734343
2305.000000	53.590317
2304.000000	53.452296
2303.000000	53.327419
2302.000000	53.205110
2301.000000	53.090641
2300.000000	52.971747
2299.000000	52.852725
2298.000000	52.728828
2297.000000	52.613518
2296.000000	52.507574
2295.000000	52.419054
2294.000000	52.349746
2293.000000	52.306807
2292.000000	52.290077
2291.000000	52.296239
2290.000000	52.322434
2289.000000	52.366398
2288.000000	52.426429
2287.000000	52.498073
2286.000000	52.581882
2285.000000	52.678123
2284.000000	52.785583
2283.000000	52.897107
2282.000000	53.007740
2281.000000	53.113563
2280.000000	53.210390
2279.000000	53.292936
2278.000000	53.360124
2277.000000	53.416937
2276.000000	53.468300
2275.000000	53.518896
2274.000000	53.573154
2273.000000	53.637220
2272.000000	53.713432
2271.000000	53.801012
2270.000000	53.899577
2269.000000	54.010634
2268.000000	54.133883
2267.000000	54.267128
2266.000000	54.408874
2265.000000	54.559697
2264.000000	54.717462
2263.000000	54.876647
2262.000000	55.032681
2261.000000	55.182016
2260.000000	55.321581
2259.000000	55.446760
2258.000000	55.556923
2257.000000	55.655202
2256.000000	55.745370
2255.000000	55.830602
2254.000000	55.914628
2253.000000	56.002811
2252.000000	56.096458
2251.000000	56.193790
2250.000000	56.291902
2249.000000	56.389736
2248.000000	56.483983
2247.000000	56.570666
2246.000000	56.648146
2245.000000	56.718522
2244.000000	56.783621
2243.000000	56.843196
2242.000000	56.897379
2241.000000	56.947425
2240.000000	56.992654
2239.000000	57.029598
2238.000000	57.056234
2237.000000	57.073940
2236.000000	57.085243
2235.000000	57.091935
2234.000000	57.097374
2233.000000	57.106763
2232.000000	57.123480
2231.000000	57.147040
2230.000000	57.175485
2229.000000	57.207054
2228.000000	57.238451
2227.000000	57.265065
2226.000000	57.284523
2225.000000	57.298317
2224.000000	57.308675
2223.000000	57.316822
2222.000000	57.324561
2221.000000	57.334728
2220.000000	57.348263
2219.000000	57.363707
2218.000000	57.380500
2217.000000	57.400429
2216.000000	57.424980
2215.000000	57.454122
2214.000000	57.488712
2213.000000	57.530727
2212.000000	57.579932
2211.000000	57.632714
2210.000000	57.685417
2209.000000	57.735927
2208.000000	57.781454
2207.000000	57.818122
2206.000000	57.844417
2205.000000	57.862614
2204.000000	57.875505
2203.000000	57.884378
2202.000000	57.890840
2201.000000	57.897419
2200.000000	57.904667
2199.000000	57.910362
2198.000000	57.913028
2197.000000	57.913803
2196.000000	57.914135
2195.000000	57.914635
2194.000000	57.917688
2193.000000	57.928072
2192.000000	57.949134
2191.000000	57.980523
2190.000000	58.020433
2189.000000	58.067436
2188.000000	58.119064
2187.000000	58.171816
2186.000000	58.224192
2185.000000	58.277355
2184.000000	58.331916
2183.000000	58.386534
2182.000000	58.440657
2181.000000	58.495315
2180.000000	58.549995
2179.000000	58.601340
2178.000000	58.646257
2177.000000	58.683851
2176.000000	58.713234
2175.000000	58.732635
2174.000000	58.742159
2173.000000	58.744997
2172.000000	58.744355
2171.000000	58.741514
2170.000000	58.737866
2169.000000	58.735861
2168.000000	58.736373
2167.000000	58.737620
2166.000000	58.738308
2165.000000	58.739479
2164.000000	58.742139
2163.000000	58.745781
2162.000000	58.750551
2161.000000	58.758237
2160.000000	58.769653
2159.000000	58.783445
2158.000000	58.798654
2157.000000	58.815886
2156.000000	58.834901
2155.000000	58.853776
2154.000000	58.871840
2153.000000	58.890999
2152.000000	58.913049
2151.000000	58.938176
2150.000000	58.966847
2149.000000	59.000162
2148.000000	59.036851
2147.000000	59.072716
2146.000000	59.104221
2145.000000	59.130359
2144.000000	59.150410
2143.000000	59.163142
2142.000000	59.169557
2141.000000	59.173490
2140.000000	59.177820
2139.000000	59.182366
2138.000000	59.186338
2137.000000	59.189908
2136.000000	59.192258
2135.000000	59.191061
2134.000000	59.185535
2133.000000	59.177468
2132.000000	59.168150
2131.000000	59.156999
2130.000000	59.144296
2129.000000	59.132162
2128.000000	59.121254
2127.000000	59.109318
2126.000000	59.094564
2125.000000	59.078054
2124.000000	59.061531
2123.000000	59.046147
2122.000000	59.034765
2121.000000	59.032650
2120.000000	59.044128
2119.000000	59.070408
2118.000000	59.110945
2117.000000	59.163635
2116.000000	59.222582
2115.000000	59.279209
2114.000000	59.327660
2113.000000	59.367150
2112.000000	59.398625
2111.000000	59.422388
2110.000000	59.439811
2109.000000	59.453896
2108.000000	59.466226
2107.000000	59.475783
2106.000000	59.482145
2105.000000	59.487076
2104.000000	59.491688
2103.000000	59.495058
2102.000000	59.496754
2101.000000	59.497751
2100.000000	59.497333
2099.000000	59.492039
2098.000000	59.479361
2097.000000	59.459846
2096.000000	59.434610
2095.000000	59.404269
2094.000000	59.372019
2093.000000	59.344482
2092.000000	59.327533
2091.000000	59.323668
2090.000000	59.334325
2089.000000	59.361163
2088.000000	59.402977
2087.000000	59.454560
2086.000000	59.510147
2085.000000	59.565358
2084.000000	59.615358
2083.000000	59.655125
2082.000000	59.683247
2081.000000	59.702762
2080.000000	59.716675
2079.000000	59.725082
2078.000000	59.727744
2077.000000	59.725264
2076.000000	59.715950
2075.000000	59.695084
2074.000000	59.659224
2073.000000	59.609058
2072.000000	59.546563
2071.000000	59.472850
2070.000000	59.390765
2069.000000	59.306216
2068.000000	59.224015
2067.000000	59.144430
2066.000000	59.065136
2065.000000	58.984435
2064.000000	58.900959
2063.000000	58.813642
2062.000000	58.723525
2061.000000	58.632722
2060.000000	58.540860
2059.000000	58.445468
2058.000000	58.346896
2057.000000	58.248972
2056.000000	58.153750
2055.000000	58.059747
2054.000000	57.966690
2053.000000	57.877798
2052.000000	57.795910
2051.000000	57.721614
2050.000000	57.656684
2049.000000	57.605459
2048.000000	57.570130
2047.000000	57.548092
2046.000000	57.536304
2045.000000	57.534115
2044.000000	57.539613
2043.000000	57.547480
2042.000000	57.553394
2041.000000	57.558125
2040.000000	57.564930
2039.000000	57.576641
2038.000000	57.597119
2037.000000	57.630955
2036.000000	57.679451
2035.000000	57.739557
2034.000000	57.808566
2033.000000	57.886268
2032.000000	57.971047
2031.000000	58.058712
2030.000000	58.146932
2029.000000	58.236957
2028.000000	58.329296
2027.000000	58.421527
2026.000000	58.511581
2025.000000	58.599638
2024.000000	58.684284
2023.000000	58.761292
2022.000000	58.828679
2021.000000	58.889875
2020.000000	58.949212
2019.000000	59.007428
2018.000000	59.064097
2017.000000	59.121589
2016.000000	59.183957
2015.000000	59.254393
2014.000000	59.335071
2013.000000	59.426450
2012.000000	59.524688
2011.000000	59.623109
2010.000000	59.718267
2009.000000	59.811611
2008.000000	59.904225
2007.000000	59.994234
2006.000000	60.080508
2005.000000	60.164677
2004.000000	60.246937
2003.000000	60.323991
2002.000000	60.393512
2001.000000	60.456847
2000.000000	60.516181
1999.000000	60.572223
1998.000000	60.626954
1997.000000	60.684953
1996.000000	60.750727
1995.000000	60.825285
1994.000000	60.905654
1993.000000	60.985919
1992.000000	61.059509
1991.000000	61.124500
1990.000000	61.186592
1989.000000	61.252994
1988.000000	61.324730
1987.000000	61.397382
1986.000000	61.468554
1985.000000	61.540797
1984.000000	61.616187
1983.000000	61.692661
1982.000000	61.767765
1981.000000	61.842154
1980.000000	61.918127
1979.000000	61.996792
1978.000000	62.078922
1977.000000	62.165501
1976.000000	62.256625
1975.000000	62.350229
1974.000000	62.442924
1973.000000	62.531191
1972.000000	62.612103
1971.000000	62.684385
1970.000000	62.748609
1969.000000	62.805290
1968.000000	62.852297
1967.000000	62.886360
1966.000000	62.908989
1965.000000	62.927518
1964.000000	62.948145
1963.000000	62.969853
1962.000000	62.986034
1961.000000	62.990888
1960.000000	62.983211
1959.000000	62.966321
1958.000000	62.946364
1957.000000	62.929737
1956.000000	62.920304
1955.000000	62.918327
1954.000000	62.922478
1953.000000	62.932298
1952.000000	62.947157
1951.000000	62.965364
1950.000000	62.985808
1949.000000	63.009380
1948.000000	63.036735
1947.000000	63.067280
1946.000000	63.101527
1945.000000	63.140588
1944.000000	63.180728
1943.000000	63.211896
1942.000000	63.226829
1941.000000	63.230278
1940.000000	63.233324
1939.000000	63.241173
1938.000000	63.250844
1937.000000	63.257102
1936.000000	63.257249
1935.000000	63.251242
1934.000000	63.240048
1933.000000	63.225226
1932.000000	63.207530
1931.000000	63.188043
1930.000000	63.170446
1929.000000	63.159947
1928.000000	63.158978
1927.000000	63.167675
1926.000000	63.189438
1925.000000	63.226111
1924.000000	63.269487
1923.000000	63.302889
1922.000000	63.319303
1921.000000	63.328272
1920.000000	63.338931
1919.000000	63.347310
1918.000000	63.344592
1917.000000	63.331350
1916.000000	63.317108
1915.000000	63.308054
1914.000000	63.304669
1913.000000	63.305972
1912.000000	63.309375
1911.000000	63.310664
1910.000000	63.308160
1909.000000	63.304306
1908.000000	63.301520
1907.000000	63.300837
1906.000000	63.306283
1905.000000	63.321888
1904.000000	63.345977
1903.000000	63.372561
1902.000000	63.401056
1901.000000	63.436614
1900.000000	63.481226
1899.000000	63.532522
1898.000000	63.591259
1897.000000	63.660011
1896.000000	63.734102
1895.000000	63.802250
1894.000000	63.861494
1893.000000	63.921580
1892.000000	63.989794
1891.000000	64.060306
1890.000000	64.120585
1889.000000	64.164355
1888.000000	64.196227
1887.000000	64.224740
1886.000000	64.255577
1885.000000	64.289225
1884.000000	64.320747
1883.000000	64.346468
1882.000000	64.371604
1881.000000	64.405793
1880.000000	64.451603
1879.000000	64.503912
1878.000000	64.559956
1877.000000	64.621744
1876.000000	64.687816
1875.000000	64.751582
1874.000000	64.809716
1873.000000	64.866497
1872.000000	64.925705
1871.000000	64.983787
1870.000000	65.034263
1869.000000	65.072720
1868.000000	65.097390
1867.000000	65.113054
1866.000000	65.132759
1865.000000	65.167328
1864.000000	65.216660
1863.000000	65.272537
1862.000000	65.329349
1861.000000	65.389359
1860.000000	65.454437
1859.000000	65.520689
1858.000000	65.585172
1857.000000	65.649593
1856.000000	65.712834
1855.000000	65.769057
1854.000000	65.814323
1853.000000	65.850080
1852.000000	65.881113
1851.000000	65.910765
1850.000000	65.944110
1849.000000	65.985600
1848.000000	66.034064
1847.000000	66.083545
1846.000000	66.130048
1845.000000	66.172595
1844.000000	66.208886
1843.000000	66.241056
1842.000000	66.280765
1841.000000	66.337494
1840.000000	66.409655
1839.000000	66.486619
1838.000000	66.555729
1837.000000	66.608882
1836.000000	66.646224
1835.000000	66.672611
1834.000000	66.695314
1833.000000	66.721377
1832.000000	66.756152
1831.000000	66.796896
1830.000000	66.833280
1829.000000	66.862235
1828.000000	66.900335
1827.000000	66.961956
1826.000000	67.041454
1825.000000	67.121923
1824.000000	67.189623
1823.000000	67.245275
1822.000000	67.296992
1821.000000	67.350891
1820.000000	67.407665
1819.000000	67.461318
1818.000000	67.505105
1817.000000	67.538901
1816.000000	67.567351
1815.000000	67.590991
1814.000000	67.608241
1813.000000	67.621955
1812.000000	67.635132
1811.000000	67.643428
1810.000000	67.644014
1809.000000	67.648417
1808.000000	67.667306
1807.000000	67.694047
1806.000000	67.717710
1805.000000	67.738680
1804.000000	67.761032
1803.000000	67.778442
1802.000000	67.779306
1801.000000	67.766335
1800.000000	67.753308
1799.000000	67.750479
1798.000000	67.761996
1797.000000	67.790377
1796.000000	67.830576
1795.000000	67.869266
1794.000000	67.896681
1793.000000	67.917028
1792.000000	67.938072
1791.000000	67.958710
1790.000000	67.981420
1789.000000	68.017044
1788.000000	68.067979
1787.000000	68.121848
1786.000000	68.161734
1785.000000	68.181287
1784.000000	68.186745
1783.000000	68.186298
1782.000000	68.182141
1781.000000	68.177019
1780.000000	68.172692
1779.000000	68.175148
1778.000000	68.194301
1777.000000	68.237587
1776.000000	68.302462
1775.000000	68.376848
1774.000000	68.449744
1773.000000	68.516409
1772.000000	68.576611
1771.000000	68.631577
1770.000000	68.687623
1769.000000	68.749377
1768.000000	68.817769
1767.000000	68.885436
1766.000000	68.942291
1765.000000	68.989350
1764.000000	69.033528
1763.000000	69.074740
1762.000000	69.098770
1761.000000	69.102032
1760.000000	69.107132
1759.000000	69.135097
1758.000000	69.182960
1757.000000	69.234928
1756.000000	69.280823
1755.000000	69.323297
1754.000000	69.362395
1753.000000	69.392779
1752.000000	69.418353
1751.000000	69.451349
1750.000000	69.494731
1749.000000	69.537397
1748.000000	69.577528
1747.000000	69.623827
1746.000000	69.680117
1745.000000	69.740680
1744.000000	69.799740
1743.000000	69.854334
1742.000000	69.900687
1741.000000	69.940323
1740.000000	69.984244
1739.000000	70.038599
1738.000000	70.093610
1737.000000	70.138239
1736.000000	70.168820
1735.000000	70.186672
1734.000000	70.189506
1733.000000	70.178427
1732.000000	70.175461
1731.000000	70.188324
1730.000000	70.206460
1729.000000	70.217956
1728.000000	70.223529
1727.000000	70.234813
1726.000000	70.258776
1725.000000	70.293010
1724.000000	70.329281
1723.000000	70.364186
1722.000000	70.398170
1721.000000	70.434025
1720.000000	70.474076
1719.000000	70.513975
1718.000000	70.537029
1717.000000	70.539357
1716.000000	70.542000
1715.000000	70.553289
1714.000000	70.573686
1713.000000	70.608689
1712.000000	70.659003
1711.000000	70.718217
1710.000000	70.780495
1709.000000	70.846825
1708.000000	70.921908
1707.000000	71.005780
1706.000000	71.094428
1705.000000	71.180775
1704.000000	71.256316
1703.000000	71.313957
1702.000000	71.357451
1701.000000	71.416661
1700.000000	71.504033
1699.000000	71.576484
1698.000000	71.622387
1697.000000	71.673869
1696.000000	71.756156
1695.000000	71.851029
1694.000000	71.934806
1693.000000	72.010363
1692.000000	72.091353
1691.000000	72.188103
1690.000000	72.292942
1689.000000	72.382500
1688.000000	72.441922
1687.000000	72.475340
1686.000000	72.503476
1685.000000	72.550228
1684.000000	72.605940
1683.000000	72.642866
1682.000000	72.674141
1681.000000	72.700456
1680.000000	72.715970
1679.000000	72.723046
1678.000000	72.724577
1677.000000	72.717581
1676.000000	72.706858
1675.000000	72.709619
1674.000000	72.727242
1673.000000	72.741156
1672.000000	72.743935
1671.000000	72.753517
1670.000000	72.778195
1669.000000	72.789471
1668.000000	72.766698
1667.000000	72.731693
1666.000000	72.702628
1665.000000	72.673520
1664.000000	72.637439
1663.000000	72.603611
1662.000000	72.572793
1661.000000	72.524700
1660.000000	72.442751
1659.000000	72.343339
1658.000000	72.249240
1657.000000	72.151194
1656.000000	72.012782
1655.000000	71.805047
1654.000000	71.499187
1653.000000	71.038139
1652.000000	70.488654
1651.000000	69.980508
1650.000000	69.452216
1649.000000	68.744037
1648.000000	67.638998
1647.000000	65.970905
1646.000000	63.815487
1645.000000	61.397257
1644.000000	58.780607
1643.000000	55.852758
1642.000000	52.524355
1641.000000	48.878237
1640.000000	45.214225
1639.000000	41.863427
1638.000000	38.967512
1637.000000	36.534922
1636.000000	34.712788
1635.000000	33.820565
1634.000000	33.904474
1633.000000	34.691817
1632.000000	35.923076
1631.000000	37.453300
1630.000000	39.211576
1629.000000	41.154227
1628.000000	43.209564
1627.000000	45.237567
1626.000000	47.149299
1625.000000	49.020909
1624.000000	50.976079
1623.000000	52.963645
1622.000000	54.763196
1621.000000	56.264596
1620.000000	57.544653
1619.000000	58.722816
1618.000000	59.881267
1617.000000	61.048018
1616.000000	62.144682
1615.000000	63.040780
1614.000000	63.718630
1613.000000	64.271083
1612.000000	64.781744
1611.000000	65.243445
1610.000000	65.592692
1609.000000	65.806258
1608.000000	65.895105
1607.000000	65.831531
1606.000000	65.557029
1605.000000	65.036687
1604.000000	64.257829
1603.000000	63.189173
1602.000000	61.815296
1601.000000	60.213908
1600.000000	58.544497
1599.000000	56.969512
1598.000000	55.596513
1597.000000	54.482153
1596.000000	53.638694
1595.000000	53.016056
1594.000000	52.507329
1593.000000	52.013710
1592.000000	51.492898
1591.000000	50.928822
1590.000000	50.301023
1589.000000	49.601318
1588.000000	48.846652
1587.000000	48.038598
1586.000000	47.144160
1585.000000	46.140707
1584.000000	45.054197
1583.000000	43.918672
1582.000000	42.738563
1581.000000	41.524493
1580.000000	40.316065
1579.000000	39.098591
1578.000000	37.706349
1577.000000	35.895253
1576.000000	33.693195
1575.000000	31.562188
1574.000000	29.847531
1573.000000	28.459448
1572.000000	27.193211
1571.000000	25.957209
1570.000000	24.791266
1569.000000	23.814835
1568.000000	23.139784
1567.000000	22.798847
1566.000000	22.725182
1565.000000	22.811113
1564.000000	23.006310
1563.000000	23.332377
1562.000000	23.810674
1561.000000	24.450913
1560.000000	25.362130
1559.000000	26.661765
1558.000000	28.043417
1557.000000	29.148891
1556.000000	30.031935
1555.000000	30.861482
1554.000000	31.672750
1553.000000	32.387664
1552.000000	32.978712
1551.000000	33.526237
1550.000000	34.113409
1549.000000	34.748638
1548.000000	35.426839
1547.000000	36.196708
1546.000000	37.110341
1545.000000	38.138245
1544.000000	39.187550
1543.000000	40.213711
1542.000000	41.253741
1541.000000	42.344684
1540.000000	43.446981
1539.000000	44.465008
1538.000000	45.349479
1537.000000	46.116105
1536.000000	46.834064
1535.000000	47.598008
1534.000000	48.451641
1533.000000	49.317301
1532.000000	50.100053
1531.000000	50.816915
1530.000000	51.520952
1529.000000	52.219205
1528.000000	52.894368
1527.000000	53.542114
1526.000000	54.150384
1525.000000	54.692424
1524.000000	55.174532
1523.000000	55.649636
1522.000000	56.145592
1521.000000	56.610663
1520.000000	57.007562
1519.000000	57.384649
1518.000000	57.780627
1517.000000	58.169841
1516.000000	58.514429
1515.000000	58.829817
1514.000000	59.144937
1513.000000	59.460527
1512.000000	59.777813
1511.000000	60.109511
1510.000000	60.449726
1509.000000	60.776280
1508.000000	61.090868
1507.000000	61.405223
1506.000000	61.699107
1505.000000	61.977131
1504.000000	62.258504
1503.000000	62.559563
1502.000000	62.875466
1501.000000	63.176072
1500.000000	63.450345
1499.000000	63.720307
1498.000000	63.987982
1497.000000	64.223902
1496.000000	64.429634
1495.000000	64.641191
1494.000000	64.857269
1493.000000	65.053637
1492.000000	65.244925
1491.000000	65.475121
1490.000000	65.732041
1489.000000	65.952442
1488.000000	66.128888
1487.000000	66.296316
1486.000000	66.441781
1485.000000	66.513043
1484.000000	66.492372
1483.000000	66.388059
1482.000000	66.169314
1481.000000	65.782984
1480.000000	65.225421
1479.000000	64.486689
1478.000000	63.449132
1477.000000	61.970798
1476.000000	60.063239
1475.000000	57.840261
1474.000000	55.314674
1473.000000	52.518478
1472.000000	49.828765
1471.000000	47.731773
1470.000000	46.320455
1469.000000	45.421778
1468.000000	44.933541
1467.000000	44.883420
1466.000000	45.347158
1465.000000	46.322043
1464.000000	47.610569
1463.000000	48.892384
1462.000000	49.931169
1461.000000	50.631552
1460.000000	50.957122
1459.000000	50.843200
1458.000000	50.175075
1457.000000	49.008309
1456.000000	47.812902
1455.000000	47.001327
1454.000000	46.537899
1453.000000	46.245412
1452.000000	46.034227
1451.000000	45.893525
1450.000000	45.840350
1449.000000	45.903223
1448.000000	46.104771
1447.000000	46.419654
1446.000000	46.791533
1445.000000	47.203573
1444.000000	47.686630
1443.000000	48.282179
1442.000000	49.019616
1441.000000	49.916291
1440.000000	50.981273
1439.000000	52.234138
1438.000000	53.715837
1437.000000	55.392264
1436.000000	57.020996
1435.000000	58.337101
1434.000000	59.334674
1433.000000	60.151600
1432.000000	60.869930
1431.000000	61.498508
1430.000000	62.039058
1429.000000	62.510445
1428.000000	62.925094
1427.000000	63.291573
1426.000000	63.631723
1425.000000	63.959579
1424.000000	64.258616
1423.000000	64.513012
1422.000000	64.740848
1421.000000	64.970471
1420.000000	65.208990
1419.000000	65.444499
1418.000000	65.666498
1417.000000	65.886312
1416.000000	66.113260
1415.000000	66.341073
1414.000000	66.566809
1413.000000	66.787568
1412.000000	66.992690
1411.000000	67.177982
1410.000000	67.356442
1409.000000	67.544161
1408.000000	67.743775
1407.000000	67.951671
1406.000000	68.168953
1405.000000	68.386825
1404.000000	68.573118
1403.000000	68.698460
1402.000000	68.745000
1401.000000	68.672674
1400.000000	68.413608
1399.000000	67.961528
1398.000000	67.451958
1397.000000	67.083940
1396.000000	66.985853
1395.000000	67.159220
1394.000000	67.480146
1393.000000	67.795442
1392.000000	68.054183
1391.000000	68.316505
1390.000000	68.674862
1389.000000	69.186443
1388.000000	69.840895
1387.000000	70.555678
1386.000000	71.218323
1385.000000	71.750412
1384.000000	72.126509
1383.000000	72.362730
1382.000000	72.507900
1381.000000	72.616773
1380.000000	72.714589
1379.000000	72.792352
1378.000000	72.822410
1377.000000	72.746069
1376.000000	72.414445
1375.000000	71.543435
1374.000000	69.756507
1373.000000	66.770659
1372.000000	62.608680
1371.000000	57.698963
1370.000000	52.884137
1369.000000	49.253103
1368.000000	47.641267
1367.000000	48.080425
1366.000000	49.826343
1365.000000	51.885249
1364.000000	53.403702
1363.000000	53.832837
1362.000000	53.117878
1361.000000	51.811489
1360.000000	50.808660
1359.000000	50.873701
1358.000000	52.294251
1357.000000	54.779060
1356.000000	57.684980
1355.000000	60.411510
1354.000000	62.657085
1353.000000	64.404889
1352.000000	65.757297
1351.000000	66.819282
1350.000000	67.677319
1349.000000	68.391725
1348.000000	68.994604
1347.000000	69.513826
1346.000000	69.985249
1345.000000	70.429439
1344.000000	70.841083
1343.000000	71.211486
1342.000000	71.551473
1341.000000	71.873575
1340.000000	72.168515
1339.000000	72.424260
1338.000000	72.653485
1337.000000	72.879248
1336.000000	73.104575
1335.000000	73.310569
1334.000000	73.466674
1333.000000	73.511442
1332.000000	73.335236
1331.000000	72.807528
1330.000000	71.833315
1329.000000	70.392470
1328.000000	68.509695
1327.000000	66.199921
1326.000000	63.469959
1325.000000	60.428668
1324.000000	57.448544
1323.000000	55.128638
1322.000000	53.949554
1321.000000	53.927729
1320.000000	54.642666
1319.000000	55.585388
1318.000000	56.478427
1317.000000	57.294856
1316.000000	58.084123
1315.000000	58.870226
1314.000000	59.669471
1313.000000	60.533287
1312.000000	61.532901
1311.000000	62.701768
1310.000000	63.990457
1309.000000	65.269206
1308.000000	66.380170
1307.000000	67.206499
1306.000000	67.707531
1305.000000	67.879772
1304.000000	67.711827
1303.000000	67.178683
1302.000000	66.261169
1301.000000	64.984961
1300.000000	63.470936
1299.000000	61.967742
1298.000000	60.779612
1297.000000	60.105054
1296.000000	59.923610
1295.000000	60.019628
1294.000000	60.096097
1293.000000	59.881544
1292.000000	59.193167
1291.000000	57.960692
1290.000000	56.197205
1289.000000	53.966145
1288.000000	51.423022
1287.000000	48.895380
1286.000000	46.842673
1285.000000	45.652277
1284.000000	45.450911
1283.000000	46.096791
1282.000000	47.350367
1281.000000	49.025405
1280.000000	50.987991
1279.000000	53.040896
1278.000000	54.874872
1277.000000	56.181923
1276.000000	56.811112
1275.000000	56.822472
1274.000000	56.430167
1273.000000	55.924280
1272.000000	55.617134
1271.000000	55.783999
1270.000000	56.565893
1269.000000	57.902082
1268.000000	59.570231
1267.000000	61.313382
1266.000000	62.946977
1265.000000	64.387114
1264.000000	65.621707
1263.000000	66.672613
1262.000000	67.571168
1261.000000	68.341250
1260.000000	68.994594
1259.000000	69.542460
1258.000000	70.011983
1257.000000	70.432566
1256.000000	70.820716
1255.000000	71.185458
1254.000000	71.535822
1253.000000	71.875535
1252.000000	72.194363
1251.000000	72.480223
1250.000000	72.734425
1249.000000	72.965539
1248.000000	73.178593
1247.000000	73.380300
1246.000000	73.585802
1245.000000	73.807219
1244.000000	74.039897
1243.000000	74.270013
1242.000000	74.487602
1241.000000	74.682648
1240.000000	74.839088
1239.000000	74.945548
1238.000000	75.008283
1237.000000	75.041067
1236.000000	75.049820
1235.000000	75.038113
1234.000000	75.015027
1233.000000	74.985904
1232.000000	74.940936
1231.000000	74.864451
1230.000000	74.750409
1229.000000	74.595430
1228.000000	74.387579
1227.000000	74.111070
1226.000000	73.750097
1225.000000	73.281035
1224.000000	72.656829
1223.000000	71.818196
1222.000000	70.711392
1221.000000	69.285278
1220.000000	67.507876
1219.000000	65.388687
1218.000000	62.993979
1217.000000	60.431746
1216.000000	57.831234
1215.000000	55.342022
1214.000000	53.127651
1213.000000	51.344710
1212.000000	50.115933
1211.000000	49.509809
1210.000000	49.491853
1209.000000	49.917880
1208.000000	50.576461
1207.000000	51.245032
1206.000000	51.740414
1205.000000	51.935684
1204.000000	51.765449
1203.000000	51.225358
1202.000000	50.372973
1201.000000	49.328154
1200.000000	48.276673
1199.000000	47.446434
1198.000000	47.041223
1197.000000	47.164031
1196.000000	47.802467
1195.000000	48.860282
1194.000000	50.208736
1193.000000	51.733843
1192.000000	53.348714
1191.000000	54.999286
1190.000000	56.647884
1189.000000	58.261431
1188.000000	59.808475
1187.000000	61.261698
1186.000000	62.601473
1185.000000	63.817871
1184.000000	64.910090
1183.000000	65.880832
1182.000000	66.737882
1181.000000	67.486896
1180.000000	68.132591
1179.000000	68.688689
1178.000000	69.173692
1177.000000	69.599647
1176.000000	69.959343
1175.000000	70.234661
1174.000000	70.410630
1173.000000	70.462849
1172.000000	70.351042
1171.000000	70.019839
1170.000000	69.406766
1169.000000	68.452973
1168.000000	67.110616
1167.000000	65.390207
1166.000000	63.398623
1165.000000	61.341641
1164.000000	59.487792
1163.000000	58.108069
1162.000000	57.389970
1161.000000	57.377451
1160.000000	57.980118
1159.000000	59.015952
1158.000000	60.284171
1157.000000	61.604443
1156.000000	62.840150
1155.000000	63.909951
1154.000000	64.779803
1153.000000	65.444537
1152.000000	65.906826
1151.000000	66.171801
1150.000000	66.239588
1149.000000	66.105805
1148.000000	65.745370
1147.000000	65.117490
1146.000000	64.175575
1145.000000	62.848606
1144.000000	61.055408
1143.000000	58.721819
1142.000000	55.826339
1141.000000	52.449784
1140.000000	48.795151
1139.000000	45.166172
1138.000000	41.855209
1137.000000	39.014902
1136.000000	36.611941
1135.000000	34.504469
1134.000000	32.568786
1133.000000	30.835822
1132.000000	29.555866
1131.000000	29.097938
1130.000000	29.784852
1129.000000	31.699669
1128.000000	34.634111
1127.000000	38.147594
1126.000000	41.677978
1125.000000	44.675719
1124.000000	46.698184
1123.000000	47.468009
1122.000000	46.896844
1121.000000	45.100720
1120.000000	42.319826
1119.000000	38.869839
1118.000000	35.141232
1117.000000	31.646973
1116.000000	29.015212
1115.000000	27.826413
1114.000000	28.350609
1113.000000	30.395945
1112.000000	33.383856
1111.000000	36.521336
1110.000000	39.073184
1109.000000	40.646690
1108.000000	41.356868
1107.000000	41.722169
1106.000000	42.307670
1105.000000	43.386825
1104.000000	44.841041
1103.000000	46.285247
1102.000000	47.222626
1101.000000	47.221545
1100.000000	46.098890
1099.000000	44.096573
1098.000000	41.892955
1097.000000	40.358939
1096.000000	40.162228
1095.000000	41.472257
1094.000000	43.937534
1093.000000	46.931593
1092.000000	49.897527
1091.000000	52.522408
1090.000000	54.727319
1089.000000	56.557722
1088.000000	58.087885
1087.000000	59.386031
1086.000000	60.511446
1085.000000	61.508827
1084.000000	62.401039
1083.000000	63.208334
1082.000000	63.949682
1081.000000	64.637500
1080.000000	65.270770
1079.000000	65.839046
1078.000000	66.333555
1077.000000	66.731866
1076.000000	66.988560
1075.000000	67.047583
1074.000000	66.839532
1073.000000	66.280828
1072.000000	65.240725
1071.000000	63.540347
1070.000000	60.978556
1069.000000	57.328082
1068.000000	52.440513
1067.000000	46.390779
1066.000000	39.629785
1065.000000	32.983704
1064.000000	27.430105
1063.000000	23.688325
1062.000000	21.829690
1061.000000	21.207963
1060.000000	20.817373
1059.000000	19.905365
1058.000000	18.366816
1057.000000	16.755761
1056.000000	15.909493
1055.000000	16.413772
1054.000000	18.328986
1053.000000	21.255657
1052.000000	24.638588
1051.000000	28.031667
1050.000000	31.170322
1049.000000	33.964814
1048.000000	36.439613
1047.000000	38.667950
1046.000000	40.704083
1045.000000	42.567342
1044.000000	44.254564
1043.000000	45.767085
1042.000000	47.116562
1041.000000	48.313973
1040.000000	49.375759
1039.000000	50.318877
1038.000000	51.155712
1037.000000	51.890503
1036.000000	52.519924
1035.000000	53.047369
1034.000000	53.480503
1033.000000	53.827085
1032.000000	54.098450
1031.000000	54.312849
1030.000000	54.495553
1029.000000	54.666433
1028.000000	54.833988
1027.000000	54.999197
1026.000000	55.154229
1025.000000	55.281036
1024.000000	55.353331
1023.000000	55.345074
1022.000000	55.238450
1021.000000	55.016132
1020.000000	54.660615
1019.000000	54.152587
1018.000000	53.461581
1017.000000	52.545225
1016.000000	51.348552
1015.000000	49.839164
1014.000000	48.044982
1013.000000	46.083205
1012.000000	44.162770
1011.000000	42.525463
1010.000000	41.328509
1009.000000	40.536603
1008.000000	39.937479
1007.000000	39.297431
1006.000000	38.582382
1005.000000	38.049627
1004.000000	38.113223
1003.000000	39.063174
1002.000000	40.836928
1001.000000	43.059767
1000.000000	45.258387
999.000000	47.063862
998.000000	48.284937
997.000000	48.881479
996.000000	48.927594
995.000000	48.596086
994.000000	48.144845
993.000000	47.866820
992.000000	48.012560
991.000000	48.698022
990.000000	49.856409
989.000000	51.282962
988.000000	52.757316
987.000000	54.131465
986.000000	55.347165
985.000000	56.400253
984.000000	57.305336
983.000000	58.080432
982.000000	58.742608
981.000000	59.303873
980.000000	59.774388
979.000000	60.176096
978.000000	60.537967
977.000000	60.886048
976.000000	61.236891
975.000000	61.600295
974.000000	61.980698
973.000000	62.370092
972.000000	62.749879
971.000000	63.103029
970.000000	63.421977
969.000000	63.705905
968.000000	63.956843
967.000000	64.182892
966.000000	64.397438
965.000000	64.608232
964.000000	64.813021
963.000000	65.005974
962.000000	65.184800
961.000000	65.348981
960.000000	65.498752
959.000000	65.642093
958.000000	65.796877
957.000000	65.980737
956.000000	66.200964
955.000000	66.455826
954.000000	66.737090
953.000000	67.026389
952.000000	67.295801
951.000000	67.521252
950.000000	67.694194
949.000000	67.819730
948.000000	67.910405
947.000000	67.986609
946.000000	68.074676
945.000000	68.193285
944.000000	68.344391
943.000000	68.518995
942.000000	68.706836
941.000000	68.896378
940.000000	69.075150
939.000000	69.239427
938.000000	69.400547
937.000000	69.574163
936.000000	69.765941
935.000000	69.971822
934.000000	70.183482
933.000000	70.385427
932.000000	70.552741
931.000000	70.665275
930.000000	70.722265
929.000000	70.740622
928.000000	70.744245
927.000000	70.761197
926.000000	70.821593
925.000000	70.943924
924.000000	71.123147
923.000000	71.337455
922.000000	71.563831
921.000000	71.781040
920.000000	71.968310
919.000000	72.114742
918.000000	72.229378
917.000000	72.331782
916.000000	72.435121
915.000000	72.543558
914.000000	72.657794
913.000000	72.771987
912.000000	72.867498
911.000000	72.924258
910.000000	72.933711
909.000000	72.889055
908.000000	72.768839
907.000000	72.532417
906.000000	72.133417
905.000000	71.518659
904.000000	70.635239
903.000000	69.486614
902.000000	68.208503
901.000000	67.079187
900.000000	66.415459
899.000000	66.408075
898.000000	67.012872
897.000000	67.998744
896.000000	69.089802
895.000000	70.094451
894.000000	70.945655
893.000000	71.647776
892.000000	72.223091
891.000000	72.690791
890.000000	73.072905
889.000000	73.388548
888.000000	73.650261
887.000000	73.858840
886.000000	73.993997
885.000000	73.999148
884.000000	73.793899
883.000000	73.346777
882.000000	72.727878
881.000000	72.067847
880.000000	71.444559
879.000000	70.822889
878.000000	70.132727
877.000000	69.405023
876.000000	68.829732
875.000000	68.651941
874.000000	69.002049
873.000000	69.798849
872.000000	70.810263
871.000000	71.799675
870.000000	72.630317
869.000000	73.273060
868.000000	73.753072
867.000000	74.113692
866.000000	74.400501
865.000000	74.649765
864.000000	74.875256
863.000000	75.076490
862.000000	75.251676
861.000000	75.397696
860.000000	75.508177
859.000000	75.582950
858.000000	75.639957
857.000000	75.706814
856.000000	75.803472
855.000000	75.939453
854.000000	76.118985
853.000000	76.335323
852.000000	76.563173
851.000000	76.768833
850.000000	76.929003
849.000000	77.034768
848.000000	77.086246
847.000000	77.096030
846.000000	77.092436
845.000000	77.106449
844.000000	77.154528
843.000000	77.239357
842.000000	77.358833
841.000000	77.503359
840.000000	77.651365
839.000000	77.782790
838.000000	77.896648
837.000000	78.005933
836.000000	78.120377
835.000000	78.244089
834.000000	78.383083
833.000000	78.538895
832.000000	78.696860
831.000000	78.832958
830.000000	78.932919
829.000000	78.995807
828.000000	79.025870
827.000000	79.035700
826.000000	79.053983
825.000000	79.113765
824.000000	79.231346
823.000000	79.404732
822.000000	79.624732
821.000000	79.873015
820.000000	80.115198
819.000000	80.315010
818.000000	80.456321
817.000000	80.542064
816.000000	80.578023
815.000000	80.572261
814.000000	80.543362
813.000000	80.508621
812.000000	80.465526
811.000000	80.393644
810.000000	80.272205
809.000000	80.083686
808.000000	79.803787
807.000000	79.409360
806.000000	78.889446
805.000000	78.233651
804.000000	77.412914
803.000000	76.374497
802.000000	75.061402
801.000000	73.414598
800.000000	71.375418
799.000000	68.917695
798.000000	66.073838
797.000000	62.939572
796.000000	59.647554
795.000000	56.351121
794.000000	53.210517
793.000000	50.374430
792.000000	47.964938
791.000000	46.073808
790.000000	44.767568
789.000000	44.072483
788.000000	43.970815
787.000000	44.392941
786.000000	45.231597
785.000000	46.364564
784.000000	47.660928
783.000000	48.992888
782.000000	50.240159
781.000000	51.298769
780.000000	52.083487
779.000000	52.543556
778.000000	52.681102
777.000000	52.547087
776.000000	52.209056
775.000000	51.721467
774.000000	51.134092
773.000000	50.516777
772.000000	49.980962
771.000000	49.670638
770.000000	49.728784
769.000000	50.242445
768.000000	51.205192
767.000000	52.523803
766.000000	54.066104
765.000000	55.713112
764.000000	57.375154
763.000000	58.994752
762.000000	60.544338
761.000000	62.015009
760.000000	63.394956
759.000000	64.665120
758.000000	65.816509
757.000000	66.857617
756.000000	67.804033
755.000000	68.672341
754.000000	69.488009
753.000000	70.278292
752.000000	71.050763
751.000000	71.790426
750.000000	72.477502
749.000000	73.096846
748.000000	73.630257
747.000000	74.062109
746.000000	74.400893
745.000000	74.680034
744.000000	74.933906
743.000000	75.184789
742.000000	75.450268
741.000000	75.740579
740.000000	76.041155
739.000000	76.316718
738.000000	76.539702
737.000000	76.701226
736.000000	76.795447
735.000000	76.815430
734.000000	76.771290
733.000000	76.691438
732.000000	76.598455
731.000000	76.499093
730.000000	76.398351
729.000000	76.299091
728.000000	76.185309
727.000000	76.025285
726.000000	75.794670
725.000000	75.487145
724.000000	75.097722
723.000000	74.603641
722.000000	73.953090
721.000000	73.060541
720.000000	71.826134
719.000000	70.199740
718.000000	68.243900
717.000000	66.134152
716.000000	64.105833
715.000000	62.395642
714.000000	61.202867
713.000000	60.647070
712.000000	60.729402
711.000000	61.340414
710.000000	62.326551
709.000000	63.547915
708.000000	64.883872
707.000000	66.233259
706.000000	67.536169
705.000000	68.780600
704.000000	69.968210
703.000000	71.090284
702.000000	72.145907
701.000000	73.150933
700.000000	74.104923
699.000000	74.979760
698.000000	75.752034
697.000000	76.424664
696.000000	77.005853
695.000000	77.492976
694.000000	77.902417
693.000000	78.280791
692.000000	78.660753
691.000000	79.037719
690.000000	79.400391
689.000000	79.754670
688.000000	80.095521
687.000000	80.389178
686.000000	80.619862
685.000000	80.814506
684.000000	80.994503
683.000000	81.147273
682.000000	81.272430
681.000000	81.405682
680.000000	81.562976
679.000000	81.711334
678.000000	81.828232
677.000000	81.918407
676.000000	81.987398
675.000000	82.027666
674.000000	82.058976
673.000000	82.174999
672.000000	82.526665
671.000000	83.236821
670.000000	84.288588
669.000000	85.362482
668.000000	85.714936
667.000000	85.015371
666.000000	84.003178
665.000000	83.250641
664.000000	82.834736
663.000000	82.670088
662.000000	82.653519
661.000000	82.707483
660.000000	82.787998
659.000000	82.884572
658.000000	82.998598
657.000000	83.099791
656.000000	83.154850
655.000000	83.170983
654.000000	83.164209
653.000000	83.124942
652.000000	83.055958
651.000000	82.996777
650.000000	82.973196
649.000000	82.954892
648.000000	82.903043
647.000000	82.821920
646.000000	82.727435
645.000000	82.610403
644.000000	82.460791
643.000000	82.295363
642.000000	82.139508
641.000000	81.997379
640.000000	81.868750
639.000000	81.771126
638.000000	81.709640
637.000000	81.648930
636.000000	81.547888
635.000000	81.397577
634.000000	81.206360
633.000000	80.975075
632.000000	80.710444
631.000000	80.444060
630.000000	80.207738
629.000000	80.002153
628.000000	79.812544
627.000000	79.634996
626.000000	79.457644
625.000000	79.248570
624.000000	78.983627
623.000000	78.670760
622.000000	78.333191
621.000000	77.985254
620.000000	77.636697
619.000000	77.289071
618.000000	76.909035
617.000000	76.432699
616.000000	75.828064
615.000000	75.125147
614.000000	74.360561
613.000000	73.530110
612.000000	72.621586
611.000000	71.658181
610.000000	70.666190
609.000000	69.625485
608.000000	68.493730
607.000000	67.252332
606.000000	65.886807
605.000000	64.361817
604.000000	62.658938
603.000000	60.815511
602.000000	58.879012
601.000000	56.860619
600.000000	54.775737
599.000000	52.686691
598.000000	50.644165
597.000000	48.632200
596.000000	46.635993
595.000000	44.705984
594.000000	42.895501
593.000000	41.189156
592.000000	39.575940
591.000000	38.117316
590.000000	36.861408
589.000000	35.759038
588.000000	34.735249
587.000000	33.771735
586.000000	32.839771
585.000000	31.840610
584.000000	30.704969
583.000000	29.487881
582.000000	28.292199
581.000000	27.181390
580.000000	26.234821
579.000000	25.604409
578.000000	25.399760
577.000000	25.597119
576.000000	26.116613
575.000000	26.885566
574.000000	27.780357
573.000000	28.611575
572.000000	29.270481
571.000000	29.831026
570.000000	30.459527
569.000000	31.275737
568.000000	32.328318
567.000000	33.605724
566.000000	34.995544
565.000000	36.315678
564.000000	37.453683
563.000000	38.426477
562.000000	39.285719
561.000000	40.039757
560.000000	40.702915
559.000000	41.337316
558.000000	41.988222
557.000000	42.638354
556.000000	43.268710
555.000000	43.910290
554.000000	44.584853
553.000000	45.259234
552.000000	45.905089
551.000000	46.548544
550.000000	47.216353
549.000000	47.884793
548.000000	48.528124
547.000000	49.164686
546.000000	49.812024
545.000000	50.443365
544.000000	51.034661
543.000000	51.607795
542.000000	52.188745
541.000000	52.762234
540.000000	53.307596
539.000000	53.839054
538.000000	54.372172
537.000000	54.887797
536.000000	55.362020
535.000000	55.805763
534.000000	56.235848
533.000000	56.644206
532.000000	57.017418
531.000000	57.359756
530.000000	57.670702
529.000000	57.921691
528.000000	58.075116
527.000000	58.115575
526.000000	58.027986
525.000000	57.773753
524.000000	57.328744
523.000000	56.723683
522.000000	56.036886
521.000000	55.352887
520.000000	54.730112
519.000000	54.155355
518.000000	53.471868
517.000000	52.408928
516.000000	50.752664
515.000000	48.516540
514.000000	45.937647
513.000000	43.361721
512.000000	41.152048
511.000000	39.627347
510.000000	38.956142
509.000000	39.112228
508.000000	39.984492
507.000000	41.436812
506.000000	43.269704
505.000000	45.251720
504.000000	47.234188
503.000000	49.176228
502.000000	51.024763
501.000000	52.681086
500.000000	54.100292
499.000000	55.340116
498.000000	56.476443
497.000000	57.542113
496.000000	58.552025
495.000000	59.529027
494.000000	60.486403
493.000000	61.402988
492.000000	62.246037
491.000000	63.003351
490.000000	63.672001
489.000000	64.255171
488.000000	64.773687
487.000000	65.267306
486.000000	65.766928
485.000000	66.271187
484.000000	66.763131
483.000000	67.232987
482.000000	67.675080
481.000000	68.078674
480.000000	68.441955
479.000000	68.783307
478.000000	69.106880
477.000000	69.382651
476.000000	69.571143
475.000000	69.625762
474.000000	69.451557
473.000000	68.895054
472.000000	67.856726
471.000000	66.439262
470.000000	64.898716
469.000000	63.504376
468.000000	62.491879
467.000000	61.989476
466.000000	61.852831
465.000000	61.676046
464.000000	61.060966
463.000000	59.884518
462.000000	58.406531
461.000000	57.134224
460.000000	56.600090
459.000000	57.180681
458.000000	58.873942
457.000000	61.162711
456.000000	63.383822
455.000000	65.241538
454.000000	66.741911
453.000000	67.908355
452.000000	68.728186
451.000000	69.252286
450.000000	69.548950
449.000000	69.604039
448.000000	69.343592
447.000000	68.723135
446.000000	67.772123
445.000000	66.593491
444.000000	65.408229
443.000000	64.549991
442.000000	64.279281
441.000000	64.585006
440.000000	65.278834
439.000000	66.180095
438.000000	67.141784
437.000000	68.022881
436.000000	68.724675
435.000000	69.239239
434.000000	69.601920
433.000000	69.826944
432.000000	69.924358
431.000000	69.942158
430.000000	69.938152
429.000000	69.923392
428.000000	69.887243
427.000000	69.845096
426.000000	69.804777
425.000000	69.713529
424.000000	69.512570
423.000000	69.237937
422.000000	68.966780
421.000000	68.694245
420.000000	68.366709
419.000000	68.038930
418.000000	67.860575
417.000000	67.832285
416.000000	67.857384
415.000000	67.921436
414.000000	68.044409
413.000000	68.194545
412.000000	68.341120
411.000000	68.513145
410.000000	68.734154
409.000000	68.934789
408.000000	69.045727
407.000000	69.115531
406.000000	69.225464
405.000000	69.355745
404.000000	69.450260
403.000000	69.542317
402.000000	69.690378
401.000000	69.871829
400.000000	70.037570
