PE IR       SUBTECH     SPECTRUM    ASCII       PEDS        4.00        
   -1
23ms111_cis.asc
24/10/22
15:30:31.00
24/10/22
15:30:31.00
Administrator
Sample 1331 By Administrator Date Tuesday, October 22 2024
400.000000
#HDR
-1
-1
#GR
cm-1
%T
1.0
0.0
4000.000000
-1.000000
3601
8
98.354853
19.915643
#DATA
4000.000000	84.995397
3999.000000	84.983803
3998.000000	84.975986
3997.000000	84.971312
3996.000000	84.968466
3995.000000	84.966311
3994.000000	84.964849
3993.000000	84.964725
3992.000000	84.966068
3991.000000	84.968162
3990.000000	84.970487
3989.000000	84.974053
3988.000000	84.980819
3987.000000	84.991837
3986.000000	85.007104
3985.000000	85.026616
3984.000000	85.050528
3983.000000	85.077991
3982.000000	85.107026
3981.000000	85.136299
3980.000000	85.166147
3979.000000	85.198288
3978.000000	85.234271
3977.000000	85.273683
3976.000000	85.314482
3975.000000	85.353993
3974.000000	85.390008
3973.000000	85.421962
3972.000000	85.450929
3971.000000	85.479011
3970.000000	85.507139
3969.000000	85.535077
3968.000000	85.563337
3967.000000	85.593311
3966.000000	85.626664
3965.000000	85.664482
3964.000000	85.706702
3963.000000	85.751780
3962.000000	85.797973
3961.000000	85.844040
3960.000000	85.889834
3959.000000	85.936497
3958.000000	85.983465
3957.000000	86.029568
3956.000000	86.075768
3955.000000	86.123870
3954.000000	86.174750
3953.000000	86.226098
3952.000000	86.274235
3951.000000	86.316354
3950.000000	86.351378
3949.000000	86.381996
3948.000000	86.413367
3947.000000	86.450526
3946.000000	86.495425
3945.000000	86.544471
3944.000000	86.588742
3943.000000	86.618381
3942.000000	86.634851
3941.000000	86.651594
3940.000000	86.678706
3939.000000	86.715981
3938.000000	86.754583
3937.000000	86.787485
3936.000000	86.818300
3935.000000	86.854381
3934.000000	86.898836
3933.000000	86.944942
3932.000000	86.985117
3931.000000	87.018271
3930.000000	87.045107
3929.000000	87.069913
3928.000000	87.096161
3927.000000	87.124623
3926.000000	87.150793
3925.000000	87.163803
3924.000000	87.162949
3923.000000	87.161993
3922.000000	87.169976
3921.000000	87.182487
3920.000000	87.191650
3919.000000	87.199706
3918.000000	87.214000
3917.000000	87.233516
3916.000000	87.252339
3915.000000	87.266980
3914.000000	87.280148
3913.000000	87.294640
3912.000000	87.308218
3911.000000	87.324194
3910.000000	87.347883
3909.000000	87.382202
3908.000000	87.429073
3907.000000	87.479629
3906.000000	87.519462
3905.000000	87.533921
3904.000000	87.526736
3903.000000	87.528435
3902.000000	87.562002
3901.000000	87.620149
3900.000000	87.675165
3899.000000	87.704936
3898.000000	87.717473
3897.000000	87.735162
3896.000000	87.766411
3895.000000	87.809877
3894.000000	87.858269
3893.000000	87.903777
3892.000000	87.936743
3891.000000	87.953318
3890.000000	87.965327
3889.000000	87.988438
3888.000000	88.036278
3887.000000	88.104911
3886.000000	88.166248
3885.000000	88.207096
3884.000000	88.247151
3883.000000	88.301857
3882.000000	88.351610
3881.000000	88.362386
3880.000000	88.332171
3879.000000	88.299114
3878.000000	88.297934
3877.000000	88.330550
3876.000000	88.375029
3875.000000	88.402476
3874.000000	88.400473
3873.000000	88.389918
3872.000000	88.406884
3871.000000	88.453317
3870.000000	88.491337
3869.000000	88.509785
3868.000000	88.535541
3867.000000	88.584390
3866.000000	88.640079
3865.000000	88.665082
3864.000000	88.652591
3863.000000	88.639660
3862.000000	88.647015
3861.000000	88.672121
3860.000000	88.712093
3859.000000	88.766894
3858.000000	88.842773
3857.000000	88.941216
3856.000000	89.057641
3855.000000	89.145516
3854.000000	89.149355
3853.000000	89.118902
3852.000000	89.141597
3851.000000	89.192398
3850.000000	89.203182
3849.000000	89.164997
3848.000000	89.106384
3847.000000	89.065913
3846.000000	89.061930
3845.000000	89.084443
3844.000000	89.119489
3843.000000	89.159194
3842.000000	89.200590
3841.000000	89.255206
3840.000000	89.319308
3839.000000	89.370014
3838.000000	89.405827
3837.000000	89.439320
3836.000000	89.473405
3835.000000	89.495230
3834.000000	89.498458
3833.000000	89.492725
3832.000000	89.484534
3831.000000	89.479573
3830.000000	89.491674
3829.000000	89.523864
3828.000000	89.561962
3827.000000	89.591655
3826.000000	89.606303
3825.000000	89.622010
3824.000000	89.665687
3823.000000	89.740533
3822.000000	89.810372
3821.000000	89.838825
3820.000000	89.847882
3819.000000	89.880140
3818.000000	89.942238
3817.000000	90.001176
3816.000000	90.018580
3815.000000	90.004988
3814.000000	90.006529
3813.000000	90.031259
3812.000000	90.046359
3811.000000	90.039812
3810.000000	90.036731
3809.000000	90.060983
3808.000000	90.106271
3807.000000	90.146391
3806.000000	90.176547
3805.000000	90.223106
3804.000000	90.295170
3803.000000	90.379137
3802.000000	90.433155
3801.000000	90.437722
3800.000000	90.437451
3799.000000	90.460758
3798.000000	90.484267
3797.000000	90.477107
3796.000000	90.441701
3795.000000	90.411581
3794.000000	90.414759
3793.000000	90.444483
3792.000000	90.474116
3791.000000	90.494810
3790.000000	90.516670
3789.000000	90.545153
3788.000000	90.576499
3787.000000	90.605991
3786.000000	90.631885
3785.000000	90.652434
3784.000000	90.666022
3783.000000	90.680616
3782.000000	90.707265
3781.000000	90.741412
3780.000000	90.764005
3779.000000	90.770748
3778.000000	90.779998
3777.000000	90.806367
3776.000000	90.842393
3775.000000	90.872397
3774.000000	90.893491
3773.000000	90.915550
3772.000000	90.948287
3771.000000	90.988041
3770.000000	91.022197
3769.000000	91.052764
3768.000000	91.092374
3767.000000	91.141532
3766.000000	91.189766
3765.000000	91.222056
3764.000000	91.239960
3763.000000	91.265801
3762.000000	91.313065
3761.000000	91.369037
3760.000000	91.405767
3759.000000	91.427616
3758.000000	91.461678
3757.000000	91.508903
3756.000000	91.559016
3755.000000	91.613158
3754.000000	91.682036
3753.000000	91.760820
3752.000000	91.825489
3751.000000	91.881835
3750.000000	91.958141
3749.000000	92.046863
3748.000000	92.116206
3747.000000	92.169213
3746.000000	92.231323
3745.000000	92.277462
3744.000000	92.279678
3743.000000	92.284377
3742.000000	92.309403
3741.000000	92.317612
3740.000000	92.291288
3739.000000	92.261086
3738.000000	92.280065
3737.000000	92.354931
3736.000000	92.443914
3735.000000	92.499669
3734.000000	92.522035
3733.000000	92.541921
3732.000000	92.563283
3731.000000	92.574865
3730.000000	92.574343
3729.000000	92.574099
3728.000000	92.589194
3727.000000	92.611134
3726.000000	92.625532
3725.000000	92.637457
3724.000000	92.658307
3723.000000	92.679162
3722.000000	92.683568
3721.000000	92.683699
3720.000000	92.697777
3719.000000	92.731810
3718.000000	92.780370
3717.000000	92.827871
3716.000000	92.872925
3715.000000	92.923625
3714.000000	92.985427
3713.000000	93.051834
3712.000000	93.107146
3711.000000	93.151803
3710.000000	93.195930
3709.000000	93.244389
3708.000000	93.291200
3707.000000	93.327618
3706.000000	93.355513
3705.000000	93.385242
3704.000000	93.421654
3703.000000	93.455396
3702.000000	93.475905
3701.000000	93.490530
3700.000000	93.512573
3699.000000	93.542594
3698.000000	93.578157
3697.000000	93.612542
3696.000000	93.640637
3695.000000	93.668672
3694.000000	93.706363
3693.000000	93.755679
3692.000000	93.805401
3691.000000	93.843189
3690.000000	93.867465
3689.000000	93.897133
3688.000000	93.949779
3687.000000	94.009426
3686.000000	94.044955
3685.000000	94.048118
3684.000000	94.028851
3683.000000	94.005583
3682.000000	94.002730
3681.000000	94.026902
3680.000000	94.065540
3679.000000	94.099732
3678.000000	94.141475
3677.000000	94.214289
3676.000000	94.289981
3675.000000	94.337809
3674.000000	94.372751
3673.000000	94.410284
3672.000000	94.451971
3671.000000	94.485362
3670.000000	94.483217
3669.000000	94.458083
3668.000000	94.451638
3667.000000	94.461695
3666.000000	94.459452
3665.000000	94.442019
3664.000000	94.423936
3663.000000	94.419887
3662.000000	94.430181
3661.000000	94.439768
3660.000000	94.447189
3659.000000	94.462401
3658.000000	94.492518
3657.000000	94.528991
3656.000000	94.559068
3655.000000	94.587795
3654.000000	94.617599
3653.000000	94.645079
3652.000000	94.673373
3651.000000	94.698538
3650.000000	94.713050
3649.000000	94.732622
3648.000000	94.777557
3647.000000	94.829843
3646.000000	94.853961
3645.000000	94.844512
3644.000000	94.821726
3643.000000	94.804925
3642.000000	94.794060
3641.000000	94.782592
3640.000000	94.776136
3639.000000	94.778927
3638.000000	94.785193
3637.000000	94.788254
3636.000000	94.794126
3635.000000	94.808319
3634.000000	94.817287
3633.000000	94.808455
3632.000000	94.791532
3631.000000	94.790742
3630.000000	94.802222
3629.000000	94.794328
3628.000000	94.772515
3627.000000	94.764223
3626.000000	94.749242
3625.000000	94.697946
3624.000000	94.617650
3623.000000	94.534541
3622.000000	94.469455
3621.000000	94.420226
3620.000000	94.359940
3619.000000	94.270838
3618.000000	94.169703
3617.000000	94.076998
3616.000000	93.994204
3615.000000	93.908913
3614.000000	93.803557
3613.000000	93.674037
3612.000000	93.538802
3611.000000	93.419910
3610.000000	93.322521
3609.000000	93.236802
3608.000000	93.145235
3607.000000	93.039652
3606.000000	92.922896
3605.000000	92.799174
3604.000000	92.674207
3603.000000	92.548744
3602.000000	92.423226
3601.000000	92.302396
3600.000000	92.190255
3599.000000	92.085825
3598.000000	91.987819
3597.000000	91.892000
3596.000000	91.796893
3595.000000	91.698830
3594.000000	91.590514
3593.000000	91.474101
3592.000000	91.355785
3591.000000	91.242837
3590.000000	91.146831
3589.000000	91.076625
3588.000000	91.023526
3587.000000	90.971768
3586.000000	90.916418
3585.000000	90.858833
3584.000000	90.795576
3583.000000	90.720535
3582.000000	90.635091
3581.000000	90.545946
3580.000000	90.458212
3579.000000	90.368904
3578.000000	90.273630
3577.000000	90.173836
3576.000000	90.073662
3575.000000	89.976047
3574.000000	89.879301
3573.000000	89.780616
3572.000000	89.677505
3571.000000	89.567328
3570.000000	89.454138
3569.000000	89.347865
3568.000000	89.248960
3567.000000	89.144433
3566.000000	89.025374
3565.000000	88.892836
3564.000000	88.749317
3563.000000	88.596402
3562.000000	88.436222
3561.000000	88.272170
3560.000000	88.106346
3559.000000	87.937671
3558.000000	87.764852
3557.000000	87.590161
3556.000000	87.416558
3555.000000	87.243078
3554.000000	87.064984
3553.000000	86.877466
3552.000000	86.680091
3551.000000	86.474291
3550.000000	86.260194
3549.000000	86.039473
3548.000000	85.815521
3547.000000	85.590381
3546.000000	85.362343
3545.000000	85.128710
3544.000000	84.887597
3543.000000	84.636718
3542.000000	84.373069
3541.000000	84.096538
3540.000000	83.809541
3539.000000	83.512400
3538.000000	83.203594
3537.000000	82.882704
3536.000000	82.552622
3535.000000	82.214311
3534.000000	81.865279
3533.000000	81.503243
3532.000000	81.126996
3531.000000	80.733801
3530.000000	80.317906
3529.000000	79.876390
3528.000000	79.412457
3527.000000	78.931541
3526.000000	78.436704
3525.000000	77.928641
3524.000000	77.406066
3523.000000	76.865306
3522.000000	76.302546
3521.000000	75.717391
3520.000000	75.111762
3519.000000	74.484516
3518.000000	73.832573
3517.000000	73.156995
3516.000000	72.463829
3515.000000	71.757226
3514.000000	71.036688
3513.000000	70.301334
3512.000000	69.550242
3511.000000	68.778334
3510.000000	67.979758
3509.000000	67.157358
3508.000000	66.320952
3507.000000	65.474518
3506.000000	64.611332
3505.000000	63.724357
3504.000000	62.816199
3503.000000	61.896192
3502.000000	60.971731
3501.000000	60.045075
3500.000000	59.114108
3499.000000	58.173395
3498.000000	57.218702
3497.000000	56.252819
3496.000000	55.284397
3495.000000	54.319744
3494.000000	53.360160
3493.000000	52.407560
3492.000000	51.465825
3491.000000	50.535164
3490.000000	49.612196
3489.000000	48.698559
3488.000000	47.803757
3487.000000	46.937171
3486.000000	46.101635
3485.000000	45.294785
3484.000000	44.510931
3483.000000	43.742053
3482.000000	42.984351
3481.000000	42.245194
3480.000000	41.536564
3479.000000	40.859862
3478.000000	40.203708
3477.000000	39.556892
3476.000000	38.916109
3475.000000	38.281726
3474.000000	37.653920
3473.000000	37.035483
3472.000000	36.432904
3471.000000	35.853204
3470.000000	35.306238
3469.000000	34.809087
3468.000000	34.380574
3467.000000	34.029898
3466.000000	33.755437
3465.000000	33.554825
3464.000000	33.428617
3463.000000	33.376456
3462.000000	33.398964
3461.000000	33.501681
3460.000000	33.689991
3459.000000	33.958132
3458.000000	34.289285
3457.000000	34.666938
3456.000000	35.078247
3455.000000	35.508050
3454.000000	35.938384
3453.000000	36.353126
3452.000000	36.737666
3451.000000	37.074727
3450.000000	37.345325
3449.000000	37.536146
3448.000000	37.641107
3447.000000	37.656670
3446.000000	37.583270
3445.000000	37.427334
3444.000000	37.198150
3443.000000	36.904619
3442.000000	36.556968
3441.000000	36.171872
3440.000000	35.768871
3439.000000	35.363675
3438.000000	34.971411
3437.000000	34.612437
3436.000000	34.307961
3435.000000	34.069276
3434.000000	33.896200
3433.000000	33.785306
3432.000000	33.737453
3431.000000	33.757526
3430.000000	33.853445
3429.000000	34.035722
3428.000000	34.310251
3427.000000	34.675722
3426.000000	35.128058
3425.000000	35.666873
3424.000000	36.295392
3423.000000	37.012175
3422.000000	37.812022
3421.000000	38.689263
3420.000000	39.635577
3419.000000	40.637883
3418.000000	41.679783
3417.000000	42.747912
3416.000000	43.832376
3415.000000	44.923814
3414.000000	46.015413
3413.000000	47.103844
3412.000000	48.184771
3411.000000	49.249331
3410.000000	50.288381
3409.000000	51.298249
3408.000000	52.278179
3407.000000	53.223284
3406.000000	54.125354
3405.000000	54.979632
3404.000000	55.787226
3403.000000	56.553855
3402.000000	57.289402
3401.000000	58.006009
3400.000000	58.710805
3399.000000	59.399031
3398.000000	60.059197
3397.000000	60.684567
3396.000000	61.275886
3395.000000	61.836923
3394.000000	62.372290
3393.000000	62.890005
3392.000000	63.399541
3391.000000	63.904666
3390.000000	64.402796
3389.000000	64.890367
3388.000000	65.366278
3387.000000	65.830391
3386.000000	66.282536
3385.000000	66.724205
3384.000000	67.157732
3383.000000	67.584013
3382.000000	68.003638
3381.000000	68.419169
3380.000000	68.833398
3379.000000	69.245987
3378.000000	69.655028
3377.000000	70.061097
3376.000000	70.465619
3375.000000	70.866415
3374.000000	71.258733
3373.000000	71.640803
3372.000000	72.015387
3371.000000	72.386254
3370.000000	72.756581
3369.000000	73.129486
3368.000000	73.506179
3367.000000	73.883594
3366.000000	74.256743
3365.000000	74.623149
3364.000000	74.982681
3363.000000	75.334778
3362.000000	75.679247
3361.000000	76.018502
3360.000000	76.355682
3359.000000	76.690775
3358.000000	77.021420
3357.000000	77.346701
3356.000000	77.666573
3355.000000	77.979212
3354.000000	78.282555
3353.000000	78.578312
3352.000000	78.871284
3351.000000	79.164178
3350.000000	79.455548
3349.000000	79.742418
3348.000000	80.022259
3347.000000	80.293016
3346.000000	80.554381
3345.000000	80.808972
3344.000000	81.059716
3343.000000	81.305778
3342.000000	81.543668
3341.000000	81.772147
3340.000000	81.993562
3339.000000	82.210560
3338.000000	82.423393
3337.000000	82.630738
3336.000000	82.830427
3335.000000	83.019486
3334.000000	83.195690
3333.000000	83.358542
3332.000000	83.507781
3331.000000	83.640759
3330.000000	83.753375
3329.000000	83.843818
3328.000000	83.912791
3327.000000	83.961201
3326.000000	83.988543
3325.000000	83.992678
3324.000000	83.970222
3323.000000	83.915766
3322.000000	83.824218
3321.000000	83.692725
3320.000000	83.518529
3319.000000	83.297666
3318.000000	83.025136
3317.000000	82.697620
3316.000000	82.311834
3315.000000	81.860225
3314.000000	81.333540
3313.000000	80.722860
3312.000000	80.019691
3311.000000	79.214526
3310.000000	78.295918
3309.000000	77.257352
3308.000000	76.095069
3307.000000	74.804642
3306.000000	73.381314
3305.000000	71.817757
3304.000000	70.106932
3303.000000	68.238771
3302.000000	66.204943
3301.000000	64.006975
3300.000000	61.653887
3299.000000	59.163970
3298.000000	56.569190
3297.000000	53.919352
3296.000000	51.276430
3295.000000	48.701749
3294.000000	46.251641
3293.000000	43.978820
3292.000000	41.923229
3291.000000	40.095988
3290.000000	38.481926
3289.000000	37.048782
3288.000000	35.756776
3287.000000	34.564943
3286.000000	33.436058
3285.000000	32.349052
3284.000000	31.296357
3283.000000	30.279743
3282.000000	29.314346
3281.000000	28.428643
3280.000000	27.659280
3279.000000	27.039049
3278.000000	26.595623
3277.000000	26.356167
3276.000000	26.336946
3275.000000	26.535401
3274.000000	26.930085
3273.000000	27.484924
3272.000000	28.152164
3271.000000	28.868700
3270.000000	29.564041
3269.000000	30.172073
3268.000000	30.635413
3267.000000	30.908448
3266.000000	30.967147
3265.000000	30.814158
3264.000000	30.473572
3263.000000	29.984488
3262.000000	29.396305
3261.000000	28.769544
3260.000000	28.165778
3259.000000	27.635791
3258.000000	27.220200
3257.000000	26.952592
3256.000000	26.853402
3255.000000	26.924067
3254.000000	27.151274
3253.000000	27.511700
3252.000000	27.975429
3251.000000	28.503944
3250.000000	29.057616
3249.000000	29.605432
3248.000000	30.121897
3247.000000	30.583639
3246.000000	30.971716
3245.000000	31.276096
3244.000000	31.493823
3243.000000	31.627105
3242.000000	31.684260
3241.000000	31.681191
3240.000000	31.635484
3239.000000	31.558505
3238.000000	31.459256
3237.000000	31.347535
3236.000000	31.232127
3235.000000	31.119505
3234.000000	31.015843
3233.000000	30.926813
3232.000000	30.848725
3231.000000	30.765358
3230.000000	30.658694
3229.000000	30.518433
3228.000000	30.339376
3227.000000	30.114890
3226.000000	29.839693
3225.000000	29.515270
3224.000000	29.145622
3223.000000	28.733487
3222.000000	28.284192
3221.000000	27.809916
3220.000000	27.325262
3219.000000	26.840152
3218.000000	26.362022
3217.000000	25.898783
3216.000000	25.454476
3215.000000	25.026185
3214.000000	24.609747
3213.000000	24.204319
3212.000000	23.807448
3211.000000	23.411827
3210.000000	23.012370
3209.000000	22.612906
3208.000000	22.220600
3207.000000	21.839147
3206.000000	21.472750
3205.000000	21.130358
3204.000000	20.821407
3203.000000	20.550482
3202.000000	20.321086
3201.000000	20.140369
3200.000000	20.013108
3199.000000	19.938488
3198.000000	19.915643
3197.000000	19.947806
3196.000000	20.037554
3195.000000	20.180115
3194.000000	20.370199
3193.000000	20.607160
3192.000000	20.889075
3191.000000	21.209568
3190.000000	21.561763
3189.000000	21.943468
3188.000000	22.352303
3187.000000	22.780670
3186.000000	23.222125
3185.000000	23.675596
3184.000000	24.140480
3183.000000	24.612019
3182.000000	25.085929
3181.000000	25.562907
3180.000000	26.042935
3179.000000	26.520770
3178.000000	26.991045
3177.000000	27.453110
3176.000000	27.906651
3175.000000	28.347677
3174.000000	28.773177
3173.000000	29.184851
3172.000000	29.584572
3171.000000	29.969986
3170.000000	30.339268
3169.000000	30.695023
3168.000000	31.039130
3167.000000	31.369260
3166.000000	31.682996
3165.000000	31.981504
3164.000000	32.264941
3163.000000	32.528800
3162.000000	32.769900
3161.000000	32.989866
3160.000000	33.190149
3159.000000	33.368241
3158.000000	33.522131
3157.000000	33.655377
3156.000000	33.772963
3155.000000	33.877776
3154.000000	33.974830
3153.000000	34.073329
3152.000000	34.180657
3151.000000	34.297544
3150.000000	34.422880
3149.000000	34.558633
3148.000000	34.706362
3147.000000	34.863659
3146.000000	35.028238
3145.000000	35.201138
3144.000000	35.382150
3143.000000	35.566909
3142.000000	35.751819
3141.000000	35.937599
3140.000000	36.124115
3139.000000	36.306212
3138.000000	36.478232
3137.000000	36.638304
3136.000000	36.784202
3135.000000	36.909025
3134.000000	37.005497
3133.000000	37.068723
3132.000000	37.092411
3131.000000	37.066019
3130.000000	36.979125
3129.000000	36.827219
3128.000000	36.608200
3127.000000	36.321366
3126.000000	35.973041
3125.000000	35.578396
3124.000000	35.156126
3123.000000	34.722168
3122.000000	34.291880
3121.000000	33.880940
3120.000000	33.498803
3119.000000	33.145626
3118.000000	32.818694
3117.000000	32.517742
3116.000000	32.240702
3115.000000	31.980533
3114.000000	31.729967
3113.000000	31.485710
3112.000000	31.245040
3111.000000	31.004062
3110.000000	30.764045
3109.000000	30.533181
3108.000000	30.319042
3107.000000	30.124171
3106.000000	29.951413
3105.000000	29.809229
3104.000000	29.706113
3103.000000	29.646621
3102.000000	29.636704
3101.000000	29.685617
3100.000000	29.801032
3099.000000	29.983561
3098.000000	30.231423
3097.000000	30.545519
3096.000000	30.923860
3095.000000	31.360057
3094.000000	31.847711
3093.000000	32.383565
3092.000000	32.963855
3091.000000	33.580224
3090.000000	34.224976
3089.000000	34.892776
3088.000000	35.575964
3087.000000	36.264378
3086.000000	36.951480
3085.000000	37.637051
3084.000000	38.319893
3083.000000	38.993833
3082.000000	39.653834
3081.000000	40.300704
3080.000000	40.936801
3079.000000	41.561504
3078.000000	42.173855
3077.000000	42.773912
3076.000000	43.359315
3075.000000	43.924630
3074.000000	44.467407
3073.000000	44.990855
3072.000000	45.497375
3071.000000	45.985399
3070.000000	46.454373
3069.000000	46.908534
3068.000000	47.352599
3067.000000	47.786616
3066.000000	48.208874
3065.000000	48.619575
3064.000000	49.019082
3063.000000	49.406484
3062.000000	49.781878
3061.000000	50.147790
3060.000000	50.505699
3059.000000	50.854267
3058.000000	51.193324
3057.000000	51.525449
3056.000000	51.852293
3055.000000	52.172382
3054.000000	52.484792
3053.000000	52.792015
3052.000000	53.096478
3051.000000	53.397749
3050.000000	53.694598
3049.000000	53.986708
3048.000000	54.273010
3047.000000	54.551360
3046.000000	54.822164
3045.000000	55.089171
3044.000000	55.354924
3043.000000	55.618945
3042.000000	55.881230
3041.000000	56.143672
3040.000000	56.405855
3039.000000	56.663231
3038.000000	56.912552
3037.000000	57.155809
3036.000000	57.397096
3035.000000	57.638484
3034.000000	57.880520
3033.000000	58.123562
3032.000000	58.366225
3031.000000	58.605781
3030.000000	58.841905
3029.000000	59.076652
3028.000000	59.309672
3027.000000	59.537432
3026.000000	59.758774
3025.000000	59.977098
3024.000000	60.194269
3023.000000	60.406396
3022.000000	60.607905
3021.000000	60.796074
3020.000000	60.969296
3019.000000	61.123167
3018.000000	61.251691
3017.000000	61.349924
3016.000000	61.414106
3015.000000	61.443457
3014.000000	61.444980
3013.000000	61.436012
3012.000000	61.439267
3011.000000	61.475953
3010.000000	61.562066
3009.000000	61.705243
3008.000000	61.900858
3007.000000	62.132397
3006.000000	62.377441
3005.000000	62.612362
3004.000000	62.811490
3003.000000	62.945840
3002.000000	62.986281
3001.000000	62.907401
3000.000000	62.693907
2999.000000	62.352323
2998.000000	61.925427
2997.000000	61.493662
2996.000000	61.155256
2995.000000	60.995553
2994.000000	61.059582
2993.000000	61.339233
2992.000000	61.776766
2991.000000	62.289951
2990.000000	62.804914
2989.000000	63.276188
2988.000000	63.686193
2987.000000	64.034037
2986.000000	64.327550
2985.000000	64.576615
2984.000000	64.787512
2983.000000	64.960725
2982.000000	65.095268
2981.000000	65.190736
2980.000000	65.244320
2979.000000	65.249073
2978.000000	65.198000
2977.000000	65.090857
2976.000000	64.936107
2975.000000	64.752172
2974.000000	64.567277
2973.000000	64.413228
2972.000000	64.313441
2971.000000	64.273051
2970.000000	64.277270
2969.000000	64.292667
2968.000000	64.269476
2967.000000	64.154017
2966.000000	63.912176
2965.000000	63.548390
2964.000000	63.104587
2963.000000	62.642655
2962.000000	62.224868
2961.000000	61.898639
2960.000000	61.689566
2959.000000	61.603790
2958.000000	61.638123
2957.000000	61.784251
2956.000000	62.024972
2955.000000	62.333170
2954.000000	62.677316
2953.000000	63.026195
2952.000000	63.346479
2951.000000	63.605974
2950.000000	63.785226
2949.000000	63.887776
2948.000000	63.935631
2947.000000	63.952032
2946.000000	63.941425
2945.000000	63.871819
2944.000000	63.675060
2943.000000	63.279862
2942.000000	62.674127
2941.000000	61.952359
2940.000000	61.305372
2939.000000	60.946091
2938.000000	61.012259
2937.000000	61.507710
2936.000000	62.312045
2935.000000	63.250400
2934.000000	64.171755
2933.000000	64.990423
2932.000000	65.681228
2931.000000	66.255880
2930.000000	66.742420
2929.000000	67.169285
2928.000000	67.556580
2927.000000	67.914303
2926.000000	68.248317
2925.000000	68.563055
2924.000000	68.858876
2923.000000	69.131630
2922.000000	69.377557
2921.000000	69.596029
2920.000000	69.786116
2919.000000	69.945444
2918.000000	70.073489
2917.000000	70.173447
2916.000000	70.249382
2915.000000	70.304283
2914.000000	70.342231
2913.000000	70.368735
2912.000000	70.387354
2911.000000	70.398306
2910.000000	70.400970
2909.000000	70.394523
2908.000000	70.374518
2907.000000	70.330888
2906.000000	70.250684
2905.000000	70.120224
2904.000000	69.923107
2903.000000	69.642805
2902.000000	69.270180
2901.000000	68.810287
2900.000000	68.286761
2899.000000	67.742530
2898.000000	67.236847
2897.000000	66.833693
2896.000000	66.581791
2895.000000	66.500605
2894.000000	66.581301
2893.000000	66.794358
2892.000000	67.098537
2891.000000	67.450451
2890.000000	67.815465
2889.000000	68.171470
2888.000000	68.505391
2887.000000	68.809475
2886.000000	69.080763
2885.000000	69.320503
2884.000000	69.530033
2883.000000	69.710055
2882.000000	69.863658
2881.000000	69.996924
2880.000000	70.115349
2879.000000	70.222160
2878.000000	70.320890
2877.000000	70.416240
2876.000000	70.510962
2875.000000	70.604211
2874.000000	70.694514
2873.000000	70.781808
2872.000000	70.866231
2871.000000	70.948624
2870.000000	71.033532
2869.000000	71.128760
2868.000000	71.239850
2867.000000	71.366769
2866.000000	71.506396
2865.000000	71.654794
2864.000000	71.806056
2863.000000	71.953031
2862.000000	72.091715
2861.000000	72.222935
2860.000000	72.348617
2859.000000	72.469043
2858.000000	72.585080
2857.000000	72.700138
2856.000000	72.817995
2855.000000	72.940670
2854.000000	73.068909
2853.000000	73.201431
2852.000000	73.331947
2851.000000	73.449631
2850.000000	73.544976
2849.000000	73.614451
2848.000000	73.659999
2847.000000	73.687306
2846.000000	73.705454
2845.000000	73.724668
2844.000000	73.751816
2843.000000	73.788895
2842.000000	73.836140
2841.000000	73.894511
2840.000000	73.964183
2839.000000	74.043241
2838.000000	74.129120
2837.000000	74.219585
2836.000000	74.312072
2835.000000	74.404545
2834.000000	74.497656
2833.000000	74.593891
2832.000000	74.693904
2831.000000	74.795692
2830.000000	74.897688
2829.000000	74.999978
2828.000000	75.101801
2827.000000	75.200557
2826.000000	75.294377
2825.000000	75.383544
2824.000000	75.468685
2823.000000	75.549835
2822.000000	75.628211
2821.000000	75.706557
2820.000000	75.786376
2819.000000	75.866465
2818.000000	75.944765
2817.000000	76.019885
2816.000000	76.090353
2815.000000	76.154553
2814.000000	76.212390
2813.000000	76.265493
2812.000000	76.315396
2811.000000	76.363233
2810.000000	76.411085
2809.000000	76.461177
2808.000000	76.513199
2807.000000	76.564518
2806.000000	76.613498
2805.000000	76.660547
2804.000000	76.705731
2803.000000	76.747996
2802.000000	76.787427
2801.000000	76.826037
2800.000000	76.865674
2799.000000	76.907052
2798.000000	76.950974
2797.000000	76.997907
2796.000000	77.045827
2795.000000	77.090963
2794.000000	77.131447
2793.000000	77.168193
2792.000000	77.202055
2791.000000	77.232815
2790.000000	77.261489
2789.000000	77.290757
2788.000000	77.321874
2787.000000	77.353344
2786.000000	77.383513
2785.000000	77.412504
2784.000000	77.441023
2783.000000	77.469773
2782.000000	77.500836
2781.000000	77.537195
2780.000000	77.579915
2779.000000	77.627713
2778.000000	77.679796
2777.000000	77.736878
2776.000000	77.798665
2775.000000	77.862727
2774.000000	77.926713
2773.000000	77.989431
2772.000000	78.049206
2771.000000	78.103744
2770.000000	78.152708
2769.000000	78.198363
2768.000000	78.242728
2767.000000	78.285874
2766.000000	78.327649
2765.000000	78.368633
2764.000000	78.408356
2763.000000	78.444792
2762.000000	78.476714
2761.000000	78.504874
2760.000000	78.530115
2759.000000	78.552180
2758.000000	78.571288
2757.000000	78.588824
2756.000000	78.605497
2755.000000	78.620547
2754.000000	78.633618
2753.000000	78.646028
2752.000000	78.659708
2751.000000	78.676429
2750.000000	78.698292
2749.000000	78.726620
2748.000000	78.759413
2747.000000	78.791704
2746.000000	78.819357
2745.000000	78.841470
2744.000000	78.859294
2743.000000	78.874894
2742.000000	78.890865
2741.000000	78.908725
2740.000000	78.926600
2739.000000	78.940466
2738.000000	78.948833
2737.000000	78.955292
2736.000000	78.966526
2735.000000	78.989547
2734.000000	79.030277
2733.000000	79.090988
2732.000000	79.167617
2731.000000	79.251356
2730.000000	79.333903
2729.000000	79.410710
2728.000000	79.479870
2727.000000	79.540842
2726.000000	79.595049
2725.000000	79.645156
2724.000000	79.692334
2723.000000	79.735539
2722.000000	79.773473
2721.000000	79.805288
2720.000000	79.829636
2719.000000	79.845321
2718.000000	79.853901
2717.000000	79.859965
2716.000000	79.868058
2715.000000	79.880931
2714.000000	79.900546
2713.000000	79.928204
2712.000000	79.962987
2711.000000	80.002022
2710.000000	80.042819
2709.000000	80.083808
2708.000000	80.122737
2707.000000	80.157061
2706.000000	80.186509
2705.000000	80.213063
2704.000000	80.237680
2703.000000	80.258917
2702.000000	80.275048
2701.000000	80.285058
2700.000000	80.287395
2699.000000	80.280111
2698.000000	80.263369
2697.000000	80.240413
2696.000000	80.215265
2695.000000	80.191289
2694.000000	80.171905
2693.000000	80.159957
2692.000000	80.155378
2691.000000	80.155246
2690.000000	80.156835
2689.000000	80.159149
2688.000000	80.161570
2687.000000	80.163387
2686.000000	80.165399
2685.000000	80.169809
2684.000000	80.177870
2683.000000	80.189663
2682.000000	80.206242
2681.000000	80.229839
2680.000000	80.261149
2679.000000	80.298211
2678.000000	80.338403
2677.000000	80.379241
2676.000000	80.417152
2675.000000	80.448139
2674.000000	80.470661
2673.000000	80.486114
2672.000000	80.496176
2671.000000	80.501790
2670.000000	80.505225
2669.000000	80.510794
2668.000000	80.522348
2667.000000	80.541653
2666.000000	80.569436
2665.000000	80.605615
2664.000000	80.647623
2663.000000	80.690681
2662.000000	80.730606
2661.000000	80.764952
2660.000000	80.791461
2659.000000	80.807836
2658.000000	80.813848
2657.000000	80.812002
2656.000000	80.805425
2655.000000	80.796703
2654.000000	80.789261
2653.000000	80.787587
2652.000000	80.795204
2651.000000	80.813820
2650.000000	80.844429
2649.000000	80.886878
2648.000000	80.938076
2647.000000	80.992624
2646.000000	81.046026
2645.000000	81.096136
2644.000000	81.141529
2643.000000	81.181144
2642.000000	81.216155
2641.000000	81.249968
2640.000000	81.285399
2639.000000	81.323148
2638.000000	81.363090
2637.000000	81.405043
2636.000000	81.447806
2635.000000	81.489205
2634.000000	81.527722
2633.000000	81.562519
2632.000000	81.591906
2631.000000	81.613926
2630.000000	81.628632
2629.000000	81.638165
2628.000000	81.644248
2627.000000	81.647462
2626.000000	81.649242
2625.000000	81.651937
2624.000000	81.656516
2623.000000	81.662056
2622.000000	81.667921
2621.000000	81.674523
2620.000000	81.681112
2619.000000	81.684858
2618.000000	81.682772
2617.000000	81.673129
2616.000000	81.655091
2615.000000	81.628673
2614.000000	81.595768
2613.000000	81.559489
2612.000000	81.521994
2611.000000	81.484633
2610.000000	81.449917
2609.000000	81.421287
2608.000000	81.400674
2607.000000	81.388338
2606.000000	81.384962
2605.000000	81.392117
2604.000000	81.410262
2603.000000	81.438181
2602.000000	81.474881
2601.000000	81.519165
2600.000000	81.567594
2599.000000	81.615175
2598.000000	81.658520
2597.000000	81.696866
2596.000000	81.729997
2595.000000	81.757934
2594.000000	81.783059
2593.000000	81.809855
2592.000000	81.841259
2591.000000	81.876767
2590.000000	81.914173
2589.000000	81.951020
2588.000000	81.984103
2587.000000	82.009986
2586.000000	82.027477
2585.000000	82.038475
2584.000000	82.046278
2583.000000	82.054719
2582.000000	82.068786
2581.000000	82.093442
2580.000000	82.130798
2579.000000	82.179631
2578.000000	82.237376
2577.000000	82.301121
2576.000000	82.366865
2575.000000	82.430663
2574.000000	82.491493
2573.000000	82.551016
2572.000000	82.610525
2571.000000	82.669622
2570.000000	82.727653
2569.000000	82.784060
2568.000000	82.837040
2567.000000	82.884078
2566.000000	82.924678
2565.000000	82.961085
2564.000000	82.995843
2563.000000	83.030467
2562.000000	83.066315
2561.000000	83.104573
2560.000000	83.144702
2559.000000	83.184372
2558.000000	83.221532
2557.000000	83.255203
2556.000000	83.284705
2555.000000	83.310188
2554.000000	83.334104
2553.000000	83.360276
2552.000000	83.391155
2551.000000	83.427328
2550.000000	83.469062
2549.000000	83.515878
2548.000000	83.564442
2547.000000	83.609396
2546.000000	83.647090
2545.000000	83.677209
2544.000000	83.700887
2543.000000	83.719558
2542.000000	83.735711
2541.000000	83.752136
2540.000000	83.769487
2539.000000	83.785557
2538.000000	83.797407
2537.000000	83.802601
2536.000000	83.798308
2535.000000	83.782116
2534.000000	83.754176
2533.000000	83.717495
2532.000000	83.675811
2531.000000	83.632335
2530.000000	83.590637
2529.000000	83.554018
2528.000000	83.523361
2527.000000	83.497037
2526.000000	83.473077
2525.000000	83.449980
2524.000000	83.425610
2523.000000	83.397597
2522.000000	83.365365
2521.000000	83.330080
2520.000000	83.292504
2519.000000	83.252482
2518.000000	83.210298
2517.000000	83.166444
2516.000000	83.119696
2515.000000	83.067855
2514.000000	83.010714
2513.000000	82.950769
2512.000000	82.891317
2511.000000	82.836114
2510.000000	82.790581
2509.000000	82.760401
2508.000000	82.748041
2507.000000	82.751844
2506.000000	82.769200
2505.000000	82.797739
2504.000000	82.833836
2503.000000	82.873134
2502.000000	82.912793
2501.000000	82.951955
2500.000000	82.989289
2499.000000	83.022510
2498.000000	83.050834
2497.000000	83.075468
2496.000000	83.097195
2495.000000	83.115376
2494.000000	83.129681
2493.000000	83.140606
2492.000000	83.148185
2491.000000	83.152045
2490.000000	83.153330
2489.000000	83.154770
2488.000000	83.158412
2487.000000	83.165099
2486.000000	83.175910
2485.000000	83.191842
2484.000000	83.211737
2483.000000	83.232818
2482.000000	83.253530
2481.000000	83.274058
2480.000000	83.294155
2479.000000	83.312755
2478.000000	83.330212
2477.000000	83.348570
2476.000000	83.369500
2475.000000	83.394059
2474.000000	83.424400
2473.000000	83.463384
2472.000000	83.511613
2471.000000	83.566843
2470.000000	83.626516
2469.000000	83.688507
2468.000000	83.749619
2467.000000	83.805872
2466.000000	83.855222
2465.000000	83.898210
2464.000000	83.935737
2463.000000	83.968248
2462.000000	83.997394
2461.000000	84.026110
2460.000000	84.055949
2459.000000	84.086138
2458.000000	84.115099
2457.000000	84.141162
2456.000000	84.161755
2455.000000	84.174214
2454.000000	84.178613
2453.000000	84.178154
2452.000000	84.176678
2451.000000	84.177302
2450.000000	84.183192
2449.000000	84.197062
2448.000000	84.219160
2447.000000	84.247508
2446.000000	84.280381
2445.000000	84.317086
2444.000000	84.356160
2443.000000	84.395368
2442.000000	84.433824
2441.000000	84.472115
2440.000000	84.510176
2439.000000	84.546778
2438.000000	84.581313
2437.000000	84.613920
2436.000000	84.643713
2435.000000	84.668741
2434.000000	84.688196
2433.000000	84.702671
2432.000000	84.711971
2431.000000	84.715094
2430.000000	84.712241
2429.000000	84.705007
2428.000000	84.693879
2427.000000	84.677141
2426.000000	84.653109
2425.000000	84.621193
2424.000000	84.581268
2423.000000	84.534312
2422.000000	84.484346
2421.000000	84.437980
2420.000000	84.401076
2419.000000	84.377022
2418.000000	84.367344
2417.000000	84.371403
2416.000000	84.384649
2415.000000	84.399821
2414.000000	84.410620
2413.000000	84.412987
2412.000000	84.403520
2411.000000	84.379771
2410.000000	84.342720
2409.000000	84.296456
2408.000000	84.244900
2407.000000	84.190271
2406.000000	84.135094
2405.000000	84.082310
2404.000000	84.032756
2403.000000	83.985170
2402.000000	83.939670
2401.000000	83.899136
2400.000000	83.866435
2399.000000	83.842666
2398.000000	83.828109
2397.000000	83.822258
2396.000000	83.821303
2395.000000	83.818444
2394.000000	83.808011
2393.000000	83.787685
2392.000000	83.756850
2391.000000	83.716256
2390.000000	83.671058
2389.000000	83.630776
2388.000000	83.605826
2387.000000	83.603880
2386.000000	83.630601
2385.000000	83.690327
2384.000000	83.781718
2383.000000	83.897960
2382.000000	84.029603
2381.000000	84.167762
2380.000000	84.303586
2379.000000	84.425506
2378.000000	84.525765
2377.000000	84.604235
2376.000000	84.663496
2375.000000	84.704935
2374.000000	84.728339
2373.000000	84.738461
2372.000000	84.741099
2371.000000	84.736361
2370.000000	84.720406
2369.000000	84.703290
2368.000000	84.700832
2367.000000	84.714290
2366.000000	84.739698
2365.000000	84.794300
2364.000000	84.885156
2363.000000	84.996155
2362.000000	85.118296
2361.000000	85.232943
2360.000000	85.331937
2359.000000	85.404486
2358.000000	85.423161
2357.000000	85.393495
2356.000000	85.302911
2355.000000	85.158572
2354.000000	84.997949
2353.000000	84.928406
2352.000000	85.044902
2351.000000	85.265873
2350.000000	85.442630
2349.000000	85.474533
2348.000000	85.401641
2347.000000	85.346940
2346.000000	85.348955
2345.000000	85.407588
2344.000000	85.445227
2343.000000	85.461597
2342.000000	85.479732
2341.000000	85.502193
2340.000000	85.525887
2339.000000	85.527225
2338.000000	85.520164
2337.000000	85.504549
2336.000000	85.502251
2335.000000	85.494963
2334.000000	85.487207
2333.000000	85.440745
2332.000000	85.381623
2331.000000	85.273448
2330.000000	85.172206
2329.000000	85.075000
2328.000000	85.005347
2327.000000	84.951818
2326.000000	84.897723
2325.000000	84.851058
2324.000000	84.794319
2323.000000	84.727557
2322.000000	84.648360
2321.000000	84.558482
2320.000000	84.481918
2319.000000	84.411822
2318.000000	84.371228
2317.000000	84.330977
2316.000000	84.299175
2315.000000	84.239146
2314.000000	84.167155
2313.000000	84.062983
2312.000000	83.951061
2311.000000	83.821576
2310.000000	83.697622
2309.000000	83.569711
2308.000000	83.447740
2307.000000	83.319248
2306.000000	83.193815
2305.000000	83.064542
2304.000000	82.941117
2303.000000	82.815190
2302.000000	82.699029
2301.000000	82.585971
2300.000000	82.484154
2299.000000	82.384768
2298.000000	82.296056
2297.000000	82.213278
2296.000000	82.140290
2295.000000	82.074574
2294.000000	82.022472
2293.000000	81.988952
2292.000000	81.977252
2291.000000	81.988850
2290.000000	82.022967
2289.000000	82.078554
2288.000000	82.148946
2287.000000	82.230128
2286.000000	82.318310
2285.000000	82.411897
2284.000000	82.504354
2283.000000	82.591750
2282.000000	82.673676
2281.000000	82.752906
2280.000000	82.829377
2279.000000	82.901396
2278.000000	82.969613
2277.000000	83.034055
2276.000000	83.094695
2275.000000	83.150246
2274.000000	83.203779
2273.000000	83.259311
2272.000000	83.320209
2271.000000	83.388899
2270.000000	83.469136
2269.000000	83.563686
2268.000000	83.672161
2267.000000	83.791406
2266.000000	83.919010
2265.000000	84.051833
2264.000000	84.184363
2263.000000	84.312062
2262.000000	84.432380
2261.000000	84.546083
2260.000000	84.652178
2259.000000	84.750623
2258.000000	84.843077
2257.000000	84.931387
2256.000000	85.016088
2255.000000	85.095985
2254.000000	85.172357
2253.000000	85.245786
2252.000000	85.316606
2251.000000	85.384494
2250.000000	85.451610
2249.000000	85.519064
2248.000000	85.586334
2247.000000	85.651755
2246.000000	85.715288
2245.000000	85.777185
2244.000000	85.835911
2243.000000	85.889588
2242.000000	85.937764
2241.000000	85.980574
2240.000000	86.016575
2239.000000	86.044178
2238.000000	86.063355
2237.000000	86.074976
2236.000000	86.079728
2235.000000	86.079776
2234.000000	86.079838
2233.000000	86.084520
2232.000000	86.095484
2231.000000	86.112357
2230.000000	86.134400
2229.000000	86.159070
2228.000000	86.181399
2227.000000	86.197287
2226.000000	86.206986
2225.000000	86.213379
2224.000000	86.218925
2223.000000	86.225770
2222.000000	86.236880
2221.000000	86.253772
2220.000000	86.274165
2219.000000	86.293933
2218.000000	86.310454
2217.000000	86.322756
2216.000000	86.330590
2215.000000	86.335998
2214.000000	86.344375
2213.000000	86.361373
2212.000000	86.389445
2211.000000	86.428494
2210.000000	86.477512
2209.000000	86.532722
2208.000000	86.585933
2207.000000	86.627973
2206.000000	86.653678
2205.000000	86.662626
2204.000000	86.657213
2203.000000	86.642607
2202.000000	86.626788
2201.000000	86.617268
2200.000000	86.617371
2199.000000	86.626379
2198.000000	86.641394
2197.000000	86.657176
2196.000000	86.666722
2195.000000	86.665569
2194.000000	86.655706
2193.000000	86.644006
2192.000000	86.638136
2191.000000	86.645091
2190.000000	86.670546
2189.000000	86.715863
2188.000000	86.775965
2187.000000	86.842280
2186.000000	86.906766
2185.000000	86.962272
2184.000000	87.002320
2183.000000	87.024454
2182.000000	87.033348
2181.000000	87.038242
2180.000000	87.047902
2179.000000	87.068513
2178.000000	87.103180
2177.000000	87.149639
2176.000000	87.199141
2175.000000	87.240536
2174.000000	87.265675
2173.000000	87.270819
2172.000000	87.256077
2171.000000	87.226625
2170.000000	87.192990
2169.000000	87.166588
2168.000000	87.154236
2167.000000	87.157275
2166.000000	87.173344
2165.000000	87.196267
2164.000000	87.216292
2163.000000	87.224521
2162.000000	87.217889
2161.000000	87.199437
2160.000000	87.175681
2159.000000	87.155333
2158.000000	87.147985
2157.000000	87.159918
2156.000000	87.190537
2155.000000	87.233598
2154.000000	87.280617
2153.000000	87.322330
2152.000000	87.350324
2151.000000	87.361115
2150.000000	87.358492
2149.000000	87.350327
2148.000000	87.343951
2147.000000	87.345326
2146.000000	87.358911
2145.000000	87.384691
2144.000000	87.416629
2143.000000	87.446274
2142.000000	87.467226
2141.000000	87.475987
2140.000000	87.471544
2139.000000	87.456907
2138.000000	87.439216
2137.000000	87.425621
2136.000000	87.419505
2135.000000	87.421177
2134.000000	87.429402
2133.000000	87.439830
2132.000000	87.444555
2131.000000	87.436636
2130.000000	87.414656
2129.000000	87.381725
2128.000000	87.342508
2127.000000	87.303250
2126.000000	87.271833
2125.000000	87.253981
2124.000000	87.249881
2123.000000	87.256289
2122.000000	87.270182
2121.000000	87.288795
2120.000000	87.308879
2119.000000	87.328823
2118.000000	87.349997
2117.000000	87.374010
2116.000000	87.400248
2115.000000	87.427696
2114.000000	87.456815
2113.000000	87.487048
2112.000000	87.514554
2111.000000	87.534883
2110.000000	87.546304
2109.000000	87.549012
2108.000000	87.543807
2107.000000	87.533878
2106.000000	87.525678
2105.000000	87.525058
2104.000000	87.533248
2103.000000	87.547931
2102.000000	87.565635
2101.000000	87.580900
2100.000000	87.586297
2099.000000	87.576231
2098.000000	87.550601
2097.000000	87.512989
2096.000000	87.467719
2095.000000	87.421407
2094.000000	87.383401
2093.000000	87.360761
2092.000000	87.354348
2091.000000	87.361918
2090.000000	87.382380
2089.000000	87.414275
2088.000000	87.452765
2087.000000	87.492211
2086.000000	87.529893
2085.000000	87.564597
2084.000000	87.594461
2083.000000	87.618716
2082.000000	87.638917
2081.000000	87.655499
2080.000000	87.665407
2079.000000	87.665242
2078.000000	87.655025
2077.000000	87.635844
2076.000000	87.606752
2075.000000	87.567989
2074.000000	87.522916
2073.000000	87.475039
2072.000000	87.424780
2071.000000	87.371463
2070.000000	87.317207
2069.000000	87.264215
2068.000000	87.209748
2067.000000	87.147554
2066.000000	87.074036
2065.000000	86.990782
2064.000000	86.901758
2063.000000	86.810746
2062.000000	86.720609
2061.000000	86.632325
2060.000000	86.545422
2059.000000	86.460728
2058.000000	86.380856
2057.000000	86.306332
2056.000000	86.233933
2055.000000	86.161129
2054.000000	86.089195
2053.000000	86.020566
2052.000000	85.955888
2051.000000	85.895797
2050.000000	85.843845
2049.000000	85.804617
2048.000000	85.779139
2047.000000	85.765397
2046.000000	85.762478
2045.000000	85.768962
2044.000000	85.778931
2043.000000	85.784962
2042.000000	85.785192
2041.000000	85.784129
2040.000000	85.787106
2039.000000	85.798377
2038.000000	85.822945
2037.000000	85.864874
2036.000000	85.923876
2035.000000	85.996403
2034.000000	86.078768
2033.000000	86.165892
2032.000000	86.249812
2031.000000	86.324453
2030.000000	86.389659
2029.000000	86.448915
2028.000000	86.504524
2027.000000	86.559679
2026.000000	86.620430
2025.000000	86.691377
2024.000000	86.770346
2023.000000	86.850184
2022.000000	86.926536
2021.000000	86.997855
2020.000000	87.059482
2019.000000	87.105150
2018.000000	87.136130
2017.000000	87.163975
2016.000000	87.202235
2015.000000	87.258879
2014.000000	87.335297
2013.000000	87.426853
2012.000000	87.523127
2011.000000	87.612990
2010.000000	87.690636
2009.000000	87.755074
2008.000000	87.806324
2007.000000	87.847996
2006.000000	87.889528
2005.000000	87.941007
2004.000000	88.006149
2003.000000	88.081345
2002.000000	88.162610
2001.000000	88.243819
2000.000000	88.316186
1999.000000	88.372684
1998.000000	88.411171
1997.000000	88.437554
1996.000000	88.463112
1995.000000	88.495802
1994.000000	88.535110
1993.000000	88.578128
1992.000000	88.628380
1991.000000	88.693071
1990.000000	88.770829
1989.000000	88.848763
1988.000000	88.913692
1987.000000	88.962696
1986.000000	89.002365
1985.000000	89.040711
1984.000000	89.083654
1983.000000	89.136201
1982.000000	89.202617
1981.000000	89.280787
1980.000000	89.363967
1979.000000	89.444743
1978.000000	89.514864
1977.000000	89.568957
1976.000000	89.609432
1975.000000	89.644879
1974.000000	89.682526
1973.000000	89.726812
1972.000000	89.783385
1971.000000	89.856073
1970.000000	89.937493
1969.000000	90.009855
1968.000000	90.058294
1967.000000	90.081418
1966.000000	90.087742
1965.000000	90.085525
1964.000000	90.079048
1963.000000	90.070604
1962.000000	90.061913
1961.000000	90.055743
1960.000000	90.055970
1959.000000	90.062525
1958.000000	90.067342
1957.000000	90.059982
1956.000000	90.038034
1955.000000	90.009682
1954.000000	89.984590
1953.000000	89.970159
1952.000000	89.971575
1951.000000	89.992407
1950.000000	90.032802
1949.000000	90.082973
1948.000000	90.129368
1947.000000	90.166737
1946.000000	90.195140
1945.000000	90.208183
1944.000000	90.194417
1943.000000	90.156483
1942.000000	90.119611
1941.000000	90.109497
1940.000000	90.130313
1939.000000	90.169077
1938.000000	90.208955
1937.000000	90.237423
1936.000000	90.248504
1935.000000	90.240811
1934.000000	90.214860
1933.000000	90.176693
1932.000000	90.135331
1931.000000	90.102289
1930.000000	90.090218
1929.000000	90.098339
1928.000000	90.120216
1927.000000	90.151308
1926.000000	90.188899
1925.000000	90.218841
1924.000000	90.216434
1923.000000	90.183076
1922.000000	90.153346
1921.000000	90.151246
1920.000000	90.165974
1919.000000	90.176432
1918.000000	90.187027
1917.000000	90.215566
1916.000000	90.253846
1915.000000	90.278544
1914.000000	90.279839
1913.000000	90.261025
1912.000000	90.224543
1911.000000	90.175539
1910.000000	90.130400
1909.000000	90.102974
1908.000000	90.097714
1907.000000	90.110303
1906.000000	90.139697
1905.000000	90.181330
1904.000000	90.216167
1903.000000	90.235639
1902.000000	90.251791
1901.000000	90.272941
1900.000000	90.297389
1899.000000	90.326717
1898.000000	90.371666
1897.000000	90.433753
1896.000000	90.494219
1895.000000	90.543919
1894.000000	90.598446
1893.000000	90.666271
1892.000000	90.726049
1891.000000	90.752156
1890.000000	90.749287
1889.000000	90.746776
1888.000000	90.760723
1887.000000	90.787475
1886.000000	90.823261
1885.000000	90.864284
1884.000000	90.901794
1883.000000	90.935617
1882.000000	90.975839
1881.000000	91.020761
1880.000000	91.057506
1879.000000	91.081559
1878.000000	91.102624
1877.000000	91.131180
1876.000000	91.161736
1875.000000	91.187367
1874.000000	91.220484
1873.000000	91.274956
1872.000000	91.339849
1871.000000	91.389504
1870.000000	91.410887
1869.000000	91.417594
1868.000000	91.429970
1867.000000	91.453494
1866.000000	91.488973
1865.000000	91.533253
1864.000000	91.573301
1863.000000	91.602725
1862.000000	91.634884
1861.000000	91.681635
1860.000000	91.733988
1859.000000	91.780105
1858.000000	91.824864
1857.000000	91.873124
1856.000000	91.912803
1855.000000	91.932419
1854.000000	91.942821
1853.000000	91.954219
1852.000000	91.971787
1851.000000	92.001797
1850.000000	92.045997
1849.000000	92.101513
1848.000000	92.161612
1847.000000	92.221985
1846.000000	92.271950
1845.000000	92.291053
1844.000000	92.285195
1843.000000	92.286708
1842.000000	92.305160
1841.000000	92.328273
1840.000000	92.352497
1839.000000	92.380887
1838.000000	92.422328
1837.000000	92.478557
1836.000000	92.534240
1835.000000	92.579240
1834.000000	92.616201
1833.000000	92.642351
1832.000000	92.648501
1831.000000	92.623032
1830.000000	92.586542
1829.000000	92.595302
1828.000000	92.667028
1827.000000	92.763905
1826.000000	92.839982
1825.000000	92.887480
1824.000000	92.926294
1823.000000	92.959970
1822.000000	92.978245
1821.000000	92.985198
1820.000000	92.994899
1819.000000	93.008497
1818.000000	93.028913
1817.000000	93.069611
1816.000000	93.129821
1815.000000	93.192214
1814.000000	93.236282
1813.000000	93.252705
1812.000000	93.234737
1811.000000	93.180190
1810.000000	93.121242
1809.000000	93.094747
1808.000000	93.096668
1807.000000	93.108435
1806.000000	93.137183
1805.000000	93.195454
1804.000000	93.256356
1803.000000	93.277261
1802.000000	93.241969
1801.000000	93.181915
1800.000000	93.136092
1799.000000	93.115732
1798.000000	93.124645
1797.000000	93.161573
1796.000000	93.210624
1795.000000	93.260488
1794.000000	93.303520
1793.000000	93.331998
1792.000000	93.342014
1791.000000	93.332365
1790.000000	93.313589
1789.000000	93.304861
1788.000000	93.311079
1787.000000	93.322852
1786.000000	93.341076
1785.000000	93.378385
1784.000000	93.428536
1783.000000	93.474299
1782.000000	93.487917
1781.000000	93.460517
1780.000000	93.416803
1779.000000	93.383961
1778.000000	93.374200
1777.000000	93.380984
1776.000000	93.407126
1775.000000	93.463992
1774.000000	93.533637
1773.000000	93.589343
1772.000000	93.656538
1771.000000	93.741030
1770.000000	93.795207
1769.000000	93.802076
1768.000000	93.788560
1767.000000	93.791528
1766.000000	93.827448
1765.000000	93.897941
1764.000000	93.989454
1763.000000	94.065168
1762.000000	94.094451
1761.000000	94.103840
1760.000000	94.115651
1759.000000	94.112118
1758.000000	94.071767
1757.000000	94.003801
1756.000000	93.975333
1755.000000	94.020114
1754.000000	94.099095
1753.000000	94.171373
1752.000000	94.230321
1751.000000	94.278225
1750.000000	94.305749
1749.000000	94.297908
1748.000000	94.274335
1747.000000	94.279219
1746.000000	94.310550
1745.000000	94.347764
1744.000000	94.394765
1743.000000	94.458604
1742.000000	94.529452
1741.000000	94.590237
1740.000000	94.628034
1739.000000	94.645245
1738.000000	94.644951
1737.000000	94.633554
1736.000000	94.612889
1735.000000	94.554443
1734.000000	94.523685
1733.000000	94.612818
1732.000000	94.732545
1731.000000	94.784898
1730.000000	94.778867
1729.000000	94.745518
1728.000000	94.708569
1727.000000	94.678330
1726.000000	94.642590
1725.000000	94.604095
1724.000000	94.576055
1723.000000	94.572380
1722.000000	94.611311
1721.000000	94.688140
1720.000000	94.761644
1719.000000	94.763196
1718.000000	94.703033
1717.000000	94.692220
1716.000000	94.722945
1715.000000	94.711224
1714.000000	94.685271
1713.000000	94.706354
1712.000000	94.758091
1711.000000	94.803104
1710.000000	94.848340
1709.000000	94.907498
1708.000000	94.961624
1707.000000	94.971692
1706.000000	94.946026
1705.000000	94.942795
1704.000000	94.977208
1703.000000	95.032843
1702.000000	95.097763
1701.000000	95.127077
1700.000000	95.167498
1699.000000	95.251430
1698.000000	95.321265
1697.000000	95.372282
1696.000000	95.415961
1695.000000	95.470741
1694.000000	95.525502
1693.000000	95.546165
1692.000000	95.545738
1691.000000	95.547652
1690.000000	95.556306
1689.000000	95.560555
1688.000000	95.575029
1687.000000	95.621991
1686.000000	95.678720
1685.000000	95.658676
1684.000000	95.618090
1683.000000	95.679632
1682.000000	95.752918
1681.000000	95.741374
1680.000000	95.684979
1679.000000	95.654496
1678.000000	95.660032
1677.000000	95.651721
1676.000000	95.592300
1675.000000	95.534400
1674.000000	95.512153
1673.000000	95.481924
1672.000000	95.423095
1671.000000	95.353503
1670.000000	95.293923
1669.000000	95.255391
1668.000000	95.233499
1667.000000	95.215646
1666.000000	95.183904
1665.000000	95.121094
1664.000000	95.010907
1663.000000	94.890220
1662.000000	94.810437
1661.000000	94.740961
1660.000000	94.643212
1659.000000	94.534005
1658.000000	94.421370
1657.000000	94.292376
1656.000000	94.153070
1655.000000	93.968271
1654.000000	93.587816
1653.000000	93.139020
1652.000000	92.846893
1651.000000	92.523196
1650.000000	92.021808
1649.000000	91.325859
1648.000000	90.313613
1647.000000	88.909654
1646.000000	87.225053
1645.000000	85.339024
1644.000000	83.167166
1643.000000	80.601353
1642.000000	77.605312
1641.000000	74.265051
1640.000000	70.846556
1639.000000	67.651691
1638.000000	64.851894
1637.000000	62.533758
1636.000000	60.954802
1635.000000	60.456083
1634.000000	60.963417
1633.000000	62.113305
1632.000000	63.652477
1631.000000	65.463418
1630.000000	67.460270
1629.000000	69.552880
1628.000000	71.641335
1627.000000	73.606043
1626.000000	75.370182
1625.000000	76.978684
1624.000000	78.531815
1623.000000	80.046278
1622.000000	81.419226
1621.000000	82.563080
1620.000000	83.521210
1619.000000	84.389691
1618.000000	85.214918
1617.000000	86.003050
1616.000000	86.741592
1615.000000	87.354845
1614.000000	87.790338
1613.000000	88.101942
1612.000000	88.374119
1611.000000	88.636638
1610.000000	88.847170
1609.000000	88.956460
1608.000000	88.951826
1607.000000	88.822108
1606.000000	88.514493
1605.000000	87.976706
1604.000000	87.214001
1603.000000	86.241977
1602.000000	85.065065
1601.000000	83.735746
1600.000000	82.376735
1599.000000	81.116106
1598.000000	80.016995
1597.000000	79.095460
1596.000000	78.356251
1595.000000	77.776348
1594.000000	77.281687
1593.000000	76.792612
1592.000000	76.283289
1591.000000	75.760523
1590.000000	75.212437
1589.000000	74.614447
1588.000000	73.963823
1587.000000	73.256144
1586.000000	72.454945
1585.000000	71.518940
1584.000000	70.472734
1583.000000	69.376694
1582.000000	68.243521
1581.000000	67.065213
1580.000000	65.871535
1579.000000	64.652147
1578.000000	63.234628
1577.000000	61.370052
1576.000000	59.114173
1575.000000	56.906850
1574.000000	55.021032
1573.000000	53.371024
1572.000000	51.822465
1571.000000	50.353360
1570.000000	49.059816
1569.000000	48.078015
1568.000000	47.491759
1567.000000	47.299706
1566.000000	47.416371
1565.000000	47.721176
1564.000000	48.162905
1563.000000	48.761758
1562.000000	49.538583
1561.000000	50.499464
1560.000000	51.727670
1559.000000	53.380842
1558.000000	55.218167
1557.000000	56.715548
1556.000000	57.821712
1555.000000	58.781803
1554.000000	59.683756
1553.000000	60.465074
1552.000000	61.104602
1551.000000	61.687104
1550.000000	62.318932
1549.000000	63.048239
1548.000000	63.887879
1547.000000	64.869207
1546.000000	65.998258
1545.000000	67.196928
1544.000000	68.367158
1543.000000	69.473233
1542.000000	70.539506
1541.000000	71.591426
1540.000000	72.657039
1539.000000	73.726941
1538.000000	74.674961
1537.000000	75.432797
1536.000000	76.092904
1535.000000	76.781722
1534.000000	77.532461
1533.000000	78.297527
1532.000000	79.009443
1531.000000	79.639444
1530.000000	80.217867
1529.000000	80.766424
1528.000000	81.280737
1527.000000	81.774887
1526.000000	82.261058
1525.000000	82.725886
1524.000000	83.162453
1523.000000	83.580218
1522.000000	83.972614
1521.000000	84.328483
1520.000000	84.643639
1519.000000	84.916007
1518.000000	85.155104
1517.000000	85.379945
1516.000000	85.622552
1515.000000	85.905711
1514.000000	86.208475
1513.000000	86.505189
1512.000000	86.778820
1511.000000	87.020679
1510.000000	87.228682
1509.000000	87.394738
1508.000000	87.487190
1507.000000	87.564791
1506.000000	87.812013
1505.000000	88.179493
1504.000000	88.481331
1503.000000	88.696827
1502.000000	88.873377
1501.000000	89.022540
1500.000000	89.147657
1499.000000	89.260128
1498.000000	89.366760
1497.000000	89.494838
1496.000000	89.673382
1495.000000	89.890361
1494.000000	90.107474
1493.000000	90.305536
1492.000000	90.476388
1491.000000	90.596446
1490.000000	90.656083
1489.000000	90.689549
1488.000000	90.722350
1487.000000	90.757177
1486.000000	90.797620
1485.000000	90.808045
1484.000000	90.758534
1483.000000	90.636146
1482.000000	90.405228
1481.000000	90.035817
1480.000000	89.527940
1479.000000	88.858962
1478.000000	87.921233
1477.000000	86.611272
1476.000000	84.951518
1475.000000	83.047052
1474.000000	80.921304
1473.000000	78.619844
1472.000000	76.449203
1471.000000	74.746636
1470.000000	73.559557
1469.000000	72.780739
1468.000000	72.361754
1467.000000	72.339484
1466.000000	72.778135
1465.000000	73.665879
1464.000000	74.830693
1463.000000	75.972874
1462.000000	76.858397
1461.000000	77.402704
1460.000000	77.586710
1459.000000	77.358626
1458.000000	76.632482
1457.000000	75.554195
1456.000000	74.570404
1455.000000	73.929131
1454.000000	73.543249
1453.000000	73.305128
1452.000000	73.180894
1451.000000	73.156088
1450.000000	73.221292
1449.000000	73.395106
1448.000000	73.692862
1447.000000	74.089114
1446.000000	74.527786
1445.000000	74.993824
1444.000000	75.529021
1443.000000	76.159840
1442.000000	76.894356
1441.000000	77.753624
1440.000000	78.766272
1439.000000	79.932691
1438.000000	81.228481
1437.000000	82.591242
1436.000000	83.881494
1435.000000	84.930178
1434.000000	85.703537
1433.000000	86.308568
1432.000000	86.829303
1431.000000	87.270156
1430.000000	87.625808
1429.000000	87.938383
1428.000000	88.243543
1427.000000	88.544704
1426.000000	88.824868
1425.000000	89.071296
1424.000000	89.304489
1423.000000	89.538206
1422.000000	89.766150
1421.000000	89.972640
1420.000000	90.129643
1419.000000	90.222447
1418.000000	90.290132
1417.000000	90.392868
1416.000000	90.555009
1415.000000	90.759668
1414.000000	90.970626
1413.000000	91.165859
1412.000000	91.339550
1411.000000	91.474441
1410.000000	91.557786
1409.000000	91.618460
1408.000000	91.689880
1407.000000	91.779835
1406.000000	91.879755
1405.000000	91.988935
1404.000000	92.120855
1403.000000	92.255726
1402.000000	92.332664
1401.000000	92.273888
1400.000000	92.014192
1399.000000	91.571629
1398.000000	91.083406
1397.000000	90.719842
1396.000000	90.580163
1395.000000	90.670456
1394.000000	90.906206
1393.000000	91.179389
1392.000000	91.446376
1391.000000	91.723466
1390.000000	92.032872
1389.000000	92.372983
1388.000000	92.722014
1387.000000	93.061756
1386.000000	93.384714
1385.000000	93.680162
1384.000000	93.936998
1383.000000	94.144353
1382.000000	94.304175
1381.000000	94.426803
1380.000000	94.504439
1379.000000	94.511659
1378.000000	94.425312
1377.000000	94.214659
1376.000000	93.786715
1375.000000	92.951610
1374.000000	91.449074
1373.000000	89.062058
1372.000000	85.764359
1371.000000	81.861729
1370.000000	78.048596
1369.000000	75.251189
1368.000000	74.169154
1367.000000	74.784504
1366.000000	76.403948
1365.000000	78.149520
1364.000000	79.331367
1363.000000	79.589482
1362.000000	78.986023
1361.000000	78.018437
1360.000000	77.403356
1359.000000	77.721687
1358.000000	79.134189
1357.000000	81.319958
1356.000000	83.711668
1355.000000	85.840185
1354.000000	87.518152
1353.000000	88.794464
1352.000000	89.787019
1351.000000	90.587974
1350.000000	91.250742
1349.000000	91.796814
1348.000000	92.233754
1347.000000	92.571682
1346.000000	92.830975
1345.000000	93.037468
1344.000000	93.220020
1343.000000	93.405028
1342.000000	93.606977
1341.000000	93.819565
1340.000000	94.023663
1339.000000	94.207156
1338.000000	94.365992
1337.000000	94.494896
1336.000000	94.585282
1335.000000	94.629699
1334.000000	94.620356
1333.000000	94.530421
1332.000000	94.300686
1331.000000	93.851439
1330.000000	93.111179
1329.000000	92.045584
1328.000000	90.643390
1327.000000	88.882572
1326.000000	86.743439
1325.000000	84.321132
1324.000000	81.960030
1323.000000	80.184360
1322.000000	79.381404
1321.000000	79.528731
1320.000000	80.247357
1319.000000	81.104443
1318.000000	81.871419
1317.000000	82.533389
1316.000000	83.142133
1315.000000	83.725532
1314.000000	84.303069
1313.000000	84.929072
1312.000000	85.678430
1311.000000	86.584440
1310.000000	87.596428
1309.000000	88.599051
1308.000000	89.465631
1307.000000	90.106490
1306.000000	90.484419
1305.000000	90.591180
1304.000000	90.424685
1303.000000	89.979149
1302.000000	89.251659
1301.000000	88.273587
1300.000000	87.150664
1299.000000	86.074196
1298.000000	85.257416
1297.000000	84.820955
1296.000000	84.721321
1295.000000	84.774327
1294.000000	84.745713
1293.000000	84.439513
1292.000000	83.742554
1291.000000	82.621754
1290.000000	81.085967
1289.000000	79.172419
1288.000000	77.005573
1287.000000	74.873298
1286.000000	73.183319
1285.000000	72.276134
1284.000000	72.248278
1283.000000	72.945132
1282.000000	74.126159
1281.000000	75.617120
1280.000000	77.306675
1279.000000	79.033550
1278.000000	80.544369
1277.000000	81.601587
1276.000000	82.111126
1275.000000	82.143959
1274.000000	81.878103
1273.000000	81.547982
1272.000000	81.410452
1271.000000	81.681988
1270.000000	82.450218
1269.000000	83.633165
1268.000000	85.031585
1267.000000	86.433299
1266.000000	87.695474
1265.000000	88.768346
1264.000000	89.666782
1263.000000	90.424273
1262.000000	91.065800
1261.000000	91.607094
1260.000000	92.060073
1259.000000	92.433390
1258.000000	92.738325
1257.000000	92.990708
1256.000000	93.207880
1255.000000	93.404539
1254.000000	93.591032
1253.000000	93.775820
1252.000000	93.962349
1251.000000	94.146532
1250.000000	94.320382
1249.000000	94.477030
1248.000000	94.613194
1247.000000	94.728244
1246.000000	94.825112
1245.000000	94.912089
1244.000000	94.999186
1243.000000	95.092791
1242.000000	95.193779
1241.000000	95.297946
1240.000000	95.395330
1239.000000	95.470951
1238.000000	95.512005
1237.000000	95.513945
1236.000000	95.479328
1235.000000	95.415007
1234.000000	95.331034
1233.000000	95.239740
1232.000000	95.150164
1231.000000	95.062241
1230.000000	94.968167
1229.000000	94.853697
1228.000000	94.698307
1227.000000	94.475886
1226.000000	94.159099
1225.000000	93.727533
1224.000000	93.161874
1223.000000	92.438788
1222.000000	91.530298
1221.000000	90.405050
1220.000000	89.042597
1219.000000	87.441314
1218.000000	85.626333
1217.000000	83.654796
1216.000000	81.616004
1215.000000	79.628858
1214.000000	77.834776
1213.000000	76.383459
1212.000000	75.406666
1211.000000	74.978378
1210.000000	75.064294
1209.000000	75.525358
1208.000000	76.166321
1207.000000	76.783213
1206.000000	77.205958
1205.000000	77.324000
1204.000000	77.093670
1203.000000	76.529259
1202.000000	75.697105
1201.000000	74.725187
1200.000000	73.805953
1199.000000	73.159921
1198.000000	72.961527
1197.000000	73.274870
1196.000000	74.049663
1195.000000	75.155274
1194.000000	76.438888
1193.000000	77.783412
1192.000000	79.124375
1191.000000	80.438027
1190.000000	81.715184
1189.000000	82.948873
1188.000000	84.130299
1187.000000	85.241515
1186.000000	86.255021
1185.000000	87.148293
1184.000000	87.914490
1183.000000	88.555684
1182.000000	89.081666
1181.000000	89.510605
1180.000000	89.870257
1179.000000	90.191876
1178.000000	90.495530
1177.000000	90.785553
1176.000000	91.045699
1175.000000	91.242704
1174.000000	91.340906
1173.000000	91.309839
1172.000000	91.128799
1171.000000	90.776911
1170.000000	90.227742
1169.000000	89.454392
1168.000000	88.432998
1167.000000	87.165521
1166.000000	85.710232
1165.000000	84.202273
1164.000000	82.839956
1163.000000	81.830816
1162.000000	81.314772
1161.000000	81.321979
1160.000000	81.783393
1159.000000	82.562518
1158.000000	83.508520
1157.000000	84.493095
1156.000000	85.424046
1155.000000	86.239213
1154.000000	86.895190
1153.000000	87.366635
1152.000000	87.645489
1151.000000	87.736273
1150.000000	87.650126
1149.000000	87.409555
1148.000000	87.029823
1147.000000	86.501026
1146.000000	85.780984
1145.000000	84.789299
1144.000000	83.427466
1143.000000	81.590927
1142.000000	79.211046
1141.000000	76.320089
1140.000000	73.084086
1139.000000	69.777394
1138.000000	66.671603
1137.000000	63.914579
1136.000000	61.482990
1135.000000	59.249521
1134.000000	57.120349
1133.000000	55.199559
1132.000000	53.841455
1131.000000	53.495996
1130.000000	54.472802
1129.000000	56.742958
1128.000000	59.939692
1127.000000	63.503680
1126.000000	66.857169
1125.000000	69.539766
1124.000000	71.248369
1123.000000	71.812150
1122.000000	71.178280
1121.000000	69.426542
1120.000000	66.726716
1119.000000	63.320931
1118.000000	59.579095
1117.000000	56.083234
1116.000000	53.591078
1115.000000	52.776108
1114.000000	53.874582
1113.000000	56.534137
1112.000000	59.974420
1111.000000	63.281955
1110.000000	65.745698
1109.000000	67.111510
1108.000000	67.638718
1107.000000	67.898850
1106.000000	68.416736
1105.000000	69.396454
1104.000000	70.690081
1103.000000	71.936490
1102.000000	72.703617
1101.000000	72.630877
1100.000000	71.580975
1099.000000	69.788774
1098.000000	67.883330
1097.000000	66.668100
1096.000000	66.738213
1095.000000	68.186340
1094.000000	70.604397
1093.000000	73.368968
1092.000000	75.981868
1091.000000	78.205991
1090.000000	80.014141
1089.000000	81.475575
1088.000000	82.671447
1087.000000	83.661490
1086.000000	84.487226
1085.000000	85.182493
1084.000000	85.774660
1083.000000	86.289846
1082.000000	86.748065
1081.000000	87.164895
1080.000000	87.548138
1079.000000	87.887583
1078.000000	88.163009
1077.000000	88.345768
1076.000000	88.399666
1075.000000	88.281559
1074.000000	87.936801
1073.000000	87.313601
1072.000000	86.333599
1071.000000	84.868894
1070.000000	82.733063
1069.000000	79.667089
1068.000000	75.416882
1067.000000	69.881236
1066.000000	63.337118
1065.000000	56.576558
1064.000000	50.728053
1063.000000	46.729731
1062.000000	44.749214
1061.000000	44.022624
1060.000000	43.322006
1059.000000	41.784358
1058.000000	39.460211
1057.000000	37.281690
1056.000000	36.460871
1055.000000	37.706576
1054.000000	40.887809
1053.000000	45.244638
1052.000000	49.909649
1051.000000	54.292817
1050.000000	58.133154
1049.000000	61.407065
1048.000000	64.207934
1047.000000	66.650666
1046.000000	68.808141
1045.000000	70.709358
1044.000000	72.360034
1043.000000	73.768639
1042.000000	74.954976
1041.000000	75.941897
1040.000000	76.766991
1039.000000	77.470411
1038.000000	78.084028
1037.000000	78.628111
1036.000000	79.110342
1035.000000	79.532828
1034.000000	79.889175
1033.000000	80.171036
1032.000000	80.380262
1031.000000	80.529932
1030.000000	80.641795
1029.000000	80.739770
1028.000000	80.844555
1027.000000	80.966043
1026.000000	81.093797
1025.000000	81.201098
1024.000000	81.253498
1023.000000	81.216318
1022.000000	81.063835
1021.000000	80.780773
1020.000000	80.365383
1019.000000	79.817708
1018.000000	79.123377
1017.000000	78.251259
1016.000000	77.152870
1015.000000	75.786831
1014.000000	74.157921
1013.000000	72.360654
1012.000000	70.591358
1011.000000	69.084716
1010.000000	67.990021
1009.000000	67.270129
1008.000000	66.724169
1007.000000	66.144849
1006.000000	65.531497
1005.000000	65.162718
1004.000000	65.435047
1003.000000	66.568602
1002.000000	68.414708
1001.000000	70.549926
1000.000000	72.522251
999.000000	74.035473
998.000000	74.982937
997.000000	75.391586
996.000000	75.371552
995.000000	75.094195
994.000000	74.780254
993.000000	74.666760
992.000000	74.943336
991.000000	75.672181
990.000000	76.752149
989.000000	77.981398
988.000000	79.175844
987.000000	80.239288
986.000000	81.159119
985.000000	81.965080
984.000000	82.692174
983.000000	83.361018
982.000000	83.973186
981.000000	84.516991
980.000000	84.979689
979.000000	85.359182
978.000000	85.662563
977.000000	85.906755
976.000000	86.118139
975.000000	86.325406
974.000000	86.550221
973.000000	86.799624
972.000000	87.068328
971.000000	87.342716
970.000000	87.603368
969.000000	87.830820
968.000000	88.012632
967.000000	88.148954
966.000000	88.252481
965.000000	88.343377
964.000000	88.443131
963.000000	88.567931
962.000000	88.724010
961.000000	88.906757
960.000000	89.102980
959.000000	89.295066
958.000000	89.465844
957.000000	89.604109
956.000000	89.708387
955.000000	89.786831
954.000000	89.854576
953.000000	89.929455
952.000000	90.026790
951.000000	90.154559
950.000000	90.310896
949.000000	90.485131
948.000000	90.660965
947.000000	90.821148
946.000000	90.952947
945.000000	91.051498
944.000000	91.120288
943.000000	91.170146
942.000000	91.217376
941.000000	91.279354
940.000000	91.367945
939.000000	91.485499
938.000000	91.625381
937.000000	91.774542
936.000000	91.916060
935.000000	92.032959
934.000000	92.114613
933.000000	92.161409
932.000000	92.184210
931.000000	92.200989
930.000000	92.232248
929.000000	92.294162
928.000000	92.391436
927.000000	92.516195
926.000000	92.653530
925.000000	92.786090
924.000000	92.895483
923.000000	92.966728
922.000000	92.996910
921.000000	92.998704
920.000000	92.993836
919.000000	93.004141
918.000000	93.046450
917.000000	93.128315
916.000000	93.243454
915.000000	93.372432
914.000000	93.490607
913.000000	93.576657
912.000000	93.615011
911.000000	93.600043
910.000000	93.538546
909.000000	93.441182
908.000000	93.305738
907.000000	93.105188
906.000000	92.795095
905.000000	92.323761
904.000000	91.647713
903.000000	90.772911
902.000000	89.807544
901.000000	88.966884
900.000000	88.489867
899.000000	88.508617
898.000000	88.974130
897.000000	89.708663
896.000000	90.516683
895.000000	91.266290
894.000000	91.903678
893.000000	92.418965
892.000000	92.816548
891.000000	93.104490
890.000000	93.298264
889.000000	93.422138
888.000000	93.504678
887.000000	93.563559
886.000000	93.590005
885.000000	93.543926
884.000000	93.371330
883.000000	93.051428
882.000000	92.626540
881.000000	92.176235
880.000000	91.746824
879.000000	91.315558
878.000000	90.845139
877.000000	90.377614
876.000000	90.061115
875.000000	90.059879
874.000000	90.431915
873.000000	91.081808
872.000000	91.822943
871.000000	92.483993
870.000000	92.977306
869.000000	93.301907
868.000000	93.504622
867.000000	93.644571
866.000000	93.773856
865.000000	93.927953
864.000000	94.117246
863.000000	94.327481
862.000000	94.529630
861.000000	94.691692
860.000000	94.789189
859.000000	94.813377
858.000000	94.778852
857.000000	94.720816
856.000000	94.680531
855.000000	94.690706
854.000000	94.767183
853.000000	94.904242
852.000000	95.073019
851.000000	95.230168
850.000000	95.336192
849.000000	95.370015
848.000000	95.333192
847.000000	95.249301
846.000000	95.159869
845.000000	95.111034
844.000000	95.134148
843.000000	95.234170
842.000000	95.391522
841.000000	95.569142
840.000000	95.720282
839.000000	95.803387
838.000000	95.802140
837.000000	95.732997
836.000000	95.633108
835.000000	95.544248
834.000000	95.503819
833.000000	95.536670
832.000000	95.644758
831.000000	95.804694
830.000000	95.978064
829.000000	96.124671
828.000000	96.211625
827.000000	96.223366
826.000000	96.171984
825.000000	96.094391
824.000000	96.034098
823.000000	96.024369
822.000000	96.082595
821.000000	96.206469
820.000000	96.369150
819.000000	96.526118
818.000000	96.635090
817.000000	96.670844
816.000000	96.625845
815.000000	96.510158
814.000000	96.354537
813.000000	96.201458
812.000000	96.083471
811.000000	96.007141
810.000000	95.954890
809.000000	95.893196
808.000000	95.774697
807.000000	95.547226
806.000000	95.168841
805.000000	94.616860
804.000000	93.885032
803.000000	92.972925
802.000000	91.883545
801.000000	90.612165
800.000000	89.136400
799.000000	87.426291
798.000000	85.464600
797.000000	83.267818
796.000000	80.887610
795.000000	78.408679
794.000000	75.946668
793.000000	73.641379
792.000000	71.638605
791.000000	70.067726
790.000000	69.026047
789.000000	68.562153
788.000000	68.669288
787.000000	69.275523
786.000000	70.256534
785.000000	71.465171
784.000000	72.749984
783.000000	73.972283
782.000000	75.019737
781.000000	75.820351
780.000000	76.342052
779.000000	76.588546
778.000000	76.597519
777.000000	76.430167
776.000000	76.143342
775.000000	75.767071
774.000000	75.319407
773.000000	74.843009
772.000000	74.429453
771.000000	74.205885
770.000000	74.296381
769.000000	74.774567
768.000000	75.634051
767.000000	76.794314
766.000000	78.141083
765.000000	79.569907
764.000000	80.997118
763.000000	82.355868
762.000000	83.597588
761.000000	84.696643
760.000000	85.644898
759.000000	86.447477
758.000000	87.128426
757.000000	87.729462
756.000000	88.293328
755.000000	88.847724
754.000000	89.406025
753.000000	89.968093
752.000000	90.513295
751.000000	91.003870
750.000000	91.406405
749.000000	91.710861
748.000000	91.928189
747.000000	92.082260
746.000000	92.209581
745.000000	92.351816
744.000000	92.534981
743.000000	92.757212
742.000000	92.998464
741.000000	93.232190
740.000000	93.424632
739.000000	93.540745
738.000000	93.565332
737.000000	93.513531
736.000000	93.415854
735.000000	93.300858
734.000000	93.194318
733.000000	93.117863
732.000000	93.075546
731.000000	93.049393
730.000000	93.015008
729.000000	92.953688
728.000000	92.848560
727.000000	92.681993
726.000000	92.448727
725.000000	92.165473
724.000000	91.851425
723.000000	91.495671
722.000000	91.044004
721.000000	90.415242
720.000000	89.534546
719.000000	88.372820
718.000000	86.975228
717.000000	85.463856
716.000000	84.013878
715.000000	82.814402
714.000000	82.028572
713.000000	81.752189
712.000000	81.980255
711.000000	82.612409
710.000000	83.506131
709.000000	84.527527
708.000000	85.564890
707.000000	86.531485
706.000000	87.383239
705.000000	88.129353
704.000000	88.806791
703.000000	89.449453
702.000000	90.085269
701.000000	90.733887
700.000000	91.384849
699.000000	91.992762
698.000000	92.507746
697.000000	92.906004
696.000000	93.186217
695.000000	93.361137
694.000000	93.474332
693.000000	93.597797
692.000000	93.787776
691.000000	94.052076
690.000000	94.366510
689.000000	94.700802
688.000000	95.008874
687.000000	95.226474
686.000000	95.316348
685.000000	95.298704
684.000000	95.222433
683.000000	95.134313
682.000000	95.089023
681.000000	95.147582
680.000000	95.323273
679.000000	95.561077
678.000000	95.782801
677.000000	95.926908
676.000000	95.956523
675.000000	95.854764
674.000000	95.671535
673.000000	95.573857
672.000000	95.797143
671.000000	96.478095
670.000000	97.507706
669.000000	98.354853
668.000000	98.329315
667.000000	97.582658
666.000000	96.815919
665.000000	96.255546
664.000000	95.855359
663.000000	95.546909
662.000000	95.320709
661.000000	95.203984
660.000000	95.218811
659.000000	95.370822
658.000000	95.625449
657.000000	95.888835
656.000000	96.062462
655.000000	96.095693
654.000000	95.978766
653.000000	95.731075
652.000000	95.421745
651.000000	95.158590
650.000000	95.021416
649.000000	95.020002
648.000000	95.125530
647.000000	95.296828
646.000000	95.460592
645.000000	95.520657
644.000000	95.415554
643.000000	95.155727
642.000000	94.803688
641.000000	94.436173
640.000000	94.134613
639.000000	93.972823
638.000000	93.973434
637.000000	94.086160
636.000000	94.223300
635.000000	94.299845
634.000000	94.247066
633.000000	94.029456
632.000000	93.672345
631.000000	93.260340
630.000000	92.890937
629.000000	92.628286
628.000000	92.497153
627.000000	92.485232
626.000000	92.532072
625.000000	92.545512
624.000000	92.448447
623.000000	92.211579
622.000000	91.848865
621.000000	91.404626
620.000000	90.946886
619.000000	90.542238
618.000000	90.217023
617.000000	89.949298
616.000000	89.702394
615.000000	89.440406
614.000000	89.107765
613.000000	88.636153
612.000000	87.994823
611.000000	87.216813
610.000000	86.363295
609.000000	85.479466
608.000000	84.595823
607.000000	83.729898
606.000000	82.855022
605.000000	81.896672
604.000000	80.785530
603.000000	79.502593
602.000000	78.056953
601.000000	76.459304
600.000000	74.748089
599.000000	73.006677
598.000000	71.305815
597.000000	69.654693
596.000000	68.042109
595.000000	66.480675
594.000000	64.972450
593.000000	63.482034
592.000000	62.003822
591.000000	60.606214
590.000000	59.356222
589.000000	58.247958
588.000000	57.248424
587.000000	56.348992
586.000000	55.511552
585.000000	54.630222
584.000000	53.618681
583.000000	52.493000
582.000000	51.329353
581.000000	50.209758
580.000000	49.258931
579.000000	48.663797
578.000000	48.559587
577.000000	48.948264
576.000000	49.749966
575.000000	50.842929
574.000000	52.034274
573.000000	53.091936
572.000000	53.893865
571.000000	54.516691
570.000000	55.151238
569.000000	55.960450
568.000000	57.019472
567.000000	58.307115
566.000000	59.696891
565.000000	61.016334
564.000000	62.164114
563.000000	63.145508
562.000000	63.994419
561.000000	64.719276
560.000000	65.339794
559.000000	65.911314
558.000000	66.478948
557.000000	67.047949
556.000000	67.618987
555.000000	68.214570
554.000000	68.841386
553.000000	69.469877
552.000000	70.076601
551.000000	70.669139
550.000000	71.249320
549.000000	71.789367
548.000000	72.270847
547.000000	72.714361
546.000000	73.148622
545.000000	73.578930
544.000000	74.006213
543.000000	74.445570
542.000000	74.904168
541.000000	75.364327
540.000000	75.807626
539.000000	76.229291
538.000000	76.615906
537.000000	76.937736
536.000000	77.180984
535.000000	77.369717
534.000000	77.540291
533.000000	77.719324
532.000000	77.923150
531.000000	78.158103
530.000000	78.403609
529.000000	78.606597
528.000000	78.703055
527.000000	78.648245
526.000000	78.416672
525.000000	78.002113
524.000000	77.438012
523.000000	76.799398
522.000000	76.182396
521.000000	75.668424
520.000000	75.288557
519.000000	74.977588
518.000000	74.535197
517.000000	73.687197
516.000000	72.246735
515.000000	70.248664
514.000000	67.944604
513.000000	65.701702
512.000000	63.895087
511.000000	62.821237
510.000000	62.606429
509.000000	63.186095
508.000000	64.394877
507.000000	66.025701
506.000000	67.834072
505.000000	69.592809
504.000000	71.180190
503.000000	72.591806
502.000000	73.866592
501.000000	75.043282
500.000000	76.164143
499.000000	77.268536
498.000000	78.350387
497.000000	79.350498
496.000000	80.196555
495.000000	80.842114
494.000000	81.287814
493.000000	81.580766
492.000000	81.812481
491.000000	82.096228
490.000000	82.510614
489.000000	83.067710
488.000000	83.713103
487.000000	84.353915
486.000000	84.889312
485.000000	85.242391
484.000000	85.395097
483.000000	85.400487
482.000000	85.356500
481.000000	85.360506
480.000000	85.484593
479.000000	85.758658
478.000000	86.135464
477.000000	86.494690
476.000000	86.703069
475.000000	86.659932
474.000000	86.292172
473.000000	85.558737
472.000000	84.516389
471.000000	83.358287
470.000000	82.312258
469.000000	81.541661
468.000000	81.137564
467.000000	81.082106
466.000000	81.166539
465.000000	81.051558
464.000000	80.464803
463.000000	79.390290
462.000000	78.131756
461.000000	77.167239
460.000000	76.929068
459.000000	77.641305
458.000000	79.188903
457.000000	81.104365
456.000000	82.862781
455.000000	84.211404
454.000000	85.136736
453.000000	85.693575
452.000000	85.969566
451.000000	86.100700
450.000000	86.180931
449.000000	86.196584
448.000000	86.064173
447.000000	85.697026
446.000000	85.056161
445.000000	84.196069
444.000000	83.287816
443.000000	82.579102
442.000000	82.266758
441.000000	82.387944
440.000000	82.865924
439.000000	83.588114
438.000000	84.415610
437.000000	85.193197
436.000000	85.799809
435.000000	86.185997
434.000000	86.354110
433.000000	86.329460
432.000000	86.165185
431.000000	85.955000
430.000000	85.807406
429.000000	85.776404
428.000000	85.845708
427.000000	85.960293
426.000000	86.040683
425.000000	85.988595
424.000000	85.749876
423.000000	85.395415
422.000000	85.062390
421.000000	84.817188
420.000000	84.636322
419.000000	84.529358
418.000000	84.560729
417.000000	84.693416
416.000000	84.828746
415.000000	84.921168
414.000000	84.944393
413.000000	84.872789
412.000000	84.730545
411.000000	84.606694
410.000000	84.602129
409.000000	84.731586
408.000000	84.941999
407.000000	85.196053
406.000000	85.463566
405.000000	85.672047
404.000000	85.768358
403.000000	85.797080
402.000000	85.864964
401.000000	86.033784
400.000000	86.257007
