PE IR       SUBTECH     SPECTRUM    ASCII       PEDS        4.00        
   -1
23ms108_cis.asc
24/10/22
16:23:01.00
24/10/22
16:23:01.00
Administrator
Sample 1337 By Administrator Date Tuesday, October 22 2024
400.000000
#HDR
-1
-1
#GR
cm-1
%T
1.0
0.0
4000.000000
-1.000000
3601
8
89.128220
17.794143
#DATA
4000.000000	69.017576
3999.000000	69.002350
3998.000000	68.991870
3997.000000	68.983872
3996.000000	68.977084
3995.000000	68.971803
3994.000000	68.968207
3993.000000	68.965720
3992.000000	68.964651
3991.000000	68.967140
3990.000000	68.974702
3989.000000	68.986098
3988.000000	68.999412
3987.000000	69.015038
3986.000000	69.035202
3985.000000	69.060888
3984.000000	69.090776
3983.000000	69.122804
3982.000000	69.155796
3981.000000	69.189868
3980.000000	69.225649
3979.000000	69.263624
3978.000000	69.304599
3977.000000	69.348945
3976.000000	69.395227
3975.000000	69.440338
3974.000000	69.482078
3973.000000	69.520797
3972.000000	69.557743
3971.000000	69.594227
3970.000000	69.631058
3969.000000	69.668325
3968.000000	69.705656
3967.000000	69.743340
3966.000000	69.782462
3965.000000	69.824541
3964.000000	69.870819
3963.000000	69.921490
3962.000000	69.976239
3961.000000	70.033617
3960.000000	70.090430
3959.000000	70.146317
3958.000000	70.204198
3957.000000	70.265840
3956.000000	70.328549
3955.000000	70.388243
3954.000000	70.443532
3953.000000	70.494481
3952.000000	70.541101
3951.000000	70.583405
3950.000000	70.621504
3949.000000	70.656590
3948.000000	70.693330
3947.000000	70.735883
3946.000000	70.781540
3945.000000	70.824329
3944.000000	70.864766
3943.000000	70.907764
3942.000000	70.953063
3941.000000	70.994428
3940.000000	71.028690
3939.000000	71.064762
3938.000000	71.113066
3937.000000	71.170796
3936.000000	71.223655
3935.000000	71.262593
3934.000000	71.295014
3933.000000	71.330856
3932.000000	71.368353
3931.000000	71.398296
3930.000000	71.418685
3929.000000	71.440876
3928.000000	71.472042
3927.000000	71.503712
3926.000000	71.527459
3925.000000	71.548210
3924.000000	71.570141
3923.000000	71.584248
3922.000000	71.583990
3921.000000	71.581926
3920.000000	71.592154
3919.000000	71.608993
3918.000000	71.619116
3917.000000	71.626344
3916.000000	71.644260
3915.000000	71.671950
3914.000000	71.698446
3913.000000	71.726332
3912.000000	71.760840
3911.000000	71.800194
3910.000000	71.835688
3909.000000	71.866860
3908.000000	71.899163
3907.000000	71.928448
3906.000000	71.940896
3905.000000	71.932546
3904.000000	71.917480
3903.000000	71.910305
3902.000000	71.909889
3901.000000	71.913347
3900.000000	71.935541
3899.000000	71.987001
3898.000000	72.052964
3897.000000	72.116492
3896.000000	72.180156
3895.000000	72.259348
3894.000000	72.347846
3893.000000	72.419033
3892.000000	72.456833
3891.000000	72.487275
3890.000000	72.533453
3889.000000	72.576263
3888.000000	72.593691
3887.000000	72.604199
3886.000000	72.644361
3885.000000	72.719797
3884.000000	72.785897
3883.000000	72.808084
3882.000000	72.808212
3881.000000	72.824532
3880.000000	72.865603
3879.000000	72.910494
3878.000000	72.932757
3877.000000	72.930194
3876.000000	72.924120
3875.000000	72.941545
3874.000000	72.991584
3873.000000	73.038118
3872.000000	73.031568
3871.000000	72.985576
3870.000000	72.974565
3869.000000	73.035529
3868.000000	73.103084
3867.000000	73.113567
3866.000000	73.107260
3865.000000	73.150210
3864.000000	73.222384
3863.000000	73.264419
3862.000000	73.267873
3861.000000	73.278501
3860.000000	73.320961
3859.000000	73.391558
3858.000000	73.483908
3857.000000	73.591280
3856.000000	73.683124
3855.000000	73.707731
3854.000000	73.652218
3853.000000	73.589297
3852.000000	73.567285
3851.000000	73.557529
3850.000000	73.557399
3849.000000	73.600833
3848.000000	73.682144
3847.000000	73.762925
3846.000000	73.822621
3845.000000	73.865257
3844.000000	73.898245
3843.000000	73.935312
3842.000000	73.975585
3841.000000	74.007929
3840.000000	74.026941
3839.000000	74.041221
3838.000000	74.059612
3837.000000	74.084968
3836.000000	74.114967
3835.000000	74.146883
3834.000000	74.176617
3833.000000	74.205363
3832.000000	74.241739
3831.000000	74.290326
3830.000000	74.342688
3829.000000	74.383881
3828.000000	74.405381
3827.000000	74.429532
3826.000000	74.483956
3825.000000	74.557289
3824.000000	74.605978
3823.000000	74.614662
3822.000000	74.615049
3821.000000	74.656892
3820.000000	74.735989
3819.000000	74.781611
3818.000000	74.766402
3817.000000	74.743345
3816.000000	74.776753
3815.000000	74.857747
3814.000000	74.911974
3813.000000	74.913008
3812.000000	74.918727
3811.000000	74.976828
3810.000000	75.063164
3809.000000	75.115848
3808.000000	75.119546
3807.000000	75.131311
3806.000000	75.190546
3805.000000	75.257194
3804.000000	75.276840
3803.000000	75.265944
3802.000000	75.280399
3801.000000	75.345048
3800.000000	75.409812
3799.000000	75.417274
3798.000000	75.394744
3797.000000	75.403209
3796.000000	75.458735
3795.000000	75.521624
3794.000000	75.556697
3793.000000	75.574878
3792.000000	75.606852
3791.000000	75.656988
3790.000000	75.707719
3789.000000	75.747267
3788.000000	75.779370
3787.000000	75.807795
3786.000000	75.831203
3785.000000	75.854426
3784.000000	75.885404
3783.000000	75.918781
3782.000000	75.940694
3781.000000	75.952294
3780.000000	75.968632
3779.000000	76.002357
3778.000000	76.042643
3777.000000	76.067252
3776.000000	76.075321
3775.000000	76.095715
3774.000000	76.145530
3773.000000	76.200718
3772.000000	76.229519
3771.000000	76.244769
3770.000000	76.281212
3769.000000	76.337157
3768.000000	76.377746
3767.000000	76.392734
3766.000000	76.415076
3765.000000	76.473924
3764.000000	76.551315
3763.000000	76.605500
3762.000000	76.628158
3761.000000	76.658927
3760.000000	76.716508
3759.000000	76.773736
3758.000000	76.810702
3757.000000	76.844442
3756.000000	76.887213
3755.000000	76.924553
3754.000000	76.951918
3753.000000	76.990808
3752.000000	77.042465
3751.000000	77.072557
3750.000000	77.083677
3749.000000	77.128040
3748.000000	77.204547
3747.000000	77.251512
3746.000000	77.251947
3745.000000	77.265517
3744.000000	77.353999
3743.000000	77.465473
3742.000000	77.494234
3741.000000	77.464508
3740.000000	77.468586
3739.000000	77.519502
3738.000000	77.566214
3737.000000	77.597425
3736.000000	77.660903
3735.000000	77.757429
3734.000000	77.823269
3733.000000	77.841793
3732.000000	77.865674
3731.000000	77.921403
3730.000000	77.973978
3729.000000	77.989986
3728.000000	77.992125
3727.000000	78.025286
3726.000000	78.094503
3725.000000	78.156223
3724.000000	78.185794
3723.000000	78.207841
3722.000000	78.245397
3721.000000	78.297573
3720.000000	78.348298
3719.000000	78.389738
3718.000000	78.434627
3717.000000	78.496875
3716.000000	78.562212
3715.000000	78.604607
3714.000000	78.627562
3713.000000	78.660850
3712.000000	78.717251
3711.000000	78.781322
3710.000000	78.839589
3709.000000	78.894296
3708.000000	78.953174
3707.000000	79.020465
3706.000000	79.092178
3705.000000	79.159673
3704.000000	79.217587
3703.000000	79.270137
3702.000000	79.324372
3701.000000	79.384412
3700.000000	79.441567
3699.000000	79.478725
3698.000000	79.501067
3697.000000	79.539033
3696.000000	79.600744
3695.000000	79.655461
3694.000000	79.682541
3693.000000	79.703673
3692.000000	79.743014
3691.000000	79.789473
3690.000000	79.822374
3689.000000	79.853557
3688.000000	79.911432
3687.000000	79.982427
3686.000000	80.023960
3685.000000	80.034576
3684.000000	80.051429
3683.000000	80.090585
3682.000000	80.130256
3681.000000	80.151143
3680.000000	80.175914
3679.000000	80.215844
3678.000000	80.237111
3677.000000	80.225577
3676.000000	80.237126
3675.000000	80.324459
3674.000000	80.424343
3673.000000	80.435371
3672.000000	80.377176
3671.000000	80.360487
3670.000000	80.437660
3669.000000	80.547977
3668.000000	80.612389
3667.000000	80.627839
3666.000000	80.635478
3665.000000	80.662333
3664.000000	80.703178
3663.000000	80.739447
3662.000000	80.764877
3661.000000	80.784808
3660.000000	80.805284
3659.000000	80.817697
3658.000000	80.815865
3657.000000	80.815866
3656.000000	80.845800
3655.000000	80.894400
3654.000000	80.906654
3653.000000	80.860168
3652.000000	80.805926
3651.000000	80.805145
3650.000000	80.853311
3649.000000	80.898048
3648.000000	80.926682
3647.000000	80.968740
3646.000000	81.023265
3645.000000	81.066005
3644.000000	81.093397
3643.000000	81.126192
3642.000000	81.174983
3641.000000	81.223517
3640.000000	81.251954
3639.000000	81.263797
3638.000000	81.276396
3637.000000	81.287989
3636.000000	81.283041
3635.000000	81.265616
3634.000000	81.257682
3633.000000	81.255676
3632.000000	81.222410
3631.000000	81.145999
3630.000000	81.072303
3629.000000	81.059415
3628.000000	81.096622
3627.000000	81.109258
3626.000000	81.063047
3625.000000	80.998279
3624.000000	80.956749
3623.000000	80.929618
3622.000000	80.881395
3621.000000	80.803282
3620.000000	80.714111
3619.000000	80.623345
3618.000000	80.524927
3617.000000	80.410917
3616.000000	80.280863
3615.000000	80.147627
3614.000000	80.027673
3613.000000	79.920058
3612.000000	79.802762
3611.000000	79.657093
3610.000000	79.496195
3609.000000	79.355297
3608.000000	79.246683
3607.000000	79.146422
3606.000000	79.029374
3605.000000	78.895535
3604.000000	78.760079
3603.000000	78.628501
3602.000000	78.496162
3601.000000	78.366190
3600.000000	78.244571
3599.000000	78.122002
3598.000000	77.992024
3597.000000	77.859307
3596.000000	77.728987
3595.000000	77.598511
3594.000000	77.463543
3593.000000	77.321794
3592.000000	77.174108
3591.000000	77.022693
3590.000000	76.879969
3589.000000	76.770753
3588.000000	76.711623
3587.000000	76.691559
3586.000000	76.682636
3585.000000	76.666401
3584.000000	76.641262
3583.000000	76.609160
3582.000000	76.566727
3581.000000	76.509187
3580.000000	76.435564
3579.000000	76.346923
3578.000000	76.247303
3577.000000	76.143796
3576.000000	76.040302
3575.000000	75.935762
3574.000000	75.827735
3573.000000	75.714335
3572.000000	75.592901
3571.000000	75.456579
3570.000000	75.298197
3569.000000	75.123225
3568.000000	74.948554
3567.000000	74.784483
3566.000000	74.627918
3565.000000	74.474134
3564.000000	74.324207
3563.000000	74.180112
3562.000000	74.037161
3561.000000	73.885548
3560.000000	73.717772
3559.000000	73.532592
3558.000000	73.334107
3557.000000	73.130032
3556.000000	72.925062
3555.000000	72.715505
3554.000000	72.494176
3553.000000	72.259853
3552.000000	72.017358
3551.000000	71.768455
3550.000000	71.508266
3549.000000	71.235208
3548.000000	70.954959
3547.000000	70.671836
3546.000000	70.383804
3545.000000	70.089794
3544.000000	69.792817
3543.000000	69.494378
3542.000000	69.190791
3541.000000	68.877072
3540.000000	68.549066
3539.000000	68.201360
3538.000000	67.830625
3537.000000	67.439956
3536.000000	67.036654
3535.000000	66.624122
3534.000000	66.200931
3533.000000	65.766108
3532.000000	65.319284
3531.000000	64.854490
3530.000000	64.361217
3529.000000	63.835585
3528.000000	63.285622
3527.000000	62.721697
3526.000000	62.146917
3525.000000	61.560158
3524.000000	60.961298
3523.000000	60.350007
3522.000000	59.724657
3521.000000	59.084579
3520.000000	58.430113
3519.000000	57.759160
3518.000000	57.068290
3517.000000	56.357382
3516.000000	55.630694
3515.000000	54.893413
3514.000000	54.148587
3513.000000	53.395241
3512.000000	52.627630
3511.000000	51.837155
3510.000000	51.021042
3509.000000	50.191380
3508.000000	49.368486
3507.000000	48.561207
3506.000000	47.758321
3505.000000	46.940538
3504.000000	46.098141
3503.000000	45.238372
3502.000000	44.380896
3501.000000	43.545961
3500.000000	42.741042
3499.000000	41.955969
3498.000000	41.173563
3497.000000	40.385491
3496.000000	39.596581
3495.000000	38.817222
3494.000000	38.056826
3493.000000	37.322520
3492.000000	36.616395
3491.000000	35.931994
3490.000000	35.258954
3489.000000	34.593831
3488.000000	33.944781
3487.000000	33.325069
3486.000000	32.743984
3485.000000	32.201191
3484.000000	31.683855
3483.000000	31.172602
3482.000000	30.658421
3481.000000	30.154020
3480.000000	29.682704
3479.000000	29.254755
3478.000000	28.859742
3477.000000	28.479510
3476.000000	28.101544
3475.000000	27.722280
3474.000000	27.345483
3473.000000	26.979779
3472.000000	26.633029
3471.000000	26.308094
3470.000000	26.007219
3469.000000	25.737579
3468.000000	25.508360
3467.000000	25.324196
3466.000000	25.185212
3465.000000	25.090986
3464.000000	25.038610
3463.000000	25.020938
3462.000000	25.034693
3461.000000	25.087378
3460.000000	25.189575
3459.000000	25.340631
3458.000000	25.527861
3457.000000	25.738111
3456.000000	25.963044
3455.000000	26.194708
3454.000000	26.423788
3453.000000	26.643421
3452.000000	26.849350
3451.000000	27.034067
3450.000000	27.182807
3449.000000	27.277361
3448.000000	27.304172
3447.000000	27.262648
3446.000000	27.169082
3445.000000	27.045857
3444.000000	26.903240
3443.000000	26.735160
3442.000000	26.534878
3441.000000	26.310656
3440.000000	26.080262
3439.000000	25.856229
3438.000000	25.645007
3437.000000	25.455944
3436.000000	25.301541
3435.000000	25.188354
3434.000000	25.114248
3433.000000	25.075015
3432.000000	25.069953
3431.000000	25.101202
3430.000000	25.174028
3429.000000	25.297127
3428.000000	25.475930
3427.000000	25.709116
3426.000000	25.993795
3425.000000	26.331657
3424.000000	26.725630
3423.000000	27.171345
3422.000000	27.661519
3421.000000	28.195045
3420.000000	28.776366
3419.000000	29.407874
3418.000000	30.085069
3417.000000	30.799761
3416.000000	31.541778
3415.000000	32.299825
3414.000000	33.066892
3413.000000	33.842092
3412.000000	34.624757
3411.000000	35.408860
3410.000000	36.186789
3409.000000	36.955665
3408.000000	37.714481
3407.000000	38.457621
3406.000000	39.177099
3405.000000	39.869068
3404.000000	40.534216
3403.000000	41.175384
3402.000000	41.798751
3401.000000	42.413422
3400.000000	43.023523
3399.000000	43.622088
3398.000000	44.198346
3397.000000	44.748832
3396.000000	45.276785
3395.000000	45.785043
3394.000000	46.275222
3393.000000	46.752615
3392.000000	47.225204
3391.000000	47.696738
3390.000000	48.165635
3389.000000	48.629029
3388.000000	49.084372
3387.000000	49.528411
3386.000000	49.959263
3385.000000	50.379637
3384.000000	50.794391
3383.000000	51.206210
3382.000000	51.616198
3381.000000	52.026322
3380.000000	52.437732
3379.000000	52.848573
3378.000000	53.256872
3377.000000	53.663799
3376.000000	54.070580
3375.000000	54.474326
3374.000000	54.870520
3373.000000	55.258437
3372.000000	55.641239
3371.000000	56.022278
3370.000000	56.404193
3369.000000	56.789200
3368.000000	57.176967
3367.000000	57.563423
3366.000000	57.944300
3365.000000	58.318813
3364.000000	58.687952
3363.000000	59.051652
3362.000000	59.410463
3361.000000	59.767468
3360.000000	60.125252
3359.000000	60.482371
3358.000000	60.835603
3357.000000	61.184079
3356.000000	61.527992
3355.000000	61.865693
3354.000000	62.195639
3353.000000	62.519873
3352.000000	62.842255
3351.000000	63.163829
3350.000000	63.482401
3349.000000	63.795592
3348.000000	64.101973
3347.000000	64.400416
3346.000000	64.690892
3345.000000	64.975240
3344.000000	65.254611
3343.000000	65.527158
3342.000000	65.790681
3341.000000	66.045974
3340.000000	66.295601
3339.000000	66.540437
3338.000000	66.779026
3337.000000	67.009564
3336.000000	67.230009
3335.000000	67.437596
3334.000000	67.630568
3333.000000	67.808981
3332.000000	67.972717
3331.000000	68.119083
3330.000000	68.244296
3329.000000	68.346682
3328.000000	68.425495
3327.000000	68.478659
3326.000000	68.502813
3325.000000	68.494671
3324.000000	68.451193
3323.000000	68.368146
3322.000000	68.241774
3321.000000	68.069777
3320.000000	67.848403
3319.000000	67.572307
3318.000000	67.235342
3317.000000	66.833223
3316.000000	66.361048
3315.000000	65.809766
3314.000000	65.169944
3313.000000	64.433812
3312.000000	63.594501
3311.000000	62.645106
3310.000000	61.578638
3309.000000	60.394296
3308.000000	59.094125
3307.000000	57.678983
3306.000000	56.150139
3305.000000	54.508165
3304.000000	52.755325
3303.000000	50.893052
3302.000000	48.926483
3301.000000	46.869647
3300.000000	44.741843
3299.000000	42.567255
3298.000000	40.380135
3297.000000	38.228027
3296.000000	36.162495
3295.000000	34.226635
3294.000000	32.451844
3293.000000	30.861998
3292.000000	29.471071
3291.000000	28.272666
3290.000000	27.245908
3289.000000	26.361975
3288.000000	25.589564
3287.000000	24.898556
3286.000000	24.262702
3285.000000	23.668025
3284.000000	23.108333
3283.000000	22.581544
3282.000000	22.093434
3281.000000	21.657486
3280.000000	21.289282
3279.000000	20.999024
3278.000000	20.794184
3277.000000	20.684638
3276.000000	20.676106
3275.000000	20.765083
3274.000000	20.941713
3273.000000	21.193212
3272.000000	21.501261
3271.000000	21.836395
3270.000000	22.163458
3269.000000	22.449909
3268.000000	22.667052
3267.000000	22.790444
3266.000000	22.807409
3265.000000	22.721834
3264.000000	22.548878
3263.000000	22.308899
3262.000000	22.026336
3261.000000	21.731431
3260.000000	21.453333
3259.000000	21.213418
3258.000000	21.027987
3257.000000	20.911491
3256.000000	20.871661
3255.000000	20.906098
3254.000000	21.008316
3253.000000	21.171883
3252.000000	21.387368
3251.000000	21.637077
3250.000000	21.900971
3249.000000	22.164840
3248.000000	22.417310
3247.000000	22.645217
3246.000000	22.836696
3245.000000	22.987244
3244.000000	23.098192
3243.000000	23.172302
3242.000000	23.213288
3241.000000	23.227395
3240.000000	23.220583
3239.000000	23.195308
3238.000000	23.154546
3237.000000	23.104111
3236.000000	23.049793
3235.000000	22.995208
3234.000000	22.943945
3233.000000	22.899864
3232.000000	22.860825
3231.000000	22.816871
3230.000000	22.758217
3229.000000	22.680906
3228.000000	22.583278
3227.000000	22.461991
3226.000000	22.315772
3225.000000	22.148576
3224.000000	21.963956
3223.000000	21.761379
3222.000000	21.541155
3221.000000	21.309266
3220.000000	21.074181
3219.000000	20.842372
3218.000000	20.619664
3217.000000	20.410767
3216.000000	20.214049
3215.000000	20.022197
3214.000000	19.832046
3213.000000	19.648117
3212.000000	19.473003
3211.000000	19.300717
3210.000000	19.124589
3209.000000	18.946783
3208.000000	18.774270
3207.000000	18.610501
3206.000000	18.456367
3205.000000	18.314467
3204.000000	18.187493
3203.000000	18.075641
3202.000000	17.979968
3201.000000	17.904535
3200.000000	17.850654
3199.000000	17.814571
3198.000000	17.794277
3197.000000	17.794143
3196.000000	17.819183
3195.000000	17.868048
3194.000000	17.937257
3193.000000	18.026241
3192.000000	18.134093
3191.000000	18.257111
3190.000000	18.392648
3189.000000	18.542340
3188.000000	18.706681
3187.000000	18.880733
3186.000000	19.059988
3185.000000	19.245327
3184.000000	19.439260
3183.000000	19.641202
3182.000000	19.849630
3181.000000	20.064389
3180.000000	20.282616
3179.000000	20.497874
3178.000000	20.707476
3177.000000	20.916058
3176.000000	21.128096
3175.000000	21.341062
3174.000000	21.549893
3173.000000	21.753407
3172.000000	21.952289
3171.000000	22.145053
3170.000000	22.330545
3169.000000	22.510671
3168.000000	22.686607
3167.000000	22.856115
3166.000000	23.017379
3165.000000	23.171965
3164.000000	23.320834
3163.000000	23.461212
3162.000000	23.590837
3161.000000	23.710731
3160.000000	23.821260
3159.000000	23.919687
3158.000000	24.004509
3157.000000	24.078845
3156.000000	24.146119
3155.000000	24.206984
3154.000000	24.263374
3153.000000	24.320674
3152.000000	24.382781
3151.000000	24.448844
3150.000000	24.518110
3149.000000	24.593604
3148.000000	24.677793
3147.000000	24.768820
3146.000000	24.864338
3145.000000	24.964840
3144.000000	25.070149
3143.000000	25.177168
3142.000000	25.284017
3141.000000	25.392263
3140.000000	25.501827
3139.000000	25.608227
3138.000000	25.707821
3137.000000	25.801068
3136.000000	25.887160
3135.000000	25.959697
3134.000000	26.011824
3133.000000	26.041183
3132.000000	26.047222
3131.000000	26.026771
3130.000000	25.974724
3129.000000	25.887039
3128.000000	25.759797
3127.000000	25.591282
3126.000000	25.387104
3125.000000	25.159160
3124.000000	24.918468
3123.000000	24.671548
3122.000000	24.426086
3121.000000	24.193222
3120.000000	23.980089
3119.000000	23.785103
3118.000000	23.603901
3117.000000	23.435449
3116.000000	23.279295
3115.000000	23.132347
3114.000000	22.991808
3113.000000	22.857580
3112.000000	22.728606
3111.000000	22.601414
3110.000000	22.475603
3109.000000	22.355855
3108.000000	22.246239
3107.000000	22.147252
3106.000000	22.060625
3105.000000	21.992338
3104.000000	21.946484
3103.000000	21.921819
3102.000000	21.918471
3101.000000	21.942586
3100.000000	22.001723
3099.000000	22.097956
3098.000000	22.229531
3097.000000	22.395247
3096.000000	22.593097
3095.000000	22.820820
3094.000000	23.078863
3093.000000	23.369496
3092.000000	23.691086
3091.000000	24.036338
3090.000000	24.399572
3089.000000	24.779463
3088.000000	25.173548
3087.000000	25.576254
3086.000000	25.983990
3085.000000	26.397735
3084.000000	26.816907
3083.000000	27.236102
3082.000000	27.650965
3081.000000	28.061958
3080.000000	28.470060
3079.000000	28.873553
3078.000000	29.271871
3077.000000	29.667165
3076.000000	30.059210
3075.000000	30.443330
3074.000000	30.816199
3073.000000	31.179504
3072.000000	31.534871
3071.000000	31.880355
3070.000000	32.214679
3069.000000	32.540451
3068.000000	32.860069
3067.000000	33.171982
3066.000000	33.474567
3065.000000	33.769691
3064.000000	34.059560
3063.000000	34.343890
3062.000000	34.622443
3061.000000	34.896976
3060.000000	35.167816
3059.000000	35.432101
3058.000000	35.688216
3057.000000	35.938346
3056.000000	36.184856
3055.000000	36.427671
3054.000000	36.667201
3053.000000	36.906206
3052.000000	37.145854
3051.000000	37.383369
3050.000000	37.615955
3049.000000	37.843915
3048.000000	38.068361
3047.000000	38.289165
3046.000000	38.507086
3045.000000	38.724406
3044.000000	38.941543
3043.000000	39.156570
3042.000000	39.369292
3041.000000	39.581921
3040.000000	39.794393
3039.000000	40.003016
3038.000000	40.205909
3037.000000	40.405901
3036.000000	40.606233
3035.000000	40.807149
3034.000000	41.008160
3033.000000	41.209653
3032.000000	41.410621
3031.000000	41.609018
3030.000000	41.805901
3029.000000	42.004903
3028.000000	42.206110
3027.000000	42.404900
3026.000000	42.598444
3025.000000	42.788812
3024.000000	42.977349
3023.000000	43.160643
3022.000000	43.334522
3021.000000	43.497404
3020.000000	43.647086
3019.000000	43.777316
3018.000000	43.881355
3017.000000	43.955937
3016.000000	44.000022
3015.000000	44.014498
3014.000000	44.006330
3013.000000	43.991342
3012.000000	43.989524
3011.000000	44.019156
3010.000000	44.094512
3009.000000	44.223061
3008.000000	44.400461
3007.000000	44.610182
3006.000000	44.830182
3005.000000	45.038420
3004.000000	45.211943
3003.000000	45.325219
3002.000000	45.353219
3001.000000	45.275041
3000.000000	45.079029
2999.000000	44.773054
2998.000000	44.397569
2997.000000	44.025513
2996.000000	43.742373
2995.000000	43.619227
2994.000000	43.691438
2993.000000	43.949939
2992.000000	44.344205
2991.000000	44.803525
2990.000000	45.265394
2989.000000	45.692045
2988.000000	46.068166
2987.000000	46.391092
2986.000000	46.665897
2985.000000	46.900519
2984.000000	47.099769
2983.000000	47.262676
2982.000000	47.387386
2981.000000	47.473595
2980.000000	47.519178
2979.000000	47.518083
2978.000000	47.464731
2977.000000	47.360346
2976.000000	47.213768
2975.000000	47.042143
2974.000000	46.871569
2973.000000	46.731663
2972.000000	46.643649
2971.000000	46.610959
2970.000000	46.618647
2969.000000	46.634908
2968.000000	46.612778
2967.000000	46.501949
2966.000000	46.271877
2965.000000	45.928861
2964.000000	45.512941
2963.000000	45.080655
2962.000000	44.688674
2961.000000	44.381228
2960.000000	44.183291
2959.000000	44.101721
2958.000000	44.134639
2957.000000	44.275069
2956.000000	44.506463
2955.000000	44.801405
2954.000000	45.127837
2953.000000	45.454507
2952.000000	45.748993
2951.000000	45.981410
2950.000000	46.135966
2949.000000	46.219509
2948.000000	46.254448
2947.000000	46.261040
2946.000000	46.239943
2945.000000	46.158675
2944.000000	45.954800
2943.000000	45.568827
2942.000000	45.000970
2941.000000	44.348377
2940.000000	43.786971
2939.000000	43.501061
2938.000000	43.601468
2937.000000	44.081980
2936.000000	44.832445
2935.000000	45.699906
2934.000000	46.554596
2933.000000	47.323286
2932.000000	47.982407
2931.000000	48.537641
2930.000000	49.008944
2929.000000	49.419078
2928.000000	49.785626
2927.000000	50.118041
2926.000000	50.422914
2925.000000	50.706432
2924.000000	50.971181
2923.000000	51.214898
2922.000000	51.435436
2921.000000	51.633565
2920.000000	51.809086
2919.000000	51.959215
2918.000000	52.082456
2917.000000	52.181233
2916.000000	52.259044
2915.000000	52.318175
2914.000000	52.361900
2913.000000	52.394957
2912.000000	52.420076
2911.000000	52.436717
2910.000000	52.443819
2909.000000	52.440179
2908.000000	52.420278
2907.000000	52.372576
2906.000000	52.283619
2905.000000	52.140205
2904.000000	51.927552
2903.000000	51.630628
2902.000000	51.243464
2901.000000	50.776116
2900.000000	50.255938
2899.000000	49.726989
2898.000000	49.245910
2897.000000	48.871535
2896.000000	48.646279
2895.000000	48.584277
2894.000000	48.674436
2893.000000	48.888658
2892.000000	49.189244
2891.000000	49.536414
2890.000000	49.898295
2889.000000	50.254302
2888.000000	50.591178
2887.000000	50.899388
2886.000000	51.174012
2885.000000	51.415457
2884.000000	51.625299
2883.000000	51.804831
2882.000000	51.957923
2881.000000	52.091794
2880.000000	52.213043
2879.000000	52.325384
2878.000000	52.432071
2877.000000	52.536750
2876.000000	52.640290
2875.000000	52.739697
2874.000000	52.832350
2873.000000	52.918781
2872.000000	53.001031
2871.000000	53.082303
2870.000000	53.169386
2869.000000	53.271425
2868.000000	53.393463
2867.000000	53.533221
2866.000000	53.684995
2865.000000	53.843171
2864.000000	54.001221
2863.000000	54.152169
2862.000000	54.292844
2861.000000	54.424945
2860.000000	54.550550
2859.000000	54.669666
2858.000000	54.783571
2857.000000	54.896619
2856.000000	55.012442
2855.000000	55.131327
2854.000000	55.252519
2853.000000	55.375172
2852.000000	55.494917
2851.000000	55.602985
2850.000000	55.691694
2849.000000	55.759167
2848.000000	55.808148
2847.000000	55.843676
2846.000000	55.873321
2845.000000	55.905776
2844.000000	55.946485
2843.000000	55.996195
2842.000000	56.054631
2841.000000	56.122998
2840.000000	56.201620
2839.000000	56.288325
2838.000000	56.380862
2837.000000	56.478407
2836.000000	56.579705
2835.000000	56.682646
2834.000000	56.786897
2833.000000	56.894273
2832.000000	57.005275
2831.000000	57.117752
2830.000000	57.230050
2829.000000	57.342491
2828.000000	57.454552
2827.000000	57.563643
2826.000000	57.668137
2825.000000	57.768918
2824.000000	57.866667
2823.000000	57.960285
2822.000000	58.049496
2821.000000	58.136272
2820.000000	58.222029
2819.000000	58.305861
2818.000000	58.386789
2817.000000	58.465226
2816.000000	58.540857
2815.000000	58.611681
2814.000000	58.676824
2813.000000	58.738116
2812.000000	58.797502
2811.000000	58.855125
2810.000000	58.911006
2809.000000	58.966164
2808.000000	59.020737
2807.000000	59.073380
2806.000000	59.123889
2805.000000	59.174089
2804.000000	59.224875
2803.000000	59.274787
2802.000000	59.322783
2801.000000	59.370064
2800.000000	59.417867
2799.000000	59.465694
2798.000000	59.512942
2797.000000	59.559985
2796.000000	59.606410
2795.000000	59.650497
2794.000000	59.691692
2793.000000	59.731455
2792.000000	59.770639
2791.000000	59.808384
2790.000000	59.844581
2789.000000	59.880789
2788.000000	59.917355
2787.000000	59.952071
2786.000000	59.983153
2785.000000	60.011596
2784.000000	60.039582
2783.000000	60.069079
2782.000000	60.103099
2781.000000	60.145474
2780.000000	60.197601
2779.000000	60.257208
2778.000000	60.321449
2777.000000	60.389148
2776.000000	60.459017
2775.000000	60.528332
2774.000000	60.595095
2773.000000	60.659475
2772.000000	60.721877
2771.000000	60.781593
2770.000000	60.838410
2769.000000	60.893458
2768.000000	60.947235
2767.000000	60.998629
2766.000000	61.046944
2765.000000	61.092767
2764.000000	61.135869
2763.000000	61.174577
2762.000000	61.208350
2761.000000	61.238925
2760.000000	61.267756
2759.000000	61.294273
2758.000000	61.317842
2757.000000	61.339166
2756.000000	61.358582
2755.000000	61.375132
2754.000000	61.388663
2753.000000	61.401319
2752.000000	61.415951
2751.000000	61.434713
2750.000000	61.459709
2749.000000	61.492378
2748.000000	61.530701
2747.000000	61.568966
2746.000000	61.601857
2745.000000	61.627805
2744.000000	61.648272
2743.000000	61.665957
2742.000000	61.684100
2741.000000	61.704754
2740.000000	61.726139
2739.000000	61.743527
2738.000000	61.754352
2737.000000	61.761844
2736.000000	61.773566
2735.000000	61.798156
2734.000000	61.842974
2733.000000	61.910856
2732.000000	61.997299
2731.000000	62.092527
2730.000000	62.187438
2729.000000	62.277043
2728.000000	62.358882
2727.000000	62.431519
2726.000000	62.495702
2725.000000	62.554098
2724.000000	62.608085
2723.000000	62.656449
2722.000000	62.697672
2721.000000	62.731338
2720.000000	62.757130
2719.000000	62.774705
2718.000000	62.785824
2717.000000	62.794760
2716.000000	62.805470
2715.000000	62.820180
2714.000000	62.840858
2713.000000	62.869445
2712.000000	62.905722
2711.000000	62.947100
2710.000000	62.991209
2709.000000	63.036839
2708.000000	63.082065
2707.000000	63.124027
2706.000000	63.161430
2705.000000	63.194904
2704.000000	63.224073
2703.000000	63.246687
2702.000000	63.261311
2701.000000	63.268123
2700.000000	63.266599
2699.000000	63.255061
2698.000000	63.233895
2697.000000	63.207254
2696.000000	63.180092
2695.000000	63.155582
2694.000000	63.135951
2693.000000	63.122914
2692.000000	63.115871
2691.000000	63.111791
2690.000000	63.108309
2689.000000	63.105497
2688.000000	63.104142
2687.000000	63.104456
2686.000000	63.107444
2685.000000	63.115107
2684.000000	63.128207
2683.000000	63.145966
2682.000000	63.168455
2681.000000	63.197269
2680.000000	63.232909
2679.000000	63.273499
2678.000000	63.316819
2677.000000	63.361073
2676.000000	63.403248
2675.000000	63.439441
2674.000000	63.467846
2673.000000	63.489372
2672.000000	63.504833
2671.000000	63.514074
2670.000000	63.518753
2669.000000	63.523496
2668.000000	63.533011
2667.000000	63.550112
2666.000000	63.577061
2665.000000	63.615751
2664.000000	63.664826
2663.000000	63.718783
2662.000000	63.771121
2661.000000	63.816751
2660.000000	63.851305
2659.000000	63.871194
2658.000000	63.876020
2657.000000	63.869396
2656.000000	63.856340
2655.000000	63.841539
2654.000000	63.830587
2653.000000	63.829875
2652.000000	63.843584
2651.000000	63.872328
2650.000000	63.915067
2649.000000	63.969821
2648.000000	64.032184
2647.000000	64.095811
2646.000000	64.155885
2645.000000	64.210810
2644.000000	64.260104
2643.000000	64.303608
2642.000000	64.343603
2641.000000	64.384847
2640.000000	64.430826
2639.000000	64.481436
2638.000000	64.534841
2637.000000	64.589234
2636.000000	64.642050
2635.000000	64.689966
2634.000000	64.731300
2633.000000	64.766581
2632.000000	64.796031
2631.000000	64.818700
2630.000000	64.834701
2629.000000	64.846308
2628.000000	64.855561
2627.000000	64.862692
2626.000000	64.867931
2625.000000	64.872430
2624.000000	64.876627
2623.000000	64.879636
2622.000000	64.881179
2621.000000	64.882368
2620.000000	64.883506
2619.000000	64.883081
2618.000000	64.879431
2617.000000	64.871335
2616.000000	64.856653
2615.000000	64.832585
2614.000000	64.798553
2613.000000	64.756974
2612.000000	64.710606
2611.000000	64.661739
2610.000000	64.614443
2609.000000	64.574875
2608.000000	64.547888
2607.000000	64.535140
2606.000000	64.536673
2605.000000	64.552229
2604.000000	64.579968
2603.000000	64.616362
2602.000000	64.659056
2601.000000	64.707157
2600.000000	64.758620
2599.000000	64.809764
2598.000000	64.858047
2597.000000	64.903440
2596.000000	64.946071
2595.000000	64.985250
2594.000000	65.021740
2593.000000	65.058343
2592.000000	65.096833
2591.000000	65.136343
2590.000000	65.175435
2589.000000	65.213359
2588.000000	65.248423
2587.000000	65.277613
2586.000000	65.299504
2585.000000	65.315844
2584.000000	65.329556
2583.000000	65.343466
2582.000000	65.361797
2581.000000	65.390078
2580.000000	65.431910
2579.000000	65.487254
2578.000000	65.554178
2577.000000	65.630399
2576.000000	65.712157
2575.000000	65.794407
2574.000000	65.873930
2573.000000	65.950390
2572.000000	66.023981
2571.000000	66.093953
2570.000000	66.160128
2569.000000	66.223591
2568.000000	66.284731
2567.000000	66.342392
2566.000000	66.395952
2565.000000	66.446447
2564.000000	66.494611
2563.000000	66.540029
2562.000000	66.582917
2561.000000	66.624848
2560.000000	66.666879
2559.000000	66.708493
2558.000000	66.749240
2557.000000	66.789351
2556.000000	66.828247
2555.000000	66.864690
2554.000000	66.899298
2553.000000	66.934979
2552.000000	66.974049
2551.000000	67.016758
2550.000000	67.063107
2549.000000	67.113643
2548.000000	67.167274
2547.000000	67.220384
2546.000000	67.269334
2545.000000	67.312434
2544.000000	67.348852
2543.000000	67.377970
2542.000000	67.400789
2541.000000	67.419812
2540.000000	67.436476
2539.000000	67.449556
2538.000000	67.456992
2537.000000	67.457355
2536.000000	67.448671
2535.000000	67.428696
2534.000000	67.397092
2533.000000	67.356306
2532.000000	67.309629
2531.000000	67.259711
2530.000000	67.209827
2529.000000	67.163734
2528.000000	67.123126
2527.000000	67.086822
2526.000000	67.053114
2525.000000	67.021234
2524.000000	66.989925
2523.000000	66.956941
2522.000000	66.921129
2521.000000	66.883119
2520.000000	66.843046
2519.000000	66.799203
2518.000000	66.749711
2517.000000	66.693786
2516.000000	66.630628
2515.000000	66.559681
2514.000000	66.483017
2513.000000	66.405864
2512.000000	66.334031
2511.000000	66.272473
2510.000000	66.226037
2509.000000	66.198683
2508.000000	66.190774
2507.000000	66.198637
2506.000000	66.218452
2505.000000	66.247940
2504.000000	66.284517
2503.000000	66.325123
2502.000000	66.368288
2501.000000	66.414688
2500.000000	66.464006
2499.000000	66.513224
2498.000000	66.558851
2497.000000	66.598404
2496.000000	66.629255
2495.000000	66.648923
2494.000000	66.657841
2493.000000	66.659787
2492.000000	66.658982
2491.000000	66.658307
2490.000000	66.660619
2489.000000	66.668852
2488.000000	66.683359
2487.000000	66.701517
2486.000000	66.720928
2485.000000	66.741042
2484.000000	66.761171
2483.000000	66.779844
2482.000000	66.797220
2481.000000	66.815840
2480.000000	66.837685
2479.000000	66.862356
2478.000000	66.889214
2477.000000	66.918821
2476.000000	66.951476
2475.000000	66.986700
2474.000000	67.025215
2473.000000	67.069738
2472.000000	67.122427
2471.000000	67.183376
2470.000000	67.251969
2469.000000	67.326871
2468.000000	67.404125
2467.000000	67.477679
2466.000000	67.543341
2465.000000	67.600619
2464.000000	67.650309
2463.000000	67.692785
2462.000000	67.729665
2461.000000	67.764463
2460.000000	67.799614
2459.000000	67.834635
2458.000000	67.867649
2457.000000	67.896928
2456.000000	67.920335
2455.000000	67.935556
2454.000000	67.942824
2453.000000	67.945603
2452.000000	67.947829
2451.000000	67.952138
2450.000000	67.961104
2449.000000	67.977537
2448.000000	68.002227
2447.000000	68.033452
2446.000000	68.069837
2445.000000	68.112030
2444.000000	68.160319
2443.000000	68.212911
2442.000000	68.267531
2441.000000	68.322601
2440.000000	68.376018
2439.000000	68.424761
2438.000000	68.467158
2437.000000	68.503891
2436.000000	68.535968
2435.000000	68.563253
2434.000000	68.585898
2433.000000	68.604968
2432.000000	68.620276
2431.000000	68.629787
2430.000000	68.631662
2429.000000	68.625609
2428.000000	68.611188
2427.000000	68.586589
2426.000000	68.550883
2425.000000	68.505453
2424.000000	68.452948
2423.000000	68.396541
2422.000000	68.340934
2421.000000	68.292093
2420.000000	68.254335
2419.000000	68.229003
2418.000000	68.216138
2417.000000	68.215263
2416.000000	68.223369
2415.000000	68.234713
2414.000000	68.243786
2413.000000	68.246831
2412.000000	68.240050
2411.000000	68.219137
2410.000000	68.181987
2409.000000	68.130074
2408.000000	68.066503
2407.000000	67.994432
2406.000000	67.918618
2405.000000	67.845328
2404.000000	67.778946
2403.000000	67.720421
2402.000000	67.669984
2401.000000	67.629062
2400.000000	67.598198
2399.000000	67.575464
2398.000000	67.558222
2397.000000	67.544551
2396.000000	67.531577
2395.000000	67.514834
2394.000000	67.490741
2393.000000	67.458244
2392.000000	67.416614
2391.000000	67.364774
2390.000000	67.304453
2389.000000	67.241047
2388.000000	67.181593
2387.000000	67.131779
2386.000000	67.097324
2385.000000	67.085124
2384.000000	67.098586
2383.000000	67.136475
2382.000000	67.194510
2381.000000	67.267930
2380.000000	67.350500
2379.000000	67.432310
2378.000000	67.503284
2377.000000	67.558381
2376.000000	67.595425
2375.000000	67.611433
2374.000000	67.605682
2373.000000	67.581130
2372.000000	67.542792
2371.000000	67.494598
2370.000000	67.437149
2369.000000	67.376417
2368.000000	67.324306
2367.000000	67.290797
2366.000000	67.277828
2365.000000	67.289144
2364.000000	67.341185
2363.000000	67.426782
2362.000000	67.530759
2361.000000	67.655121
2360.000000	67.780804
2359.000000	67.897237
2358.000000	67.984728
2357.000000	68.029524
2356.000000	68.037920
2355.000000	67.996543
2354.000000	67.922765
2353.000000	67.857553
2352.000000	67.874295
2351.000000	67.993163
2350.000000	68.116671
2349.000000	68.164905
2348.000000	68.116353
2347.000000	68.061896
2346.000000	68.089254
2345.000000	68.194193
2344.000000	68.322102
2343.000000	68.393548
2342.000000	68.429323
2341.000000	68.455123
2340.000000	68.476045
2339.000000	68.483404
2338.000000	68.476012
2337.000000	68.461975
2336.000000	68.450881
2335.000000	68.440360
2334.000000	68.435528
2333.000000	68.424650
2332.000000	68.397927
2331.000000	68.351548
2330.000000	68.267257
2329.000000	68.177912
2328.000000	68.084486
2327.000000	68.010207
2326.000000	67.960673
2325.000000	67.932742
2324.000000	67.933468
2323.000000	67.932263
2322.000000	67.929064
2321.000000	67.907598
2320.000000	67.875531
2319.000000	67.832792
2318.000000	67.785761
2317.000000	67.742866
2316.000000	67.703261
2315.000000	67.666810
2314.000000	67.622715
2313.000000	67.566775
2312.000000	67.488175
2311.000000	67.388057
2310.000000	67.269338
2309.000000	67.140815
2308.000000	67.005303
2307.000000	66.863134
2306.000000	66.717800
2305.000000	66.572413
2304.000000	66.431857
2303.000000	66.296183
2302.000000	66.166667
2301.000000	66.044065
2300.000000	65.925049
2299.000000	65.808116
2298.000000	65.692686
2297.000000	65.585296
2296.000000	65.488771
2295.000000	65.408295
2294.000000	65.348676
2293.000000	65.316341
2292.000000	65.313328
2291.000000	65.337045
2290.000000	65.384542
2289.000000	65.451276
2288.000000	65.532251
2287.000000	65.621378
2286.000000	65.717022
2285.000000	65.818591
2284.000000	65.924413
2283.000000	66.030240
2282.000000	66.134579
2281.000000	66.236804
2280.000000	66.334604
2279.000000	66.423343
2278.000000	66.501324
2277.000000	66.570591
2276.000000	66.633281
2275.000000	66.692160
2274.000000	66.751781
2273.000000	66.819259
2272.000000	66.899278
2271.000000	66.993236
2270.000000	67.101718
2269.000000	67.224686
2268.000000	67.360085
2267.000000	67.504423
2266.000000	67.655116
2265.000000	67.811376
2264.000000	67.970202
2263.000000	68.127894
2262.000000	68.282603
2261.000000	68.433630
2260.000000	68.579445
2259.000000	68.715895
2258.000000	68.841365
2257.000000	68.956279
2256.000000	69.061628
2255.000000	69.157804
2254.000000	69.246808
2253.000000	69.333080
2252.000000	69.420013
2251.000000	69.509346
2250.000000	69.601782
2249.000000	69.697070
2248.000000	69.792320
2247.000000	69.883287
2246.000000	69.966777
2245.000000	70.041880
2244.000000	70.108274
2243.000000	70.166003
2242.000000	70.216844
2241.000000	70.263571
2240.000000	70.307191
2239.000000	70.346298
2238.000000	70.379278
2237.000000	70.404930
2236.000000	70.421789
2235.000000	70.428999
2234.000000	70.428967
2233.000000	70.427044
2232.000000	70.428384
2231.000000	70.436391
2230.000000	70.453369
2229.000000	70.479841
2228.000000	70.512710
2227.000000	70.546544
2226.000000	70.577221
2225.000000	70.602991
2224.000000	70.622477
2223.000000	70.634604
2222.000000	70.640776
2221.000000	70.644905
2220.000000	70.650459
2219.000000	70.659203
2218.000000	70.672636
2217.000000	70.692307
2216.000000	70.718216
2215.000000	70.748848
2214.000000	70.783207
2213.000000	70.821024
2212.000000	70.861252
2211.000000	70.902474
2210.000000	70.944915
2209.000000	70.989709
2208.000000	71.035914
2207.000000	71.080147
2206.000000	71.119133
2205.000000	71.150739
2204.000000	71.172676
2203.000000	71.182922
2202.000000	71.181973
2201.000000	71.172984
2200.000000	71.159522
2199.000000	71.144905
2198.000000	71.133257
2197.000000	71.128265
2196.000000	71.130446
2195.000000	71.137699
2194.000000	71.149036
2193.000000	71.165704
2192.000000	71.188721
2191.000000	71.217936
2190.000000	71.253794
2189.000000	71.297681
2188.000000	71.349679
2187.000000	71.407883
2186.000000	71.469923
2185.000000	71.533147
2184.000000	71.593374
2183.000000	71.646030
2182.000000	71.689445
2181.000000	71.725450
2180.000000	71.756906
2179.000000	71.786371
2178.000000	71.816634
2177.000000	71.849589
2176.000000	71.883586
2175.000000	71.913845
2174.000000	71.935963
2173.000000	71.947805
2172.000000	71.948680
2171.000000	71.939495
2170.000000	71.924245
2169.000000	71.908857
2168.000000	71.897486
2167.000000	71.891088
2166.000000	71.889271
2165.000000	71.891014
2164.000000	71.893454
2163.000000	71.892909
2162.000000	71.888291
2161.000000	71.882198
2160.000000	71.878477
2159.000000	71.880466
2158.000000	71.891326
2157.000000	71.913094
2156.000000	71.944257
2155.000000	71.979902
2154.000000	72.014858
2153.000000	72.045608
2152.000000	72.069980
2151.000000	72.087725
2150.000000	72.101803
2149.000000	72.116847
2148.000000	72.135473
2147.000000	72.157405
2146.000000	72.181439
2145.000000	72.205926
2144.000000	72.227656
2143.000000	72.243013
2142.000000	72.251025
2141.000000	72.253825
2140.000000	72.254204
2139.000000	72.254433
2138.000000	72.256829
2137.000000	72.262617
2136.000000	72.269730
2135.000000	72.273819
2134.000000	72.271850
2133.000000	72.262914
2132.000000	72.246157
2131.000000	72.220868
2130.000000	72.189107
2129.000000	72.155672
2128.000000	72.124649
2127.000000	72.097765
2126.000000	72.076087
2125.000000	72.060750
2124.000000	72.051400
2123.000000	72.046558
2122.000000	72.046395
2121.000000	72.053383
2120.000000	72.069996
2119.000000	72.097352
2118.000000	72.135553
2117.000000	72.182702
2116.000000	72.233325
2115.000000	72.280301
2114.000000	72.319267
2113.000000	72.349641
2112.000000	72.371798
2111.000000	72.385835
2110.000000	72.393167
2109.000000	72.396820
2108.000000	72.399389
2107.000000	72.402334
2106.000000	72.407471
2105.000000	72.416801
2104.000000	72.430161
2103.000000	72.444850
2102.000000	72.457624
2101.000000	72.465326
2100.000000	72.463808
2099.000000	72.449005
2098.000000	72.420156
2097.000000	72.380371
2096.000000	72.334142
2095.000000	72.286665
2094.000000	72.244958
2093.000000	72.216142
2092.000000	72.203790
2091.000000	72.207722
2090.000000	72.227347
2089.000000	72.262460
2088.000000	72.310403
2087.000000	72.365562
2086.000000	72.422414
2085.000000	72.476857
2084.000000	72.524965
2083.000000	72.563267
2082.000000	72.590451
2081.000000	72.606902
2080.000000	72.612188
2079.000000	72.605013
2078.000000	72.586008
2077.000000	72.557797
2076.000000	72.522184
2075.000000	72.479749
2074.000000	72.431814
2073.000000	72.380283
2072.000000	72.324875
2071.000000	72.262868
2070.000000	72.192912
2069.000000	72.116464
2068.000000	72.034454
2067.000000	71.945137
2066.000000	71.847105
2065.000000	71.743083
2064.000000	71.638635
2063.000000	71.538195
2062.000000	71.442622
2061.000000	71.348852
2060.000000	71.251761
2059.000000	71.148121
2058.000000	71.039518
2057.000000	70.930490
2056.000000	70.824740
2055.000000	70.724885
2054.000000	70.634549
2053.000000	70.557279
2052.000000	70.493173
2051.000000	70.439061
2050.000000	70.392233
2049.000000	70.351847
2048.000000	70.316540
2047.000000	70.284479
2046.000000	70.257200
2045.000000	70.239215
2044.000000	70.232475
2043.000000	70.234438
2042.000000	70.242455
2041.000000	70.257079
2040.000000	70.279440
2039.000000	70.309134
2038.000000	70.346128
2037.000000	70.391633
2036.000000	70.446662
2035.000000	70.511884
2034.000000	70.589077
2033.000000	70.679495
2032.000000	70.780112
2031.000000	70.884449
2030.000000	70.986979
2029.000000	71.084200
2028.000000	71.172972
2027.000000	71.251822
2026.000000	71.323985
2025.000000	71.395644
2024.000000	71.470276
2023.000000	71.547564
2022.000000	71.627809
2021.000000	71.712628
2020.000000	71.799498
2019.000000	71.880359
2018.000000	71.948894
2017.000000	72.007352
2016.000000	72.064630
2015.000000	72.129793
2014.000000	72.208122
2013.000000	72.299796
2012.000000	72.399829
2011.000000	72.501384
2010.000000	72.600489
2009.000000	72.695804
2008.000000	72.785319
2007.000000	72.867252
2006.000000	72.943830
2005.000000	73.020484
2004.000000	73.100454
2003.000000	73.183143
2002.000000	73.267281
2001.000000	73.351651
2000.000000	73.432954
1999.000000	73.506520
1998.000000	73.569921
1997.000000	73.625996
1996.000000	73.681404
1995.000000	73.740567
1994.000000	73.801795
1993.000000	73.860538
1992.000000	73.916982
1991.000000	73.978582
1990.000000	74.052464
1989.000000	74.136979
1988.000000	74.223170
1987.000000	74.303318
1986.000000	74.377045
1985.000000	74.449196
1984.000000	74.523580
1983.000000	74.601328
1982.000000	74.683023
1981.000000	74.768995
1980.000000	74.857770
1979.000000	74.945685
1978.000000	75.028385
1977.000000	75.103725
1976.000000	75.173591
1975.000000	75.241761
1974.000000	75.310984
1973.000000	75.383080
1972.000000	75.460516
1971.000000	75.544444
1970.000000	75.630192
1969.000000	75.707129
1968.000000	75.764408
1967.000000	75.798198
1966.000000	75.814355
1965.000000	75.822791
1964.000000	75.829679
1963.000000	75.834517
1962.000000	75.833518
1961.000000	75.825736
1960.000000	75.814028
1959.000000	75.800432
1958.000000	75.783540
1957.000000	75.761874
1956.000000	75.738258
1955.000000	75.718559
1954.000000	75.708024
1953.000000	75.710422
1952.000000	75.727988
1951.000000	75.760279
1950.000000	75.803513
1949.000000	75.850941
1948.000000	75.895255
1947.000000	75.932242
1946.000000	75.960942
1945.000000	75.979649
1944.000000	75.983448
1943.000000	75.970044
1942.000000	75.949379
1941.000000	75.939780
1940.000000	75.951810
1939.000000	75.980269
1938.000000	76.009827
1937.000000	76.026958
1936.000000	76.027926
1935.000000	76.015703
1934.000000	75.994175
1933.000000	75.967851
1932.000000	75.942369
1931.000000	75.923874
1930.000000	75.916240
1929.000000	75.918030
1928.000000	75.924965
1927.000000	75.935751
1926.000000	75.951700
1925.000000	75.968681
1924.000000	75.975371
1923.000000	75.968153
1922.000000	75.962236
1921.000000	75.974821
1920.000000	76.004352
1919.000000	76.033232
1918.000000	76.047603
1917.000000	76.049493
1916.000000	76.045752
1915.000000	76.038358
1914.000000	76.027494
1913.000000	76.012916
1912.000000	75.994209
1911.000000	75.973583
1910.000000	75.956313
1909.000000	75.945841
1908.000000	75.941079
1907.000000	75.940910
1906.000000	75.947906
1905.000000	75.962654
1904.000000	75.980082
1903.000000	75.999188
1902.000000	76.028677
1901.000000	76.075809
1900.000000	76.138448
1899.000000	76.211617
1898.000000	76.292989
1897.000000	76.376001
1896.000000	76.446237
1895.000000	76.496190
1894.000000	76.536884
1893.000000	76.583098
1892.000000	76.634779
1891.000000	76.680885
1890.000000	76.715961
1889.000000	76.747740
1888.000000	76.786207
1887.000000	76.833404
1886.000000	76.885488
1885.000000	76.933694
1884.000000	76.969143
1883.000000	76.994387
1882.000000	77.022429
1881.000000	77.061019
1880.000000	77.106890
1879.000000	77.156118
1878.000000	77.211017
1877.000000	77.272869
1876.000000	77.334390
1875.000000	77.387872
1874.000000	77.435676
1873.000000	77.484354
1872.000000	77.533164
1871.000000	77.574903
1870.000000	77.603902
1869.000000	77.623452
1868.000000	77.645427
1867.000000	77.681861
1866.000000	77.739625
1865.000000	77.813897
1864.000000	77.887456
1863.000000	77.946220
1862.000000	77.991920
1861.000000	78.033641
1860.000000	78.073980
1859.000000	78.113486
1858.000000	78.159480
1857.000000	78.217480
1856.000000	78.280640
1855.000000	78.339304
1854.000000	78.391105
1853.000000	78.435794
1852.000000	78.472879
1851.000000	78.506603
1850.000000	78.544215
1849.000000	78.587498
1848.000000	78.633097
1847.000000	78.682217
1846.000000	78.738408
1845.000000	78.793869
1844.000000	78.836656
1843.000000	78.867632
1842.000000	78.894496
1841.000000	78.924903
1840.000000	78.962873
1839.000000	79.004072
1838.000000	79.044719
1837.000000	79.088190
1836.000000	79.139091
1835.000000	79.197243
1834.000000	79.256623
1833.000000	79.308862
1832.000000	79.347581
1831.000000	79.365406
1830.000000	79.365374
1829.000000	79.372851
1828.000000	79.410950
1827.000000	79.477549
1826.000000	79.554270
1825.000000	79.625360
1824.000000	79.687769
1823.000000	79.743130
1822.000000	79.791291
1821.000000	79.833894
1820.000000	79.871634
1819.000000	79.902173
1818.000000	79.928990
1817.000000	79.964239
1816.000000	80.014788
1815.000000	80.072342
1814.000000	80.121989
1813.000000	80.152457
1812.000000	80.155422
1811.000000	80.128356
1810.000000	80.087182
1809.000000	80.056610
1808.000000	80.044058
1807.000000	80.044025
1806.000000	80.059910
1805.000000	80.097298
1804.000000	80.142093
1803.000000	80.164132
1802.000000	80.146666
1801.000000	80.106512
1800.000000	80.074732
1799.000000	80.067836
1798.000000	80.087365
1797.000000	80.126355
1796.000000	80.172263
1795.000000	80.217525
1794.000000	80.259826
1793.000000	80.292691
1792.000000	80.305520
1791.000000	80.296339
1790.000000	80.281406
1789.000000	80.282777
1788.000000	80.305793
1787.000000	80.337222
1786.000000	80.366080
1785.000000	80.393912
1784.000000	80.424768
1783.000000	80.453489
1782.000000	80.468490
1781.000000	80.464221
1780.000000	80.447939
1779.000000	80.436415
1778.000000	80.442427
1777.000000	80.467100
1776.000000	80.507249
1775.000000	80.563741
1774.000000	80.631710
1773.000000	80.699708
1772.000000	80.767341
1771.000000	80.831641
1770.000000	80.880446
1769.000000	80.918401
1768.000000	80.961817
1767.000000	81.015062
1766.000000	81.073575
1765.000000	81.139015
1764.000000	81.214771
1763.000000	81.282646
1762.000000	81.316640
1761.000000	81.324699
1760.000000	81.330619
1759.000000	81.338664
1758.000000	81.340238
1757.000000	81.334273
1756.000000	81.343097
1755.000000	81.381499
1754.000000	81.435209
1753.000000	81.489834
1752.000000	81.540171
1751.000000	81.582372
1750.000000	81.611208
1749.000000	81.627799
1748.000000	81.652759
1747.000000	81.705317
1746.000000	81.774811
1745.000000	81.840294
1744.000000	81.897748
1743.000000	81.949930
1742.000000	81.994707
1741.000000	82.033524
1740.000000	82.073200
1739.000000	82.109903
1738.000000	82.126172
1737.000000	82.125240
1736.000000	82.129911
1735.000000	82.138806
1734.000000	82.153760
1733.000000	82.192435
1732.000000	82.227535
1731.000000	82.235273
1730.000000	82.229388
1729.000000	82.213484
1728.000000	82.192643
1727.000000	82.175631
1726.000000	82.165973
1725.000000	82.161198
1724.000000	82.162351
1723.000000	82.176933
1722.000000	82.209998
1721.000000	82.256252
1720.000000	82.303054
1719.000000	82.323420
1718.000000	82.301705
1717.000000	82.272908
1716.000000	82.255896
1715.000000	82.238908
1714.000000	82.247158
1713.000000	82.302713
1712.000000	82.382409
1711.000000	82.456525
1710.000000	82.519849
1709.000000	82.572449
1708.000000	82.604733
1707.000000	82.612452
1706.000000	82.614619
1705.000000	82.639570
1704.000000	82.683117
1703.000000	82.736622
1702.000000	82.813442
1701.000000	82.917180
1700.000000	83.034726
1699.000000	83.123940
1698.000000	83.159517
1697.000000	83.189170
1696.000000	83.251150
1695.000000	83.329308
1694.000000	83.390924
1693.000000	83.429609
1692.000000	83.481644
1691.000000	83.558842
1690.000000	83.629611
1689.000000	83.663285
1688.000000	83.667786
1687.000000	83.674835
1686.000000	83.692348
1685.000000	83.681596
1684.000000	83.653434
1683.000000	83.676116
1682.000000	83.722996
1681.000000	83.741497
1680.000000	83.741842
1679.000000	83.735141
1678.000000	83.717196
1677.000000	83.667460
1676.000000	83.584884
1675.000000	83.507969
1674.000000	83.462434
1673.000000	83.422994
1672.000000	83.381317
1671.000000	83.355316
1670.000000	83.340918
1669.000000	83.317251
1668.000000	83.277015
1667.000000	83.228664
1666.000000	83.173141
1665.000000	83.098534
1664.000000	82.997748
1663.000000	82.893275
1662.000000	82.810891
1661.000000	82.728835
1660.000000	82.619540
1659.000000	82.493899
1658.000000	82.360064
1657.000000	82.203248
1656.000000	82.012462
1655.000000	81.760302
1654.000000	81.321967
1653.000000	80.699877
1652.000000	80.112709
1651.000000	79.567376
1650.000000	78.939508
1649.000000	78.129431
1648.000000	76.915874
1647.000000	75.140908
1646.000000	72.908856
1645.000000	70.426470
1644.000000	67.717139
1643.000000	64.684941
1642.000000	61.270917
1641.000000	57.573762
1640.000000	53.907337
1639.000000	50.617942
1638.000000	47.846579
1637.000000	45.557128
1636.000000	43.847581
1635.000000	43.051094
1634.000000	43.282874
1633.000000	44.294005
1632.000000	45.793802
1631.000000	47.591211
1630.000000	49.574753
1629.000000	51.678216
1628.000000	53.837627
1627.000000	55.946994
1626.000000	57.928620
1625.000000	59.818829
1624.000000	61.689755
1623.000000	63.508221
1622.000000	65.151232
1621.000000	66.566849
1620.000000	67.820025
1619.000000	68.994351
1618.000000	70.119923
1617.000000	71.187694
1616.000000	72.158077
1615.000000	72.958423
1614.000000	73.568663
1613.000000	74.058558
1612.000000	74.495135
1611.000000	74.873031
1610.000000	75.143840
1609.000000	75.290544
1608.000000	75.319936
1607.000000	75.199958
1606.000000	74.860798
1605.000000	74.247831
1604.000000	73.342386
1603.000000	72.129465
1602.000000	70.618222
1601.000000	68.905072
1600.000000	67.162067
1599.000000	65.555679
1598.000000	64.182730
1597.000000	63.076202
1596.000000	62.226761
1595.000000	61.576349
1594.000000	61.022121
1593.000000	60.472203
1592.000000	59.891442
1591.000000	59.274806
1590.000000	58.611990
1589.000000	57.898051
1588.000000	57.145534
1587.000000	56.349231
1586.000000	55.465939
1585.000000	54.461788
1584.000000	53.358850
1583.000000	52.198418
1582.000000	50.991616
1581.000000	49.757597
1580.000000	48.554168
1579.000000	47.373188
1578.000000	46.016009
1577.000000	44.180074
1576.000000	41.893447
1575.000000	39.690365
1574.000000	37.984411
1573.000000	36.691529
1572.000000	35.555021
1571.000000	34.407637
1570.000000	33.257188
1569.000000	32.286450
1568.000000	31.693908
1567.000000	31.516678
1566.000000	31.623735
1565.000000	31.859290
1564.000000	32.201171
1563.000000	32.744071
1562.000000	33.530811
1561.000000	34.473001
1560.000000	35.430044
1559.000000	36.396939
1558.000000	37.481033
1557.000000	38.621157
1556.000000	39.696093
1555.000000	40.693364
1554.000000	41.585740
1553.000000	42.344745
1552.000000	42.996628
1551.000000	43.617510
1550.000000	44.269572
1549.000000	44.989730
1548.000000	45.819402
1547.000000	46.801349
1546.000000	47.927258
1545.000000	49.112333
1544.000000	50.271536
1543.000000	51.396732
1542.000000	52.517403
1541.000000	53.622702
1540.000000	54.689316
1539.000000	55.728378
1538.000000	56.707131
1537.000000	57.584435
1536.000000	58.411455
1535.000000	59.260993
1534.000000	60.134147
1533.000000	60.970648
1532.000000	61.742248
1531.000000	62.476048
1530.000000	63.200422
1529.000000	63.908200
1528.000000	64.582775
1527.000000	65.228730
1526.000000	65.844133
1525.000000	66.409171
1524.000000	66.926581
1523.000000	67.424795
1522.000000	67.895831
1521.000000	68.303042
1520.000000	68.657748
1519.000000	69.007498
1518.000000	69.374084
1517.000000	69.737861
1516.000000	70.085885
1515.000000	70.438166
1514.000000	70.797729
1513.000000	71.145266
1512.000000	71.469019
1511.000000	71.775489
1510.000000	72.068646
1509.000000	72.337839
1508.000000	72.561158
1507.000000	72.762718
1506.000000	73.055676
1505.000000	73.431013
1504.000000	73.766720
1503.000000	74.056750
1502.000000	74.328550
1501.000000	74.570884
1500.000000	74.781302
1499.000000	74.986513
1498.000000	75.197582
1497.000000	75.406265
1496.000000	75.625042
1495.000000	75.863372
1494.000000	76.094122
1493.000000	76.293031
1492.000000	76.468760
1491.000000	76.629371
1490.000000	76.755133
1489.000000	76.841105
1488.000000	76.921235
1487.000000	77.021621
1486.000000	77.117724
1485.000000	77.148876
1484.000000	77.084626
1483.000000	76.917288
1482.000000	76.603966
1481.000000	76.099243
1480.000000	75.410244
1479.000000	74.523201
1478.000000	73.312518
1477.000000	71.649803
1476.000000	69.576275
1475.000000	67.229412
1474.000000	64.633968
1473.000000	61.830358
1472.000000	59.184809
1471.000000	57.145609
1470.000000	55.794052
1469.000000	54.969974
1468.000000	54.574709
1467.000000	54.619294
1466.000000	55.150032
1465.000000	56.143789
1464.000000	57.424888
1463.000000	58.701864
1462.000000	59.728257
1461.000000	60.388304
1460.000000	60.633819
1459.000000	60.393264
1458.000000	59.547922
1457.000000	58.220635
1456.000000	56.963235
1455.000000	56.179588
1454.000000	55.791466
1453.000000	55.599410
1452.000000	55.494796
1451.000000	55.453804
1450.000000	55.490230
1449.000000	55.630305
1448.000000	55.893394
1447.000000	56.267984
1446.000000	56.722294
1445.000000	57.245448
1444.000000	57.858260
1443.000000	58.585330
1442.000000	59.448033
1441.000000	60.468861
1440.000000	61.661266
1439.000000	63.026798
1438.000000	64.558552
1437.000000	66.187373
1436.000000	67.727286
1435.000000	68.996777
1434.000000	69.990764
1433.000000	70.823419
1432.000000	71.562150
1431.000000	72.200993
1430.000000	72.734910
1429.000000	73.193087
1428.000000	73.597906
1427.000000	73.954273
1426.000000	74.272640
1425.000000	74.565292
1424.000000	74.843050
1423.000000	75.117599
1422.000000	75.402856
1421.000000	75.699045
1420.000000	75.972383
1419.000000	76.181355
1418.000000	76.336892
1417.000000	76.490487
1416.000000	76.670175
1415.000000	76.874776
1414.000000	77.094837
1413.000000	77.323858
1412.000000	77.553317
1411.000000	77.770173
1410.000000	77.969041
1409.000000	78.158141
1408.000000	78.339439
1407.000000	78.503638
1406.000000	78.646579
1405.000000	78.773918
1404.000000	78.891774
1403.000000	78.988835
1402.000000	79.027247
1401.000000	78.938180
1400.000000	78.641339
1399.000000	78.138263
1398.000000	77.577537
1397.000000	77.159799
1396.000000	77.004952
1395.000000	77.112975
1394.000000	77.379380
1393.000000	77.677681
1392.000000	77.962038
1391.000000	78.273233
1390.000000	78.668047
1389.000000	79.159825
1388.000000	79.708983
1387.000000	80.253970
1386.000000	80.748174
1385.000000	81.167043
1384.000000	81.500709
1383.000000	81.752231
1382.000000	81.942377
1381.000000	82.095900
1380.000000	82.213456
1379.000000	82.270193
1378.000000	82.231581
1377.000000	82.036624
1376.000000	81.536201
1375.000000	80.456153
1374.000000	78.455418
1373.000000	75.299064
1372.000000	71.043141
1371.000000	66.144083
1370.000000	61.466289
1369.000000	58.075853
1368.000000	56.731998
1367.000000	57.383144
1366.000000	59.236595
1365.000000	61.284922
1364.000000	62.702846
1363.000000	63.022769
1362.000000	62.287078
1361.000000	61.088457
1360.000000	60.294750
1359.000000	60.612499
1358.000000	62.260389
1357.000000	64.893200
1356.000000	67.855592
1355.000000	70.575794
1354.000000	72.794571
1353.000000	74.526701
1352.000000	75.884575
1351.000000	76.966361
1350.000000	77.840767
1349.000000	78.549775
1348.000000	79.117984
1347.000000	79.573473
1346.000000	79.956580
1345.000000	80.302352
1344.000000	80.630687
1343.000000	80.952186
1342.000000	81.274080
1341.000000	81.588175
1340.000000	81.868184
1339.000000	82.097776
1338.000000	82.286435
1337.000000	82.450535
1336.000000	82.592663
1335.000000	82.703192
1334.000000	82.762311
1333.000000	82.714703
1332.000000	82.453651
1331.000000	81.848810
1330.000000	80.801034
1329.000000	79.283020
1328.000000	77.315051
1327.000000	74.914157
1326.000000	72.100670
1325.000000	69.014950
1324.000000	66.064972
1323.000000	63.854790
1322.000000	62.826144
1321.000000	62.940844
1320.000000	63.744043
1319.000000	64.724405
1318.000000	65.617821
1317.000000	66.410901
1316.000000	67.165004
1315.000000	67.916104
1314.000000	68.693676
1313.000000	69.562325
1312.000000	70.601390
1311.000000	71.837908
1310.000000	73.200289
1309.000000	74.535355
1308.000000	75.674611
1307.000000	76.503706
1306.000000	76.987254
1305.000000	77.128228
1304.000000	76.926664
1303.000000	76.370093
1302.000000	75.448325
1301.000000	74.193254
1300.000000	72.730440
1299.000000	71.301658
1298.000000	70.187589
1297.000000	69.555882
1296.000000	69.364388
1295.000000	69.392326
1294.000000	69.353429
1293.000000	68.999978
1292.000000	68.179377
1291.000000	66.843601
1290.000000	65.011419
1289.000000	62.743752
1288.000000	60.198225
1287.000000	57.708906
1286.000000	55.733451
1285.000000	54.644286
1284.000000	54.544438
1283.000000	55.273715
1282.000000	56.587137
1281.000000	58.302753
1280.000000	60.288329
1279.000000	62.343347
1278.000000	64.157755
1277.000000	65.432568
1276.000000	66.033244
1275.000000	66.033926
1274.000000	65.657361
1273.000000	65.201457
1272.000000	64.986541
1271.000000	65.284688
1270.000000	66.217720
1269.000000	67.698705
1268.000000	69.484525
1267.000000	71.305655
1266.000000	72.972188
1265.000000	74.403076
1264.000000	75.596563
1263.000000	76.587218
1262.000000	77.416972
1261.000000	78.122166
1260.000000	78.729710
1259.000000	79.259506
1258.000000	79.731045
1257.000000	80.155894
1256.000000	80.533451
1255.000000	80.860667
1254.000000	81.140882
1253.000000	81.383958
1252.000000	81.599640
1251.000000	81.799903
1250.000000	82.001650
1249.000000	82.217092
1248.000000	82.444903
1247.000000	82.674169
1246.000000	82.893178
1245.000000	83.090774
1244.000000	83.255381
1243.000000	83.383034
1242.000000	83.483274
1241.000000	83.570857
1240.000000	83.654400
1239.000000	83.735544
1238.000000	83.813419
1237.000000	83.880441
1236.000000	83.918652
1235.000000	83.910380
1234.000000	83.849907
1233.000000	83.742660
1232.000000	83.597383
1231.000000	83.424797
1230.000000	83.238199
1229.000000	83.040459
1228.000000	82.814012
1227.000000	82.525215
1226.000000	82.132597
1225.000000	81.592857
1224.000000	80.857598
1223.000000	79.883213
1222.000000	78.639601
1221.000000	77.104095
1220.000000	75.270408
1219.000000	73.159668
1218.000000	70.828232
1217.000000	68.362039
1216.000000	65.870036
1215.000000	63.485948
1214.000000	61.362717
1213.000000	59.652201
1212.000000	58.478353
1211.000000	57.908438
1210.000000	57.904719
1209.000000	58.321871
1208.000000	58.952837
1207.000000	59.581066
1206.000000	60.025068
1205.000000	60.158664
1204.000000	59.920689
1203.000000	59.316497
1202.000000	58.416523
1201.000000	57.358923
1200.000000	56.347741
1199.000000	55.618342
1198.000000	55.362368
1197.000000	55.656572
1196.000000	56.458661
1195.000000	57.646269
1194.000000	59.073314
1193.000000	60.620164
1192.000000	62.208697
1191.000000	63.800097
1190.000000	65.372535
1189.000000	66.905603
1188.000000	68.377129
1187.000000	69.763357
1186.000000	71.041150
1185.000000	72.194838
1184.000000	73.219744
1183.000000	74.114760
1182.000000	74.881226
1181.000000	75.522535
1180.000000	76.052437
1179.000000	76.500147
1178.000000	76.894432
1177.000000	77.247969
1176.000000	77.548857
1175.000000	77.771672
1174.000000	77.892154
1173.000000	77.880720
1172.000000	77.700491
1171.000000	77.305447
1170.000000	76.644374
1169.000000	75.670094
1168.000000	74.349134
1167.000000	72.699342
1166.000000	70.822458
1165.000000	68.909179
1164.000000	67.209416
1163.000000	65.972030
1162.000000	65.359995
1161.000000	65.399166
1160.000000	65.992759
1159.000000	66.966378
1158.000000	68.133744
1157.000000	69.335168
1156.000000	70.456589
1155.000000	71.432673
1154.000000	72.232194
1153.000000	72.841163
1152.000000	73.251162
1151.000000	73.457468
1150.000000	73.455276
1149.000000	73.243148
1148.000000	72.808501
1147.000000	72.124725
1146.000000	71.151604
1145.000000	69.819933
1144.000000	68.046607
1143.000000	65.752190
1142.000000	62.906504
1141.000000	59.585670
1140.000000	55.996185
1139.000000	52.442430
1138.000000	49.207963
1137.000000	46.431563
1136.000000	44.073011
1135.000000	41.997144
1134.000000	40.099523
1133.000000	38.436000
1132.000000	37.266908
1131.000000	36.945426
1130.000000	37.747966
1129.000000	39.707323
1128.000000	42.584309
1127.000000	45.941685
1126.000000	49.251093
1125.000000	52.009946
1124.000000	53.823599
1123.000000	54.448882
1122.000000	53.816129
1121.000000	52.041377
1120.000000	49.363707
1119.000000	46.099023
1118.000000	42.642653
1117.000000	39.505334
1116.000000	37.285426
1115.000000	36.495001
1114.000000	37.315405
1113.000000	39.486664
1112.000000	42.409537
1111.000000	45.332973
1110.000000	47.609544
1109.000000	48.946340
1108.000000	49.523837
1107.000000	49.857402
1106.000000	50.452911
1105.000000	51.514301
1104.000000	52.890656
1103.000000	54.207359
1102.000000	55.009112
1101.000000	54.915256
1100.000000	53.794730
1099.000000	51.921849
1098.000000	49.968624
1097.000000	48.753990
1096.000000	48.866491
1095.000000	50.400612
1094.000000	52.964624
1093.000000	55.939234
1092.000000	58.802383
1091.000000	61.278426
1090.000000	63.309980
1089.000000	64.954822
1088.000000	66.304275
1087.000000	67.447630
1086.000000	68.458707
1085.000000	69.383915
1084.000000	70.238213
1083.000000	71.023846
1082.000000	71.735250
1081.000000	72.362660
1080.000000	72.896343
1079.000000	73.329785
1078.000000	73.664277
1077.000000	73.890687
1076.000000	73.979850
1075.000000	73.886486
1074.000000	73.541356
1073.000000	72.856085
1072.000000	71.701098
1071.000000	69.906651
1070.000000	67.278423
1069.000000	63.602888
1068.000000	58.752297
1067.000000	52.831492
1066.000000	46.312798
1065.000000	40.018504
1064.000000	34.877146
1063.000000	31.511763
1062.000000	29.890409
1061.000000	29.320344
1060.000000	28.849592
1059.000000	27.850538
1058.000000	26.337963
1057.000000	24.904791
1056.000000	24.331819
1055.000000	25.108487
1054.000000	27.226807
1053.000000	30.280161
1052.000000	33.749103
1051.000000	37.226937
1050.000000	40.470708
1049.000000	43.391088
1048.000000	46.004289
1047.000000	48.369609
1046.000000	50.527006
1045.000000	52.483802
1044.000000	54.231387
1043.000000	55.769465
1042.000000	57.110225
1041.000000	58.268261
1040.000000	59.267964
1039.000000	60.136538
1038.000000	60.896536
1037.000000	61.562711
1036.000000	62.141982
1035.000000	62.642266
1034.000000	63.067790
1033.000000	63.419028
1032.000000	63.701412
1031.000000	63.928652
1030.000000	64.120869
1029.000000	64.295096
1028.000000	64.461129
1027.000000	64.621335
1026.000000	64.764944
1025.000000	64.869060
1024.000000	64.904733
1023.000000	64.845333
1022.000000	64.672775
1021.000000	64.371620
1020.000000	63.930441
1019.000000	63.336103
1018.000000	62.560990
1017.000000	61.562187
1016.000000	60.285867
1015.000000	58.701749
1014.000000	56.841763
1013.000000	54.830742
1012.000000	52.885718
1011.000000	51.248041
1010.000000	50.060364
1009.000000	49.269477
1008.000000	48.659654
1007.000000	48.017657
1006.000000	47.343195
1005.000000	46.915908
1004.000000	47.139209
1003.000000	48.257115
1002.000000	50.153778
1001.000000	52.423662
1000.000000	54.599770
999.000000	56.343849
998.000000	57.499191
997.000000	58.052556
996.000000	58.095874
995.000000	57.810578
994.000000	57.451375
993.000000	57.297536
992.000000	57.575703
991.000000	58.372249
990.000000	59.594079
989.000000	61.028060
988.000000	62.466262
987.000000	63.786264
986.000000	64.954571
985.000000	65.984768
984.000000	66.900434
983.000000	67.718406
982.000000	68.445076
981.000000	69.078960
980.000000	69.621178
979.000000	70.087897
978.000000	70.503397
977.000000	70.890614
976.000000	71.265978
975.000000	71.638218
974.000000	72.007769
973.000000	72.363933
972.000000	72.691818
971.000000	72.982305
970.000000	73.235111
969.000000	73.457239
968.000000	73.661807
967.000000	73.867564
966.000000	74.091530
965.000000	74.338248
964.000000	74.598649
963.000000	74.856918
962.000000	75.097052
961.000000	75.306322
960.000000	75.480228
959.000000	75.628010
958.000000	75.769792
957.000000	75.925994
956.000000	76.109183
955.000000	76.322239
954.000000	76.557678
953.000000	76.796904
952.000000	77.016762
951.000000	77.202550
950.000000	77.354795
949.000000	77.485004
948.000000	77.609392
947.000000	77.746033
946.000000	77.909810
945.000000	78.103126
944.000000	78.313136
943.000000	78.519594
942.000000	78.704838
941.000000	78.858069
940.000000	78.977313
939.000000	79.073097
938.000000	79.166460
937.000000	79.277349
936.000000	79.414519
935.000000	79.575301
934.000000	79.749359
933.000000	79.919816
932.000000	80.067545
931.000000	80.182513
930.000000	80.270719
929.000000	80.348203
928.000000	80.430640
927.000000	80.529698
926.000000	80.652409
925.000000	80.795801
924.000000	80.944339
923.000000	81.078671
922.000000	81.187465
921.000000	81.269836
920.000000	81.331792
919.000000	81.385999
918.000000	81.450371
917.000000	81.537893
916.000000	81.647341
915.000000	81.765928
914.000000	81.878235
913.000000	81.970218
912.000000	82.029164
911.000000	82.049845
910.000000	82.035406
909.000000	81.981130
908.000000	81.857455
907.000000	81.605786
906.000000	81.155629
905.000000	80.438211
904.000000	79.410220
903.000000	78.110438
902.000000	76.718265
901.000000	75.542027
900.000000	74.902620
899.000000	74.969831
898.000000	75.668006
897.000000	76.740224
896.000000	77.896537
895.000000	78.936884
894.000000	79.785360
893.000000	80.445176
892.000000	80.952916
891.000000	81.353536
890.000000	81.690179
889.000000	81.989326
888.000000	82.255355
887.000000	82.465866
886.000000	82.568996
885.000000	82.488112
884.000000	82.153486
883.000000	81.569805
882.000000	80.846482
881.000000	80.139628
880.000000	79.537519
879.000000	79.004985
878.000000	78.459495
877.000000	77.907634
876.000000	77.504412
875.000000	77.455003
874.000000	77.855365
873.000000	78.614202
872.000000	79.523516
871.000000	80.393213
870.000000	81.129589
869.000000	81.724715
868.000000	82.202599
867.000000	82.586703
866.000000	82.892581
865.000000	83.131530
864.000000	83.313136
863.000000	83.453483
862.000000	83.576486
861.000000	83.702302
860.000000	83.837877
859.000000	83.978284
858.000000	84.114562
857.000000	84.235554
856.000000	84.329079
855.000000	84.390966
854.000000	84.431656
853.000000	84.470063
852.000000	84.521744
851.000000	84.594329
850.000000	84.688135
849.000000	84.793494
848.000000	84.891315
847.000000	84.964433
846.000000	85.009693
845.000000	85.037187
844.000000	85.062397
843.000000	85.102409
842.000000	85.172006
841.000000	85.272974
840.000000	85.388061
839.000000	85.491415
838.000000	85.565823
837.000000	85.608401
836.000000	85.625974
835.000000	85.633489
834.000000	85.653643
833.000000	85.707230
832.000000	85.800258
831.000000	85.921893
830.000000	86.051884
829.000000	86.166636
828.000000	86.245787
827.000000	86.284459
826.000000	86.300819
825.000000	86.325445
824.000000	86.382706
823.000000	86.482504
822.000000	86.621033
821.000000	86.778176
820.000000	86.918437
819.000000	87.006982
818.000000	87.029337
817.000000	86.994695
816.000000	86.926055
815.000000	86.853533
814.000000	86.807391
813.000000	86.799421
812.000000	86.807759
811.000000	86.782961
810.000000	86.671503
809.000000	86.434098
808.000000	86.048827
807.000000	85.514886
806.000000	84.848158
805.000000	84.061248
804.000000	83.142398
803.000000	82.045366
802.000000	80.703888
801.000000	79.043635
800.000000	77.001126
799.000000	74.557501
798.000000	71.757360
797.000000	68.707631
796.000000	65.550397
795.000000	62.437435
794.000000	59.510174
793.000000	56.891243
792.000000	54.684041
791.000000	52.972257
790.000000	51.816588
789.000000	51.239196
788.000000	51.223823
787.000000	51.709112
786.000000	52.595590
785.000000	53.762991
784.000000	55.079260
783.000000	56.412268
782.000000	57.633955
781.000000	58.632463
780.000000	59.324783
779.000000	59.675199
778.000000	59.706399
777.000000	59.488517
776.000000	59.105115
775.000000	58.621299
774.000000	58.086146
773.000000	57.558810
772.000000	57.135661
771.000000	56.944709
770.000000	57.110380
769.000000	57.702525
768.000000	58.707713
767.000000	60.039460
766.000000	61.579684
765.000000	63.221322
764.000000	64.880366
763.000000	66.495229
762.000000	68.023728
761.000000	69.439088
760.000000	70.721554
759.000000	71.860305
758.000000	72.865860
757.000000	73.770570
756.000000	74.611996
755.000000	75.416976
754.000000	76.200941
753.000000	76.966251
752.000000	77.696275
751.000000	78.361575
750.000000	78.938950
749.000000	79.424554
748.000000	79.829592
747.000000	80.174086
746.000000	80.486024
745.000000	80.792090
744.000000	81.101804
743.000000	81.405229
742.000000	81.687115
741.000000	81.935295
740.000000	82.136200
739.000000	82.277836
738.000000	82.362314
737.000000	82.404460
736.000000	82.413861
735.000000	82.386886
734.000000	82.319166
733.000000	82.213937
732.000000	82.076430
731.000000	81.913604
730.000000	81.742639
729.000000	81.584008
728.000000	81.441065
727.000000	81.292383
726.000000	81.103125
725.000000	80.838262
724.000000	80.462012
723.000000	79.931915
722.000000	79.195249
721.000000	78.192903
720.000000	76.878476
719.000000	75.255712
718.000000	73.407167
717.000000	71.489087
716.000000	69.698684
715.000000	68.232586
714.000000	67.252160
713.000000	66.847667
712.000000	67.009933
711.000000	67.640220
710.000000	68.606550
709.000000	69.791665
708.000000	71.095107
707.000000	72.424122
706.000000	73.704077
705.000000	74.890989
704.000000	75.961252
703.000000	76.904898
702.000000	77.740267
701.000000	78.512797
700.000000	79.259169
699.000000	79.987065
698.000000	80.689617
697.000000	81.357515
696.000000	81.965103
695.000000	82.468439
694.000000	82.846600
693.000000	83.127134
692.000000	83.356809
691.000000	83.571928
690.000000	83.804458
689.000000	84.087467
688.000000	84.422874
687.000000	84.761637
686.000000	85.047112
685.000000	85.254279
684.000000	85.373102
683.000000	85.397619
682.000000	85.360104
681.000000	85.337817
680.000000	85.389383
679.000000	85.513924
678.000000	85.688340
677.000000	85.881740
676.000000	86.043780
675.000000	86.123869
674.000000	86.118277
673.000000	86.114644
672.000000	86.293110
671.000000	86.836230
670.000000	87.763489
669.000000	88.746560
668.000000	89.128220
667.000000	88.634278
666.000000	87.753616
665.000000	86.986275
664.000000	86.491236
663.000000	86.215966
662.000000	86.061911
661.000000	85.980249
660.000000	85.968973
659.000000	86.042405
658.000000	86.192677
657.000000	86.358817
656.000000	86.467976
655.000000	86.495903
654.000000	86.442669
653.000000	86.304231
652.000000	86.114032
651.000000	85.956830
650.000000	85.895570
649.000000	85.915030
648.000000	85.968106
647.000000	86.026859
646.000000	86.057099
645.000000	86.004069
644.000000	85.841993
643.000000	85.605957
642.000000	85.354927
641.000000	85.125008
640.000000	84.941772
639.000000	84.836650
638.000000	84.808601
637.000000	84.799336
636.000000	84.741967
635.000000	84.608200
634.000000	84.395198
633.000000	84.106625
632.000000	83.772637
631.000000	83.457916
630.000000	83.212995
629.000000	83.032341
628.000000	82.880504
627.000000	82.729335
626.000000	82.545487
625.000000	82.286187
624.000000	81.935657
623.000000	81.525530
622.000000	81.100343
621.000000	80.683497
620.000000	80.288738
619.000000	79.923788
618.000000	79.559627
617.000000	79.129416
616.000000	78.590999
615.000000	77.960066
614.000000	77.260264
613.000000	76.483841
612.000000	75.625844
611.000000	74.714416
610.000000	73.768772
609.000000	72.759729
608.000000	71.650205
607.000000	70.438343
606.000000	69.123257
605.000000	67.676294
604.000000	66.085085
603.000000	64.389395
602.000000	62.625591
601.000000	60.782155
600.000000	58.855603
599.000000	56.904291
598.000000	54.988560
597.000000	53.108480
596.000000	51.259966
595.000000	49.490849
594.000000	47.840798
593.000000	46.280902
592.000000	44.790871
591.000000	43.425599
590.000000	42.233690
589.000000	41.178227
588.000000	40.201385
587.000000	39.294094
586.000000	38.428889
585.000000	37.509266
584.000000	36.469792
583.000000	35.362061
582.000000	34.277749
581.000000	33.271398
580.000000	32.421276
579.000000	31.880133
578.000000	31.756830
577.000000	32.027922
576.000000	32.615570
575.000000	33.447715
574.000000	34.395938
573.000000	35.262994
572.000000	35.936488
571.000000	36.495197
570.000000	37.112345
569.000000	37.908068
568.000000	38.926588
567.000000	40.156436
566.000000	41.496160
565.000000	42.779369
564.000000	43.903302
563.000000	44.884224
562.000000	45.763319
561.000000	46.535738
560.000000	47.208881
559.000000	47.845707
558.000000	48.494446
557.000000	49.139855
556.000000	49.765952
555.000000	50.408391
554.000000	51.092015
553.000000	51.782048
552.000000	52.444237
551.000000	53.095284
550.000000	53.750719
549.000000	54.379601
548.000000	54.958891
547.000000	55.519313
546.000000	56.095033
545.000000	56.674415
544.000000	57.240258
543.000000	57.805566
542.000000	58.372430
541.000000	58.903265
540.000000	59.374951
539.000000	59.815893
538.000000	60.255887
537.000000	60.684042
536.000000	61.085458
535.000000	61.477518
534.000000	61.867601
533.000000	62.224441
532.000000	62.516304
531.000000	62.746676
530.000000	62.925413
529.000000	63.036505
528.000000	63.057475
527.000000	62.989383
526.000000	62.823501
525.000000	62.514861
524.000000	62.033325
523.000000	61.409458
522.000000	60.716785
521.000000	60.026973
520.000000	59.390716
519.000000	58.801201
518.000000	58.119233
517.000000	57.095593
516.000000	55.538337
515.000000	53.469767
514.000000	51.112293
513.000000	48.783426
512.000000	46.822269
511.000000	45.532449
510.000000	45.072342
509.000000	45.407884
508.000000	46.417239
507.000000	47.955599
506.000000	49.821227
505.000000	51.781377
504.000000	53.683613
503.000000	55.486996
502.000000	57.158025
501.000000	58.637286
500.000000	59.918660
499.000000	61.079361
498.000000	62.189553
497.000000	63.255065
496.000000	64.256299
495.000000	65.185394
494.000000	66.029334
493.000000	66.753056
492.000000	67.348059
491.000000	67.871627
490.000000	68.398150
489.000000	68.967470
488.000000	69.583314
487.000000	70.232412
486.000000	70.872815
485.000000	71.430536
484.000000	71.850483
483.000000	72.138897
482.000000	72.341628
481.000000	72.508320
480.000000	72.699571
479.000000	72.982754
478.000000	73.357565
477.000000	73.721467
476.000000	73.939702
475.000000	73.906788
474.000000	73.524390
473.000000	72.697591
472.000000	71.449269
471.000000	70.007352
470.000000	68.666981
469.000000	67.636867
468.000000	67.041006
467.000000	66.888129
466.000000	66.940551
465.000000	66.762091
464.000000	66.004061
463.000000	64.663497
462.000000	63.123001
461.000000	61.940337
460.000000	61.619826
459.000000	62.461415
458.000000	64.363817
457.000000	66.740790
456.000000	68.915506
455.000000	70.597585
454.000000	71.807326
453.000000	72.614970
452.000000	73.113481
451.000000	73.479323
450.000000	73.833070
449.000000	74.102067
448.000000	74.085366
447.000000	73.609046
446.000000	72.629159
445.000000	71.264299
444.000000	69.817654
443.000000	68.719702
442.000000	68.300922
441.000000	68.590526
440.000000	69.417791
439.000000	70.576323
438.000000	71.822662
437.000000	72.873291
436.000000	73.535822
435.000000	73.825172
434.000000	73.877370
433.000000	73.809660
432.000000	73.724245
431.000000	73.744469
430.000000	73.929190
429.000000	74.185814
428.000000	74.365068
427.000000	74.389386
426.000000	74.235072
425.000000	73.873214
424.000000	73.349887
423.000000	72.869939
422.000000	72.621483
421.000000	72.584535
420.000000	72.628625
419.000000	72.706997
418.000000	72.818535
417.000000	72.855076
416.000000	72.739332
415.000000	72.547584
414.000000	72.383693
413.000000	72.269358
412.000000	72.229718
411.000000	72.365584
410.000000	72.719906
409.000000	73.126618
408.000000	73.383467
407.000000	73.483126
406.000000	73.523005
405.000000	73.509059
404.000000	73.452334
403.000000	73.515826
402.000000	73.849422
401.000000	74.365897
400.000000	74.850762
