PE IR       SUBTECH     SPECTRUM    ASCII       PEDS        4.00        
   -1
23ms198-cis.asc
24/10/18
15:05:01.00
24/10/18
15:05:01.00
Administrator
Sample 1299 By Administrator Date Friday, October 18 2024
400.000000
#HDR
-1
-1
#GR
cm-1
%T
1.0
0.0
4000.000000
-1.000000
3601
8
90.424098
10.037738
#DATA
4000.000000	65.733033
3999.000000	65.724057
3998.000000	65.718421
3997.000000	65.714739
3996.000000	65.711418
3995.000000	65.707698
3994.000000	65.704209
3993.000000	65.702309
3992.000000	65.702758
3991.000000	65.705337
3990.000000	65.709736
3989.000000	65.716534
3988.000000	65.727077
3987.000000	65.742342
3986.000000	65.762332
3985.000000	65.786286
3984.000000	65.813135
3983.000000	65.841860
3982.000000	65.871837
3981.000000	65.903240
3980.000000	65.936913
3979.000000	65.973636
3978.000000	66.013426
3977.000000	66.055278
3976.000000	66.097725
3975.000000	66.139403
3974.000000	66.179295
3973.000000	66.216863
3972.000000	66.251880
3971.000000	66.284481
3970.000000	66.315027
3969.000000	66.344349
3968.000000	66.373975
3967.000000	66.405696
3966.000000	66.441008
3965.000000	66.480653
3964.000000	66.524420
3963.000000	66.571207
3962.000000	66.619824
3961.000000	66.669654
3960.000000	66.720636
3959.000000	66.772889
3958.000000	66.825840
3957.000000	66.878662
3956.000000	66.931088
3955.000000	66.983373
3954.000000	67.035939
3953.000000	67.088347
3952.000000	67.139074
3951.000000	67.185989
3950.000000	67.227360
3949.000000	67.263263
3948.000000	67.296155
3947.000000	67.329906
3946.000000	67.367166
3945.000000	67.406776
3944.000000	67.443912
3943.000000	67.474200
3942.000000	67.499696
3941.000000	67.528034
3940.000000	67.564670
3939.000000	67.609133
3938.000000	67.656473
3937.000000	67.702225
3936.000000	67.745478
3935.000000	67.786713
3934.000000	67.825696
3933.000000	67.860447
3932.000000	67.889920
3931.000000	67.915513
3930.000000	67.939131
3929.000000	67.963311
3928.000000	67.990064
3927.000000	68.019364
3926.000000	68.046956
3925.000000	68.066225
3924.000000	68.075990
3923.000000	68.081805
3922.000000	68.088509
3921.000000	68.096370
3920.000000	68.103873
3919.000000	68.111434
3918.000000	68.120536
3917.000000	68.131957
3916.000000	68.146559
3915.000000	68.165443
3914.000000	68.188713
3913.000000	68.214575
3912.000000	68.240161
3911.000000	68.265026
3910.000000	68.290289
3909.000000	68.317723
3908.000000	68.348718
3907.000000	68.380373
3906.000000	68.404892
3905.000000	68.412824
3904.000000	68.404515
3903.000000	68.395098
3902.000000	68.400587
3901.000000	68.424134
3900.000000	68.457348
3899.000000	68.492786
3898.000000	68.531850
3897.000000	68.579320
3896.000000	68.635176
3895.000000	68.696778
3894.000000	68.759685
3893.000000	68.817509
3892.000000	68.861590
3891.000000	68.890594
3890.000000	68.914844
3889.000000	68.946260
3888.000000	68.989744
3887.000000	69.039527
3886.000000	69.083254
3885.000000	69.117805
3884.000000	69.152026
3883.000000	69.191605
3882.000000	69.228890
3881.000000	69.250915
3880.000000	69.256859
3879.000000	69.261480
3878.000000	69.278261
3877.000000	69.308204
3876.000000	69.342284
3875.000000	69.367764
3874.000000	69.378785
3873.000000	69.383485
3872.000000	69.392904
3871.000000	69.404682
3870.000000	69.409569
3869.000000	69.414095
3868.000000	69.434757
3867.000000	69.475736
3866.000000	69.524058
3865.000000	69.561893
3864.000000	69.584153
3863.000000	69.601201
3862.000000	69.622889
3861.000000	69.652979
3860.000000	69.691648
3859.000000	69.739275
3858.000000	69.797743
3857.000000	69.866514
3856.000000	69.936002
3855.000000	69.979103
3854.000000	69.968912
3853.000000	69.929467
3852.000000	69.912262
3851.000000	69.927405
3850.000000	69.955359
3849.000000	69.985405
3848.000000	70.018447
3847.000000	70.059263
3846.000000	70.107314
3845.000000	70.156319
3844.000000	70.199015
3843.000000	70.232244
3842.000000	70.259665
3841.000000	70.288500
3840.000000	70.316776
3839.000000	70.336244
3838.000000	70.347736
3837.000000	70.360855
3836.000000	70.382539
3835.000000	70.411427
3834.000000	70.443716
3833.000000	70.477112
3832.000000	70.509630
3831.000000	70.541922
3830.000000	70.577824
3829.000000	70.619704
3828.000000	70.664269
3827.000000	70.704673
3826.000000	70.736378
3825.000000	70.764689
3824.000000	70.799167
3823.000000	70.841817
3822.000000	70.879065
3821.000000	70.896716
3820.000000	70.905757
3819.000000	70.926775
3818.000000	70.963866
3817.000000	71.003060
3816.000000	71.030698
3815.000000	71.052655
3814.000000	71.083689
3813.000000	71.122610
3812.000000	71.156829
3811.000000	71.182859
3810.000000	71.210188
3809.000000	71.247225
3808.000000	71.288412
3807.000000	71.321676
3806.000000	71.347508
3805.000000	71.379520
3804.000000	71.424118
3803.000000	71.473430
3802.000000	71.506561
3801.000000	71.517222
3800.000000	71.524986
3799.000000	71.543512
3798.000000	71.567904
3797.000000	71.588761
3796.000000	71.606647
3795.000000	71.631396
3794.000000	71.668990
3793.000000	71.713448
3792.000000	71.754963
3791.000000	71.790799
3790.000000	71.824155
3789.000000	71.857760
3788.000000	71.891998
3787.000000	71.925999
3786.000000	71.957789
3785.000000	71.984316
3784.000000	72.004431
3783.000000	72.021874
3782.000000	72.041266
3781.000000	72.062141
3780.000000	72.079025
3779.000000	72.091094
3778.000000	72.106173
3777.000000	72.131437
3776.000000	72.164739
3775.000000	72.199191
3774.000000	72.231729
3773.000000	72.264422
3772.000000	72.298593
3771.000000	72.331000
3770.000000	72.358347
3769.000000	72.384777
3768.000000	72.417722
3767.000000	72.459111
3766.000000	72.504628
3765.000000	72.548065
3764.000000	72.588843
3763.000000	72.632391
3762.000000	72.681123
3761.000000	72.730147
3760.000000	72.771645
3759.000000	72.805627
3758.000000	72.838151
3757.000000	72.872433
3756.000000	72.909531
3755.000000	72.950496
3754.000000	72.995287
3753.000000	73.039246
3752.000000	73.075080
3751.000000	73.103089
3750.000000	73.131163
3749.000000	73.161614
3748.000000	73.193035
3747.000000	73.230488
3746.000000	73.278264
3745.000000	73.328213
3744.000000	73.377917
3743.000000	73.438286
3742.000000	73.504425
3741.000000	73.558364
3740.000000	73.593167
3739.000000	73.620648
3738.000000	73.658596
3737.000000	73.709870
3736.000000	73.761775
3735.000000	73.802802
3734.000000	73.837279
3733.000000	73.875689
3732.000000	73.919038
3731.000000	73.961451
3730.000000	73.998832
3729.000000	74.032841
3728.000000	74.067088
3727.000000	74.100790
3726.000000	74.132487
3725.000000	74.163471
3724.000000	74.194488
3723.000000	74.223083
3722.000000	74.247538
3721.000000	74.271204
3720.000000	74.297725
3719.000000	74.329806
3718.000000	74.366795
3717.000000	74.405809
3716.000000	74.445172
3715.000000	74.485477
3714.000000	74.529070
3713.000000	74.577366
3712.000000	74.627947
3711.000000	74.678615
3710.000000	74.732182
3709.000000	74.790941
3708.000000	74.852491
3707.000000	74.911194
3706.000000	74.966022
3705.000000	75.019366
3704.000000	75.073254
3703.000000	75.125617
3702.000000	75.173484
3701.000000	75.217733
3700.000000	75.261032
3699.000000	75.304949
3698.000000	75.348889
3697.000000	75.391039
3696.000000	75.429113
3695.000000	75.463704
3694.000000	75.495960
3693.000000	75.528469
3692.000000	75.562159
3691.000000	75.594250
3690.000000	75.621247
3689.000000	75.647836
3688.000000	75.684166
3687.000000	75.728201
3686.000000	75.770927
3685.000000	75.806225
3684.000000	75.834160
3683.000000	75.860132
3682.000000	75.891896
3681.000000	75.928222
3680.000000	75.959114
3679.000000	75.978325
3678.000000	75.994514
3677.000000	76.020141
3676.000000	76.050211
3675.000000	76.077794
3674.000000	76.104290
3673.000000	76.130445
3672.000000	76.156516
3671.000000	76.184969
3670.000000	76.215271
3669.000000	76.250701
3668.000000	76.293959
3667.000000	76.337388
3666.000000	76.372555
3665.000000	76.401327
3664.000000	76.430502
3663.000000	76.464402
3662.000000	76.500409
3661.000000	76.530510
3660.000000	76.551636
3659.000000	76.567595
3658.000000	76.585310
3657.000000	76.606578
3656.000000	76.627880
3655.000000	76.645907
3654.000000	76.657288
3653.000000	76.662931
3652.000000	76.671112
3651.000000	76.688671
3650.000000	76.714043
3649.000000	76.746814
3648.000000	76.791964
3647.000000	76.846111
3646.000000	76.897069
3645.000000	76.938810
3644.000000	76.975365
3643.000000	77.013679
3642.000000	77.055268
3641.000000	77.097536
3640.000000	77.138548
3639.000000	77.175668
3638.000000	77.205152
3637.000000	77.225648
3636.000000	77.240803
3635.000000	77.253113
3634.000000	77.257986
3633.000000	77.249953
3632.000000	77.231683
3631.000000	77.215282
3630.000000	77.210239
3629.000000	77.215268
3628.000000	77.228514
3627.000000	77.244876
3626.000000	77.248051
3625.000000	77.227192
3624.000000	77.186585
3623.000000	77.137931
3622.000000	77.090638
3621.000000	77.045408
3620.000000	76.994876
3619.000000	76.932977
3618.000000	76.861609
3617.000000	76.784397
3616.000000	76.702156
3615.000000	76.614147
3614.000000	76.518665
3613.000000	76.416439
3612.000000	76.313392
3611.000000	76.216684
3610.000000	76.130569
3609.000000	76.053981
3608.000000	75.980054
3607.000000	75.901185
3606.000000	75.813418
3605.000000	75.715948
3604.000000	75.612516
3603.000000	75.508948
3602.000000	75.409779
3601.000000	75.316712
3600.000000	75.228484
3599.000000	75.141834
3598.000000	75.053085
3597.000000	74.960239
3596.000000	74.863481
3595.000000	74.762527
3594.000000	74.655694
3593.000000	74.542940
3592.000000	74.426213
3591.000000	74.312146
3590.000000	74.213976
3589.000000	74.145074
3588.000000	74.107000
3587.000000	74.088752
3586.000000	74.077236
3585.000000	74.062172
3584.000000	74.037004
3583.000000	74.000129
3582.000000	73.954038
3581.000000	73.902328
3580.000000	73.846328
3579.000000	73.785127
3578.000000	73.717135
3577.000000	73.642667
3576.000000	73.562744
3575.000000	73.478735
3574.000000	73.390775
3573.000000	73.298401
3572.000000	73.200086
3571.000000	73.094554
3570.000000	72.983220
3569.000000	72.870300
3568.000000	72.757197
3567.000000	72.641113
3566.000000	72.519889
3565.000000	72.393016
3564.000000	72.259476
3563.000000	72.119601
3562.000000	71.975312
3561.000000	71.828373
3560.000000	71.678411
3559.000000	71.523049
3558.000000	71.359584
3557.000000	71.186855
3556.000000	71.005183
3555.000000	70.815134
3554.000000	70.616345
3553.000000	70.408415
3552.000000	70.192735
3551.000000	69.971280
3550.000000	69.743731
3549.000000	69.508213
3548.000000	69.263216
3547.000000	69.008466
3546.000000	68.744171
3545.000000	68.471504
3544.000000	68.192126
3543.000000	67.906466
3542.000000	67.612890
3541.000000	67.309279
3540.000000	66.993849
3539.000000	66.663782
3538.000000	66.315589
3537.000000	65.948035
3536.000000	65.563976
3535.000000	65.166789
3534.000000	64.756847
3533.000000	64.332253
3532.000000	63.891272
3531.000000	63.431908
3530.000000	62.950536
3529.000000	62.444425
3528.000000	61.914391
3527.000000	61.363074
3526.000000	60.791306
3525.000000	60.198873
3524.000000	59.587552
3523.000000	58.960361
3522.000000	58.318354
3521.000000	57.659622
3520.000000	56.981163
3519.000000	56.280090
3518.000000	55.554743
3517.000000	54.806403
3516.000000	54.039229
3515.000000	53.257294
3514.000000	52.462816
3513.000000	51.655902
3512.000000	50.833470
3511.000000	49.989390
3510.000000	49.120668
3509.000000	48.234924
3508.000000	47.345746
3507.000000	46.458244
3506.000000	45.563678
3505.000000	44.650511
3504.000000	43.717877
3503.000000	42.776528
3502.000000	41.839817
3501.000000	40.915870
3500.000000	40.004894
3499.000000	39.100343
3498.000000	38.195032
3497.000000	37.288531
3496.000000	36.387668
3495.000000	35.499471
3494.000000	34.627244
3493.000000	33.773789
3492.000000	32.942071
3491.000000	32.130769
3490.000000	31.334895
3489.000000	30.553650
3488.000000	29.794529
3487.000000	29.067442
3486.000000	28.377516
3485.000000	27.723666
3484.000000	27.098424
3483.000000	26.489984
3482.000000	25.891403
3481.000000	25.309441
3480.000000	24.758931
3479.000000	24.246134
3478.000000	23.763076
3477.000000	23.297624
3476.000000	22.842338
3475.000000	22.394200
3474.000000	21.952500
3473.000000	21.520153
3472.000000	21.102892
3471.000000	20.706025
3470.000000	20.337121
3469.000000	20.009915
3468.000000	19.739212
3467.000000	19.531077
3466.000000	19.382064
3465.000000	19.287778
3464.000000	19.245752
3463.000000	19.252706
3462.000000	19.307704
3461.000000	19.416600
3460.000000	19.586734
3459.000000	19.815365
3458.000000	20.088704
3457.000000	20.392175
3456.000000	20.714431
3455.000000	21.043072
3454.000000	21.364067
3453.000000	21.665509
3452.000000	21.937239
3451.000000	22.166947
3450.000000	22.340401
3449.000000	22.446755
3448.000000	22.480091
3447.000000	22.437506
3446.000000	22.322370
3445.000000	22.145188
3444.000000	21.917292
3443.000000	21.645541
3442.000000	21.335417
3441.000000	20.998714
3440.000000	20.651985
3439.000000	20.309934
3438.000000	19.986710
3437.000000	19.700349
3436.000000	19.468456
3435.000000	19.299062
3434.000000	19.190018
3433.000000	19.136431
3432.000000	19.136943
3431.000000	19.193461
3430.000000	19.311570
3429.000000	19.500743
3428.000000	19.766842
3427.000000	20.108633
3426.000000	20.522253
3425.000000	21.007586
3424.000000	21.567286
3423.000000	22.199114
3422.000000	22.898232
3421.000000	23.661685
3420.000000	24.485714
3419.000000	25.361910
3418.000000	26.278025
3417.000000	27.224151
3416.000000	28.192772
3415.000000	29.175599
3414.000000	30.165830
3413.000000	31.159530
3412.000000	32.151552
3411.000000	33.132436
3410.000000	34.093311
3409.000000	35.031554
3408.000000	35.947244
3407.000000	36.835770
3406.000000	37.689259
3405.000000	38.503454
3404.000000	39.279029
3403.000000	40.019445
3402.000000	40.731332
3401.000000	41.424612
3400.000000	42.106526
3399.000000	42.774319
3398.000000	43.418521
3397.000000	44.032859
3396.000000	44.617477
3395.000000	45.175618
3394.000000	45.711358
3393.000000	46.231172
3392.000000	46.742671
3391.000000	47.249336
3390.000000	47.749642
3389.000000	48.240293
3388.000000	48.719037
3387.000000	49.185195
3386.000000	49.639950
3385.000000	50.086463
3384.000000	50.527158
3383.000000	50.961990
3382.000000	51.390751
3381.000000	51.815245
3380.000000	52.237254
3379.000000	52.655993
3378.000000	53.070303
3377.000000	53.481841
3376.000000	53.892834
3375.000000	54.301997
3374.000000	54.705338
3373.000000	55.100385
3372.000000	55.487504
3371.000000	55.868101
3370.000000	56.244502
3369.000000	56.620316
3368.000000	56.998077
3367.000000	57.376725
3366.000000	57.753005
3365.000000	58.124624
3364.000000	58.490404
3363.000000	58.849107
3362.000000	59.200636
3361.000000	59.547136
3360.000000	59.890709
3359.000000	60.230659
3358.000000	60.564862
3357.000000	60.893016
3356.000000	61.215963
3355.000000	61.533254
3354.000000	61.843687
3353.000000	62.147827
3352.000000	62.448047
3351.000000	62.745968
3350.000000	63.041321
3349.000000	63.332671
3348.000000	63.617696
3347.000000	63.893849
3346.000000	64.160378
3345.000000	64.419358
3344.000000	64.673235
3343.000000	64.921582
3342.000000	65.161998
3341.000000	65.393266
3340.000000	65.616395
3339.000000	65.833166
3338.000000	66.044563
3337.000000	66.250377
3336.000000	66.448439
3335.000000	66.634934
3334.000000	66.806910
3333.000000	66.963565
3332.000000	67.104986
3331.000000	67.229937
3330.000000	67.336107
3329.000000	67.422045
3328.000000	67.486638
3327.000000	67.528482
3326.000000	67.545954
3325.000000	67.536967
3324.000000	67.498082
3323.000000	67.423374
3322.000000	67.307311
3321.000000	67.147355
3320.000000	66.941760
3319.000000	66.687898
3318.000000	66.380978
3317.000000	66.016170
3316.000000	65.587537
3315.000000	65.085312
3314.000000	64.498745
3313.000000	63.817840
3312.000000	63.033520
3311.000000	62.137327
3310.000000	61.120909
3309.000000	59.981873
3308.000000	58.720363
3307.000000	57.334505
3306.000000	55.821306
3305.000000	54.175865
3304.000000	52.395341
3303.000000	50.475384
3302.000000	48.413633
3301.000000	46.216684
3300.000000	43.898827
3299.000000	41.482925
3298.000000	39.003876
3297.000000	36.511701
3296.000000	34.065257
3295.000000	31.719683
3294.000000	29.521786
3293.000000	27.512486
3292.000000	25.722173
3291.000000	24.157305
3290.000000	22.803345
3289.000000	21.631020
3288.000000	20.604187
3287.000000	19.686159
3286.000000	18.843790
3285.000000	18.057681
3284.000000	17.317703
3283.000000	16.619034
3282.000000	15.966500
3281.000000	15.375414
3280.000000	14.866904
3279.000000	14.458681
3278.000000	14.165950
3277.000000	14.006569
3276.000000	13.993173
3275.000000	14.125965
3274.000000	14.393053
3273.000000	14.773744
3272.000000	15.238980
3271.000000	15.746956
3270.000000	16.248605
3269.000000	16.695499
3268.000000	17.042282
3267.000000	17.250270
3266.000000	17.298150
3265.000000	17.187687
3264.000000	16.938085
3263.000000	16.579711
3262.000000	16.151347
3261.000000	15.700998
3260.000000	15.276094
3259.000000	14.913588
3258.000000	14.641722
3257.000000	14.484126
3256.000000	14.454475
3255.000000	14.551241
3254.000000	14.762628
3253.000000	15.071620
3252.000000	15.457480
3251.000000	15.892217
3250.000000	16.346299
3249.000000	16.796499
3248.000000	17.223242
3247.000000	17.607485
3246.000000	17.933105
3245.000000	18.191067
3244.000000	18.377615
3243.000000	18.493119
3242.000000	18.543799
3241.000000	18.542917
3240.000000	18.504795
3239.000000	18.438027
3238.000000	18.349665
3237.000000	18.248124
3236.000000	18.140808
3235.000000	18.032503
3234.000000	17.927973
3233.000000	17.832454
3232.000000	17.743776
3231.000000	17.649323
3230.000000	17.535621
3229.000000	17.396561
3228.000000	17.230247
3227.000000	17.033052
3226.000000	16.802426
3225.000000	16.541508
3224.000000	16.254672
3223.000000	15.943518
3222.000000	15.610959
3221.000000	15.265930
3220.000000	14.919590
3219.000000	14.579359
3218.000000	14.250673
3217.000000	13.939216
3216.000000	13.646680
3215.000000	13.368278
3214.000000	13.098985
3213.000000	12.837974
3212.000000	12.583647
3211.000000	12.329937
3210.000000	12.072359
3209.000000	11.813938
3208.000000	11.560190
3207.000000	11.313161
3206.000000	11.075016
3205.000000	10.851955
3204.000000	10.650257
3203.000000	10.472039
3202.000000	10.319281
3201.000000	10.197712
3200.000000	10.111160
3199.000000	10.058245
3198.000000	10.037738
3197.000000	10.052518
3196.000000	10.104757
3195.000000	10.190512
3194.000000	10.305827
3193.000000	10.451237
3192.000000	10.626170
3191.000000	10.825638
3190.000000	11.044878
3189.000000	11.284139
3188.000000	11.543495
3187.000000	11.817669
3186.000000	12.101586
3185.000000	12.394961
3184.000000	12.698209
3183.000000	13.008297
3182.000000	13.322705
3181.000000	13.643084
3180.000000	13.969888
3179.000000	14.298595
3178.000000	14.625064
3177.000000	14.949907
3176.000000	15.273817
3175.000000	15.593214
3174.000000	15.904664
3173.000000	16.208957
3172.000000	16.507154
3171.000000	16.796803
3170.000000	17.076136
3169.000000	17.347297
3168.000000	17.611487
3167.000000	17.865694
3166.000000	18.107132
3165.000000	18.336900
3164.000000	18.555582
3163.000000	18.759602
3162.000000	18.946227
3161.000000	19.116863
3160.000000	19.272754
3159.000000	19.411838
3158.000000	19.532895
3157.000000	19.639346
3156.000000	19.734806
3155.000000	19.820200
3154.000000	19.898686
3153.000000	19.978182
3152.000000	20.065311
3151.000000	20.160389
3150.000000	20.261908
3149.000000	20.371387
3148.000000	20.490299
3147.000000	20.616764
3146.000000	20.749310
3145.000000	20.889676
3144.000000	21.038267
3143.000000	21.191315
3142.000000	21.345477
3141.000000	21.501313
3140.000000	21.658801
3139.000000	21.813748
3138.000000	21.961940
3137.000000	22.102460
3136.000000	22.233526
3135.000000	22.348915
3134.000000	22.442227
3133.000000	22.509669
3132.000000	22.546422
3131.000000	22.544063
3130.000000	22.494415
3129.000000	22.393947
3128.000000	22.240329
3127.000000	22.031860
3126.000000	21.773052
3125.000000	21.475922
3124.000000	21.154274
3123.000000	20.818640
3122.000000	20.480278
3121.000000	20.153219
3120.000000	19.847366
3119.000000	19.563956
3118.000000	19.300855
3117.000000	19.058049
3116.000000	18.834523
3115.000000	18.625460
3114.000000	18.426174
3113.000000	18.235235
3112.000000	18.050636
3111.000000	17.868170
3110.000000	17.687908
3109.000000	17.516662
3108.000000	17.361146
3107.000000	17.223443
3106.000000	17.105677
3105.000000	17.014516
3104.000000	16.955815
3103.000000	16.931010
3102.000000	16.942839
3101.000000	16.998293
3100.000000	17.103926
3099.000000	17.260373
3098.000000	17.466131
3097.000000	17.721849
3096.000000	18.025678
3095.000000	18.372247
3094.000000	18.757388
3093.000000	19.180684
3092.000000	19.640766
3091.000000	20.131233
3090.000000	20.645851
3089.000000	21.180719
3088.000000	21.729771
3087.000000	22.284233
3086.000000	22.838805
3085.000000	23.394424
3084.000000	23.951066
3083.000000	24.503254
3082.000000	25.045650
3081.000000	25.577956
3080.000000	26.101463
3079.000000	26.615291
3078.000000	27.119069
3077.000000	27.614063
3076.000000	28.099098
3075.000000	28.569256
3074.000000	29.021619
3073.000000	29.458401
3072.000000	29.881566
3071.000000	30.289599
3070.000000	30.681645
3069.000000	31.060697
3068.000000	31.429932
3067.000000	31.788968
3066.000000	32.137027
3065.000000	32.475603
3064.000000	32.805715
3063.000000	33.126405
3062.000000	33.437565
3061.000000	33.741383
3060.000000	34.038682
3059.000000	34.327447
3058.000000	34.607097
3057.000000	34.880152
3056.000000	35.148423
3055.000000	35.411040
3054.000000	35.668073
3053.000000	35.922534
3052.000000	36.176493
3051.000000	36.428820
3050.000000	36.678121
3049.000000	36.924324
3048.000000	37.166216
3047.000000	37.401186
3046.000000	37.629404
3045.000000	37.854621
3044.000000	38.079309
3043.000000	38.302838
3042.000000	38.525330
3041.000000	38.748922
3040.000000	38.973178
3039.000000	39.193428
3038.000000	39.406282
3037.000000	39.613414
3036.000000	39.818460
3035.000000	40.023609
3034.000000	40.230499
3033.000000	40.440500
3032.000000	40.652015
3031.000000	40.861247
3030.000000	41.067204
3029.000000	41.272247
3028.000000	41.476705
3027.000000	41.677435
3026.000000	41.873281
3025.000000	42.067313
3024.000000	42.260969
3023.000000	42.450165
3022.000000	42.629513
3021.000000	42.796214
3020.000000	42.947650
3019.000000	43.078092
3018.000000	43.181224
3017.000000	43.253142
3016.000000	43.291475
3015.000000	43.296328
3014.000000	43.275050
3013.000000	43.244934
3012.000000	43.228247
3011.000000	43.245877
3010.000000	43.314184
3009.000000	43.441585
3008.000000	43.623861
3007.000000	43.844429
3006.000000	44.081135
3005.000000	44.311149
3004.000000	44.509723
3003.000000	44.648748
3002.000000	44.700059
3001.000000	44.638888
3000.000000	44.449139
2999.000000	44.134689
2998.000000	43.734020
2997.000000	43.321928
2996.000000	42.990322
2995.000000	42.820302
2994.000000	42.858152
2993.000000	43.103546
2992.000000	43.509742
2991.000000	44.003586
2990.000000	44.514764
2989.000000	44.995585
2988.000000	45.422617
2987.000000	45.788690
2986.000000	46.097403
2985.000000	46.357007
2984.000000	46.573955
2983.000000	46.749636
2982.000000	46.884225
2981.000000	46.978495
2980.000000	47.030794
2979.000000	47.035151
2978.000000	46.984909
2977.000000	46.878844
2976.000000	46.723115
2975.000000	46.533584
2974.000000	46.337050
2973.000000	46.165701
2972.000000	46.045121
2971.000000	45.984130
2970.000000	45.972510
2969.000000	45.980777
2968.000000	45.961135
2967.000000	45.859111
2966.000000	45.636967
2965.000000	45.292697
2964.000000	44.860696
2963.000000	44.397578
2962.000000	43.965604
2961.000000	43.617107
2960.000000	43.384727
2959.000000	43.280907
2958.000000	43.306800
2957.000000	43.455943
2956.000000	43.710237
2955.000000	44.039392
2954.000000	44.407777
2953.000000	44.780666
2952.000000	45.122467
2951.000000	45.399814
2950.000000	45.592128
2949.000000	45.701090
2948.000000	45.746387
2947.000000	45.749642
2946.000000	45.715089
2945.000000	45.611386
2944.000000	45.371385
2943.000000	44.925069
2942.000000	44.261623
2941.000000	43.476245
2940.000000	42.760587
2939.000000	42.331417
2938.000000	42.334992
2937.000000	42.785933
2936.000000	43.570920
2935.000000	44.514546
2934.000000	45.458224
2933.000000	46.305351
2932.000000	47.020286
2931.000000	47.607623
2930.000000	48.092863
2929.000000	48.505325
2928.000000	48.867282
2927.000000	49.190972
2926.000000	49.485033
2925.000000	49.757380
2924.000000	50.012017
2923.000000	50.247962
2922.000000	50.464206
2921.000000	50.662105
2920.000000	50.841660
2919.000000	51.000741
2918.000000	51.139045
2917.000000	51.259699
2916.000000	51.365544
2915.000000	51.457362
2914.000000	51.537037
2913.000000	51.608147
2912.000000	51.671845
2911.000000	51.725476
2910.000000	51.766067
2909.000000	51.791604
2908.000000	51.797444
2907.000000	51.773959
2906.000000	51.709372
2905.000000	51.590863
2904.000000	51.402447
2903.000000	51.127069
2902.000000	50.756193
2901.000000	50.297463
2900.000000	49.776462
2899.000000	49.236823
2898.000000	48.737113
2897.000000	48.340708
2896.000000	48.096103
2895.000000	48.022518
2894.000000	48.110662
2893.000000	48.330605
2892.000000	48.641037
2891.000000	48.998969
2890.000000	49.370693
2889.000000	49.735079
2888.000000	50.079336
2887.000000	50.395070
2886.000000	50.678388
2885.000000	50.929805
2884.000000	51.149921
2883.000000	51.338407
2882.000000	51.497364
2881.000000	51.632691
2880.000000	51.750886
2879.000000	51.857033
2878.000000	51.956389
2877.000000	52.054043
2876.000000	52.151373
2875.000000	52.245470
2874.000000	52.333799
2873.000000	52.416783
2872.000000	52.495811
2871.000000	52.572893
2870.000000	52.653606
2869.000000	52.746712
2868.000000	52.858214
2867.000000	52.987639
2866.000000	53.130680
2865.000000	53.281886
2864.000000	53.433821
2863.000000	53.578100
2862.000000	53.710020
2861.000000	53.830069
2860.000000	53.939977
2859.000000	54.040173
2858.000000	54.132253
2857.000000	54.220388
2856.000000	54.308366
2855.000000	54.397830
2854.000000	54.490269
2853.000000	54.587124
2852.000000	54.686182
2851.000000	54.781086
2850.000000	54.866336
2849.000000	54.940709
2848.000000	55.005323
2847.000000	55.061770
2846.000000	55.113602
2845.000000	55.166229
2844.000000	55.223281
2843.000000	55.284972
2842.000000	55.351069
2841.000000	55.423126
2840.000000	55.502637
2839.000000	55.589545
2838.000000	55.683561
2837.000000	55.784456
2836.000000	55.890127
2835.000000	55.996944
2834.000000	56.102988
2833.000000	56.208892
2832.000000	56.315014
2831.000000	56.420351
2830.000000	56.524955
2829.000000	56.630554
2828.000000	56.737700
2827.000000	56.844726
2826.000000	56.950174
2825.000000	57.053688
2824.000000	57.153883
2823.000000	57.248092
2822.000000	57.335442
2821.000000	57.417829
2820.000000	57.497045
2819.000000	57.573373
2818.000000	57.647581
2817.000000	57.721501
2816.000000	57.795404
2815.000000	57.867102
2814.000000	57.934686
2813.000000	57.998061
2812.000000	58.057208
2811.000000	58.111555
2810.000000	58.161918
2809.000000	58.210696
2808.000000	58.259238
2807.000000	58.307217
2806.000000	58.355120
2805.000000	58.404733
2804.000000	58.456286
2803.000000	58.507613
2802.000000	58.556986
2801.000000	58.604534
2800.000000	58.650370
2799.000000	58.693944
2798.000000	58.736027
2797.000000	58.778715
2796.000000	58.822482
2795.000000	58.865530
2794.000000	58.906697
2793.000000	58.946564
2792.000000	58.985221
2791.000000	59.021750
2790.000000	59.056684
2789.000000	59.092094
2788.000000	59.128189
2787.000000	59.162471
2786.000000	59.193255
2785.000000	59.221689
2784.000000	59.249591
2783.000000	59.278266
2782.000000	59.310457
2781.000000	59.350328
2780.000000	59.399785
2779.000000	59.456860
2778.000000	59.518735
2777.000000	59.584142
2776.000000	59.651823
2775.000000	59.719267
2774.000000	59.784456
2773.000000	59.846844
2772.000000	59.905763
2771.000000	59.960138
2770.000000	60.010675
2769.000000	60.060147
2768.000000	60.110459
2767.000000	60.161194
2766.000000	60.211516
2765.000000	60.260944
2764.000000	60.307502
2763.000000	60.347874
2762.000000	60.380690
2761.000000	60.407851
2760.000000	60.431936
2759.000000	60.454376
2758.000000	60.476685
2757.000000	60.500537
2756.000000	60.525365
2755.000000	60.548213
2754.000000	60.567156
2753.000000	60.583283
2752.000000	60.598867
2751.000000	60.615897
2750.000000	60.637029
2749.000000	60.664971
2748.000000	60.699309
2747.000000	60.735842
2746.000000	60.770174
2745.000000	60.800398
2744.000000	60.826174
2743.000000	60.847852
2742.000000	60.867163
2741.000000	60.886026
2740.000000	60.903359
2739.000000	60.915348
2738.000000	60.920432
2737.000000	60.922821
2736.000000	60.930596
2735.000000	60.952154
2734.000000	60.994116
2733.000000	61.058604
2732.000000	61.140740
2731.000000	61.230744
2730.000000	61.319879
2729.000000	61.403780
2728.000000	61.480638
2727.000000	61.549502
2726.000000	61.611379
2725.000000	61.668904
2724.000000	61.723111
2723.000000	61.772315
2722.000000	61.814705
2721.000000	61.849793
2720.000000	61.877078
2719.000000	61.895731
2718.000000	61.907095
2717.000000	61.915568
2716.000000	61.925683
2715.000000	61.940065
2714.000000	61.960420
2713.000000	61.987930
2712.000000	62.021743
2711.000000	62.059296
2710.000000	62.099089
2709.000000	62.141337
2708.000000	62.185369
2707.000000	62.228665
2706.000000	62.269239
2705.000000	62.306608
2704.000000	62.339510
2703.000000	62.365056
2702.000000	62.381182
2701.000000	62.387816
2700.000000	62.385314
2699.000000	62.373933
2698.000000	62.355702
2697.000000	62.334772
2696.000000	62.314560
2695.000000	62.296475
2694.000000	62.281622
2693.000000	62.271034
2692.000000	62.263547
2691.000000	62.256071
2690.000000	62.247226
2689.000000	62.238869
2688.000000	62.233428
2687.000000	62.231925
2686.000000	62.235324
2685.000000	62.244968
2684.000000	62.260546
2683.000000	62.280106
2682.000000	62.302915
2681.000000	62.330339
2680.000000	62.362964
2679.000000	62.399056
2678.000000	62.436870
2677.000000	62.475836
2676.000000	62.514651
2675.000000	62.550571
2674.000000	62.581564
2673.000000	62.607107
2672.000000	62.626296
2671.000000	62.637676
2670.000000	62.642202
2669.000000	62.644378
2668.000000	62.649432
2667.000000	62.661242
2666.000000	62.683202
2665.000000	62.717908
2664.000000	62.764227
2663.000000	62.816732
2662.000000	62.869035
2661.000000	62.916063
2660.000000	62.953167
2659.000000	62.976260
2658.000000	62.984540
2657.000000	62.981376
2656.000000	62.971514
2655.000000	62.959217
2654.000000	62.949677
2653.000000	62.949079
2652.000000	62.961477
2651.000000	62.987293
2650.000000	63.025527
2649.000000	63.075023
2648.000000	63.132851
2647.000000	63.193773
2646.000000	63.252801
2645.000000	63.307118
2644.000000	63.355027
2643.000000	63.395805
2642.000000	63.431657
2641.000000	63.467458
2640.000000	63.507146
2639.000000	63.551645
2638.000000	63.600548
2637.000000	63.653270
2636.000000	63.707583
2635.000000	63.759272
2634.000000	63.804792
2633.000000	63.842737
2632.000000	63.872314
2631.000000	63.892774
2630.000000	63.905137
2629.000000	63.912682
2628.000000	63.918400
2627.000000	63.923456
2626.000000	63.928774
2625.000000	63.935582
2624.000000	63.943706
2623.000000	63.951294
2622.000000	63.957082
2621.000000	63.961307
2620.000000	63.963622
2619.000000	63.962411
2618.000000	63.956825
2617.000000	63.947307
2616.000000	63.933503
2615.000000	63.913623
2614.000000	63.886977
2613.000000	63.855119
2612.000000	63.819705
2611.000000	63.781748
2610.000000	63.743791
2609.000000	63.710480
2608.000000	63.685748
2607.000000	63.671296
2606.000000	63.668253
2605.000000	63.678228
2604.000000	63.701366
2603.000000	63.735318
2602.000000	63.777577
2601.000000	63.826285
2600.000000	63.878518
2599.000000	63.930026
2598.000000	63.977696
2597.000000	64.020923
2596.000000	64.059750
2595.000000	64.094004
2594.000000	64.125108
2593.000000	64.156395
2592.000000	64.190311
2591.000000	64.226821
2590.000000	64.264897
2589.000000	64.303403
2588.000000	64.339921
2587.000000	64.370944
2586.000000	64.394666
2585.000000	64.412100
2584.000000	64.425178
2583.000000	64.436019
2582.000000	64.448688
2581.000000	64.469059
2580.000000	64.501556
2579.000000	64.547381
2578.000000	64.605933
2577.000000	64.675892
2576.000000	64.753890
2575.000000	64.834667
2574.000000	64.914057
2573.000000	64.990116
2572.000000	65.061428
2571.000000	65.126445
2570.000000	65.185276
2569.000000	65.240075
2568.000000	65.292731
2567.000000	65.343779
2566.000000	65.393992
2565.000000	65.444873
2564.000000	65.496465
2563.000000	65.546864
2562.000000	65.594536
2561.000000	65.639347
2560.000000	65.680897
2559.000000	65.717941
2558.000000	65.750641
2557.000000	65.781391
2556.000000	65.812591
2555.000000	65.845330
2554.000000	65.880742
2553.000000	65.920509
2552.000000	65.964881
2551.000000	66.011864
2550.000000	66.059183
2549.000000	66.105586
2548.000000	66.149867
2547.000000	66.190688
2546.000000	66.228085
2545.000000	66.263441
2544.000000	66.297212
2543.000000	66.328479
2542.000000	66.357011
2541.000000	66.383483
2540.000000	66.407154
2539.000000	66.425049
2538.000000	66.434576
2537.000000	66.435095
2536.000000	66.426067
2535.000000	66.406462
2534.000000	66.376667
2533.000000	66.339611
2532.000000	66.298904
2531.000000	66.256908
2530.000000	66.215626
2529.000000	66.177105
2528.000000	66.142108
2527.000000	66.109898
2526.000000	66.079903
2525.000000	66.052187
2524.000000	66.025830
2523.000000	65.998765
2522.000000	65.969795
2521.000000	65.938940
2520.000000	65.905450
2519.000000	65.867433
2518.000000	65.824037
2517.000000	65.776037
2516.000000	65.723545
2515.000000	65.665612
2514.000000	65.602743
2513.000000	65.537928
2512.000000	65.474707
2511.000000	65.416400
2510.000000	65.367568
2509.000000	65.333621
2508.000000	65.317749
2507.000000	65.319447
2506.000000	65.337132
2505.000000	65.369087
2504.000000	65.411612
2503.000000	65.459251
2502.000000	65.507491
2501.000000	65.554267
2500.000000	65.598088
2499.000000	65.637225
2498.000000	65.671705
2497.000000	65.703408
2496.000000	65.733199
2495.000000	65.759869
2494.000000	65.782465
2493.000000	65.801264
2492.000000	65.816002
2491.000000	65.825359
2490.000000	65.829463
2489.000000	65.831004
2488.000000	65.832845
2487.000000	65.836674
2486.000000	65.844406
2485.000000	65.858405
2484.000000	65.878997
2483.000000	65.903692
2482.000000	65.929687
2481.000000	65.955428
2480.000000	65.979431
2479.000000	66.000038
2478.000000	66.017738
2477.000000	66.035672
2476.000000	66.057074
2475.000000	66.083917
2474.000000	66.118251
2473.000000	66.162706
2472.000000	66.218126
2471.000000	66.282499
2470.000000	66.352843
2469.000000	66.426070
2468.000000	66.498033
2467.000000	66.564091
2466.000000	66.621902
2465.000000	66.672144
2464.000000	66.716147
2463.000000	66.754712
2462.000000	66.789619
2461.000000	66.823792
2460.000000	66.858637
2459.000000	66.893138
2458.000000	66.925714
2457.000000	66.955217
2456.000000	66.979751
2455.000000	66.996724
2454.000000	67.005518
2453.000000	67.008346
2452.000000	67.008201
2451.000000	67.007831
2450.000000	67.010908
2449.000000	67.021724
2448.000000	67.042704
2447.000000	67.073793
2446.000000	67.114376
2445.000000	67.163685
2444.000000	67.218554
2443.000000	67.273647
2442.000000	67.324941
2441.000000	67.371249
2440.000000	67.412351
2439.000000	67.448055
2438.000000	67.480010
2437.000000	67.511765
2436.000000	67.545661
2435.000000	67.580907
2434.000000	67.615228
2433.000000	67.646143
2432.000000	67.669969
2431.000000	67.682534
2430.000000	67.681921
2429.000000	67.669547
2428.000000	67.647777
2427.000000	67.618130
2426.000000	67.582699
2425.000000	67.544335
2424.000000	67.504765
2423.000000	67.464349
2422.000000	67.424456
2421.000000	67.388225
2420.000000	67.357966
2419.000000	67.333989
2418.000000	67.316714
2417.000000	67.307734
2416.000000	67.307333
2415.000000	67.313084
2414.000000	67.321648
2413.000000	67.329913
2412.000000	67.333539
2411.000000	67.326790
2410.000000	67.305304
2409.000000	67.267918
2408.000000	67.215788
2407.000000	67.151561
2406.000000	67.080491
2405.000000	67.009540
2404.000000	66.944007
2403.000000	66.886513
2402.000000	66.839356
2401.000000	66.805147
2400.000000	66.783980
2399.000000	66.772438
2398.000000	66.766334
2397.000000	66.762619
2396.000000	66.757773
2395.000000	66.747198
2394.000000	66.727777
2393.000000	66.699373
2392.000000	66.662972
2391.000000	66.620131
2390.000000	66.575199
2389.000000	66.535153
2388.000000	66.506822
2387.000000	66.494961
2386.000000	66.504373
2385.000000	66.540751
2384.000000	66.606447
2383.000000	66.698894
2382.000000	66.812496
2381.000000	66.940331
2380.000000	67.072548
2379.000000	67.195162
2378.000000	67.294933
2377.000000	67.365926
2376.000000	67.407536
2375.000000	67.421625
2374.000000	67.412672
2373.000000	67.388556
2372.000000	67.359038
2371.000000	67.331334
2370.000000	67.307469
2369.000000	67.291956
2368.000000	67.293594
2367.000000	67.317432
2366.000000	67.360561
2365.000000	67.426903
2364.000000	67.526409
2363.000000	67.646818
2362.000000	67.777030
2361.000000	67.909976
2360.000000	68.024419
2359.000000	68.110909
2358.000000	68.149785
2357.000000	68.141297
2356.000000	68.094157
2355.000000	68.010631
2354.000000	67.918495
2353.000000	67.861945
2352.000000	67.908761
2351.000000	68.045002
2350.000000	68.169106
2349.000000	68.207347
2348.000000	68.158775
2347.000000	68.127043
2346.000000	68.170554
2345.000000	68.270130
2344.000000	68.360591
2343.000000	68.393886
2342.000000	68.406195
2341.000000	68.413478
2340.000000	68.424770
2339.000000	68.426018
2338.000000	68.418255
2337.000000	68.402392
2336.000000	68.391208
2335.000000	68.384376
2334.000000	68.389931
2333.000000	68.387111
2332.000000	68.367931
2331.000000	68.311703
2330.000000	68.212520
2329.000000	68.102764
2328.000000	67.990914
2327.000000	67.908921
2326.000000	67.851808
2325.000000	67.826320
2324.000000	67.822764
2323.000000	67.813139
2322.000000	67.789334
2321.000000	67.735326
2320.000000	67.667717
2319.000000	67.589433
2318.000000	67.522286
2317.000000	67.474036
2316.000000	67.449845
2315.000000	67.437773
2314.000000	67.420978
2313.000000	67.384167
2312.000000	67.314887
2311.000000	67.213587
2310.000000	67.084458
2309.000000	66.939751
2308.000000	66.784141
2307.000000	66.623172
2306.000000	66.461785
2305.000000	66.307300
2304.000000	66.164165
2303.000000	66.030013
2302.000000	65.901443
2301.000000	65.775224
2300.000000	65.647870
2299.000000	65.518946
2298.000000	65.390512
2297.000000	65.271652
2296.000000	65.166707
2295.000000	65.082127
2294.000000	65.020151
2293.000000	64.986038
2292.000000	64.977474
2291.000000	64.990174
2290.000000	65.018140
2289.000000	65.058716
2288.000000	65.109649
2287.000000	65.170142
2286.000000	65.242268
2285.000000	65.328850
2284.000000	65.429316
2283.000000	65.538309
2282.000000	65.650707
2281.000000	65.761132
2280.000000	65.863691
2279.000000	65.951774
2278.000000	66.024629
2277.000000	66.086344
2276.000000	66.142531
2275.000000	66.197802
2274.000000	66.257082
2273.000000	66.325963
2272.000000	66.406634
2271.000000	66.498075
2270.000000	66.599035
2269.000000	66.709442
2268.000000	66.828510
2267.000000	66.954420
2266.000000	67.086483
2265.000000	67.225881
2264.000000	67.371433
2263.000000	67.520301
2262.000000	67.669194
2261.000000	67.815503
2260.000000	67.955439
2259.000000	68.083774
2258.000000	68.198668
2257.000000	68.301278
2256.000000	68.394743
2255.000000	68.481561
2254.000000	68.565413
2253.000000	68.649983
2252.000000	68.736284
2251.000000	68.822892
2250.000000	68.908410
2249.000000	68.992506
2248.000000	69.073478
2247.000000	69.148958
2246.000000	69.218231
2245.000000	69.283276
2244.000000	69.345623
2243.000000	69.405121
2242.000000	69.461217
2241.000000	69.513484
2240.000000	69.559709
2239.000000	69.596156
2238.000000	69.620687
2237.000000	69.634072
2236.000000	69.638537
2235.000000	69.636924
2234.000000	69.634049
2233.000000	69.635793
2232.000000	69.645707
2231.000000	69.663653
2230.000000	69.687859
2229.000000	69.715967
2228.000000	69.744086
2227.000000	69.767769
2226.000000	69.785348
2225.000000	69.798702
2224.000000	69.810345
2223.000000	69.821745
2222.000000	69.834400
2221.000000	69.849874
2220.000000	69.867673
2219.000000	69.885357
2218.000000	69.901468
2217.000000	69.916773
2216.000000	69.932497
2215.000000	69.949756
2214.000000	69.971171
2213.000000	70.000323
2212.000000	70.038564
2211.000000	70.083969
2210.000000	70.133725
2209.000000	70.185190
2208.000000	70.234487
2207.000000	70.276897
2206.000000	70.309822
2205.000000	70.333686
2204.000000	70.349393
2203.000000	70.357199
2202.000000	70.358441
2201.000000	70.355892
2200.000000	70.351287
2199.000000	70.344472
2198.000000	70.335815
2197.000000	70.327434
2196.000000	70.321537
2195.000000	70.319602
2194.000000	70.324008
2193.000000	70.338048
2192.000000	70.363177
2191.000000	70.397943
2190.000000	70.440042
2189.000000	70.487568
2188.000000	70.537912
2187.000000	70.588033
2186.000000	70.636823
2185.000000	70.685453
2184.000000	70.734820
2183.000000	70.784317
2182.000000	70.833383
2181.000000	70.881834
2180.000000	70.928105
2179.000000	70.969188
2178.000000	71.003054
2177.000000	71.029559
2176.000000	71.048760
2175.000000	71.060700
2174.000000	71.067316
2173.000000	71.072330
2172.000000	71.078237
2171.000000	71.084982
2170.000000	71.091791
2169.000000	71.097949
2168.000000	71.101294
2167.000000	71.098501
2166.000000	71.088276
2165.000000	71.072772
2164.000000	71.055453
2163.000000	71.039612
2162.000000	71.029223
2161.000000	71.028530
2160.000000	71.039256
2159.000000	71.059619
2158.000000	71.086485
2157.000000	71.116625
2156.000000	71.145869
2155.000000	71.169895
2154.000000	71.187238
2153.000000	71.200016
2152.000000	71.211395
2151.000000	71.224128
2150.000000	71.241417
2149.000000	71.266133
2148.000000	71.297722
2147.000000	71.331737
2146.000000	71.363133
2145.000000	71.388473
2144.000000	71.405303
2143.000000	71.412415
2142.000000	71.411927
2141.000000	71.409023
2140.000000	71.408397
2139.000000	71.412145
2138.000000	71.420945
2137.000000	71.434524
2136.000000	71.450057
2135.000000	71.462422
2134.000000	71.467445
2133.000000	71.463571
2132.000000	71.450431
2131.000000	71.428252
2130.000000	71.399495
2129.000000	71.368808
2128.000000	71.340086
2127.000000	71.314988
2126.000000	71.294655
2125.000000	71.280613
2124.000000	71.273188
2123.000000	71.271424
2122.000000	71.275492
2121.000000	71.287232
2120.000000	71.307714
2119.000000	71.336024
2118.000000	71.370668
2117.000000	71.409974
2116.000000	71.450674
2115.000000	71.488440
2114.000000	71.520926
2113.000000	71.548617
2112.000000	71.572481
2111.000000	71.592795
2110.000000	71.610297
2109.000000	71.626008
2108.000000	71.639247
2107.000000	71.647982
2106.000000	71.651988
2105.000000	71.653737
2104.000000	71.655598
2103.000000	71.658230
2102.000000	71.661918
2101.000000	71.666847
2100.000000	71.671044
2099.000000	71.670114
2098.000000	71.660152
2097.000000	71.639415
2096.000000	71.607210
2095.000000	71.564453
2094.000000	71.516420
2093.000000	71.472498
2092.000000	71.441868
2091.000000	71.430518
2090.000000	71.442010
2089.000000	71.477534
2088.000000	71.533477
2087.000000	71.601300
2086.000000	71.671053
2085.000000	71.733795
2084.000000	71.781971
2083.000000	71.811111
2082.000000	71.822314
2081.000000	71.821366
2080.000000	71.814289
2079.000000	71.804701
2078.000000	71.794962
2077.000000	71.786104
2076.000000	71.775339
2075.000000	71.756564
2074.000000	71.724482
2073.000000	71.677192
2072.000000	71.615090
2071.000000	71.539927
2070.000000	71.456473
2069.000000	71.372067
2068.000000	71.292211
2067.000000	71.217594
2066.000000	71.145733
2065.000000	71.073537
2064.000000	70.997488
2063.000000	70.914180
2062.000000	70.822216
2061.000000	70.722372
2060.000000	70.616108
2059.000000	70.505991
2058.000000	70.397474
2057.000000	70.297150
2056.000000	70.208175
2055.000000	70.129521
2054.000000	70.059583
2053.000000	69.997495
2052.000000	69.941063
2051.000000	69.887109
2050.000000	69.834994
2049.000000	69.787534
2048.000000	69.747317
2047.000000	69.714790
2046.000000	69.691061
2045.000000	69.678473
2044.000000	69.676877
2043.000000	69.682539
2042.000000	69.692150
2041.000000	69.705629
2040.000000	69.723797
2039.000000	69.746865
2038.000000	69.776309
2037.000000	69.814652
2036.000000	69.862580
2035.000000	69.918750
2034.000000	69.983090
2033.000000	70.056957
2032.000000	70.139182
2031.000000	70.225718
2030.000000	70.313578
2029.000000	70.401933
2028.000000	70.489034
2027.000000	70.571544
2026.000000	70.647864
2025.000000	70.719096
2024.000000	70.786027
2023.000000	70.848122
2022.000000	70.907089
2021.000000	70.968115
2020.000000	71.035294
2019.000000	71.108294
2018.000000	71.184782
2017.000000	71.263393
2016.000000	71.343029
2015.000000	71.421983
2014.000000	71.499135
2013.000000	71.574244
2012.000000	71.646586
2011.000000	71.716002
2010.000000	71.785874
2009.000000	71.861885
2008.000000	71.946727
2007.000000	72.038644
2006.000000	72.134899
2005.000000	72.232943
2004.000000	72.328034
2003.000000	72.413391
2002.000000	72.485069
2001.000000	72.543987
2000.000000	72.593430
1999.000000	72.637922
1998.000000	72.683400
1997.000000	72.736409
1996.000000	72.801323
1995.000000	72.877560
1994.000000	72.959494
1993.000000	73.038757
1992.000000	73.108015
1991.000000	73.165535
1990.000000	73.215976
1989.000000	73.265704
1988.000000	73.318806
1987.000000	73.377711
1986.000000	73.445652
1985.000000	73.525638
1984.000000	73.616337
1983.000000	73.711267
1982.000000	73.802970
1981.000000	73.886388
1980.000000	73.959260
1979.000000	74.021982
1978.000000	74.077268
1977.000000	74.129843
1976.000000	74.185341
1975.000000	74.248135
1974.000000	74.319707
1973.000000	74.398606
1972.000000	74.481554
1971.000000	74.564353
1970.000000	74.642033
1969.000000	74.709222
1968.000000	74.760769
1967.000000	74.793596
1966.000000	74.809959
1965.000000	74.817198
1964.000000	74.822612
1963.000000	74.828371
1962.000000	74.831537
1961.000000	74.828791
1960.000000	74.819923
1959.000000	74.807055
1958.000000	74.792302
1957.000000	74.777344
1956.000000	74.764148
1955.000000	74.754659
1954.000000	74.750150
1953.000000	74.752060
1952.000000	74.762090
1951.000000	74.780830
1950.000000	74.808010
1949.000000	74.842391
1948.000000	74.881139
1947.000000	74.920955
1946.000000	74.959180
1945.000000	74.992626
1944.000000	75.015456
1943.000000	75.021129
1942.000000	75.009550
1941.000000	74.990292
1940.000000	74.975423
1939.000000	74.971130
1938.000000	74.976867
1937.000000	74.989087
1936.000000	75.004218
1935.000000	75.018539
1934.000000	75.027189
1933.000000	75.025887
1932.000000	75.012501
1931.000000	74.988343
1930.000000	74.959530
1929.000000	74.933331
1928.000000	74.915288
1927.000000	74.910486
1926.000000	74.924092
1925.000000	74.956499
1924.000000	74.997177
1923.000000	75.031259
1922.000000	75.053669
1921.000000	75.068930
1920.000000	75.078925
1919.000000	75.079485
1918.000000	75.069199
1917.000000	75.055174
1916.000000	75.045465
1915.000000	75.042385
1914.000000	75.045021
1913.000000	75.051311
1912.000000	75.056550
1911.000000	75.055167
1910.000000	75.045634
1909.000000	75.029645
1908.000000	75.009774
1907.000000	74.990529
1906.000000	74.979855
1905.000000	74.984792
1904.000000	75.004438
1903.000000	75.034960
1902.000000	75.077606
1901.000000	75.133281
1900.000000	75.196345
1899.000000	75.259876
1898.000000	75.322393
1897.000000	75.384264
1896.000000	75.439803
1895.000000	75.482892
1894.000000	75.518690
1893.000000	75.559028
1892.000000	75.608228
1891.000000	75.661064
1890.000000	75.711130
1889.000000	75.756247
1888.000000	75.797006
1887.000000	75.834533
1886.000000	75.870289
1885.000000	75.903486
1884.000000	75.930256
1883.000000	75.950843
1882.000000	75.973993
1881.000000	76.007823
1880.000000	76.052074
1879.000000	76.102609
1878.000000	76.157908
1877.000000	76.217407
1876.000000	76.275433
1875.000000	76.324221
1874.000000	76.363464
1873.000000	76.399682
1872.000000	76.436771
1871.000000	76.474044
1870.000000	76.511801
1869.000000	76.551661
1868.000000	76.592278
1867.000000	76.633012
1866.000000	76.678389
1865.000000	76.730573
1864.000000	76.783419
1863.000000	76.828909
1862.000000	76.866522
1861.000000	76.901742
1860.000000	76.937283
1859.000000	76.973314
1858.000000	77.013651
1857.000000	77.062416
1856.000000	77.116066
1855.000000	77.167139
1854.000000	77.212970
1853.000000	77.253597
1852.000000	77.288828
1851.000000	77.321156
1850.000000	77.355197
1849.000000	77.394127
1848.000000	77.437084
1847.000000	77.482257
1846.000000	77.528789
1845.000000	77.573401
1844.000000	77.611161
1843.000000	77.643127
1842.000000	77.675826
1841.000000	77.712677
1840.000000	77.752872
1839.000000	77.793126
1838.000000	77.830233
1837.000000	77.863477
1836.000000	77.893502
1835.000000	77.923314
1834.000000	77.957309
1833.000000	77.997358
1832.000000	78.043506
1831.000000	78.091653
1830.000000	78.132440
1829.000000	78.164631
1828.000000	78.199207
1827.000000	78.242239
1826.000000	78.288298
1825.000000	78.330396
1824.000000	78.367495
1823.000000	78.403510
1822.000000	78.442456
1821.000000	78.487378
1820.000000	78.538503
1819.000000	78.589385
1818.000000	78.633049
1817.000000	78.669347
1816.000000	78.699027
1815.000000	78.719624
1814.000000	78.730708
1813.000000	78.737566
1812.000000	78.744614
1811.000000	78.748106
1810.000000	78.748198
1809.000000	78.754278
1808.000000	78.767595
1807.000000	78.777958
1806.000000	78.780248
1805.000000	78.779223
1804.000000	78.776964
1803.000000	78.768824
1802.000000	78.753629
1801.000000	78.741913
1800.000000	78.746582
1799.000000	78.769718
1798.000000	78.808228
1797.000000	78.857078
1796.000000	78.904253
1795.000000	78.936551
1794.000000	78.948312
1793.000000	78.944433
1792.000000	78.933434
1791.000000	78.921097
1790.000000	78.917568
1789.000000	78.933605
1788.000000	78.968618
1787.000000	79.011508
1786.000000	79.051400
1785.000000	79.083142
1784.000000	79.103432
1783.000000	79.110705
1782.000000	79.104998
1781.000000	79.089255
1780.000000	79.072849
1779.000000	79.067551
1778.000000	79.082431
1777.000000	79.119620
1776.000000	79.175391
1775.000000	79.243172
1774.000000	79.311096
1773.000000	79.367166
1772.000000	79.410305
1771.000000	79.445705
1770.000000	79.476619
1769.000000	79.508298
1768.000000	79.548563
1767.000000	79.598233
1766.000000	79.651270
1765.000000	79.705899
1764.000000	79.764646
1763.000000	79.822133
1762.000000	79.861713
1761.000000	79.879343
1760.000000	79.890192
1759.000000	79.903639
1758.000000	79.916286
1757.000000	79.922044
1756.000000	79.929390
1755.000000	79.951131
1754.000000	79.983849
1753.000000	80.020440
1752.000000	80.066334
1751.000000	80.128352
1750.000000	80.195549
1749.000000	80.250116
1748.000000	80.291317
1747.000000	80.331337
1746.000000	80.371121
1745.000000	80.403818
1744.000000	80.431770
1743.000000	80.459964
1742.000000	80.487954
1741.000000	80.517653
1740.000000	80.556562
1739.000000	80.605185
1738.000000	80.651340
1737.000000	80.685442
1736.000000	80.703871
1735.000000	80.702932
1734.000000	80.684607
1733.000000	80.662981
1732.000000	80.649312
1731.000000	80.644248
1730.000000	80.648727
1729.000000	80.658487
1728.000000	80.671771
1727.000000	80.690197
1726.000000	80.708393
1725.000000	80.717389
1724.000000	80.713037
1723.000000	80.698339
1722.000000	80.684023
1721.000000	80.680922
1720.000000	80.694565
1719.000000	80.720489
1718.000000	80.748460
1717.000000	80.780017
1716.000000	80.812195
1715.000000	80.832018
1714.000000	80.845655
1713.000000	80.864578
1712.000000	80.883702
1711.000000	80.896579
1710.000000	80.909662
1709.000000	80.932347
1708.000000	80.967933
1707.000000	81.015471
1706.000000	81.074925
1705.000000	81.144541
1704.000000	81.210753
1703.000000	81.262862
1702.000000	81.301670
1701.000000	81.343246
1700.000000	81.399126
1699.000000	81.451758
1698.000000	81.492027
1697.000000	81.536261
1696.000000	81.593573
1695.000000	81.656348
1694.000000	81.717031
1693.000000	81.771742
1692.000000	81.824438
1691.000000	81.876240
1690.000000	81.918003
1689.000000	81.938661
1688.000000	81.942816
1687.000000	81.946497
1686.000000	81.955298
1685.000000	81.962581
1684.000000	81.962414
1683.000000	81.974123
1682.000000	82.004422
1681.000000	82.023850
1680.000000	82.020226
1679.000000	82.001080
1678.000000	81.970768
1677.000000	81.917895
1676.000000	81.841117
1675.000000	81.771734
1674.000000	81.732223
1673.000000	81.706095
1672.000000	81.680797
1671.000000	81.666339
1670.000000	81.663721
1669.000000	81.645964
1668.000000	81.599064
1667.000000	81.541883
1666.000000	81.484789
1665.000000	81.416844
1664.000000	81.330361
1663.000000	81.242768
1662.000000	81.172833
1661.000000	81.103617
1660.000000	81.013836
1659.000000	80.912996
1658.000000	80.811932
1657.000000	80.698704
1656.000000	80.552155
1655.000000	80.346780
1654.000000	80.011012
1653.000000	79.495833
1652.000000	78.936793
1651.000000	78.444037
1650.000000	77.944313
1649.000000	77.302638
1648.000000	76.313850
1647.000000	74.820234
1646.000000	72.886168
1645.000000	70.689730
1644.000000	68.257996
1643.000000	65.483147
1642.000000	62.286247
1641.000000	58.741973
1640.000000	55.139107
1639.000000	51.809622
1638.000000	48.913494
1637.000000	46.480736
1636.000000	44.685679
1635.000000	43.851744
1634.000000	44.000582
1633.000000	44.833281
1632.000000	46.082262
1631.000000	47.601247
1630.000000	49.322833
1629.000000	51.216442
1628.000000	53.230667
1627.000000	55.247033
1626.000000	57.184510
1625.000000	59.109867
1624.000000	61.127607
1623.000000	63.163369
1622.000000	64.984803
1621.000000	66.478951
1620.000000	67.730869
1619.000000	68.865867
1618.000000	69.956736
1617.000000	71.020259
1616.000000	71.998818
1615.000000	72.798497
1614.000000	73.409149
1613.000000	73.914331
1612.000000	74.385976
1611.000000	74.810123
1610.000000	75.118063
1609.000000	75.280679
1608.000000	75.310443
1607.000000	75.192889
1606.000000	74.883490
1605.000000	74.356827
1604.000000	73.614294
1603.000000	72.637410
1602.000000	71.408022
1601.000000	69.985354
1600.000000	68.504979
1599.000000	67.102591
1598.000000	65.859760
1597.000000	64.817228
1596.000000	63.988137
1595.000000	63.333438
1594.000000	62.760905
1593.000000	62.188057
1592.000000	61.588937
1591.000000	60.960842
1590.000000	60.287619
1589.000000	59.558700
1588.000000	58.786549
1587.000000	57.969253
1586.000000	57.069580
1585.000000	56.061779
1584.000000	54.972876
1583.000000	53.841277
1582.000000	52.666893
1581.000000	51.451511
1580.000000	50.234943
1579.000000	49.002866
1578.000000	47.574815
1577.000000	45.679008
1576.000000	43.346109
1575.000000	41.069612
1574.000000	39.216495
1573.000000	37.696306
1572.000000	36.295398
1571.000000	34.910938
1570.000000	33.580395
1569.000000	32.443338
1568.000000	31.643123
1567.000000	31.227355
1566.000000	31.121913
1565.000000	31.206075
1564.000000	31.436065
1563.000000	31.843752
1562.000000	32.456055
1561.000000	33.274908
1560.000000	34.417690
1559.000000	35.984610
1558.000000	37.624189
1557.000000	38.946545
1556.000000	40.022038
1555.000000	41.056461
1554.000000	42.082736
1553.000000	43.002342
1552.000000	43.783549
1551.000000	44.527011
1550.000000	45.323763
1549.000000	46.170262
1548.000000	47.046509
1547.000000	48.003584
1546.000000	49.099123
1545.000000	50.295951
1544.000000	51.492147
1543.000000	52.647526
1542.000000	53.809890
1541.000000	55.021848
1540.000000	56.237603
1539.000000	57.350866
1538.000000	58.288337
1537.000000	59.061564
1536.000000	59.765206
1535.000000	60.518945
1534.000000	61.372332
1533.000000	62.243699
1532.000000	63.036080
1531.000000	63.759643
1530.000000	64.464857
1529.000000	65.158327
1528.000000	65.821427
1527.000000	66.449867
1526.000000	67.032198
1525.000000	67.539391
1524.000000	67.978130
1523.000000	68.404264
1522.000000	68.848234
1521.000000	69.266738
1520.000000	69.627712
1519.000000	69.969883
1518.000000	70.328620
1517.000000	70.682347
1516.000000	70.997298
1515.000000	71.282544
1514.000000	71.556562
1513.000000	71.818125
1512.000000	72.072811
1511.000000	72.337360
1510.000000	72.615519
1509.000000	72.894961
1508.000000	73.177269
1507.000000	73.465116
1506.000000	73.750230
1505.000000	74.012650
1504.000000	74.236210
1503.000000	74.447480
1502.000000	74.662036
1501.000000	74.862620
1500.000000	75.045953
1499.000000	75.236951
1498.000000	75.440940
1497.000000	75.635977
1496.000000	75.820857
1495.000000	76.012299
1494.000000	76.198811
1493.000000	76.356454
1492.000000	76.495104
1491.000000	76.645123
1490.000000	76.796136
1489.000000	76.908746
1488.000000	76.987072
1487.000000	77.061729
1486.000000	77.123708
1485.000000	77.125475
1484.000000	77.045018
1483.000000	76.884369
1482.000000	76.609032
1481.000000	76.170816
1480.000000	75.567767
1479.000000	74.788833
1478.000000	73.723276
1477.000000	72.248000
1476.000000	70.385696
1475.000000	68.245544
1474.000000	65.833708
1473.000000	63.175398
1472.000000	60.624657
1471.000000	58.631559
1470.000000	57.286222
1469.000000	56.438038
1468.000000	56.004188
1467.000000	56.023112
1466.000000	56.578129
1465.000000	57.657875
1464.000000	59.038953
1463.000000	60.377752
1462.000000	61.432445
1461.000000	62.120026
1460.000000	62.412988
1459.000000	62.251620
1458.000000	61.525701
1457.000000	60.323418
1456.000000	59.131311
1455.000000	58.341965
1454.000000	57.914187
1453.000000	57.684354
1452.000000	57.564329
1451.000000	57.528337
1450.000000	57.583416
1449.000000	57.759224
1448.000000	58.074716
1447.000000	58.492960
1446.000000	58.954422
1445.000000	59.445705
1444.000000	60.002024
1443.000000	60.661603
1442.000000	61.452114
1441.000000	62.393764
1440.000000	63.496262
1439.000000	64.773409
1438.000000	66.259444
1437.000000	67.916855
1436.000000	69.504518
1435.000000	70.760771
1434.000000	71.679812
1433.000000	72.408444
1432.000000	73.036225
1431.000000	73.575266
1430.000000	74.031882
1429.000000	74.435080
1428.000000	74.799438
1427.000000	75.125765
1426.000000	75.427695
1425.000000	75.715913
1424.000000	75.978335
1423.000000	76.198548
1422.000000	76.388788
1421.000000	76.573820
1420.000000	76.759131
1419.000000	76.932175
1418.000000	77.092635
1417.000000	77.263124
1416.000000	77.450343
1415.000000	77.640082
1414.000000	77.823520
1413.000000	77.999504
1412.000000	78.161406
1411.000000	78.301635
1410.000000	78.428941
1409.000000	78.564284
1408.000000	78.714747
1407.000000	78.873673
1406.000000	79.038568
1405.000000	79.201965
1404.000000	79.338443
1403.000000	79.417154
1402.000000	79.413554
1401.000000	79.289514
1400.000000	78.991412
1399.000000	78.528933
1398.000000	78.038002
1397.000000	77.700319
1396.000000	77.622014
1395.000000	77.790188
1394.000000	78.083564
1393.000000	78.363828
1392.000000	78.586001
1391.000000	78.800242
1390.000000	79.082667
1389.000000	79.476997
1388.000000	79.968512
1387.000000	80.490696
1386.000000	80.968731
1385.000000	81.359577
1384.000000	81.651516
1383.000000	81.850292
1382.000000	81.978444
1381.000000	82.063562
1380.000000	82.114786
1379.000000	82.120848
1378.000000	82.061870
1377.000000	81.891955
1376.000000	81.482460
1375.000000	80.583173
1374.000000	78.861984
1373.000000	76.059321
1372.000000	72.170950
1371.000000	67.568382
1370.000000	63.048150
1369.000000	59.681646
1368.000000	58.306837
1367.000000	58.956311
1366.000000	60.871050
1365.000000	63.035001
1364.000000	64.592442
1363.000000	65.027189
1362.000000	64.337859
1361.000000	63.114386
1360.000000	62.256714
1359.000000	62.504604
1358.000000	64.094422
1357.000000	66.679650
1356.000000	69.587798
1355.000000	72.225441
1354.000000	74.319291
1353.000000	75.883582
1352.000000	77.044826
1351.000000	77.925165
1350.000000	78.620414
1349.000000	79.195109
1348.000000	79.683994
1347.000000	80.111511
1346.000000	80.501093
1345.000000	80.859387
1344.000000	81.173485
1343.000000	81.432390
1342.000000	81.644071
1341.000000	81.821736
1340.000000	81.969003
1339.000000	82.094888
1338.000000	82.224493
1337.000000	82.378454
1336.000000	82.550415
1335.000000	82.710432
1334.000000	82.814822
1333.000000	82.793470
1332.000000	82.543349
1331.000000	81.956741
1330.000000	80.967261
1329.000000	79.575140
1328.000000	77.812270
1327.000000	75.689203
1326.000000	73.202426
1325.000000	70.448850
1324.000000	67.774211
1323.000000	65.720747
1322.000000	64.699842
1321.000000	64.695054
1320.000000	65.318008
1319.000000	66.135768
1318.000000	66.934960
1317.000000	67.707487
1316.000000	68.489436
1315.000000	69.288099
1314.000000	70.113510
1313.000000	71.013525
1312.000000	72.047973
1311.000000	73.230182
1310.000000	74.491452
1309.000000	75.695256
1308.000000	76.692655
1307.000000	77.387433
1306.000000	77.763280
1305.000000	77.841254
1304.000000	77.631306
1303.000000	77.121194
1302.000000	76.292724
1301.000000	75.159056
1300.000000	73.814825
1299.000000	72.468132
1298.000000	71.380263
1297.000000	70.725231
1296.000000	70.490429
1295.000000	70.494218
1294.000000	70.482061
1293.000000	70.217705
1292.000000	69.537625
1291.000000	68.369665
1290.000000	66.706225
1289.000000	64.582747
1288.000000	62.133520
1287.000000	59.681214
1286.000000	57.696014
1285.000000	56.583577
1284.000000	56.481207
1283.000000	57.243984
1282.000000	58.618519
1281.000000	60.403572
1280.000000	62.450684
1279.000000	64.551713
1278.000000	66.399028
1277.000000	67.703788
1276.000000	68.341097
1275.000000	68.385596
1274.000000	68.049137
1273.000000	67.609963
1272.000000	67.364964
1271.000000	67.569253
1270.000000	68.344535
1269.000000	69.623530
1268.000000	71.196281
1267.000000	72.827492
1266.000000	74.351024
1265.000000	75.691765
1264.000000	76.835301
1263.000000	77.791868
1262.000000	78.577424
1261.000000	79.207439
1260.000000	79.697404
1259.000000	80.071851
1258.000000	80.373929
1257.000000	80.649636
1256.000000	80.928815
1255.000000	81.224304
1254.000000	81.536765
1253.000000	81.854045
1252.000000	82.148898
1251.000000	82.392912
1250.000000	82.574655
1249.000000	82.700400
1248.000000	82.786082
1247.000000	82.855961
1246.000000	82.941326
1245.000000	83.066580
1244.000000	83.234264
1243.000000	83.428383
1242.000000	83.626210
1241.000000	83.800982
1240.000000	83.922954
1239.000000	83.972025
1238.000000	83.951604
1237.000000	83.882532
1236.000000	83.787950
1235.000000	83.690460
1234.000000	83.611385
1233.000000	83.559993
1232.000000	83.523683
1231.000000	83.475578
1230.000000	83.390192
1229.000000	83.244562
1228.000000	83.015959
1227.000000	82.688467
1226.000000	82.256818
1225.000000	81.718827
1224.000000	81.057436
1223.000000	80.241641
1222.000000	79.233502
1221.000000	77.985175
1220.000000	76.454333
1219.000000	74.626813
1218.000000	72.534801
1217.000000	70.253821
1216.000000	67.893033
1215.000000	65.594349
1214.000000	63.523199
1213.000000	61.842976
1212.000000	60.684571
1211.000000	60.116966
1210.000000	60.102706
1209.000000	60.498818
1208.000000	61.105064
1207.000000	61.716995
1206.000000	62.167395
1205.000000	62.339077
1204.000000	62.167443
1203.000000	61.641953
1202.000000	60.811611
1201.000000	59.795624
1200.000000	58.787582
1199.000000	58.024759
1198.000000	57.712987
1197.000000	57.949789
1196.000000	58.711780
1195.000000	59.887601
1194.000000	61.332171
1193.000000	62.917020
1192.000000	64.547095
1191.000000	66.163606
1190.000000	67.729981
1189.000000	69.222083
1188.000000	70.625287
1187.000000	71.931821
1186.000000	73.137079
1185.000000	74.238013
1184.000000	75.232178
1183.000000	76.114790
1182.000000	76.883639
1181.000000	77.535014
1180.000000	78.064451
1179.000000	78.477354
1178.000000	78.791870
1177.000000	79.034422
1176.000000	79.223748
1175.000000	79.366055
1174.000000	79.457802
1173.000000	79.474421
1172.000000	79.368287
1171.000000	79.072769
1170.000000	78.515142
1169.000000	77.631775
1168.000000	76.379360
1167.000000	74.772105
1166.000000	72.913645
1165.000000	70.999471
1164.000000	69.285162
1163.000000	68.027476
1162.000000	67.401328
1161.000000	67.444329
1160.000000	68.062014
1159.000000	69.067820
1158.000000	70.253637
1157.000000	71.439866
1156.000000	72.503581
1155.000000	73.386211
1154.000000	74.079372
1153.000000	74.602001
1152.000000	74.976114
1151.000000	75.212577
1150.000000	75.301785
1149.000000	75.219170
1148.000000	74.920479
1147.000000	74.352015
1146.000000	73.462518
1145.000000	72.191606
1144.000000	70.478134
1143.000000	68.264616
1142.000000	65.527446
1141.000000	62.323915
1140.000000	58.820504
1139.000000	55.282571
1138.000000	51.975456
1137.000000	49.042568
1136.000000	46.456955
1135.000000	44.089769
1134.000000	41.839452
1133.000000	39.781747
1132.000000	38.234025
1131.000000	37.639727
1130.000000	38.367323
1129.000000	40.497490
1128.000000	43.767382
1127.000000	47.651194
1126.000000	51.505368
1125.000000	54.734734
1124.000000	56.896470
1123.000000	57.734553
1122.000000	57.181003
1121.000000	55.351574
1120.000000	52.471715
1119.000000	48.841933
1118.000000	44.869246
1117.000000	41.128835
1116.000000	38.335932
1115.000000	37.132336
1114.000000	37.786631
1113.000000	40.055003
1112.000000	43.293705
1111.000000	46.665406
1110.000000	49.417709
1109.000000	51.162019
1108.000000	52.023899
1107.000000	52.525295
1106.000000	53.226356
1105.000000	54.391261
1104.000000	55.896853
1103.000000	57.356225
1102.000000	58.277521
1101.000000	58.238337
1100.000000	57.070059
1099.000000	55.032446
1098.000000	52.833000
1097.000000	51.380305
1096.000000	51.364595
1095.000000	52.930341
1094.000000	55.653475
1093.000000	58.832085
1092.000000	61.871099
1091.000000	64.464673
1090.000000	66.560660
1089.000000	68.229747
1088.000000	69.564687
1087.000000	70.645992
1086.000000	71.542385
1085.000000	72.307841
1084.000000	72.977170
1083.000000	73.581280
1082.000000	74.145280
1081.000000	74.681365
1080.000000	75.182341
1079.000000	75.622842
1078.000000	75.972818
1077.000000	76.193502
1076.000000	76.239458
1075.000000	76.070515
1074.000000	75.646183
1073.000000	74.920594
1072.000000	73.804734
1071.000000	72.151991
1070.000000	69.759759
1069.000000	66.357632
1068.000000	61.704548
1067.000000	55.756664
1066.000000	48.872561
1065.000000	41.887215
1064.000000	35.906764
1063.000000	31.824495
1062.000000	29.807309
1061.000000	29.151774
1060.000000	28.694904
1059.000000	27.562956
1058.000000	25.688722
1057.000000	23.832534
1056.000000	23.087593
1055.000000	24.176783
1054.000000	27.094817
1053.000000	31.226128
1052.000000	35.778433
1051.000000	40.150036
1050.000000	44.028369
1049.000000	47.349326
1048.000000	50.193657
1047.000000	52.685461
1046.000000	54.911214
1045.000000	56.906769
1044.000000	58.675903
1043.000000	60.222772
1042.000000	61.560510
1041.000000	62.699806
1040.000000	63.659801
1039.000000	64.466016
1038.000000	65.146233
1037.000000	65.724578
1036.000000	66.217852
1035.000000	66.644514
1034.000000	67.018975
1033.000000	67.346404
1032.000000	67.627206
1031.000000	67.862118
1030.000000	68.055313
1029.000000	68.209088
1028.000000	68.324273
1027.000000	68.405275
1026.000000	68.455218
1025.000000	68.470516
1024.000000	68.439622
1023.000000	68.348065
1022.000000	68.182470
1021.000000	67.921801
1020.000000	67.538736
1019.000000	67.000720
1018.000000	66.265929
1017.000000	65.285883
1016.000000	64.008575
1015.000000	62.410315
1014.000000	60.531019
1013.000000	58.501430
1012.000000	56.542895
1011.000000	54.902504
1010.000000	53.728309
1009.000000	52.963996
1008.000000	52.376856
1007.000000	51.730087
1006.000000	51.011489
1005.000000	50.515890
1004.000000	50.687931
1003.000000	51.818085
1002.000000	53.813285
1001.000000	56.254128
1000.000000	58.633405
999.000000	60.570033
998.000000	61.880139
997.000000	62.540038
996.000000	62.639533
995.000000	62.361780
994.000000	61.968953
993.000000	61.753836
992.000000	61.961008
991.000000	62.695198
990.000000	63.877016
989.000000	65.297849
988.000000	66.743933
987.000000	68.080985
986.000000	69.262767
985.000000	70.291322
984.000000	71.180468
983.000000	71.941134
982.000000	72.580320
981.000000	73.102849
980.000000	73.519763
979.000000	73.860567
978.000000	74.164504
977.000000	74.465974
976.000000	74.785355
975.000000	75.128724
974.000000	75.489114
973.000000	75.843454
972.000000	76.160717
971.000000	76.418427
970.000000	76.612424
969.000000	76.754926
968.000000	76.869032
967.000000	76.986008
966.000000	77.136357
965.000000	77.334652
964.000000	77.574203
963.000000	77.834280
962.000000	78.088763
961.000000	78.310108
960.000000	78.476407
959.000000	78.584138
958.000000	78.652230
957.000000	78.711147
956.000000	78.789355
955.000000	78.907707
954.000000	79.075898
953.000000	79.285718
952.000000	79.511258
951.000000	79.721939
950.000000	79.896181
949.000000	80.025107
948.000000	80.112546
947.000000	80.176819
946.000000	80.245801
945.000000	80.341803
944.000000	80.471412
943.000000	80.628612
942.000000	80.801151
941.000000	80.971389
940.000000	81.119226
939.000000	81.233353
938.000000	81.318494
937.000000	81.388523
936.000000	81.456818
935.000000	81.535195
934.000000	81.633227
933.000000	81.750273
932.000000	81.872402
931.000000	81.984316
930.000000	82.081034
929.000000	82.165328
928.000000	82.240704
927.000000	82.313455
926.000000	82.394879
925.000000	82.491876
924.000000	82.597757
923.000000	82.698285
922.000000	82.783612
921.000000	82.849886
920.000000	82.896007
919.000000	82.928285
918.000000	82.964360
917.000000	83.022810
916.000000	83.109570
915.000000	83.217925
914.000000	83.335529
913.000000	83.444858
912.000000	83.521543
911.000000	83.545496
910.000000	83.511025
909.000000	83.417557
908.000000	83.253647
907.000000	82.989949
906.000000	82.586881
905.000000	81.994668
904.000000	81.165281
903.000000	80.105844
902.000000	78.943870
901.000000	77.930786
900.000000	77.347143
899.000000	77.358265
898.000000	77.922986
897.000000	78.839652
896.000000	79.869817
895.000000	80.844217
894.000000	81.690505
893.000000	82.389859
892.000000	82.938089
891.000000	83.336397
890.000000	83.599694
889.000000	83.752873
888.000000	83.826092
887.000000	83.845668
886.000000	83.818990
885.000000	83.716526
884.000000	83.481006
883.000000	83.086075
882.000000	82.577692
881.000000	82.042198
880.000000	81.522248
879.000000	80.980138
878.000000	80.366883
877.000000	79.731575
876.000000	79.257054
875.000000	79.160820
874.000000	79.545590
873.000000	80.321849
872.000000	81.267685
871.000000	82.160188
870.000000	82.868869
869.000000	83.365370
868.000000	83.681336
867.000000	83.875220
866.000000	84.012437
865.000000	84.147705
864.000000	84.309371
863.000000	84.501891
862.000000	84.714197
861.000000	84.922210
860.000000	85.094634
859.000000	85.207744
858.000000	85.259258
857.000000	85.264861
856.000000	85.246612
855.000000	85.230374
854.000000	85.244117
853.000000	85.305619
852.000000	85.410161
851.000000	85.535606
850.000000	85.657727
849.000000	85.757078
848.000000	85.819621
847.000000	85.842611
846.000000	85.839459
845.000000	85.831721
844.000000	85.836779
843.000000	85.865264
842.000000	85.922851
841.000000	86.005745
840.000000	86.098091
839.000000	86.181747
838.000000	86.248006
837.000000	86.296086
836.000000	86.326300
835.000000	86.342606
834.000000	86.356816
833.000000	86.380877
832.000000	86.416823
831.000000	86.460433
830.000000	86.510729
829.000000	86.568679
828.000000	86.631247
827.000000	86.695540
826.000000	86.765748
825.000000	86.846670
824.000000	86.933183
823.000000	87.013773
822.000000	87.081035
821.000000	87.130777
820.000000	87.157421
819.000000	87.160755
818.000000	87.153280
817.000000	87.151561
816.000000	87.162299
815.000000	87.182724
814.000000	87.207376
813.000000	87.223076
812.000000	87.202847
811.000000	87.115186
810.000000	86.941008
809.000000	86.676602
808.000000	86.322831
807.000000	85.883831
806.000000	85.365796
805.000000	84.763674
804.000000	84.048027
803.000000	83.163434
802.000000	82.045262
801.000000	80.627859
800.000000	78.856322
799.000000	76.713931
798.000000	74.235996
797.000000	71.506810
796.000000	68.639192
795.000000	65.761838
794.000000	63.007666
793.000000	60.502520
792.000000	58.359152
791.000000	56.672979
790.000000	55.514377
789.000000	54.908866
788.000000	54.834950
787.000000	55.222274
786.000000	55.966440
785.000000	56.954988
784.000000	58.081075
783.000000	59.251512
782.000000	60.378797
781.000000	61.378003
780.000000	62.168784
779.000000	62.691160
778.000000	62.924059
777.000000	62.889117
776.000000	62.634029
775.000000	62.212641
774.000000	61.687619
773.000000	61.147093
772.000000	60.718684
771.000000	60.552465
770.000000	60.777351
769.000000	61.448400
768.000000	62.522967
767.000000	63.880114
766.000000	65.373428
765.000000	66.885898
764.000000	68.350954
763.000000	69.749227
762.000000	71.090207
761.000000	72.389387
760.000000	73.647946
759.000000	74.849646
758.000000	75.972557
757.000000	76.996561
756.000000	77.904528
755.000000	78.687677
754.000000	79.356810
753.000000	79.938824
752.000000	80.460896
751.000000	80.943560
750.000000	81.403514
749.000000	81.852135
748.000000	82.286700
747.000000	82.692831
746.000000	83.059159
745.000000	83.382565
744.000000	83.660702
743.000000	83.889339
742.000000	84.069012
741.000000	84.206377
740.000000	84.307383
739.000000	84.377564
738.000000	84.428044
737.000000	84.471209
736.000000	84.508721
735.000000	84.530930
734.000000	84.528520
733.000000	84.496047
732.000000	84.425751
731.000000	84.309664
730.000000	84.149424
729.000000	83.955183
728.000000	83.736500
727.000000	83.500003
726.000000	83.252034
725.000000	82.995952
724.000000	82.720075
723.000000	82.384224
722.000000	81.908800
721.000000	81.179957
720.000000	80.091100
719.000000	78.613246
718.000000	76.836330
717.000000	74.948027
716.000000	73.179675
715.000000	71.754142
714.000000	70.845082
713.000000	70.537713
712.000000	70.803662
711.000000	71.516791
710.000000	72.511574
709.000000	73.636102
708.000000	74.770310
707.000000	75.833348
706.000000	76.795726
705.000000	77.678306
704.000000	78.523199
703.000000	79.365993
702.000000	80.230765
701.000000	81.125567
700.000000	82.025898
699.000000	82.876123
698.000000	83.616830
697.000000	84.209640
696.000000	84.641120
695.000000	84.924411
694.000000	85.109891
693.000000	85.274156
692.000000	85.482433
691.000000	85.764280
690.000000	86.119442
689.000000	86.526545
688.000000	86.935769
687.000000	87.277881
686.000000	87.503274
685.000000	87.603574
684.000000	87.597358
683.000000	87.519043
682.000000	87.426624
681.000000	87.391145
680.000000	87.453868
679.000000	87.608311
678.000000	87.822027
677.000000	88.049359
676.000000	88.245240
675.000000	88.354429
674.000000	88.362636
673.000000	88.363593
672.000000	88.538466
671.000000	89.020842
670.000000	89.768896
669.000000	90.424098
668.000000	90.367318
667.000000	89.629809
666.000000	88.963875
665.000000	88.630541
664.000000	88.510785
663.000000	88.464417
662.000000	88.406878
661.000000	88.307776
660.000000	88.177936
659.000000	88.064085
658.000000	88.019758
657.000000	88.056433
656.000000	88.159491
655.000000	88.302812
654.000000	88.446275
653.000000	88.540121
652.000000	88.551979
651.000000	88.482430
650.000000	88.346881
649.000000	88.157631
648.000000	87.939454
647.000000	87.743388
646.000000	87.617244
645.000000	87.570970
644.000000	87.581260
643.000000	87.615034
642.000000	87.637315
641.000000	87.609470
640.000000	87.503858
639.000000	87.321541
638.000000	87.084872
637.000000	86.819927
636.000000	86.557526
635.000000	86.336413
634.000000	86.184492
633.000000	86.099007
632.000000	86.054912
631.000000	86.023620
630.000000	85.972477
629.000000	85.860693
628.000000	85.657687
627.000000	85.363629
626.000000	85.002558
625.000000	84.607104
624.000000	84.215548
623.000000	83.872123
622.000000	83.610734
621.000000	83.435586
620.000000	83.319075
619.000000	83.201735
618.000000	82.993300
617.000000	82.606212
616.000000	82.018035
615.000000	81.287686
614.000000	80.497126
613.000000	79.695734
612.000000	78.908155
611.000000	78.160009
610.000000	77.454603
609.000000	76.739814
608.000000	75.933985
607.000000	74.972624
606.000000	73.812780
605.000000	72.426313
604.000000	70.826471
603.000000	69.086510
602.000000	67.287989
601.000000	65.468282
600.000000	63.644498
599.000000	61.848619
598.000000	60.089755
597.000000	58.321177
596.000000	56.504945
595.000000	54.672488
594.000000	52.876635
593.000000	51.128053
592.000000	49.446843
591.000000	47.915245
590.000000	46.601730
589.000000	45.481093
588.000000	44.487088
587.000000	43.582237
586.000000	42.708711
585.000000	41.748491
584.000000	40.618750
583.000000	39.358970
582.000000	38.068961
581.000000	36.832602
580.000000	35.759557
579.000000	35.024143
578.000000	34.753721
577.000000	34.942129
576.000000	35.515358
575.000000	36.386951
574.000000	37.414986
573.000000	38.401559
572.000000	39.229283
571.000000	39.953500
570.000000	40.723997
569.000000	41.659380
568.000000	42.810394
567.000000	44.159892
566.000000	45.597052
565.000000	46.959257
564.000000	48.150992
563.000000	49.184649
562.000000	50.097805
561.000000	50.891867
560.000000	51.575200
559.000000	52.196205
558.000000	52.793620
557.000000	53.362371
556.000000	53.901068
555.000000	54.452211
554.000000	55.054972
553.000000	55.704467
552.000000	56.389478
551.000000	57.122749
550.000000	57.898198
549.000000	58.661537
548.000000	59.360484
547.000000	59.988605
546.000000	60.556951
545.000000	61.063352
544.000000	61.521604
543.000000	61.983819
542.000000	62.499163
541.000000	63.069688
540.000000	63.670750
539.000000	64.283359
538.000000	64.881140
537.000000	65.417675
536.000000	65.856123
535.000000	66.200793
534.000000	66.479193
533.000000	66.716327
532.000000	66.937004
531.000000	67.169960
530.000000	67.424772
529.000000	67.673083
528.000000	67.864818
527.000000	67.955049
526.000000	67.893703
525.000000	67.623246
524.000000	67.122155
523.000000	66.438639
522.000000	65.676755
521.000000	64.945368
520.000000	64.313754
519.000000	63.767991
518.000000	63.156765
517.000000	62.220379
516.000000	60.734974
515.000000	58.671434
514.000000	56.223295
513.000000	53.725943
512.000000	51.563870
511.000000	50.085526
510.000000	49.484651
509.000000	49.751068
508.000000	50.773214
507.000000	52.398866
506.000000	54.411817
505.000000	56.572106
504.000000	58.717158
503.000000	60.772145
502.000000	62.649189
501.000000	64.241804
500.000000	65.522552
499.000000	66.572790
498.000000	67.497807
497.000000	68.370458
496.000000	69.239790
495.000000	70.137649
494.000000	71.063112
493.000000	71.968692
492.000000	72.788152
491.000000	73.473987
490.000000	74.006624
489.000000	74.402387
488.000000	74.714076
487.000000	75.016878
486.000000	75.374614
485.000000	75.810146
484.000000	76.306829
483.000000	76.823853
482.000000	77.308752
481.000000	77.710463
480.000000	77.999073
479.000000	78.176148
478.000000	78.255357
477.000000	78.250835
476.000000	78.181199
475.000000	78.049460
474.000000	77.805360
473.000000	77.337897
472.000000	76.554791
471.000000	75.495392
470.000000	74.321385
469.000000	73.231932
468.000000	72.415042
467.000000	71.968957
466.000000	71.771712
465.000000	71.497581
464.000000	70.834424
463.000000	69.710338
462.000000	68.387784
461.000000	67.334905
460.000000	67.015139
459.000000	67.723977
458.000000	69.404200
457.000000	71.553184
456.000000	73.567203
455.000000	75.188310
454.000000	76.445356
453.000000	77.397384
452.000000	78.065991
451.000000	78.502571
450.000000	78.759163
449.000000	78.815854
448.000000	78.591591
447.000000	78.019215
446.000000	77.111204
445.000000	75.973558
444.000000	74.818151
443.000000	73.941939
442.000000	73.587902
441.000000	73.787175
440.000000	74.405557
439.000000	75.275375
438.000000	76.236697
437.000000	77.141916
436.000000	77.883022
435.000000	78.416823
434.000000	78.738600
433.000000	78.850832
432.000000	78.776369
431.000000	78.591765
430.000000	78.402201
429.000000	78.270017
428.000000	78.202669
427.000000	78.187333
426.000000	78.190670
425.000000	78.140543
424.000000	77.971350
423.000000	77.700469
422.000000	77.399914
421.000000	77.101578
420.000000	76.807653
419.000000	76.593981
418.000000	76.561392
417.000000	76.656548
416.000000	76.760536
415.000000	76.837069
414.000000	76.890447
413.000000	76.901489
412.000000	76.857672
411.000000	76.798093
410.000000	76.781740
409.000000	76.813190
408.000000	76.870358
407.000000	76.977167
406.000000	77.169543
405.000000	77.418982
404.000000	77.665015
403.000000	77.890773
402.000000	78.109541
401.000000	78.311700
400.000000	78.470938
