PE IR       SUBTECH     SPECTRUM    ASCII       PEDS        4.00        
   -1
23ms041-cis.asc
24/10/21
15:59:23.00
24/10/21
15:59:23.00
Administrator
Sample 1320 By Administrator Date Monday, October 21 2024
400.000000
#HDR
-1
-1
#GR
cm-1
%T
1.0
0.0
4000.000000
-1.000000
3601
8
80.612484
2.389573
#DATA
4000.000000	43.384429
3999.000000	43.369092
3998.000000	43.356372
3997.000000	43.345802
3996.000000	43.337638
3995.000000	43.332614
3994.000000	43.331124
3993.000000	43.332610
3992.000000	43.335755
3991.000000	43.339591
3990.000000	43.344400
3989.000000	43.351405
3988.000000	43.361856
3987.000000	43.376477
3986.000000	43.395684
3985.000000	43.419786
3984.000000	43.448649
3983.000000	43.481531
3982.000000	43.517398
3981.000000	43.555551
3980.000000	43.595797
3979.000000	43.638058
3978.000000	43.682089
3977.000000	43.727371
3976.000000	43.773272
3975.000000	43.819258
3974.000000	43.864973
3973.000000	43.910109
3972.000000	43.953980
3971.000000	43.995650
3970.000000	44.034658
3969.000000	44.071811
3968.000000	44.109234
3967.000000	44.149256
3966.000000	44.193264
3965.000000	44.241381
3964.000000	44.292951
3963.000000	44.347286
3962.000000	44.404155
3961.000000	44.463592
3960.000000	44.525152
3959.000000	44.587599
3958.000000	44.649289
3957.000000	44.709216
3956.000000	44.767726
3955.000000	44.826127
3954.000000	44.885756
3953.000000	44.946847
3952.000000	45.008053
3951.000000	45.066922
3950.000000	45.120959
3949.000000	45.169235
3948.000000	45.213680
3947.000000	45.258111
3946.000000	45.305019
3945.000000	45.352867
3944.000000	45.397298
3943.000000	45.436099
3942.000000	45.472624
3941.000000	45.512716
3940.000000	45.558399
3939.000000	45.607018
3938.000000	45.655644
3937.000000	45.704751
3936.000000	45.756473
3935.000000	45.809914
3934.000000	45.860512
3933.000000	45.903819
3932.000000	45.939410
3931.000000	45.970475
3930.000000	46.000058
3929.000000	46.029649
3928.000000	46.059179
3927.000000	46.086929
3926.000000	46.110243
3925.000000	46.128203
3924.000000	46.144086
3923.000000	46.162737
3922.000000	46.185357
3921.000000	46.208917
3920.000000	46.229990
3919.000000	46.247354
3918.000000	46.261248
3917.000000	46.272662
3916.000000	46.284134
3915.000000	46.299102
3914.000000	46.318784
3913.000000	46.341224
3912.000000	46.363847
3911.000000	46.387150
3910.000000	46.414263
3909.000000	46.447744
3908.000000	46.487584
3907.000000	46.530545
3906.000000	46.571100
3905.000000	46.604277
3904.000000	46.630639
3903.000000	46.657417
3902.000000	46.690740
3901.000000	46.728192
3900.000000	46.762725
3899.000000	46.792947
3898.000000	46.825109
3897.000000	46.865771
3896.000000	46.915624
3895.000000	46.972161
3894.000000	47.032450
3893.000000	47.092216
3892.000000	47.145652
3891.000000	47.192828
3890.000000	47.242873
3889.000000	47.303274
3888.000000	47.368708
3887.000000	47.423840
3886.000000	47.460687
3885.000000	47.491362
3884.000000	47.533479
3883.000000	47.587290
3882.000000	47.634204
3881.000000	47.657505
3880.000000	47.661732
3879.000000	47.667408
3878.000000	47.687383
3877.000000	47.715212
3876.000000	47.735126
3875.000000	47.740642
3874.000000	47.743471
3873.000000	47.761334
3872.000000	47.796004
3871.000000	47.830098
3870.000000	47.850757
3869.000000	47.869703
3868.000000	47.906075
3867.000000	47.958422
3866.000000	48.006880
3865.000000	48.038193
3864.000000	48.059339
3863.000000	48.084778
3862.000000	48.117063
3861.000000	48.148778
3860.000000	48.176725
3859.000000	48.206760
3858.000000	48.247490
3857.000000	48.302455
3856.000000	48.365745
3855.000000	48.421328
3854.000000	48.453345
3853.000000	48.469239
3852.000000	48.491830
3851.000000	48.526022
3850.000000	48.559161
3849.000000	48.582960
3848.000000	48.602343
3847.000000	48.627906
3846.000000	48.664116
3845.000000	48.706473
3844.000000	48.748139
3843.000000	48.788322
3842.000000	48.831110
3841.000000	48.878038
3840.000000	48.924233
3839.000000	48.963536
3838.000000	48.996577
3837.000000	49.029839
3836.000000	49.067524
3835.000000	49.107402
3834.000000	49.143833
3833.000000	49.173417
3832.000000	49.198698
3831.000000	49.226805
3830.000000	49.263157
3829.000000	49.305963
3828.000000	49.346826
3827.000000	49.379819
3826.000000	49.409881
3825.000000	49.449234
3824.000000	49.503085
3823.000000	49.561012
3822.000000	49.605539
3821.000000	49.635402
3820.000000	49.671080
3819.000000	49.725902
3818.000000	49.786501
3817.000000	49.827421
3816.000000	49.842702
3815.000000	49.853953
3814.000000	49.879860
3813.000000	49.914216
3812.000000	49.942048
3811.000000	49.962788
3810.000000	49.990136
3809.000000	50.032826
3808.000000	50.082563
3807.000000	50.127743
3806.000000	50.172442
3805.000000	50.228715
3804.000000	50.294194
3803.000000	50.348963
3802.000000	50.377450
3801.000000	50.392068
3800.000000	50.418730
3799.000000	50.462055
3798.000000	50.503382
3797.000000	50.527289
3796.000000	50.539922
3795.000000	50.559340
3794.000000	50.592943
3793.000000	50.632533
3792.000000	50.668172
3791.000000	50.699357
3790.000000	50.731936
3789.000000	50.769309
3788.000000	50.809758
3787.000000	50.849553
3786.000000	50.885656
3785.000000	50.917092
3784.000000	50.946098
3783.000000	50.976739
3782.000000	51.010175
3781.000000	51.042617
3780.000000	51.069770
3779.000000	51.093659
3778.000000	51.121221
3777.000000	51.154976
3776.000000	51.189899
3775.000000	51.221495
3774.000000	51.253206
3773.000000	51.292409
3772.000000	51.340093
3771.000000	51.389499
3770.000000	51.436340
3769.000000	51.485492
3768.000000	51.542064
3767.000000	51.600840
3766.000000	51.651677
3765.000000	51.693569
3764.000000	51.736808
3763.000000	51.789752
3762.000000	51.848578
3761.000000	51.904056
3760.000000	51.953714
3759.000000	52.002670
3758.000000	52.054848
3757.000000	52.109059
3756.000000	52.164109
3755.000000	52.220778
3754.000000	52.278869
3753.000000	52.337615
3752.000000	52.398239
3751.000000	52.461517
3750.000000	52.524165
3749.000000	52.584170
3748.000000	52.647371
3747.000000	52.718191
3746.000000	52.787614
3745.000000	52.839668
3744.000000	52.879519
3743.000000	52.931494
3742.000000	52.999483
3741.000000	53.063457
3740.000000	53.110574
3739.000000	53.150733
3738.000000	53.202201
3737.000000	53.267457
3736.000000	53.333178
3735.000000	53.391201
3734.000000	53.444064
3733.000000	53.492112
3732.000000	53.531488
3731.000000	53.565232
3730.000000	53.602070
3729.000000	53.643660
3728.000000	53.682704
3727.000000	53.713839
3726.000000	53.742332
3725.000000	53.776256
3724.000000	53.814691
3723.000000	53.850443
3722.000000	53.880268
3721.000000	53.908094
3720.000000	53.938168
3719.000000	53.970491
3718.000000	54.004151
3717.000000	54.041458
3716.000000	54.087318
3715.000000	54.144167
3714.000000	54.210000
3713.000000	54.281243
3712.000000	54.356806
3711.000000	54.437414
3710.000000	54.520240
3709.000000	54.597580
3708.000000	54.663096
3707.000000	54.718217
3706.000000	54.769854
3705.000000	54.824169
3704.000000	54.882379
3703.000000	54.942082
3702.000000	55.000540
3701.000000	55.057355
3700.000000	55.114041
3699.000000	55.170450
3698.000000	55.223222
3697.000000	55.269547
3696.000000	55.312196
3695.000000	55.357297
3694.000000	55.407333
3693.000000	55.459822
3692.000000	55.513489
3691.000000	55.571165
3690.000000	55.634018
3689.000000	55.697175
3688.000000	55.755276
3687.000000	55.807907
3686.000000	55.854839
3685.000000	55.892463
3684.000000	55.919550
3683.000000	55.943146
3682.000000	55.972981
3681.000000	56.010425
3680.000000	56.050659
3679.000000	56.094245
3678.000000	56.147092
3677.000000	56.207957
3676.000000	56.264921
3675.000000	56.315066
3674.000000	56.368989
3673.000000	56.428227
3672.000000	56.477892
3671.000000	56.506004
3670.000000	56.522357
3669.000000	56.548906
3668.000000	56.591326
3667.000000	56.635225
3666.000000	56.667045
3665.000000	56.687857
3664.000000	56.707871
3663.000000	56.734545
3662.000000	56.767941
3661.000000	56.803922
3660.000000	56.840867
3659.000000	56.880241
3658.000000	56.922327
3657.000000	56.963795
3656.000000	57.002714
3655.000000	57.042973
3654.000000	57.087558
3653.000000	57.132306
3652.000000	57.170767
3651.000000	57.204936
3650.000000	57.247398
3649.000000	57.306798
3648.000000	57.374741
3647.000000	57.435175
3646.000000	57.481104
3645.000000	57.515965
3644.000000	57.545301
3643.000000	57.573543
3642.000000	57.605403
3641.000000	57.644665
3640.000000	57.690556
3639.000000	57.737922
3638.000000	57.782760
3637.000000	57.825001
3636.000000	57.864438
3635.000000	57.897634
3634.000000	57.921845
3633.000000	57.940309
3632.000000	57.958949
3631.000000	57.978867
3630.000000	57.995227
3629.000000	58.006255
3628.000000	58.017673
3627.000000	58.028193
3626.000000	58.022414
3625.000000	57.987325
3624.000000	57.926987
3623.000000	57.857870
3622.000000	57.792924
3621.000000	57.732422
3620.000000	57.669705
3619.000000	57.602193
3618.000000	57.532158
3617.000000	57.458304
3616.000000	57.373770
3615.000000	57.273370
3614.000000	57.160099
3613.000000	57.044291
3612.000000	56.935604
3611.000000	56.834288
3610.000000	56.731825
3609.000000	56.621045
3608.000000	56.502993
3607.000000	56.382902
3606.000000	56.261345
3605.000000	56.133756
3604.000000	55.998583
3603.000000	55.861759
3602.000000	55.732906
3601.000000	55.618762
3600.000000	55.520746
3599.000000	55.434577
3598.000000	55.352870
3597.000000	55.268310
3596.000000	55.176997
3595.000000	55.078450
3594.000000	54.973557
3593.000000	54.863449
3592.000000	54.750788
3591.000000	54.641470
3590.000000	54.545216
3589.000000	54.473838
3588.000000	54.435370
3587.000000	54.426859
3586.000000	54.432342
3585.000000	54.430827
3584.000000	54.408029
3583.000000	54.362146
3582.000000	54.300563
3581.000000	54.232283
3580.000000	54.162947
3579.000000	54.093900
3578.000000	54.023833
3577.000000	53.950880
3576.000000	53.874060
3575.000000	53.793338
3574.000000	53.708589
3573.000000	53.619047
3572.000000	53.524126
3571.000000	53.423420
3570.000000	53.315838
3569.000000	53.200401
3568.000000	53.078743
3567.000000	52.955624
3566.000000	52.833809
3565.000000	52.709198
3564.000000	52.573773
3563.000000	52.423133
3562.000000	52.258965
3561.000000	52.086260
3560.000000	51.909392
3559.000000	51.730172
3558.000000	51.547912
3557.000000	51.360780
3556.000000	51.167036
3555.000000	50.965072
3554.000000	50.753615
3553.000000	50.533259
3552.000000	50.307586
3551.000000	50.079963
3550.000000	49.848733
3549.000000	49.607955
3548.000000	49.353072
3547.000000	49.084868
3546.000000	48.807278
3545.000000	48.523035
3544.000000	48.231898
3543.000000	47.931902
3542.000000	47.620923
3541.000000	47.297602
3540.000000	46.961497
3539.000000	46.611691
3538.000000	46.246283
3537.000000	45.864283
3536.000000	45.467503
3535.000000	45.058462
3534.000000	44.636904
3533.000000	44.200041
3532.000000	43.745742
3531.000000	43.273432
3530.000000	42.782396
3529.000000	42.272072
3528.000000	41.743617
3527.000000	41.198663
3526.000000	40.635891
3525.000000	40.051999
3524.000000	39.446914
3523.000000	38.825368
3522.000000	38.192466
3521.000000	37.548902
3520.000000	36.891494
3519.000000	36.216849
3518.000000	35.524184
3517.000000	34.815821
3516.000000	34.095435
3515.000000	33.365714
3514.000000	32.627930
3513.000000	31.882434
3512.000000	31.128136
3511.000000	30.362744
3510.000000	29.586640
3509.000000	28.806807
3508.000000	28.032145
3507.000000	27.263315
3506.000000	26.491257
3505.000000	25.707885
3504.000000	24.916075
3503.000000	24.127506
3502.000000	23.352982
3501.000000	22.596506
3500.000000	21.855607
3499.000000	21.124272
3498.000000	20.398166
3497.000000	19.679167
3496.000000	18.973824
3495.000000	18.286932
3494.000000	17.619187
3493.000000	16.971303
3492.000000	16.345271
3491.000000	15.740595
3490.000000	15.154403
3489.000000	14.586983
3488.000000	14.043927
3487.000000	13.530616
3486.000000	13.047338
3485.000000	12.590834
3484.000000	12.156009
3483.000000	11.736456
3482.000000	11.328476
3481.000000	10.935820
3480.000000	10.566486
3479.000000	10.222814
3478.000000	9.898819
3477.000000	9.587229
3476.000000	9.284327
3475.000000	8.988234
3474.000000	8.697182
3473.000000	8.411474
3472.000000	8.133868
3471.000000	7.867426
3470.000000	7.617166
3469.000000	7.392660
3468.000000	7.204138
3467.000000	7.055052
3466.000000	6.941431
3465.000000	6.858307
3464.000000	6.802360
3463.000000	6.770424
3462.000000	6.761800
3461.000000	6.781307
3460.000000	6.835243
3459.000000	6.923217
3458.000000	7.037828
3457.000000	7.171796
3456.000000	7.320053
3455.000000	7.476293
3454.000000	7.632858
3453.000000	7.783856
3452.000000	7.924370
3451.000000	8.046932
3450.000000	8.142691
3449.000000	8.206375
3448.000000	8.236469
3447.000000	8.231377
3446.000000	8.190371
3445.000000	8.116243
3444.000000	8.013517
3443.000000	7.885211
3442.000000	7.734124
3441.000000	7.566875
3440.000000	7.392134
3439.000000	7.216534
3438.000000	7.046868
3437.000000	6.893953
3436.000000	6.769019
3435.000000	6.676350
3434.000000	6.612860
3433.000000	6.574032
3432.000000	6.558033
3431.000000	6.565449
3430.000000	6.600116
3429.000000	6.669370
3428.000000	6.778201
3427.000000	6.925633
3426.000000	7.108467
3425.000000	7.327141
3424.000000	7.585289
3423.000000	7.884400
3422.000000	8.225207
3421.000000	8.610221
3420.000000	9.040366
3419.000000	9.511303
3418.000000	10.015276
3417.000000	10.547209
3416.000000	11.104612
3415.000000	11.684166
3414.000000	12.283110
3413.000000	12.900258
3412.000000	13.532906
3411.000000	14.174216
3410.000000	14.817236
3409.000000	15.459919
3408.000000	16.101849
3407.000000	16.738247
3406.000000	17.361306
3405.000000	17.965729
3404.000000	18.550067
3403.000000	19.115396
3402.000000	19.666393
3401.000000	20.211497
3400.000000	20.756895
3399.000000	21.300011
3398.000000	21.832229
3397.000000	22.346889
3396.000000	22.841922
3395.000000	23.317743
3394.000000	23.776962
3393.000000	24.225984
3392.000000	24.672436
3391.000000	25.119455
3390.000000	25.565030
3389.000000	26.005791
3388.000000	26.439680
3387.000000	26.866013
3386.000000	27.285577
3385.000000	27.700669
3384.000000	28.112845
3383.000000	28.521524
3382.000000	28.926247
3381.000000	29.328875
3380.000000	29.731764
3379.000000	30.135181
3378.000000	30.538615
3377.000000	30.943118
3376.000000	31.349695
3375.000000	31.756319
3374.000000	32.158839
3373.000000	32.554555
3372.000000	32.943652
3371.000000	33.328346
3370.000000	33.712474
3369.000000	34.100452
3368.000000	34.494282
3367.000000	34.891830
3366.000000	35.289165
3365.000000	35.683601
3364.000000	36.073604
3363.000000	36.457783
3362.000000	36.836131
3361.000000	37.210997
3360.000000	37.584897
3359.000000	37.957998
3358.000000	38.329089
3357.000000	38.697857
3356.000000	39.064190
3355.000000	39.426514
3354.000000	39.782763
3353.000000	40.132668
3352.000000	40.477874
3351.000000	40.820071
3350.000000	41.160058
3349.000000	41.497759
3348.000000	41.831896
3347.000000	42.160486
3346.000000	42.482557
3345.000000	42.799024
3344.000000	43.111014
3343.000000	43.417926
3342.000000	43.718207
3341.000000	44.010960
3340.000000	44.296138
3339.000000	44.573988
3338.000000	44.844846
3337.000000	45.109008
3336.000000	45.365427
3335.000000	45.611363
3334.000000	45.844169
3333.000000	46.062129
3332.000000	46.263699
3331.000000	46.446274
3330.000000	46.606745
3329.000000	46.742967
3328.000000	46.852927
3327.000000	46.934563
3326.000000	46.986019
3325.000000	47.005167
3324.000000	46.988744
3323.000000	46.930994
3322.000000	46.825915
3321.000000	46.669211
3320.000000	46.456501
3319.000000	46.183252
3318.000000	45.843673
3317.000000	45.432456
3316.000000	44.943695
3315.000000	44.368640
3314.000000	43.698664
3313.000000	42.925723
3312.000000	42.041818
3311.000000	41.039454
3310.000000	39.912179
3309.000000	38.661315
3308.000000	37.293298
3307.000000	35.815463
3306.000000	34.236507
3305.000000	32.564953
3304.000000	30.810974
3303.000000	28.982696
3302.000000	27.088911
3301.000000	25.145029
3300.000000	23.172696
3299.000000	21.198810
3298.000000	19.257116
3297.000000	17.389043
3296.000000	15.635604
3295.000000	14.028662
3294.000000	12.588294
3293.000000	11.326931
3292.000000	10.248817
3291.000000	9.341401
3290.000000	8.581582
3289.000000	7.941117
3288.000000	7.391229
3287.000000	6.905808
3286.000000	6.463205
3285.000000	6.052870
3284.000000	5.670582
3283.000000	5.314119
3282.000000	4.985785
3281.000000	4.693168
3280.000000	4.445624
3279.000000	4.248758
3278.000000	4.106755
3277.000000	4.026706
3276.000000	4.013691
3275.000000	4.066192
3274.000000	4.177984
3273.000000	4.341281
3272.000000	4.545169
3271.000000	4.771366
3270.000000	4.997693
3269.000000	5.203134
3268.000000	5.367459
3267.000000	5.471317
3266.000000	5.502711
3265.000000	5.461711
3264.000000	5.357043
3263.000000	5.201592
3262.000000	5.011962
3261.000000	4.809908
3260.000000	4.616555
3259.000000	4.446717
3258.000000	4.311336
3257.000000	4.220837
3256.000000	4.181787
3255.000000	4.193576
3254.000000	4.252006
3253.000000	4.352376
3252.000000	4.487758
3251.000000	4.645977
3250.000000	4.814281
3249.000000	4.984765
3248.000000	5.151361
3247.000000	5.306273
3246.000000	5.441988
3245.000000	5.554563
3244.000000	5.641787
3243.000000	5.701539
3242.000000	5.734494
3241.000000	5.746142
3240.000000	5.742624
3239.000000	5.726320
3238.000000	5.698909
3237.000000	5.663995
3236.000000	5.625111
3235.000000	5.584660
3234.000000	5.546792
3233.000000	5.517347
3232.000000	5.496650
3231.000000	5.476318
3230.000000	5.446920
3229.000000	5.405068
3228.000000	5.350653
3227.000000	5.281699
3226.000000	5.196371
3225.000000	5.096677
3224.000000	4.985407
3223.000000	4.862846
3222.000000	4.729722
3221.000000	4.590567
3220.000000	4.450692
3219.000000	4.312212
3218.000000	4.176238
3217.000000	4.045287
3216.000000	3.920369
3215.000000	3.799072
3214.000000	3.679662
3213.000000	3.563654
3212.000000	3.451662
3211.000000	3.340694
3210.000000	3.228665
3209.000000	3.118046
3208.000000	3.011788
3207.000000	2.909701
3206.000000	2.812024
3205.000000	2.722128
3204.000000	2.642620
3203.000000	2.572434
3202.000000	2.511065
3201.000000	2.461742
3200.000000	2.426639
3199.000000	2.403612
3198.000000	2.390642
3197.000000	2.389573
3196.000000	2.402408
3195.000000	2.427282
3194.000000	2.462370
3193.000000	2.509000
3192.000000	2.567675
3191.000000	2.635590
3190.000000	2.710598
3189.000000	2.794343
3188.000000	2.887870
3187.000000	2.988113
3186.000000	3.092461
3185.000000	3.202189
3184.000000	3.318522
3183.000000	3.439188
3182.000000	3.562088
3181.000000	3.688644
3180.000000	3.819755
3179.000000	3.952614
3178.000000	4.084655
3177.000000	4.216799
3176.000000	4.349811
3175.000000	4.481216
3174.000000	4.609098
3173.000000	4.735098
3172.000000	4.860628
3171.000000	4.983713
3170.000000	5.102608
3169.000000	5.218734
3168.000000	5.333121
3167.000000	5.443836
3166.000000	5.549545
3165.000000	5.651981
3164.000000	5.752012
3163.000000	5.846973
3162.000000	5.934784
3161.000000	6.016484
3160.000000	6.092409
3159.000000	6.159968
3158.000000	6.217844
3157.000000	6.268753
3156.000000	6.314938
3155.000000	6.355419
3154.000000	6.390668
3153.000000	6.425552
3152.000000	6.464504
3151.000000	6.507292
3150.000000	6.552666
3149.000000	6.602238
3148.000000	6.657627
3147.000000	6.717497
3146.000000	6.780633
3145.000000	6.848296
3144.000000	6.920583
3143.000000	6.994251
3142.000000	7.066788
3141.000000	7.139223
3140.000000	7.212202
3139.000000	7.283110
3138.000000	7.349694
3137.000000	7.412624
3136.000000	7.471613
3135.000000	7.522614
3134.000000	7.561863
3133.000000	7.588537
3132.000000	7.601123
3131.000000	7.594687
3130.000000	7.564399
3129.000000	7.509181
3128.000000	7.428688
3127.000000	7.321754
3126.000000	7.190412
3125.000000	7.041656
3124.000000	6.883326
3123.000000	6.720638
3122.000000	6.559199
3121.000000	6.406441
3120.000000	6.266794
3119.000000	6.139218
3118.000000	6.021990
3117.000000	5.916045
3116.000000	5.821093
3115.000000	5.733125
3114.000000	5.648459
3113.000000	5.566650
3112.000000	5.486888
3111.000000	5.406163
3110.000000	5.324162
3109.000000	5.245410
3108.000000	5.173767
3107.000000	5.108735
3106.000000	5.049646
3105.000000	4.999529
3104.000000	4.961498
3103.000000	4.935984
3102.000000	4.924570
3101.000000	4.931810
3100.000000	4.961154
3099.000000	5.011975
3098.000000	5.083654
3097.000000	5.178388
3096.000000	5.296586
3095.000000	5.435175
3094.000000	5.592097
3093.000000	5.768869
3092.000000	5.966387
3091.000000	6.181602
3090.000000	6.411725
3089.000000	6.656320
3088.000000	6.913312
3087.000000	7.177787
3086.000000	7.446697
3085.000000	7.721258
3084.000000	8.001712
3083.000000	8.284286
3082.000000	8.565959
3081.000000	8.847578
3080.000000	9.130245
3079.000000	9.412553
3078.000000	9.693715
3077.000000	9.974910
3076.000000	10.255087
3075.000000	10.529691
3074.000000	10.795950
3073.000000	11.055582
3072.000000	11.310043
3071.000000	11.557572
3070.000000	11.797158
3069.000000	12.031315
3068.000000	12.262444
3067.000000	12.489880
3066.000000	12.713000
3065.000000	12.933250
3064.000000	13.150915
3063.000000	13.363801
3062.000000	13.570980
3061.000000	13.774470
3060.000000	13.975243
3059.000000	14.171412
3058.000000	14.362382
3057.000000	14.550736
3056.000000	14.738173
3055.000000	14.923173
3054.000000	15.104629
3053.000000	15.284283
3052.000000	15.463575
3051.000000	15.641721
3050.000000	15.818492
3049.000000	15.995141
3048.000000	16.171035
3047.000000	16.343068
3046.000000	16.510290
3045.000000	16.675493
3044.000000	16.840806
3043.000000	17.005641
3042.000000	17.170329
3041.000000	17.337432
3040.000000	17.507252
3039.000000	17.675865
3038.000000	17.839938
3037.000000	18.000225
3036.000000	18.158925
3035.000000	18.317197
3034.000000	18.476787
3033.000000	18.640151
3032.000000	18.806891
3031.000000	18.973514
3030.000000	19.138236
3029.000000	19.302421
3028.000000	19.466172
3027.000000	19.626820
3026.000000	19.783454
3025.000000	19.938774
3024.000000	20.094059
3023.000000	20.246099
3022.000000	20.391028
3021.000000	20.527186
3020.000000	20.652327
3019.000000	20.761101
3018.000000	20.848089
3017.000000	20.910372
3016.000000	20.946018
3015.000000	20.954867
3014.000000	20.943367
3013.000000	20.926594
3012.000000	20.922696
3011.000000	20.947224
3010.000000	21.011905
3009.000000	21.122940
3008.000000	21.276673
3007.000000	21.459217
3006.000000	21.652337
3005.000000	21.837709
3004.000000	21.995261
3003.000000	22.101702
3002.000000	22.134029
3001.000000	22.073040
3000.000000	21.907446
2999.000000	21.642656
2998.000000	21.312478
2997.000000	20.979577
2996.000000	20.718453
2995.000000	20.592503
2994.000000	20.635841
2993.000000	20.845042
2992.000000	21.179887
2991.000000	21.580163
2990.000000	21.989908
2989.000000	22.372778
2988.000000	22.711800
2987.000000	23.002274
2986.000000	23.247884
2985.000000	23.455933
2984.000000	23.631555
2983.000000	23.775104
2982.000000	23.886023
2981.000000	23.964431
2980.000000	24.008171
2979.000000	24.011627
2978.000000	23.969791
2977.000000	23.883233
2976.000000	23.758522
2975.000000	23.609605
2974.000000	23.459213
2973.000000	23.333926
2972.000000	23.253145
2971.000000	23.220807
2970.000000	23.225053
2969.000000	23.239170
2968.000000	23.222459
2967.000000	23.130379
2966.000000	22.934887
2965.000000	22.639635
2964.000000	22.278010
2963.000000	21.899145
2962.000000	21.553697
2961.000000	21.281435
2960.000000	21.104033
2959.000000	21.026544
2958.000000	21.046894
2957.000000	21.159479
2956.000000	21.350781
2955.000000	21.598042
2954.000000	21.874690
2953.000000	22.154565
2952.000000	22.409442
2951.000000	22.612101
2950.000000	22.746720
2949.000000	22.816842
2948.000000	22.840524
2947.000000	22.836702
2946.000000	22.810213
2945.000000	22.737388
2944.000000	22.565330
2943.000000	22.238732
2942.000000	21.749625
2941.000000	21.172114
2940.000000	20.651220
2939.000000	20.347360
2938.000000	20.367347
2937.000000	20.721793
2936.000000	21.327819
2935.000000	22.056667
2934.000000	22.791898
2933.000000	23.462537
2932.000000	24.041066
2931.000000	24.528025
2930.000000	24.939655
2929.000000	25.296607
2928.000000	25.615118
2927.000000	25.903796
2926.000000	26.168694
2925.000000	26.415542
2924.000000	26.646644
2923.000000	26.860261
2922.000000	27.055611
2921.000000	27.234793
2920.000000	27.398601
2919.000000	27.545464
2918.000000	27.675419
2917.000000	27.791560
2916.000000	27.896193
2915.000000	27.989286
2914.000000	28.071858
2913.000000	28.146544
2912.000000	28.213428
2911.000000	28.269095
2910.000000	28.310614
2909.000000	28.336708
2908.000000	28.343686
2907.000000	28.323050
2906.000000	28.264516
2905.000000	28.157182
2904.000000	27.987221
2903.000000	27.739976
2902.000000	27.408800
2901.000000	27.001905
2900.000000	26.542794
2899.000000	26.069652
2898.000000	25.633014
2897.000000	25.287128
2896.000000	25.072913
2895.000000	25.006192
2894.000000	25.079312
2893.000000	25.267641
2892.000000	25.536345
2891.000000	25.848417
2890.000000	26.174619
2889.000000	26.496094
2888.000000	26.800053
2887.000000	27.077127
2886.000000	27.323273
2885.000000	27.540092
2884.000000	27.729583
2883.000000	27.892204
2882.000000	28.030140
2881.000000	28.148851
2880.000000	28.253923
2879.000000	28.349364
2878.000000	28.439646
2877.000000	28.529411
2876.000000	28.619710
2875.000000	28.707584
2874.000000	28.791014
2873.000000	28.871086
2872.000000	28.949047
2871.000000	29.025739
2870.000000	29.105371
2869.000000	29.195844
2868.000000	29.302804
2867.000000	29.425737
2866.000000	29.560704
2865.000000	29.703056
2864.000000	29.846273
2863.000000	29.982634
2862.000000	30.107718
2861.000000	30.221906
2860.000000	30.326632
2859.000000	30.422271
2858.000000	30.510767
2857.000000	30.596542
2856.000000	30.683005
2855.000000	30.771029
2854.000000	30.861578
2853.000000	30.955927
2852.000000	31.051840
2851.000000	31.143202
2850.000000	31.225272
2849.000000	31.297762
2848.000000	31.362340
2847.000000	31.420860
2846.000000	31.477246
2845.000000	31.537160
2844.000000	31.603727
2843.000000	31.675924
2842.000000	31.752110
2841.000000	31.832417
2840.000000	31.916881
2839.000000	32.004507
2838.000000	32.095441
2837.000000	32.191171
2836.000000	32.291608
2835.000000	32.394778
2834.000000	32.500072
2833.000000	32.608911
2832.000000	32.721288
2831.000000	32.834474
2830.000000	32.946076
2829.000000	33.055585
2828.000000	33.162269
2827.000000	33.264714
2826.000000	33.363337
2825.000000	33.460477
2824.000000	33.557013
2823.000000	33.651401
2822.000000	33.742718
2821.000000	33.831673
2820.000000	33.917859
2819.000000	33.999188
2818.000000	34.075038
2817.000000	34.147225
2816.000000	34.216983
2815.000000	34.283681
2814.000000	34.347358
2813.000000	34.409592
2812.000000	34.470912
2811.000000	34.530092
2810.000000	34.586808
2809.000000	34.642291
2808.000000	34.696608
2807.000000	34.748203
2806.000000	34.797102
2805.000000	34.845770
2804.000000	34.895795
2803.000000	34.946351
2802.000000	34.996649
2801.000000	35.047110
2800.000000	35.097320
2799.000000	35.145640
2798.000000	35.191798
2797.000000	35.237223
2796.000000	35.282082
2795.000000	35.324781
2794.000000	35.365211
2793.000000	35.405566
2792.000000	35.446999
2791.000000	35.488158
2790.000000	35.527842
2789.000000	35.566291
2788.000000	35.602955
2787.000000	35.635933
2786.000000	35.664885
2785.000000	35.692206
2784.000000	35.720539
2783.000000	35.751686
2782.000000	35.788428
2781.000000	35.834122
2780.000000	35.889210
2779.000000	35.950534
2778.000000	36.014994
2777.000000	36.081565
2776.000000	36.149234
2775.000000	36.216037
2774.000000	36.281306
2773.000000	36.346165
2772.000000	36.410761
2771.000000	36.473459
2770.000000	36.533454
2769.000000	36.591666
2768.000000	36.648252
2767.000000	36.701737
2766.000000	36.751471
2765.000000	36.798364
2764.000000	36.842427
2763.000000	36.882229
2762.000000	36.917542
2761.000000	36.950105
2760.000000	36.980978
2759.000000	37.009493
2758.000000	37.035477
2757.000000	37.059714
2756.000000	37.081503
2755.000000	37.098601
2754.000000	37.110766
2753.000000	37.121333
2752.000000	37.134614
2751.000000	37.153750
2750.000000	37.181149
2749.000000	37.217679
2748.000000	37.260149
2747.000000	37.302087
2746.000000	37.338339
2745.000000	37.367533
2744.000000	37.390538
2743.000000	37.409415
2742.000000	37.427895
2741.000000	37.449289
2740.000000	37.472524
2739.000000	37.492702
2738.000000	37.506855
2737.000000	37.517639
2736.000000	37.531470
2735.000000	37.555830
2734.000000	37.598146
2733.000000	37.662623
2732.000000	37.746190
2731.000000	37.839693
2730.000000	37.934169
2729.000000	38.024766
2728.000000	38.109053
2727.000000	38.185322
2726.000000	38.253810
2725.000000	38.316452
2724.000000	38.373752
2723.000000	38.424002
2722.000000	38.466055
2721.000000	38.500399
2720.000000	38.527315
2719.000000	38.546533
2718.000000	38.559787
2717.000000	38.571390
2716.000000	38.585088
2715.000000	38.602563
2714.000000	38.625232
2713.000000	38.654678
2712.000000	38.690572
2711.000000	38.730700
2710.000000	38.773774
2709.000000	38.820005
2708.000000	38.868407
2707.000000	38.916066
2706.000000	38.960720
2705.000000	39.001506
2704.000000	39.036527
2703.000000	39.062531
2702.000000	39.077933
2701.000000	39.083608
2700.000000	39.080445
2699.000000	39.068514
2698.000000	39.049373
2697.000000	39.026908
2696.000000	39.004647
2695.000000	38.984446
2694.000000	38.967870
2693.000000	38.956020
2692.000000	38.947554
2691.000000	38.939680
2690.000000	38.931953
2689.000000	38.926884
2688.000000	38.926471
2687.000000	38.930608
2686.000000	38.939302
2685.000000	38.953295
2684.000000	38.971763
2683.000000	38.992528
2682.000000	39.015294
2681.000000	39.042387
2680.000000	39.075502
2679.000000	39.114073
2678.000000	39.157252
2677.000000	39.204190
2676.000000	39.251698
2675.000000	39.294570
2674.000000	39.329239
2673.000000	39.354988
2672.000000	39.371595
2671.000000	39.378932
2670.000000	39.379893
2669.000000	39.381016
2668.000000	39.388939
2667.000000	39.408021
2666.000000	39.441063
2665.000000	39.488609
2664.000000	39.546267
2663.000000	39.605715
2662.000000	39.659674
2661.000000	39.704176
2660.000000	39.736490
2659.000000	39.754466
2658.000000	39.759045
2657.000000	39.754716
2656.000000	39.746191
2655.000000	39.736781
2654.000000	39.730593
2653.000000	39.733000
2652.000000	39.747560
2651.000000	39.774788
2650.000000	39.814537
2649.000000	39.866657
2648.000000	39.928677
2647.000000	39.995365
2646.000000	40.061743
2645.000000	40.124846
2644.000000	40.182189
2643.000000	40.231842
2642.000000	40.275117
2641.000000	40.316630
2640.000000	40.360607
2639.000000	40.408710
2638.000000	40.461361
2637.000000	40.518180
2636.000000	40.576350
2635.000000	40.631150
2634.000000	40.679335
2633.000000	40.720038
2632.000000	40.752363
2631.000000	40.775134
2630.000000	40.789520
2629.000000	40.799479
2628.000000	40.808419
2627.000000	40.817403
2626.000000	40.827064
2625.000000	40.838132
2624.000000	40.849587
2623.000000	40.858918
2622.000000	40.865149
2621.000000	40.869555
2620.000000	40.872587
2619.000000	40.872690
2618.000000	40.868613
2617.000000	40.860236
2616.000000	40.846625
2615.000000	40.825532
2614.000000	40.795938
2613.000000	40.758958
2612.000000	40.715873
2611.000000	40.668271
2610.000000	40.620635
2609.000000	40.580017
2608.000000	40.552036
2607.000000	40.539148
2606.000000	40.542422
2605.000000	40.562262
2604.000000	40.596444
2603.000000	40.640228
2602.000000	40.690003
2601.000000	40.743901
2600.000000	40.799212
2599.000000	40.852181
2598.000000	40.901006
2597.000000	40.946785
2596.000000	40.990480
2595.000000	41.031744
2594.000000	41.071334
2593.000000	41.111761
2592.000000	41.154318
2591.000000	41.197691
2590.000000	41.240004
2589.000000	41.279890
2588.000000	41.315225
2587.000000	41.343453
2586.000000	41.364372
2585.000000	41.380670
2584.000000	41.395433
2583.000000	41.411467
2582.000000	41.433046
2581.000000	41.465115
2580.000000	41.509914
2579.000000	41.566576
2578.000000	41.633902
2577.000000	41.711120
2576.000000	41.795346
2575.000000	41.881602
2574.000000	41.966511
2573.000000	42.049307
2572.000000	42.129227
2571.000000	42.204560
2570.000000	42.274842
2569.000000	42.341294
2568.000000	42.404327
2567.000000	42.462980
2566.000000	42.517463
2565.000000	42.569857
2564.000000	42.621422
2563.000000	42.671808
2562.000000	42.721144
2561.000000	42.770402
2560.000000	42.819173
2559.000000	42.865466
2558.000000	42.908569
2557.000000	42.949757
2556.000000	42.989878
2555.000000	43.028853
2554.000000	43.068015
2553.000000	43.110281
2552.000000	43.157143
2551.000000	43.207646
2550.000000	43.260678
2549.000000	43.315800
2548.000000	43.371342
2547.000000	43.424379
2546.000000	43.473370
2545.000000	43.518704
2544.000000	43.560167
2543.000000	43.596392
2542.000000	43.627194
2541.000000	43.653724
2540.000000	43.675980
2539.000000	43.692036
2538.000000	43.700563
2537.000000	43.701598
2536.000000	43.694137
2535.000000	43.676309
2534.000000	43.648181
2533.000000	43.612486
2532.000000	43.571881
2531.000000	43.527469
2530.000000	43.481041
2529.000000	43.435702
2528.000000	43.393542
2527.000000	43.354838
2526.000000	43.319950
2525.000000	43.289683
2524.000000	43.263003
2523.000000	43.236840
2522.000000	43.208863
2521.000000	43.178182
2520.000000	43.143096
2519.000000	43.100699
2518.000000	43.049567
2517.000000	42.990657
2516.000000	42.924942
2515.000000	42.853059
2514.000000	42.777710
2513.000000	42.703899
2512.000000	42.636079
2511.000000	42.577434
2510.000000	42.531822
2509.000000	42.503404
2508.000000	42.493520
2507.000000	42.499911
2506.000000	42.520359
2505.000000	42.553650
2504.000000	42.597073
2503.000000	42.646509
2502.000000	42.699092
2501.000000	42.753887
2500.000000	42.808874
2499.000000	42.860245
2498.000000	42.905562
2497.000000	42.944684
2496.000000	42.977007
2495.000000	43.000746
2494.000000	43.015841
2493.000000	43.024835
2492.000000	43.030373
2491.000000	43.033986
2490.000000	43.038005
2489.000000	43.045840
2488.000000	43.059121
2487.000000	43.076895
2486.000000	43.098058
2485.000000	43.122221
2484.000000	43.147851
2483.000000	43.172571
2482.000000	43.195976
2481.000000	43.219849
2480.000000	43.245154
2479.000000	43.271245
2478.000000	43.298667
2477.000000	43.329692
2476.000000	43.365637
2475.000000	43.406271
2474.000000	43.452208
2473.000000	43.505462
2472.000000	43.566624
2471.000000	43.634094
2470.000000	43.706567
2469.000000	43.783293
2468.000000	43.861656
2467.000000	43.937093
2466.000000	44.006345
2465.000000	44.068640
2464.000000	44.123566
2463.000000	44.170505
2462.000000	44.210805
2461.000000	44.247822
2460.000000	44.283648
2459.000000	44.318146
2458.000000	44.350938
2457.000000	44.381855
2456.000000	44.409032
2455.000000	44.429199
2454.000000	44.441283
2453.000000	44.447579
2452.000000	44.451315
2451.000000	44.455404
2450.000000	44.463604
2449.000000	44.479862
2448.000000	44.505586
2447.000000	44.539635
2446.000000	44.581178
2445.000000	44.630293
2444.000000	44.685289
2443.000000	44.742606
2442.000000	44.799970
2441.000000	44.857077
2440.000000	44.913021
2439.000000	44.965558
2438.000000	45.013627
2437.000000	45.057974
2436.000000	45.098719
2435.000000	45.134401
2434.000000	45.164102
2433.000000	45.188087
2432.000000	45.205814
2431.000000	45.216092
2430.000000	45.219065
2429.000000	45.216080
2428.000000	45.206866
2427.000000	45.188919
2426.000000	45.160615
2425.000000	45.122187
2424.000000	45.074285
2423.000000	45.018523
2422.000000	44.960150
2421.000000	44.907643
2420.000000	44.868254
2419.000000	44.845397
2418.000000	44.839713
2417.000000	44.849558
2416.000000	44.869449
2415.000000	44.891186
2414.000000	44.907756
2413.000000	44.914760
2412.000000	44.908530
2411.000000	44.886108
2410.000000	44.847768
2409.000000	44.797085
2408.000000	44.737948
2407.000000	44.672946
2406.000000	44.605010
2405.000000	44.537422
2404.000000	44.471857
2403.000000	44.409134
2402.000000	44.352267
2401.000000	44.306178
2400.000000	44.273722
2399.000000	44.254148
2398.000000	44.245080
2397.000000	44.243208
2396.000000	44.242489
2395.000000	44.235123
2394.000000	44.215487
2393.000000	44.181775
2392.000000	44.134371
2391.000000	44.075949
2390.000000	44.013366
2389.000000	43.956163
2388.000000	43.912743
2387.000000	43.889278
2386.000000	43.892032
2385.000000	43.927067
2384.000000	43.996992
2383.000000	44.100369
2382.000000	44.234213
2381.000000	44.393240
2380.000000	44.565470
2379.000000	44.732685
2378.000000	44.875920
2377.000000	44.980563
2376.000000	45.037236
2375.000000	45.043132
2374.000000	45.005758
2373.000000	44.940187
2372.000000	44.862438
2371.000000	44.786652
2370.000000	44.725760
2369.000000	44.690156
2368.000000	44.684642
2367.000000	44.709674
2366.000000	44.764141
2365.000000	44.845271
2364.000000	44.948471
2363.000000	45.067190
2362.000000	45.198149
2361.000000	45.339461
2360.000000	45.475449
2359.000000	45.582952
2358.000000	45.647901
2357.000000	45.668157
2356.000000	45.648507
2355.000000	45.594467
2354.000000	45.522998
2353.000000	45.460901
2352.000000	45.432783
2351.000000	45.447473
2350.000000	45.485770
2349.000000	45.526231
2348.000000	45.564939
2347.000000	45.619402
2346.000000	45.704387
2345.000000	45.797704
2344.000000	45.864567
2343.000000	45.889607
2342.000000	45.890719
2341.000000	45.889811
2340.000000	45.891710
2339.000000	45.894123
2338.000000	45.894371
2337.000000	45.894672
2336.000000	45.897437
2335.000000	45.909175
2334.000000	45.938208
2333.000000	45.982131
2332.000000	46.016490
2331.000000	46.009593
2330.000000	45.942066
2329.000000	45.831568
2328.000000	45.714057
2327.000000	45.626245
2326.000000	45.593206
2325.000000	45.614302
2324.000000	45.669411
2323.000000	45.721808
2322.000000	45.746347
2321.000000	45.734043
2320.000000	45.687403
2319.000000	45.616724
2318.000000	45.539169
2317.000000	45.478957
2316.000000	45.448305
2315.000000	45.441816
2314.000000	45.437421
2313.000000	45.410998
2312.000000	45.343515
2311.000000	45.229214
2310.000000	45.076390
2309.000000	44.899969
2308.000000	44.710940
2307.000000	44.513168
2306.000000	44.310958
2305.000000	44.110411
2304.000000	43.916455
2303.000000	43.729211
2302.000000	43.547530
2301.000000	43.371040
2300.000000	43.198536
2299.000000	43.029596
2298.000000	42.867811
2297.000000	42.720557
2296.000000	42.592845
2295.000000	42.486300
2294.000000	42.403260
2293.000000	42.347462
2292.000000	42.320213
2291.000000	42.318591
2290.000000	42.340667
2289.000000	42.385176
2288.000000	42.449258
2287.000000	42.527429
2286.000000	42.616588
2285.000000	42.715969
2284.000000	42.822664
2283.000000	42.930561
2282.000000	43.034956
2281.000000	43.134336
2280.000000	43.227122
2279.000000	43.310992
2278.000000	43.386326
2277.000000	43.457036
2276.000000	43.526069
2275.000000	43.594472
2274.000000	43.664718
2273.000000	43.741654
2272.000000	43.828485
2271.000000	43.925553
2270.000000	44.034297
2269.000000	44.158080
2268.000000	44.298254
2267.000000	44.452336
2266.000000	44.616969
2265.000000	44.789612
2264.000000	44.965976
2263.000000	45.140000
2262.000000	45.307573
2261.000000	45.467409
2260.000000	45.618216
2259.000000	45.757680
2258.000000	45.885754
2257.000000	46.005106
2256.000000	46.117665
2255.000000	46.223509
2254.000000	46.323836
2253.000000	46.421967
2252.000000	46.519926
2251.000000	46.617477
2250.000000	46.714927
2249.000000	46.813756
2248.000000	46.913307
2247.000000	47.009838
2246.000000	47.100222
2245.000000	47.184069
2244.000000	47.261400
2243.000000	47.331196
2242.000000	47.393365
2241.000000	47.449362
2240.000000	47.499361
2239.000000	47.541382
2238.000000	47.574267
2237.000000	47.598963
2236.000000	47.616369
2235.000000	47.626568
2234.000000	47.631639
2233.000000	47.636436
2232.000000	47.645295
2231.000000	47.660101
2230.000000	47.681781
2229.000000	47.710630
2228.000000	47.744068
2227.000000	47.777157
2226.000000	47.806739
2225.000000	47.832938
2224.000000	47.856114
2223.000000	47.875355
2222.000000	47.890791
2221.000000	47.904470
2220.000000	47.917775
2219.000000	47.930720
2218.000000	47.944681
2217.000000	47.963024
2216.000000	47.987913
2215.000000	48.019092
2214.000000	48.056632
2213.000000	48.101783
2212.000000	48.154071
2211.000000	48.210200
2210.000000	48.267020
2209.000000	48.322916
2208.000000	48.375639
2207.000000	48.421774
2206.000000	48.459555
2205.000000	48.489855
2204.000000	48.513357
2203.000000	48.529390
2202.000000	48.538255
2201.000000	48.541995
2200.000000	48.541813
2199.000000	48.537410
2198.000000	48.529864
2197.000000	48.522503
2196.000000	48.518273
2195.000000	48.518853
2194.000000	48.527167
2193.000000	48.547340
2192.000000	48.580740
2191.000000	48.624754
2190.000000	48.676356
2189.000000	48.734257
2188.000000	48.796656
2187.000000	48.860218
2186.000000	48.922741
2185.000000	48.984416
2184.000000	49.045335
2183.000000	49.104088
2182.000000	49.159832
2181.000000	49.213070
2180.000000	49.263472
2179.000000	49.309243
2178.000000	49.349514
2177.000000	49.385003
2176.000000	49.415590
2175.000000	49.439887
2174.000000	49.457869
2173.000000	49.471333
2172.000000	49.480979
2171.000000	49.485709
2170.000000	49.485606
2169.000000	49.482766
2168.000000	49.478382
2167.000000	49.471853
2166.000000	49.463802
2165.000000	49.457010
2164.000000	49.453255
2163.000000	49.452124
2162.000000	49.453904
2161.000000	49.460693
2160.000000	49.473405
2159.000000	49.490485
2158.000000	49.510818
2157.000000	49.535072
2156.000000	49.563043
2155.000000	49.592542
2154.000000	49.622285
2153.000000	49.653224
2152.000000	49.685843
2151.000000	49.718643
2150.000000	49.750403
2149.000000	49.781338
2148.000000	49.810812
2147.000000	49.836600
2146.000000	49.857659
2145.000000	49.875363
2144.000000	49.891113
2143.000000	49.905095
2142.000000	49.918157
2141.000000	49.932204
2140.000000	49.947525
2139.000000	49.962019
2138.000000	49.973915
2137.000000	49.982919
2136.000000	49.988110
2135.000000	49.987510
2134.000000	49.980759
2133.000000	49.969601
2132.000000	49.954872
2131.000000	49.935617
2130.000000	49.912059
2129.000000	49.886589
2128.000000	49.860903
2127.000000	49.834891
2126.000000	49.809414
2125.000000	49.787580
2124.000000	49.772159
2123.000000	49.764597
2122.000000	49.767204
2121.000000	49.783197
2120.000000	49.813394
2119.000000	49.855241
2118.000000	49.905512
2117.000000	49.961184
2116.000000	50.017301
2115.000000	50.067556
2114.000000	50.108616
2113.000000	50.141375
2112.000000	50.167392
2111.000000	50.187056
2110.000000	50.201718
2109.000000	50.214183
2108.000000	50.225757
2107.000000	50.235569
2106.000000	50.244008
2105.000000	50.253899
2104.000000	50.267008
2103.000000	50.282016
2102.000000	50.296670
2101.000000	50.308826
2100.000000	50.314406
2099.000000	50.307522
2098.000000	50.284771
2097.000000	50.247546
2096.000000	50.199814
2095.000000	50.147092
2094.000000	50.097964
2093.000000	50.062542
2092.000000	50.047342
2091.000000	50.053614
2090.000000	50.080854
2089.000000	50.128190
2088.000000	50.191143
2087.000000	50.261135
2086.000000	50.330167
2085.000000	50.393526
2084.000000	50.447860
2083.000000	50.490196
2082.000000	50.520033
2081.000000	50.539420
2080.000000	50.549363
2079.000000	50.548492
2078.000000	50.536447
2077.000000	50.515102
2076.000000	50.485160
2075.000000	50.445306
2074.000000	50.395543
2073.000000	50.338589
2072.000000	50.276338
2071.000000	50.207747
2070.000000	50.132312
2069.000000	50.051953
2068.000000	49.967648
2067.000000	49.877357
2066.000000	49.779416
2065.000000	49.675686
2064.000000	49.569207
2063.000000	49.461444
2062.000000	49.353385
2061.000000	49.246161
2060.000000	49.139058
2059.000000	49.029758
2058.000000	48.918081
2057.000000	48.806914
2056.000000	48.698698
2055.000000	48.594367
2054.000000	48.496464
2053.000000	48.409298
2052.000000	48.334657
2051.000000	48.270814
2050.000000	48.216656
2049.000000	48.173216
2048.000000	48.139796
2047.000000	48.112870
2046.000000	48.091066
2045.000000	48.076611
2044.000000	48.070543
2043.000000	48.070838
2042.000000	48.076723
2041.000000	48.090981
2040.000000	48.115739
2039.000000	48.150323
2038.000000	48.194817
2037.000000	48.251223
2036.000000	48.320018
2035.000000	48.399100
2034.000000	48.487470
2033.000000	48.585956
2032.000000	48.692751
2031.000000	48.802711
2030.000000	48.911874
2029.000000	49.019115
2028.000000	49.122692
2027.000000	49.219592
2026.000000	49.309486
2025.000000	49.395532
2024.000000	49.480098
2023.000000	49.562936
2022.000000	49.645036
2021.000000	49.729489
2020.000000	49.816576
2019.000000	49.902169
2018.000000	49.983314
2017.000000	50.062266
2016.000000	50.143154
2015.000000	50.227995
2014.000000	50.317755
2013.000000	50.413712
2012.000000	50.515330
2011.000000	50.619623
2010.000000	50.724174
2009.000000	50.828213
2008.000000	50.930071
2007.000000	51.027281
2006.000000	51.120068
2005.000000	51.211611
2004.000000	51.303987
2003.000000	51.396012
2002.000000	51.486630
2001.000000	51.575839
2000.000000	51.662026
1999.000000	51.741974
1998.000000	51.814107
1997.000000	51.881027
1996.000000	51.947046
1995.000000	52.014246
1994.000000	52.082147
1993.000000	52.150440
1992.000000	52.220948
1991.000000	52.297234
1990.000000	52.381900
1989.000000	52.473722
1988.000000	52.567861
1987.000000	52.659716
1986.000000	52.748672
1985.000000	52.837065
1984.000000	52.926460
1983.000000	53.016899
1982.000000	53.109120
1981.000000	53.203813
1980.000000	53.299590
1979.000000	53.393918
1978.000000	53.485409
1977.000000	53.574594
1976.000000	53.662365
1975.000000	53.749388
1974.000000	53.836737
1973.000000	53.925567
1972.000000	54.015774
1971.000000	54.105707
1970.000000	54.192352
1969.000000	54.271055
1968.000000	54.336032
1967.000000	54.384100
1966.000000	54.418333
1965.000000	54.444655
1964.000000	54.465449
1963.000000	54.478612
1962.000000	54.481734
1961.000000	54.474830
1960.000000	54.459021
1959.000000	54.435997
1958.000000	54.409532
1957.000000	54.384868
1956.000000	54.366062
1955.000000	54.355967
1954.000000	54.357696
1953.000000	54.373869
1952.000000	54.403452
1951.000000	54.441820
1950.000000	54.485137
1949.000000	54.530204
1948.000000	54.572055
1947.000000	54.606683
1946.000000	54.634878
1945.000000	54.659106
1944.000000	54.677345
1943.000000	54.685904
1942.000000	54.688671
1941.000000	54.695808
1940.000000	54.711457
1939.000000	54.729878
1938.000000	54.744082
1937.000000	54.752291
1936.000000	54.755450
1935.000000	54.753240
1934.000000	54.745359
1933.000000	54.734286
1932.000000	54.722284
1931.000000	54.709508
1930.000000	54.697854
1929.000000	54.689806
1928.000000	54.686487
1927.000000	54.688432
1926.000000	54.697944
1925.000000	54.716163
1924.000000	54.737285
1923.000000	54.756138
1922.000000	54.778146
1921.000000	54.811274
1920.000000	54.850751
1919.000000	54.880811
1918.000000	54.892931
1917.000000	54.894489
1916.000000	54.893849
1915.000000	54.889614
1914.000000	54.878905
1913.000000	54.865172
1912.000000	54.852163
1911.000000	54.838171
1910.000000	54.821764
1909.000000	54.805859
1908.000000	54.794534
1907.000000	54.788630
1906.000000	54.789543
1905.000000	54.801849
1904.000000	54.826819
1903.000000	54.862615
1902.000000	54.910070
1901.000000	54.971209
1900.000000	55.043897
1899.000000	55.122324
1898.000000	55.202446
1897.000000	55.282540
1896.000000	55.357479
1895.000000	55.422383
1894.000000	55.481668
1893.000000	55.545004
1892.000000	55.613677
1891.000000	55.678279
1890.000000	55.731303
1889.000000	55.776563
1888.000000	55.821661
1887.000000	55.867621
1886.000000	55.911803
1885.000000	55.954184
1884.000000	55.996342
1883.000000	56.039885
1882.000000	56.087780
1881.000000	56.142259
1880.000000	56.201825
1879.000000	56.262304
1878.000000	56.321343
1877.000000	56.380388
1876.000000	56.439363
1875.000000	56.494960
1874.000000	56.547894
1873.000000	56.604476
1872.000000	56.667661
1871.000000	56.731677
1870.000000	56.788013
1869.000000	56.835153
1868.000000	56.879435
1867.000000	56.927080
1866.000000	56.980696
1865.000000	57.040698
1864.000000	57.104864
1863.000000	57.169237
1862.000000	57.232349
1861.000000	57.295943
1860.000000	57.360265
1859.000000	57.422768
1858.000000	57.482570
1857.000000	57.541699
1856.000000	57.600974
1855.000000	57.658175
1854.000000	57.712756
1853.000000	57.766347
1852.000000	57.821262
1851.000000	57.878457
1850.000000	57.935559
1849.000000	57.991903
1848.000000	58.049908
1847.000000	58.111764
1846.000000	58.174290
1845.000000	58.229405
1844.000000	58.274682
1843.000000	58.319663
1842.000000	58.372978
1841.000000	58.432182
1840.000000	58.490743
1839.000000	58.543942
1838.000000	58.591959
1837.000000	58.638130
1836.000000	58.683510
1835.000000	58.729003
1834.000000	58.778380
1833.000000	58.834585
1832.000000	58.895508
1831.000000	58.951789
1830.000000	58.996590
1829.000000	59.040827
1828.000000	59.099605
1827.000000	59.171121
1826.000000	59.241303
1825.000000	59.303228
1824.000000	59.363592
1823.000000	59.428262
1822.000000	59.493664
1821.000000	59.555363
1820.000000	59.614166
1819.000000	59.670044
1818.000000	59.720783
1817.000000	59.767712
1816.000000	59.813894
1815.000000	59.859725
1814.000000	59.900780
1813.000000	59.932336
1812.000000	59.951793
1811.000000	59.956329
1810.000000	59.949307
1809.000000	59.940652
1808.000000	59.936491
1807.000000	59.936592
1806.000000	59.941468
1805.000000	59.955109
1804.000000	59.976773
1803.000000	59.998550
1802.000000	60.012165
1801.000000	60.019686
1800.000000	60.031253
1799.000000	60.050889
1798.000000	60.077844
1797.000000	60.112598
1796.000000	60.155827
1795.000000	60.205170
1794.000000	60.252743
1793.000000	60.288916
1792.000000	60.310856
1791.000000	60.324278
1790.000000	60.338352
1789.000000	60.359322
1788.000000	60.388055
1787.000000	60.419343
1786.000000	60.447244
1785.000000	60.472398
1784.000000	60.499277
1783.000000	60.529170
1782.000000	60.553446
1781.000000	60.563749
1780.000000	60.567225
1779.000000	60.577867
1778.000000	60.604070
1777.000000	60.645490
1776.000000	60.702668
1775.000000	60.778451
1774.000000	60.866742
1773.000000	60.952768
1772.000000	61.031462
1771.000000	61.107717
1770.000000	61.180006
1769.000000	61.244261
1768.000000	61.303861
1767.000000	61.368994
1766.000000	61.445274
1765.000000	61.528253
1764.000000	61.608003
1763.000000	61.671249
1762.000000	61.707625
1761.000000	61.726074
1760.000000	61.745948
1759.000000	61.773500
1758.000000	61.803278
1757.000000	61.830598
1756.000000	61.868735
1755.000000	61.931177
1754.000000	62.008625
1753.000000	62.081689
1752.000000	62.141822
1751.000000	62.193731
1750.000000	62.243735
1749.000000	62.291418
1748.000000	62.338581
1747.000000	62.397414
1746.000000	62.471251
1745.000000	62.550698
1744.000000	62.627409
1743.000000	62.698268
1742.000000	62.760696
1741.000000	62.808399
1740.000000	62.835672
1739.000000	62.850994
1738.000000	62.872544
1737.000000	62.907005
1736.000000	62.947188
1735.000000	62.977635
1734.000000	62.996379
1733.000000	63.023502
1732.000000	63.057533
1731.000000	63.074426
1730.000000	63.065574
1729.000000	63.040270
1728.000000	63.018274
1727.000000	63.012788
1726.000000	63.022400
1725.000000	63.041931
1724.000000	63.068534
1723.000000	63.098943
1722.000000	63.133360
1721.000000	63.171329
1720.000000	63.207824
1719.000000	63.229789
1718.000000	63.231888
1717.000000	63.238474
1716.000000	63.268137
1715.000000	63.309532
1714.000000	63.356111
1713.000000	63.413016
1712.000000	63.476963
1711.000000	63.536975
1710.000000	63.588513
1709.000000	63.637045
1708.000000	63.691565
1707.000000	63.753653
1706.000000	63.819405
1705.000000	63.892351
1704.000000	63.975601
1703.000000	64.065819
1702.000000	64.157427
1701.000000	64.243044
1700.000000	64.325684
1699.000000	64.414518
1698.000000	64.501482
1697.000000	64.576385
1696.000000	64.643325
1695.000000	64.722179
1694.000000	64.820678
1693.000000	64.917416
1692.000000	64.999367
1691.000000	65.068207
1690.000000	65.126159
1689.000000	65.167845
1688.000000	65.196861
1687.000000	65.228929
1686.000000	65.273653
1685.000000	65.318089
1684.000000	65.349542
1683.000000	65.392196
1682.000000	65.444605
1681.000000	65.469327
1680.000000	65.458514
1679.000000	65.435889
1678.000000	65.420435
1677.000000	65.399685
1676.000000	65.358508
1675.000000	65.317870
1674.000000	65.305114
1673.000000	65.306123
1672.000000	65.296404
1671.000000	65.274766
1670.000000	65.249626
1669.000000	65.216326
1668.000000	65.173527
1667.000000	65.135568
1666.000000	65.107278
1665.000000	65.073470
1664.000000	65.016496
1663.000000	64.942164
1662.000000	64.866974
1661.000000	64.777719
1660.000000	64.653035
1659.000000	64.500376
1658.000000	64.336716
1657.000000	64.160581
1656.000000	63.951787
1655.000000	63.673960
1654.000000	63.232787
1653.000000	62.584755
1652.000000	61.900318
1651.000000	61.291926
1650.000000	60.649126
1649.000000	59.777469
1648.000000	58.427987
1647.000000	56.449644
1646.000000	53.962186
1645.000000	51.202308
1644.000000	48.228712
1643.000000	44.945889
1642.000000	41.294951
1641.000000	37.396371
1640.000000	33.584197
1639.000000	30.192220
1638.000000	27.352768
1637.000000	25.079703
1636.000000	23.526339
1635.000000	22.931700
1634.000000	23.235112
1633.000000	24.156727
1632.000000	25.497608
1631.000000	27.160423
1630.000000	29.087068
1629.000000	31.221808
1628.000000	33.470962
1627.000000	35.673949
1626.000000	37.723225
1625.000000	39.682212
1624.000000	41.674328
1623.000000	43.662814
1622.000000	45.454884
1621.000000	46.954197
1620.000000	48.242792
1619.000000	49.446062
1618.000000	50.648770
1617.000000	51.875037
1616.000000	53.044490
1615.000000	54.016679
1614.000000	54.752501
1613.000000	55.340034
1612.000000	55.870411
1611.000000	56.346028
1610.000000	56.703719
1609.000000	56.913825
1608.000000	56.980909
1607.000000	56.868294
1606.000000	56.500126
1605.000000	55.821929
1604.000000	54.818170
1603.000000	53.471253
1602.000000	51.789783
1601.000000	49.880913
1600.000000	47.930581
1599.000000	46.111770
1598.000000	44.519245
1597.000000	43.181986
1596.000000	42.091150
1595.000000	41.194030
1594.000000	40.398937
1593.000000	39.636340
1592.000000	38.902520
1591.000000	38.213679
1590.000000	37.552287
1589.000000	36.880512
1588.000000	36.174059
1587.000000	35.403506
1586.000000	34.518058
1585.000000	33.492456
1584.000000	32.368060
1583.000000	31.207306
1582.000000	30.032876
1581.000000	28.854683
1580.000000	27.705681
1579.000000	26.573445
1578.000000	25.314651
1577.000000	23.726942
1576.000000	21.853518
1575.000000	20.072403
1574.000000	18.637527
1573.000000	17.463793
1572.000000	16.406366
1571.000000	15.431082
1570.000000	14.591069
1569.000000	13.951017
1568.000000	13.551268
1567.000000	13.403916
1566.000000	13.464352
1565.000000	13.646736
1564.000000	13.906527
1563.000000	14.255378
1562.000000	14.716176
1561.000000	15.315745
1560.000000	16.185075
1559.000000	17.425292
1558.000000	18.733591
1557.000000	19.755247
1556.000000	20.537937
1555.000000	21.260205
1554.000000	21.962513
1553.000000	22.574228
1552.000000	23.070881
1551.000000	23.538292
1550.000000	24.065122
1549.000000	24.666437
1548.000000	25.333236
1547.000000	26.106622
1546.000000	27.032760
1545.000000	28.077781
1544.000000	29.151354
1543.000000	30.214022
1542.000000	31.304025
1541.000000	32.462268
1540.000000	33.657960
1539.000000	34.782922
1538.000000	35.738383
1537.000000	36.527729
1536.000000	37.251707
1535.000000	38.041281
1534.000000	38.953943
1533.000000	39.898417
1532.000000	40.754633
1531.000000	41.520113
1530.000000	42.251265
1529.000000	42.968415
1528.000000	43.670411
1527.000000	44.368003
1526.000000	45.049413
1525.000000	45.667640
1524.000000	46.212788
1523.000000	46.740232
1522.000000	47.286275
1521.000000	47.802058
1520.000000	48.242320
1519.000000	48.642998
1518.000000	49.048393
1517.000000	49.452474
1516.000000	49.837308
1515.000000	50.213746
1514.000000	50.590029
1513.000000	50.953242
1512.000000	51.298743
1511.000000	51.638203
1510.000000	51.973775
1509.000000	52.296230
1508.000000	52.622008
1507.000000	52.992765
1506.000000	53.404382
1505.000000	53.782934
1504.000000	54.099310
1503.000000	54.397610
1502.000000	54.699468
1501.000000	54.986472
1500.000000	55.251130
1499.000000	55.519411
1498.000000	55.801512
1497.000000	56.074125
1496.000000	56.331834
1495.000000	56.596709
1494.000000	56.862308
1493.000000	57.100414
1492.000000	57.319354
1491.000000	57.553719
1490.000000	57.794333
1489.000000	57.993553
1488.000000	58.148829
1487.000000	58.293189
1486.000000	58.414458
1485.000000	58.456396
1484.000000	58.396782
1483.000000	58.240113
1482.000000	57.945833
1481.000000	57.455562
1480.000000	56.762881
1479.000000	55.850135
1478.000000	54.583397
1477.000000	52.818835
1476.000000	50.595166
1475.000000	48.069669
1474.000000	45.294189
1473.000000	42.333001
1472.000000	39.567528
1471.000000	37.439614
1470.000000	36.007095
1469.000000	35.092579
1468.000000	34.603820
1467.000000	34.580504
1466.000000	35.104861
1465.000000	36.159027
1464.000000	37.516856
1463.000000	38.832559
1462.000000	39.851901
1461.000000	40.474098
1460.000000	40.664578
1459.000000	40.376600
1458.000000	39.534336
1457.000000	38.257690
1456.000000	37.016605
1455.000000	36.166332
1454.000000	35.652006
1453.000000	35.310243
1452.000000	35.067564
1451.000000	34.920853
1450.000000	34.891406
1449.000000	35.011879
1448.000000	35.300194
1447.000000	35.713702
1446.000000	36.181494
1445.000000	36.683835
1444.000000	37.262028
1443.000000	37.965043
1442.000000	38.824819
1441.000000	39.856598
1440.000000	41.064010
1439.000000	42.463810
1438.000000	44.102734
1437.000000	45.946655
1436.000000	47.734395
1435.000000	49.180059
1434.000000	50.273905
1433.000000	51.174638
1432.000000	51.982942
1431.000000	52.710752
1430.000000	53.352072
1429.000000	53.917636
1428.000000	54.405988
1427.000000	54.816489
1426.000000	55.178090
1425.000000	55.522284
1424.000000	55.849202
1423.000000	56.144166
1422.000000	56.421664
1421.000000	56.715080
1420.000000	57.031739
1419.000000	57.341893
1418.000000	57.623990
1417.000000	57.885908
1416.000000	58.131089
1415.000000	58.360027
1414.000000	58.589161
1413.000000	58.836295
1412.000000	59.097229
1411.000000	59.357206
1410.000000	59.617002
1409.000000	59.883994
1408.000000	60.144249
1407.000000	60.376403
1406.000000	60.580717
1405.000000	60.763207
1404.000000	60.909264
1403.000000	60.995193
1402.000000	61.002718
1401.000000	60.887330
1400.000000	60.569075
1399.000000	60.034790
1398.000000	59.433129
1397.000000	58.987431
1396.000000	58.843151
1395.000000	59.006152
1394.000000	59.350026
1393.000000	59.714913
1392.000000	60.036940
1391.000000	60.365004
1390.000000	60.783964
1389.000000	61.336990
1388.000000	61.989691
1387.000000	62.648387
1386.000000	63.229487
1385.000000	63.706218
1384.000000	64.092185
1383.000000	64.413511
1382.000000	64.701103
1381.000000	64.975728
1380.000000	65.228060
1379.000000	65.422518
1378.000000	65.511912
1377.000000	65.417297
1376.000000	64.958823
1375.000000	63.814742
1374.000000	61.596042
1373.000000	58.056422
1372.000000	53.296559
1371.000000	47.850602
1370.000000	42.671287
1369.000000	38.909369
1368.000000	37.366322
1367.000000	37.966750
1366.000000	39.859475
1365.000000	41.985212
1364.000000	43.476845
1363.000000	43.822787
1362.000000	43.033562
1361.000000	41.713049
1360.000000	40.784865
1359.000000	41.030024
1358.000000	42.728737
1357.000000	45.550876
1356.000000	48.798215
1355.000000	51.825727
1354.000000	54.314407
1353.000000	56.257270
1352.000000	57.778272
1351.000000	59.001017
1350.000000	60.018557
1349.000000	60.887349
1348.000000	61.629485
1347.000000	62.258012
1346.000000	62.796758
1345.000000	63.267188
1344.000000	63.678291
1343.000000	64.040004
1342.000000	64.378560
1341.000000	64.719930
1340.000000	65.066334
1339.000000	65.406272
1338.000000	65.734123
1337.000000	66.044191
1336.000000	66.314684
1335.000000	66.513363
1334.000000	66.608261
1333.000000	66.542794
1332.000000	66.210778
1331.000000	65.479390
1330.000000	64.249383
1329.000000	62.501181
1328.000000	60.264722
1327.000000	57.559446
1326.000000	54.402016
1325.000000	50.937831
1324.000000	47.608499
1323.000000	45.084219
1322.000000	43.872119
1321.000000	43.953334
1320.000000	44.834055
1319.000000	45.936309
1318.000000	46.946626
1317.000000	47.835817
1316.000000	48.666899
1315.000000	49.479946
1314.000000	50.312043
1313.000000	51.242410
1312.000000	52.365011
1311.000000	53.713720
1310.000000	55.216972
1309.000000	56.716527
1308.000000	58.031081
1307.000000	59.025105
1306.000000	59.640221
1305.000000	59.859849
1304.000000	59.667912
1303.000000	59.042716
1302.000000	57.977363
1301.000000	56.521435
1300.000000	54.831308
1299.000000	53.192700
1298.000000	51.933647
1297.000000	51.249053
1296.000000	51.085346
1295.000000	51.176875
1294.000000	51.184357
1293.000000	50.821475
1292.000000	49.920230
1291.000000	48.440708
1290.000000	46.426930
1289.000000	43.968673
1288.000000	41.244340
1287.000000	38.599054
1286.000000	36.496097
1285.000000	35.310803
1284.000000	35.146637
1283.000000	35.842573
1282.000000	37.156341
1281.000000	38.914882
1280.000000	40.994542
1279.000000	43.189734
1278.000000	45.164429
1277.000000	46.580045
1276.000000	47.265806
1275.000000	47.279276
1274.000000	46.852177
1273.000000	46.310357
1272.000000	46.011450
1271.000000	46.266684
1270.000000	47.228407
1269.000000	48.819170
1268.000000	50.780934
1267.000000	52.816684
1266.000000	54.712400
1265.000000	56.371323
1264.000000	57.779986
1263.000000	58.964259
1262.000000	59.963624
1261.000000	60.814829
1260.000000	61.541319
1259.000000	62.159589
1258.000000	62.696552
1257.000000	63.179982
1256.000000	63.622896
1255.000000	64.029419
1254.000000	64.406433
1253.000000	64.761818
1252.000000	65.092958
1251.000000	65.393832
1250.000000	65.669290
1249.000000	65.929286
1248.000000	66.176628
1247.000000	66.411691
1246.000000	66.643302
1245.000000	66.880897
1244.000000	67.119141
1243.000000	67.344028
1242.000000	67.548118
1241.000000	67.727572
1240.000000	67.871780
1239.000000	67.970147
1238.000000	68.026996
1237.000000	68.054810
1236.000000	68.057932
1235.000000	68.036261
1234.000000	67.995175
1233.000000	67.939058
1232.000000	67.858322
1231.000000	67.735568
1230.000000	67.561673
1229.000000	67.329470
1228.000000	67.022346
1227.000000	66.619122
1226.000000	66.100399
1225.000000	65.441801
1224.000000	64.594136
1223.000000	63.492818
1222.000000	62.078499
1221.000000	60.300555
1220.000000	58.136269
1219.000000	55.613960
1218.000000	52.825137
1217.000000	49.904917
1216.000000	47.005735
1215.000000	44.289397
1214.000000	41.921375
1213.000000	40.052094
1212.000000	38.793388
1211.000000	38.196726
1210.000000	38.207254
1209.000000	38.661770
1208.000000	39.335487
1207.000000	39.997904
1206.000000	40.462963
1205.000000	40.607635
1204.000000	40.375002
1203.000000	39.771356
1202.000000	38.864640
1201.000000	37.788682
1200.000000	36.744769
1199.000000	35.971939
1198.000000	35.673358
1197.000000	35.940806
1196.000000	36.746283
1195.000000	37.979139
1194.000000	39.501917
1193.000000	41.197954
1192.000000	42.981829
1191.000000	44.798865
1190.000000	46.608976
1189.000000	48.375761
1188.000000	50.064526
1187.000000	51.644245
1186.000000	53.093171
1185.000000	54.403732
1184.000000	55.580596
1183.000000	56.631917
1182.000000	57.568570
1181.000000	58.395727
1180.000000	59.111778
1179.000000	59.718959
1178.000000	60.225092
1177.000000	60.639457
1176.000000	60.960305
1175.000000	61.178858
1174.000000	61.288905
1173.000000	61.270936
1172.000000	61.083521
1171.000000	60.663036
1170.000000	59.935473
1169.000000	58.831429
1168.000000	57.299624
1167.000000	55.357297
1166.000000	53.132955
1165.000000	50.865468
1164.000000	48.857122
1163.000000	47.399267
1162.000000	46.678929
1161.000000	46.724490
1160.000000	47.422282
1159.000000	48.566725
1158.000000	49.937144
1157.000000	51.343318
1156.000000	52.647895
1155.000000	53.773371
1154.000000	54.689713
1153.000000	55.393805
1152.000000	55.888675
1151.000000	56.175164
1150.000000	56.244935
1149.000000	56.083016
1148.000000	55.654474
1147.000000	54.911821
1146.000000	53.805923
1145.000000	52.269883
1144.000000	50.231931
1143.000000	47.634800
1142.000000	44.482714
1141.000000	40.890134
1140.000000	37.094188
1139.000000	33.415834
1138.000000	30.140210
1137.000000	27.394322
1136.000000	25.118352
1135.000000	23.157242
1134.000000	21.385614
1133.000000	19.830153
1132.000000	18.710196
1131.000000	18.337175
1130.000000	18.967351
1129.000000	20.653506
1128.000000	23.212703
1127.000000	26.274628
1126.000000	29.359179
1125.000000	31.977393
1124.000000	33.717667
1123.000000	34.308041
1122.000000	33.659722
1121.000000	31.889534
1120.000000	29.255817
1119.000000	26.095464
1118.000000	22.800096
1117.000000	19.834301
1116.000000	17.721868
1115.000000	16.915594
1114.000000	17.595182
1113.000000	19.562295
1112.000000	22.303091
1111.000000	25.121905
1110.000000	27.371170
1109.000000	28.719607
1108.000000	29.308254
1107.000000	29.638820
1106.000000	30.229495
1105.000000	31.304689
1104.000000	32.723267
1103.000000	34.101884
1102.000000	34.964820
1101.000000	34.911755
1100.000000	33.800927
1099.000000	31.906070
1098.000000	29.901116
1097.000000	28.608864
1096.000000	28.632731
1095.000000	30.099012
1094.000000	32.652511
1093.000000	35.693477
1092.000000	38.693993
1091.000000	41.357003
1090.000000	43.605446
1089.000000	45.485421
1088.000000	47.078334
1087.000000	48.463541
1086.000000	49.707503
1085.000000	50.851707
1084.000000	51.906190
1083.000000	52.871649
1082.000000	53.749624
1081.000000	54.542258
1080.000000	55.246666
1079.000000	55.855139
1078.000000	56.364819
1077.000000	56.759346
1076.000000	56.996785
1075.000000	57.017099
1074.000000	56.738862
1073.000000	56.062765
1072.000000	54.843331
1071.000000	52.895488
1070.000000	50.024475
1069.000000	46.043104
1068.000000	40.885815
1067.000000	34.751504
1066.000000	28.198501
1065.000000	22.063076
1064.000000	17.190884
1063.000000	14.076715
1062.000000	12.610687
1061.000000	12.131224
1060.000000	11.790679
1059.000000	11.035315
1058.000000	9.840202
1057.000000	8.648056
1056.000000	8.068936
1055.000000	8.514439
1054.000000	10.037434
1053.000000	12.387113
1052.000000	15.200453
1051.000000	18.157557
1050.000000	21.029111
1049.000000	23.701905
1048.000000	26.161977
1047.000000	28.444358
1046.000000	30.575244
1045.000000	32.555019
1044.000000	34.370238
1043.000000	36.011199
1042.000000	37.477352
1041.000000	38.772725
1040.000000	39.912116
1039.000000	40.913699
1038.000000	41.794270
1037.000000	42.568369
1036.000000	43.245904
1035.000000	43.838466
1034.000000	44.355198
1033.000000	44.801564
1032.000000	45.183606
1031.000000	45.509622
1030.000000	45.792797
1029.000000	46.045119
1028.000000	46.273223
1027.000000	46.479645
1026.000000	46.659823
1025.000000	46.801098
1024.000000	46.881705
1023.000000	46.875560
1022.000000	46.761001
1021.000000	46.515590
1020.000000	46.116275
1019.000000	45.536065
1018.000000	44.737985
1017.000000	43.677993
1016.000000	42.306566
1015.000000	40.602567
1014.000000	38.613027
1013.000000	36.481169
1012.000000	34.439772
1011.000000	32.739590
1010.000000	31.525475
1009.000000	30.737960
1008.000000	30.145521
1007.000000	29.513064
1006.000000	28.823330
1005.000000	28.354497
1004.000000	28.526981
1003.000000	29.613755
1002.000000	31.525336
1001.000000	33.864570
1000.000000	36.145907
999.000000	37.991506
998.000000	39.203209
997.000000	39.743026
996.000000	39.702249
995.000000	39.284934
994.000000	38.784858
993.000000	38.524792
992.000000	38.766262
991.000000	39.613607
990.000000	40.970588
989.000000	42.599527
988.000000	44.254203
987.000000	45.773894
986.000000	47.102470
985.000000	48.252389
984.000000	49.261447
983.000000	50.167891
982.000000	50.999428
981.000000	51.766395
980.000000	52.464209
979.000000	53.088857
978.000000	53.640780
977.000000	54.124547
976.000000	54.548036
975.000000	54.926298
974.000000	55.283608
973.000000	55.641348
972.000000	56.009155
971.000000	56.385819
970.000000	56.762848
969.000000	57.125759
968.000000	57.456435
967.000000	57.744178
966.000000	57.993683
965.000000	58.219291
964.000000	58.436464
963.000000	58.660202
962.000000	58.904239
961.000000	59.172737
960.000000	59.454352
959.000000	59.730858
958.000000	59.988473
957.000000	60.219446
956.000000	60.420214
955.000000	60.596654
954.000000	60.767577
953.000000	60.954194
952.000000	61.166636
951.000000	61.403858
950.000000	61.659850
949.000000	61.922505
948.000000	62.171696
947.000000	62.389746
946.000000	62.574554
945.000000	62.736838
944.000000	62.889417
943.000000	63.045413
942.000000	63.219904
941.000000	63.421567
940.000000	63.643110
939.000000	63.867579
938.000000	64.081338
937.000000	64.275402
936.000000	64.441065
935.000000	64.576052
934.000000	64.693218
933.000000	64.813248
932.000000	64.949576
931.000000	65.107118
930.000000	65.288331
929.000000	65.488917
928.000000	65.690878
927.000000	65.872208
926.000000	66.023965
925.000000	66.150295
924.000000	66.257473
923.000000	66.353887
922.000000	66.455994
921.000000	66.580142
920.000000	66.728277
919.000000	66.890583
918.000000	67.058963
917.000000	67.226855
916.000000	67.380830
915.000000	67.507110
914.000000	67.606384
913.000000	67.691174
912.000000	67.768277
911.000000	67.836512
910.000000	67.891615
909.000000	67.912831
908.000000	67.845108
907.000000	67.599991
906.000000	67.085909
905.000000	66.226179
904.000000	64.978545
903.000000	63.397344
902.000000	61.705954
901.000000	60.283373
900.000000	59.520605
899.000000	59.622590
898.000000	60.496388
897.000000	61.827850
896.000000	63.258257
895.000000	64.537001
894.000000	65.570626
893.000000	66.367133
892.000000	66.972366
891.000000	67.438578
890.000000	67.818788
889.000000	68.151165
888.000000	68.448552
887.000000	68.691752
886.000000	68.826873
885.000000	68.764117
884.000000	68.407533
883.000000	67.742449
882.000000	66.888357
881.000000	66.035045
880.000000	65.296426
879.000000	64.637077
878.000000	63.964891
877.000000	63.295380
876.000000	62.819839
875.000000	62.786263
874.000000	63.306925
873.000000	64.260268
872.000000	65.374825
871.000000	66.403108
870.000000	67.233055
869.000000	67.877973
868.000000	68.398183
867.000000	68.848130
866.000000	69.259815
865.000000	69.640618
864.000000	69.972807
863.000000	70.233272
862.000000	70.416274
861.000000	70.535382
860.000000	70.613558
859.000000	70.680053
858.000000	70.771037
857.000000	70.913805
856.000000	71.107295
855.000000	71.326156
854.000000	71.539031
853.000000	71.717051
852.000000	71.835096
851.000000	71.884467
850.000000	71.886498
849.000000	71.882535
848.000000	71.910180
847.000000	71.992835
846.000000	72.140452
845.000000	72.342681
844.000000	72.562064
843.000000	72.749491
842.000000	72.872183
841.000000	72.923537
840.000000	72.916123
839.000000	72.880789
838.000000	72.866208
837.000000	72.918261
836.000000	73.052654
835.000000	73.251096
834.000000	73.477197
833.000000	73.687360
832.000000	73.837099
831.000000	73.900608
830.000000	73.891935
829.000000	73.858753
828.000000	73.854537
827.000000	73.921074
826.000000	74.083590
825.000000	74.337592
824.000000	74.637126
823.000000	74.913441
822.000000	75.113311
821.000000	75.216129
820.000000	75.227823
819.000000	75.179881
818.000000	75.128816
817.000000	75.132684
816.000000	75.217204
815.000000	75.366583
814.000000	75.538212
813.000000	75.673388
812.000000	75.706014
811.000000	75.585187
810.000000	75.301066
809.000000	74.881608
808.000000	74.361134
807.000000	73.762688
806.000000	73.088910
805.000000	72.305550
804.000000	71.332313
803.000000	70.056639
802.000000	68.377976
801.000000	66.231620
800.000000	63.599025
799.000000	60.524329
798.000000	57.112752
797.000000	53.511689
796.000000	49.876314
795.000000	46.353072
794.000000	43.072653
793.000000	40.148870
792.000000	37.679424
791.000000	35.747684
790.000000	34.422110
789.000000	33.737144
788.000000	33.688190
787.000000	34.219629
786.000000	35.230662
785.000000	36.590891
784.000000	38.144516
783.000000	39.722592
782.000000	41.156550
781.000000	42.304376
780.000000	43.071951
779.000000	43.432929
778.000000	43.434286
777.000000	43.173266
776.000000	42.750516
775.000000	42.232903
774.000000	41.661171
773.000000	41.084641
772.000000	40.596340
771.000000	40.332342
770.000000	40.437561
769.000000	41.008865
768.000000	42.057116
767.000000	43.510406
766.000000	45.253347
765.000000	47.170291
764.000000	49.156807
763.000000	51.121411
762.000000	52.989181
761.000000	54.705960
760.000000	56.235983
759.000000	57.567225
758.000000	58.724386
757.000000	59.763933
756.000000	60.748542
755.000000	61.723147
754.000000	62.709443
753.000000	63.702079
752.000000	64.664579
751.000000	65.542382
750.000000	66.290137
749.000000	66.891154
748.000000	67.357443
747.000000	67.726156
746.000000	68.056011
745.000000	68.408402
744.000000	68.818998
743.000000	69.283940
742.000000	69.767731
741.000000	70.217324
740.000000	70.575400
739.000000	70.801753
738.000000	70.892642
737.000000	70.877452
736.000000	70.798704
735.000000	70.697751
734.000000	70.609671
733.000000	70.553438
732.000000	70.521993
731.000000	70.488786
730.000000	70.425153
729.000000	70.307213
728.000000	70.114772
727.000000	69.836492
726.000000	69.475149
725.000000	69.044741
724.000000	68.558021
723.000000	68.003336
722.000000	67.307938
721.000000	66.322318
720.000000	64.877315
719.000000	62.904262
718.000000	60.511332
717.000000	57.952640
716.000000	55.543098
715.000000	53.582883
714.000000	52.305040
713.000000	51.828799
712.000000	52.129778
711.000000	53.057420
710.000000	54.403481
709.000000	55.967453
708.000000	57.582637
707.000000	59.131251
706.000000	60.563644
705.000000	61.894525
704.000000	63.164452
703.000000	64.407631
702.000000	65.644644
701.000000	66.874584
700.000000	68.060064
699.000000	69.136757
698.000000	70.047987
697.000000	70.770107
696.000000	71.315628
695.000000	71.731278
694.000000	72.093851
693.000000	72.485226
692.000000	72.956985
691.000000	73.512562
690.000000	74.111213
689.000000	74.679419
688.000000	75.132088
687.000000	75.415325
686.000000	75.535389
685.000000	75.545843
684.000000	75.522333
683.000000	75.546324
682.000000	75.685024
681.000000	75.959890
680.000000	76.328113
679.000000	76.706585
678.000000	77.005617
677.000000	77.148000
676.000000	77.119078
675.000000	76.958069
674.000000	76.756586
673.000000	76.699876
672.000000	77.031223
671.000000	77.902738
670.000000	79.224416
669.000000	80.465361
668.000000	80.612484
667.000000	79.505040
666.000000	78.307439
665.000000	77.591087
664.000000	77.216622
663.000000	77.025618
662.000000	76.986814
661.000000	77.134473
660.000000	77.441671
659.000000	77.810576
658.000000	78.128892
657.000000	78.302949
656.000000	78.285615
655.000000	78.082629
654.000000	77.772069
653.000000	77.492122
652.000000	77.361278
651.000000	77.422883
650.000000	77.647443
649.000000	77.945902
648.000000	78.182100
647.000000	78.226473
646.000000	78.036594
645.000000	77.672985
644.000000	77.235666
643.000000	76.821126
642.000000	76.523307
641.000000	76.410262
640.000000	76.474466
639.000000	76.627216
638.000000	76.750106
637.000000	76.744520
636.000000	76.547747
635.000000	76.152008
634.000000	75.631704
633.000000	75.116842
632.000000	74.717851
631.000000	74.481791
630.000000	74.397529
629.000000	74.404367
628.000000	74.396636
627.000000	74.257719
626.000000	73.919902
625.000000	73.397389
624.000000	72.759962
623.000000	72.097482
622.000000	71.506316
621.000000	71.065681
620.000000	70.790166
619.000000	70.598217
618.000000	70.335287
617.000000	69.851756
616.000000	69.088495
615.000000	68.097809
614.000000	66.985684
613.000000	65.838084
612.000000	64.696883
611.000000	63.580979
610.000000	62.486754
609.000000	61.364644
608.000000	60.131518
607.000000	58.715424
606.000000	57.079194
605.000000	55.216615
604.000000	53.160722
603.000000	50.991883
602.000000	48.792112
601.000000	46.595642
600.000000	44.412466
599.000000	42.271163
598.000000	40.189537
597.000000	38.137575
596.000000	36.091833
595.000000	34.095865
594.000000	32.214521
593.000000	30.461942
592.000000	28.845983
591.000000	27.422461
590.000000	26.229508
589.000000	25.220001
588.000000	24.316017
587.000000	23.478155
586.000000	22.658912
585.000000	21.762589
584.000000	20.735812
583.000000	19.643905
582.000000	18.596779
581.000000	17.663221
580.000000	16.912522
579.000000	16.466177
578.000000	16.408830
577.000000	16.712423
576.000000	17.295999
575.000000	18.077517
574.000000	18.931603
573.000000	19.688444
572.000000	20.264135
571.000000	20.748282
570.000000	21.321131
569.000000	22.118061
568.000000	23.185799
567.000000	24.486144
566.000000	25.882017
565.000000	27.189539
564.000000	28.302482
563.000000	29.236004
562.000000	30.048924
561.000000	30.778477
560.000000	31.464145
559.000000	32.163835
558.000000	32.903558
557.000000	33.652489
556.000000	34.376938
555.000000	35.084226
554.000000	35.786083
553.000000	36.468662
552.000000	37.130190
551.000000	37.807804
550.000000	38.533949
549.000000	39.296125
548.000000	40.064906
547.000000	40.827243
546.000000	41.568923
545.000000	42.257642
544.000000	42.873229
543.000000	43.434484
542.000000	43.977485
541.000000	44.521860
540.000000	45.074240
539.000000	45.642479
538.000000	46.225895
537.000000	46.805161
536.000000	47.354418
535.000000	47.857799
534.000000	48.305195
533.000000	48.687190
532.000000	49.003880
531.000000	49.268591
530.000000	49.493849
529.000000	49.672415
528.000000	49.773512
527.000000	49.758847
526.000000	49.586625
525.000000	49.216868
524.000000	48.633027
523.000000	47.866756
522.000000	47.008219
521.000000	46.171896
520.000000	45.436179
519.000000	44.776585
518.000000	44.013112
517.000000	42.863930
516.000000	41.111672
515.000000	38.770680
514.000000	36.100604
513.000000	33.487009
512.000000	31.316278
511.000000	29.895734
510.000000	29.366910
509.000000	29.682930
508.000000	30.719220
507.000000	32.326130
506.000000	34.300197
505.000000	36.419475
504.000000	38.538978
503.000000	40.603967
502.000000	42.551738
501.000000	44.295482
500.000000	45.805455
499.000000	47.136913
498.000000	48.359059
497.000000	49.507011
496.000000	50.594091
495.000000	51.631157
494.000000	52.626513
493.000000	53.570912
492.000000	54.442156
491.000000	55.221977
490.000000	55.909378
489.000000	56.530802
488.000000	57.126006
487.000000	57.727456
486.000000	58.348861
485.000000	58.980554
484.000000	59.591259
483.000000	60.137124
482.000000	60.587713
481.000000	60.943762
480.000000	61.224519
479.000000	61.452521
478.000000	61.648016
477.000000	61.823103
476.000000	61.959803
475.000000	61.978138
474.000000	61.739539
473.000000	61.084659
472.000000	59.926959
471.000000	58.365044
470.000000	56.676972
469.000000	55.202170
468.000000	54.227037
467.000000	53.850969
466.000000	53.847968
465.000000	53.734197
464.000000	53.060723
463.000000	51.705042
462.000000	50.011694
461.000000	48.623185
460.000000	48.150932
459.000000	48.946840
458.000000	50.935711
457.000000	53.551675
456.000000	56.105893
455.000000	58.273515
454.000000	60.057055
453.000000	61.498190
452.000000	62.559020
451.000000	63.209831
450.000000	63.483020
449.000000	63.410900
448.000000	62.962734
447.000000	62.084619
446.000000	60.818633
445.000000	59.348675
444.000000	57.976287
443.000000	57.051771
442.000000	56.814096
441.000000	57.234567
440.000000	58.088984
439.000000	59.143095
438.000000	60.242857
437.000000	61.306619
436.000000	62.262868
435.000000	63.027463
434.000000	63.543403
433.000000	63.811348
432.000000	63.860296
431.000000	63.742890
430.000000	63.553944
429.000000	63.386539
428.000000	63.269053
427.000000	63.168341
426.000000	63.049440
425.000000	62.894980
424.000000	62.684963
423.000000	62.412182
422.000000	62.107108
421.000000	61.807563
420.000000	61.529161
419.000000	61.312793
418.000000	61.239334
417.000000	61.310910
416.000000	61.426908
415.000000	61.496753
414.000000	61.501153
413.000000	61.476851
412.000000	61.462295
411.000000	61.475306
410.000000	61.547913
409.000000	61.720411
408.000000	61.993602
407.000000	62.317018
406.000000	62.622328
405.000000	62.865030
404.000000	63.035820
403.000000	63.165306
402.000000	63.325956
401.000000	63.590120
400.000000	63.952465
