PE IR       SUBTECH     SPECTRUM    ASCII       PEDS        4.00        
   -1
23ms153cis.asc
24/10/17
14:55:46.00
24/10/17
14:55:46.00
Administrator
Sample 1284 By Administrator Date Thursday, October 17 2024
400.000000
#HDR
-1
-1
#GR
cm-1
%T
1.0
0.0
4000.000000
-1.000000
3601
8
91.430327
18.331690
#DATA
4000.000000	68.368624
3999.000000	68.359264
3998.000000	68.354031
3997.000000	68.351758
3996.000000	68.350534
3995.000000	68.349371
3994.000000	68.348811
3993.000000	68.349710
3992.000000	68.351762
3991.000000	68.353933
3990.000000	68.356315
3989.000000	68.360755
3988.000000	68.369354
3987.000000	68.382939
3986.000000	68.401250
3985.000000	68.423659
3984.000000	68.449147
3983.000000	68.476287
3982.000000	68.503978
3981.000000	68.532068
3980.000000	68.561238
3979.000000	68.592245
3978.000000	68.625199
3977.000000	68.659499
3976.000000	68.694353
3975.000000	68.728717
3974.000000	68.761330
3973.000000	68.791773
3972.000000	68.820894
3971.000000	68.849815
3970.000000	68.878476
3969.000000	68.906363
3968.000000	68.933373
3967.000000	68.960450
3966.000000	68.989712
3965.000000	69.023469
3964.000000	69.062747
3963.000000	69.106294
3962.000000	69.151474
3961.000000	69.196697
3960.000000	69.242398
3959.000000	69.289210
3958.000000	69.336069
3957.000000	69.382085
3956.000000	69.427294
3955.000000	69.471896
3954.000000	69.515637
3953.000000	69.557419
3952.000000	69.596495
3951.000000	69.632695
3950.000000	69.667306
3949.000000	69.702152
3948.000000	69.737347
3947.000000	69.772854
3946.000000	69.809487
3945.000000	69.846019
3944.000000	69.877865
3943.000000	69.901738
3942.000000	69.921667
3941.000000	69.945695
3940.000000	69.977469
3939.000000	70.014194
3938.000000	70.050149
3937.000000	70.084083
3936.000000	70.120043
3935.000000	70.160632
3934.000000	70.202949
3933.000000	70.240743
3932.000000	70.271583
3931.000000	70.296213
3930.000000	70.315043
3929.000000	70.329770
3928.000000	70.344412
3927.000000	70.362588
3926.000000	70.379965
3925.000000	70.389586
3924.000000	70.395542
3923.000000	70.408164
3922.000000	70.428434
3921.000000	70.448185
3920.000000	70.462784
3919.000000	70.476979
3918.000000	70.493303
3917.000000	70.507062
3916.000000	70.515397
3915.000000	70.522154
3914.000000	70.531302
3913.000000	70.543106
3912.000000	70.557112
3911.000000	70.577513
3910.000000	70.605257
3909.000000	70.639164
3908.000000	70.676969
3907.000000	70.714388
3906.000000	70.744639
3905.000000	70.759773
3904.000000	70.765027
3903.000000	70.777097
3902.000000	70.804528
3901.000000	70.840198
3900.000000	70.869664
3899.000000	70.889070
3898.000000	70.909541
3897.000000	70.939844
3896.000000	70.978322
3895.000000	71.021739
3894.000000	71.066711
3893.000000	71.112198
3892.000000	71.151828
3891.000000	71.179580
3890.000000	71.200128
3889.000000	71.230478
3888.000000	71.282639
3887.000000	71.343974
3886.000000	71.389193
3885.000000	71.415781
3884.000000	71.441678
3883.000000	71.475264
3882.000000	71.505039
3881.000000	71.516602
3880.000000	71.513676
3879.000000	71.513405
3878.000000	71.527518
3877.000000	71.556932
3876.000000	71.589255
3875.000000	71.604027
3874.000000	71.597650
3873.000000	71.595975
3872.000000	71.623788
3871.000000	71.666396
3870.000000	71.690968
3869.000000	71.700482
3868.000000	71.721185
3867.000000	71.761522
3866.000000	71.798348
3865.000000	71.809591
3864.000000	71.808755
3863.000000	71.819100
3862.000000	71.840608
3861.000000	71.871773
3860.000000	71.912793
3859.000000	71.963881
3858.000000	72.025410
3857.000000	72.098467
3856.000000	72.170342
3855.000000	72.196662
3854.000000	72.170503
3853.000000	72.158892
3852.000000	72.184964
3851.000000	72.208169
3850.000000	72.208569
3849.000000	72.199626
3848.000000	72.200091
3847.000000	72.221103
3846.000000	72.258145
3845.000000	72.302119
3844.000000	72.345133
3843.000000	72.380122
3842.000000	72.410293
3841.000000	72.447168
3840.000000	72.482524
3839.000000	72.505909
3838.000000	72.524071
3837.000000	72.545221
3836.000000	72.565954
3835.000000	72.581374
3834.000000	72.597531
3833.000000	72.618858
3832.000000	72.638855
3831.000000	72.656372
3830.000000	72.678938
3829.000000	72.711792
3828.000000	72.750715
3827.000000	72.783949
3826.000000	72.804895
3825.000000	72.828896
3824.000000	72.872951
3823.000000	72.929510
3822.000000	72.970210
3821.000000	72.983233
3820.000000	72.990148
3819.000000	73.015753
3818.000000	73.063035
3817.000000	73.104331
3816.000000	73.116776
3815.000000	73.118279
3814.000000	73.136291
3813.000000	73.164929
3812.000000	73.183214
3811.000000	73.191631
3810.000000	73.210694
3809.000000	73.251866
3808.000000	73.301447
3807.000000	73.338997
3806.000000	73.365699
3805.000000	73.401041
3804.000000	73.453273
3803.000000	73.507362
3802.000000	73.531284
3801.000000	73.528115
3800.000000	73.530380
3799.000000	73.547626
3798.000000	73.568435
3797.000000	73.579029
3796.000000	73.582523
3795.000000	73.594346
3794.000000	73.622830
3793.000000	73.657376
3792.000000	73.686022
3791.000000	73.710557
3790.000000	73.737115
3789.000000	73.764972
3788.000000	73.791342
3787.000000	73.817476
3786.000000	73.845564
3785.000000	73.872196
3784.000000	73.893760
3783.000000	73.916113
3782.000000	73.944570
3781.000000	73.972277
3780.000000	73.987739
3779.000000	73.994527
3778.000000	74.006837
3777.000000	74.032659
3776.000000	74.064727
3775.000000	74.092764
3774.000000	74.117643
3773.000000	74.149200
3772.000000	74.189630
3771.000000	74.227830
3770.000000	74.257119
3769.000000	74.285390
3768.000000	74.320792
3767.000000	74.363965
3766.000000	74.407296
3765.000000	74.440478
3764.000000	74.467459
3763.000000	74.503949
3762.000000	74.552882
3761.000000	74.598019
3760.000000	74.629407
3759.000000	74.663963
3758.000000	74.710135
3757.000000	74.757772
3756.000000	74.804720
3755.000000	74.859354
3754.000000	74.922109
3753.000000	74.974009
3752.000000	75.009122
3751.000000	75.055429
3750.000000	75.120618
3749.000000	75.172935
3748.000000	75.202344
3747.000000	75.240530
3746.000000	75.295716
3745.000000	75.336105
3744.000000	75.364975
3743.000000	75.407322
3742.000000	75.453387
3741.000000	75.486588
3740.000000	75.507794
3739.000000	75.540630
3738.000000	75.599262
3737.000000	75.664608
3736.000000	75.711498
3735.000000	75.736269
3734.000000	75.758690
3733.000000	75.787938
3732.000000	75.814419
3731.000000	75.830572
3730.000000	75.841056
3729.000000	75.859572
3728.000000	75.888677
3727.000000	75.913420
3726.000000	75.928854
3725.000000	75.945678
3724.000000	75.967464
3723.000000	75.983019
3722.000000	75.988515
3721.000000	75.995979
3720.000000	76.015191
3719.000000	76.049937
3718.000000	76.091093
3717.000000	76.130679
3716.000000	76.175406
3715.000000	76.231262
3714.000000	76.293151
3713.000000	76.348274
3712.000000	76.394728
3711.000000	76.441512
3710.000000	76.491325
3709.000000	76.542648
3708.000000	76.590935
3707.000000	76.631496
3706.000000	76.667628
3705.000000	76.705874
3704.000000	76.746815
3703.000000	76.784027
3702.000000	76.815619
3701.000000	76.847584
3700.000000	76.881954
3699.000000	76.918836
3698.000000	76.956850
3697.000000	76.990896
3696.000000	77.022694
3695.000000	77.060319
3694.000000	77.105253
3693.000000	77.150055
3692.000000	77.185666
3691.000000	77.210010
3690.000000	77.233406
3689.000000	77.273278
3688.000000	77.328364
3687.000000	77.374709
3686.000000	77.400213
3685.000000	77.412307
3684.000000	77.420088
3683.000000	77.435016
3682.000000	77.469188
3681.000000	77.518079
3680.000000	77.564043
3679.000000	77.599478
3678.000000	77.642214
3677.000000	77.695542
3676.000000	77.740011
3675.000000	77.774726
3674.000000	77.805393
3673.000000	77.836024
3672.000000	77.870645
3671.000000	77.895888
3670.000000	77.906450
3669.000000	77.924217
3668.000000	77.956665
3667.000000	77.988060
3666.000000	78.008863
3665.000000	78.023140
3664.000000	78.040044
3663.000000	78.067764
3662.000000	78.102552
3661.000000	78.133749
3660.000000	78.162039
3659.000000	78.195235
3658.000000	78.238037
3657.000000	78.283225
3656.000000	78.325831
3655.000000	78.367844
3654.000000	78.410669
3653.000000	78.454832
3652.000000	78.494999
3651.000000	78.521608
3650.000000	78.545671
3649.000000	78.593576
3648.000000	78.662298
3647.000000	78.723206
3646.000000	78.760707
3645.000000	78.783423
3644.000000	78.806330
3643.000000	78.836469
3642.000000	78.869512
3641.000000	78.904212
3640.000000	78.944951
3639.000000	78.989429
3638.000000	79.030992
3637.000000	79.069672
3636.000000	79.115132
3635.000000	79.167033
3634.000000	79.211392
3633.000000	79.241988
3632.000000	79.268863
3631.000000	79.298798
3630.000000	79.319094
3629.000000	79.330795
3628.000000	79.355458
3627.000000	79.386934
3626.000000	79.398851
3625.000000	79.384287
3624.000000	79.355298
3623.000000	79.327385
3622.000000	79.307225
3621.000000	79.285658
3620.000000	79.251125
3619.000000	79.208573
3618.000000	79.168583
3617.000000	79.132278
3616.000000	79.097210
3615.000000	79.057013
3614.000000	79.004858
3613.000000	78.944997
3612.000000	78.890158
3611.000000	78.846051
3610.000000	78.806819
3609.000000	78.762923
3608.000000	78.709192
3607.000000	78.646565
3606.000000	78.576510
3605.000000	78.501212
3604.000000	78.424283
3603.000000	78.348859
3602.000000	78.279810
3601.000000	78.221380
3600.000000	78.174915
3599.000000	78.136892
3598.000000	78.099606
3597.000000	78.057079
3596.000000	78.011192
3595.000000	77.961759
3594.000000	77.908372
3593.000000	77.853583
3592.000000	77.800113
3591.000000	77.752304
3590.000000	77.715475
3589.000000	77.692790
3588.000000	77.685674
3587.000000	77.694080
3586.000000	77.711104
3585.000000	77.725328
3584.000000	77.727400
3583.000000	77.714731
3582.000000	77.691595
3581.000000	77.664360
3580.000000	77.636730
3579.000000	77.607607
3578.000000	77.575844
3577.000000	77.542727
3576.000000	77.510117
3575.000000	77.477932
3574.000000	77.444058
3573.000000	77.407945
3572.000000	77.368351
3571.000000	77.323835
3570.000000	77.274549
3569.000000	77.219851
3568.000000	77.157845
3567.000000	77.089431
3566.000000	77.016669
3565.000000	76.938192
3564.000000	76.852207
3563.000000	76.758874
3562.000000	76.660051
3561.000000	76.558105
3560.000000	76.453596
3559.000000	76.345098
3558.000000	76.231051
3557.000000	76.111840
3556.000000	75.988523
3555.000000	75.861457
3554.000000	75.729524
3553.000000	75.592558
3552.000000	75.452546
3551.000000	75.310346
3550.000000	75.163845
3549.000000	75.009668
3548.000000	74.845544
3547.000000	74.671652
3546.000000	74.488858
3545.000000	74.297734
3544.000000	74.098693
3543.000000	73.891772
3542.000000	73.676505
3541.000000	73.453178
3540.000000	73.222115
3539.000000	72.982222
3538.000000	72.730951
3537.000000	72.466580
3536.000000	72.189545
3535.000000	71.899419
3534.000000	71.595394
3533.000000	71.277339
3532.000000	70.946032
3531.000000	70.600567
3530.000000	70.238010
3529.000000	69.857018
3528.000000	69.459420
3527.000000	69.047579
3526.000000	68.620960
3525.000000	68.176759
3524.000000	67.712608
3523.000000	67.227883
3522.000000	66.723466
3521.000000	66.201592
3520.000000	65.664040
3519.000000	65.110096
3518.000000	64.538102
3517.000000	63.948898
3516.000000	63.345413
3515.000000	62.728279
3514.000000	62.096250
3513.000000	61.448750
3512.000000	60.784502
3511.000000	60.099667
3510.000000	59.392663
3509.000000	58.670035
3508.000000	57.941876
3507.000000	57.210317
3506.000000	56.466665
3505.000000	55.701714
3504.000000	54.916137
3503.000000	54.119111
3502.000000	53.319953
3501.000000	52.523404
3500.000000	51.728966
3499.000000	50.931695
3498.000000	50.126125
3497.000000	49.312062
3496.000000	48.495152
3495.000000	47.681152
3494.000000	46.873161
3493.000000	46.074427
3492.000000	45.288239
3491.000000	44.514092
3490.000000	43.748998
3489.000000	42.994031
3488.000000	42.256246
3487.000000	41.542866
3486.000000	40.856122
3485.000000	40.193501
3484.000000	39.548684
3483.000000	38.913402
3482.000000	38.284544
3481.000000	37.669563
3480.000000	37.079661
3479.000000	36.516418
3478.000000	35.970060
3477.000000	35.430315
3476.000000	34.893173
3475.000000	34.358132
3474.000000	33.825083
3473.000000	33.296405
3472.000000	32.777816
3471.000000	32.275902
3470.000000	31.799506
3469.000000	31.361977
3468.000000	30.976397
3467.000000	30.648123
3466.000000	30.375469
3465.000000	30.157448
3464.000000	29.995223
3463.000000	29.888634
3462.000000	29.838592
3461.000000	29.850664
3460.000000	29.930473
3459.000000	30.074144
3458.000000	30.268459
3457.000000	30.500665
3456.000000	30.761351
3455.000000	31.039610
3454.000000	31.321975
3453.000000	31.595456
3452.000000	31.848091
3451.000000	32.066500
3450.000000	32.236541
3449.000000	32.347779
3448.000000	32.393976
3447.000000	32.370825
3446.000000	32.278641
3445.000000	32.123547
3444.000000	31.913070
3443.000000	31.652505
3442.000000	31.347586
3441.000000	31.010690
3440.000000	30.658466
3439.000000	30.305235
3438.000000	29.964061
3437.000000	29.650823
3436.000000	29.380946
3435.000000	29.161823
3434.000000	28.992486
3433.000000	28.870246
3432.000000	28.796452
3431.000000	28.775617
3430.000000	28.814450
3429.000000	28.921656
3428.000000	29.102453
3427.000000	29.356874
3426.000000	29.683199
3425.000000	30.082335
3424.000000	30.556578
3423.000000	31.103054
3422.000000	31.716349
3421.000000	32.392849
3420.000000	33.128517
3419.000000	33.915355
3418.000000	34.741535
3417.000000	35.597057
3416.000000	36.474678
3415.000000	37.367203
3414.000000	38.268590
3413.000000	39.174489
3412.000000	40.079393
3411.000000	40.974884
3410.000000	41.853502
3409.000000	42.712607
3408.000000	43.550943
3407.000000	44.363054
3406.000000	45.141468
3405.000000	45.883205
3404.000000	46.590774
3403.000000	47.269502
3402.000000	47.926649
3401.000000	48.570108
3400.000000	49.202954
3399.000000	49.818805
3398.000000	50.407749
3397.000000	50.966139
3396.000000	51.497038
3395.000000	52.004678
3394.000000	52.492702
3393.000000	52.967355
3392.000000	53.436106
3391.000000	53.901310
3390.000000	54.359722
3389.000000	54.807619
3388.000000	55.243975
3387.000000	55.669104
3386.000000	56.083703
3385.000000	56.490164
3384.000000	56.891208
3383.000000	57.287213
3382.000000	57.677363
3381.000000	58.062602
3380.000000	58.445217
3379.000000	58.825915
3378.000000	59.204271
3377.000000	59.581186
3376.000000	59.957347
3375.000000	60.330218
3374.000000	60.695735
3373.000000	61.053132
3372.000000	61.405540
3371.000000	61.756074
3370.000000	62.106092
3369.000000	62.456335
3368.000000	62.806679
3367.000000	63.154944
3366.000000	63.498289
3365.000000	63.835909
3364.000000	64.168752
3363.000000	64.497475
3362.000000	64.822623
3361.000000	65.145499
3360.000000	65.466611
3359.000000	65.783836
3358.000000	66.094374
3357.000000	66.397925
3356.000000	66.695641
3355.000000	66.987492
3354.000000	67.273295
3353.000000	67.555592
3352.000000	67.838542
3351.000000	68.123453
3350.000000	68.407523
3349.000000	68.686874
3348.000000	68.958789
3347.000000	69.221945
3346.000000	69.476905
3345.000000	69.726485
3344.000000	69.973546
3343.000000	70.217682
3342.000000	70.456360
3341.000000	70.689033
3340.000000	70.918114
3339.000000	71.145666
3338.000000	71.370576
3337.000000	71.589699
3336.000000	71.799913
3335.000000	71.998919
3334.000000	72.185729
3333.000000	72.360508
3332.000000	72.523675
3331.000000	72.674389
3330.000000	72.810814
3329.000000	72.932016
3328.000000	73.037697
3327.000000	73.126840
3326.000000	73.196797
3325.000000	73.243670
3324.000000	73.263727
3323.000000	73.253129
3322.000000	73.209062
3321.000000	73.130107
3320.000000	73.014161
3319.000000	72.857797
3318.000000	72.655805
3317.000000	72.402949
3316.000000	72.093555
3315.000000	71.719355
3314.000000	71.272016
3313.000000	70.743712
3312.000000	70.126948
3311.000000	69.414182
3310.000000	68.597017
3309.000000	67.671401
3308.000000	66.635193
3307.000000	65.485424
3306.000000	64.218717
3305.000000	62.829106
3304.000000	61.311136
3303.000000	59.657977
3302.000000	57.865324
3301.000000	55.937234
3300.000000	53.883378
3299.000000	51.720734
3298.000000	49.477687
3297.000000	47.197491
3296.000000	44.933382
3295.000000	42.737955
3294.000000	40.658983
3293.000000	38.739988
3292.000000	37.012696
3291.000000	35.484283
3290.000000	34.140321
3289.000000	32.951957
3288.000000	31.883480
3287.000000	30.898131
3286.000000	29.962902
3285.000000	29.059334
3284.000000	28.181183
3283.000000	27.330704
3282.000000	26.521593
3281.000000	25.778211
3280.000000	25.130668
3279.000000	24.605177
3278.000000	24.223800
3277.000000	24.008547
3276.000000	23.972733
3275.000000	24.114725
3274.000000	24.418615
3273.000000	24.857904
3272.000000	25.396945
3271.000000	25.986405
3270.000000	26.568975
3269.000000	27.088921
3268.000000	27.495973
3267.000000	27.748562
3266.000000	27.822601
3265.000000	27.716263
3264.000000	27.446268
3263.000000	27.043139
3262.000000	26.547479
3261.000000	26.010287
3260.000000	25.483670
3259.000000	25.010733
3258.000000	24.626507
3257.000000	24.360458
3256.000000	24.231195
3255.000000	24.241573
3254.000000	24.382636
3253.000000	24.638038
3252.000000	24.986627
3251.000000	25.399794
3250.000000	25.847082
3249.000000	26.304011
3248.000000	26.749123
3247.000000	27.161553
3246.000000	27.523332
3245.000000	27.823810
3244.000000	28.058741
3243.000000	28.228134
3242.000000	28.336958
3241.000000	28.396455
3240.000000	28.419622
3239.000000	28.414944
3238.000000	28.389217
3237.000000	28.349956
3236.000000	28.304073
3235.000000	28.256939
3234.000000	28.213547
3233.000000	28.178115
3232.000000	28.147282
3231.000000	28.108150
3230.000000	28.047178
3229.000000	27.957120
3228.000000	27.834331
3227.000000	27.673391
3226.000000	27.469432
3225.000000	27.222633
3224.000000	26.934835
3223.000000	26.606907
3222.000000	26.242238
3221.000000	25.850349
3220.000000	25.443420
3219.000000	25.030243
3218.000000	24.617611
3217.000000	24.212150
3216.000000	23.816717
3215.000000	23.428524
3214.000000	23.044098
3213.000000	22.663267
3212.000000	22.285143
3211.000000	21.905189
3210.000000	21.520543
3209.000000	21.134938
3208.000000	20.754539
3207.000000	20.383106
3206.000000	20.025217
3205.000000	19.688924
3204.000000	19.381801
3203.000000	19.107151
3202.000000	18.867849
3201.000000	18.670153
3200.000000	18.518138
3199.000000	18.410994
3198.000000	18.347920
3197.000000	18.331690
3196.000000	18.364564
3195.000000	18.442598
3194.000000	18.561222
3193.000000	18.719380
3192.000000	18.914714
3191.000000	19.141512
3190.000000	19.394365
3189.000000	19.672200
3188.000000	19.973686
3187.000000	20.292846
3186.000000	20.624521
3185.000000	20.967834
3184.000000	21.321911
3183.000000	21.682132
3182.000000	22.044184
3181.000000	22.408003
3180.000000	22.773314
3179.000000	23.136236
3178.000000	23.493452
3177.000000	23.845451
3176.000000	24.192219
3175.000000	24.530077
3174.000000	24.856122
3173.000000	25.171440
3172.000000	25.477057
3171.000000	25.770431
3170.000000	26.049962
3169.000000	26.318373
3168.000000	26.578050
3167.000000	26.827702
3166.000000	27.065860
3165.000000	27.294057
3164.000000	27.512849
3163.000000	27.718550
3162.000000	27.908013
3161.000000	28.081786
3160.000000	28.240483
3159.000000	28.382027
3158.000000	28.505263
3157.000000	28.613488
3156.000000	28.710682
3155.000000	28.798855
3154.000000	28.881904
3153.000000	28.967175
3152.000000	29.060026
3151.000000	29.160026
3150.000000	29.265743
3149.000000	29.379262
3148.000000	29.502932
3147.000000	29.635709
3146.000000	29.776231
3145.000000	29.925579
3144.000000	30.083625
3143.000000	30.246731
3142.000000	30.411707
3141.000000	30.578637
3140.000000	30.746634
3139.000000	30.910656
3138.000000	31.065756
3137.000000	31.210743
3136.000000	31.344397
3135.000000	31.461346
3134.000000	31.555395
3133.000000	31.622233
3132.000000	31.656852
3131.000000	31.650955
3130.000000	31.595584
3129.000000	31.485524
3128.000000	31.317503
3127.000000	31.090691
3126.000000	30.811075
3125.000000	30.491474
3124.000000	30.146740
3123.000000	29.789810
3122.000000	29.434517
3121.000000	29.095703
3120.000000	28.782299
3119.000000	28.494328
3118.000000	28.229043
3117.000000	27.986016
3116.000000	27.763423
3115.000000	27.555062
3114.000000	27.354413
3113.000000	27.158595
3112.000000	26.965658
3111.000000	26.772663
3110.000000	26.580165
3109.000000	26.393451
3108.000000	26.216941
3107.000000	26.051459
3106.000000	25.899114
3105.000000	25.766975
3104.000000	25.661750
3103.000000	25.586382
3102.000000	25.544904
3101.000000	25.544644
3100.000000	25.591969
3099.000000	25.687747
3098.000000	25.831335
3097.000000	26.024631
3096.000000	26.267145
3095.000000	26.554426
3094.000000	26.882107
3093.000000	27.248732
3092.000000	27.652176
3091.000000	28.085715
3090.000000	28.542549
3089.000000	29.017981
3088.000000	29.505980
3087.000000	29.998898
3086.000000	30.492301
3085.000000	30.986855
3084.000000	31.481852
3083.000000	31.971854
3082.000000	32.452376
3081.000000	32.924253
3080.000000	33.389606
3079.000000	33.847313
3078.000000	34.295321
3077.000000	34.732919
3076.000000	35.158504
3075.000000	35.568633
3074.000000	35.962240
3073.000000	36.342445
3072.000000	36.711498
3071.000000	37.068312
3070.000000	37.412514
3069.000000	37.747188
3068.000000	38.074941
3067.000000	38.394111
3066.000000	38.702255
3065.000000	38.999894
3064.000000	39.288488
3063.000000	39.568076
3062.000000	39.838789
3061.000000	40.102536
3060.000000	40.360632
3059.000000	40.612414
3058.000000	40.858288
3057.000000	41.100679
3056.000000	41.340511
3055.000000	41.575361
3054.000000	41.803230
3053.000000	42.025639
3052.000000	42.244982
3051.000000	42.461815
3050.000000	42.676115
3049.000000	42.888442
3048.000000	43.098271
3047.000000	43.303694
3046.000000	43.504620
3045.000000	43.703542
3044.000000	43.901877
3043.000000	44.098543
3042.000000	44.293034
3041.000000	44.486657
3040.000000	44.679127
3039.000000	44.867438
3038.000000	45.050254
3037.000000	45.230387
3036.000000	45.411436
3035.000000	45.594517
3034.000000	45.779410
3033.000000	45.965783
3032.000000	46.151659
3031.000000	46.334087
3030.000000	46.512987
3029.000000	46.691202
3028.000000	46.869725
3027.000000	47.046304
3026.000000	47.219828
3025.000000	47.392186
3024.000000	47.563732
3023.000000	47.730742
3022.000000	47.889351
3021.000000	48.038365
3020.000000	48.176248
3019.000000	48.297765
3018.000000	48.396564
3017.000000	48.468670
3016.000000	48.512138
3015.000000	48.527346
3014.000000	48.520485
3013.000000	48.505879
3012.000000	48.502164
3011.000000	48.526993
3010.000000	48.594318
3009.000000	48.711471
3008.000000	48.875173
3007.000000	49.071671
3006.000000	49.282398
3005.000000	49.488157
3004.000000	49.667787
3003.000000	49.796468
3002.000000	49.848541
3001.000000	49.801333
3000.000000	49.640730
2999.000000	49.370769
2998.000000	49.025461
2997.000000	48.670096
2996.000000	48.385414
2995.000000	48.243418
2994.000000	48.285027
2993.000000	48.507928
2992.000000	48.867235
2991.000000	49.295520
2990.000000	49.730903
2989.000000	50.134367
2988.000000	50.489258
2987.000000	50.792374
2986.000000	51.048537
2985.000000	51.265695
2984.000000	51.449704
2983.000000	51.601889
2982.000000	51.722485
2981.000000	51.811936
2980.000000	51.867582
2979.000000	51.882150
2978.000000	51.848305
2977.000000	51.765342
2976.000000	51.640449
2975.000000	51.488775
2974.000000	51.333300
2973.000000	51.200725
2972.000000	51.112326
2971.000000	51.075261
2970.000000	51.079703
2969.000000	51.098501
2968.000000	51.088943
2967.000000	51.004103
2966.000000	50.813358
2965.000000	50.518346
2964.000000	50.152263
2963.000000	49.766268
2962.000000	49.413842
2961.000000	49.137158
2960.000000	48.959715
2959.000000	48.887994
2958.000000	48.920724
2957.000000	49.052421
2956.000000	49.269144
2955.000000	49.546891
2954.000000	49.856588
2953.000000	50.168805
2952.000000	50.452339
2951.000000	50.677908
2950.000000	50.828631
2949.000000	50.908403
2948.000000	50.937163
2947.000000	50.936150
2946.000000	50.911339
2945.000000	50.837745
2944.000000	50.657748
2943.000000	50.307678
2942.000000	49.771260
2941.000000	49.121975
2940.000000	48.516808
2939.000000	48.135784
2938.000000	48.100933
2937.000000	48.425587
2936.000000	49.018877
2935.000000	49.740810
2934.000000	50.466705
2933.000000	51.122550
2932.000000	51.682333
2931.000000	52.149821
2930.000000	52.543167
2929.000000	52.882857
2928.000000	53.184505
2927.000000	53.456731
2926.000000	53.705571
2925.000000	53.936543
2924.000000	54.152441
2923.000000	54.353098
2922.000000	54.539238
2921.000000	54.713732
2920.000000	54.877814
2919.000000	55.030033
2918.000000	55.169397
2917.000000	55.296957
2916.000000	55.413258
2915.000000	55.517252
2914.000000	55.608809
2913.000000	55.689338
2912.000000	55.759157
2911.000000	55.817206
2910.000000	55.863631
2909.000000	55.899325
2908.000000	55.921687
2907.000000	55.922441
2906.000000	55.890530
2905.000000	55.813570
2904.000000	55.676266
2903.000000	55.462986
2902.000000	55.165581
2901.000000	54.789824
2900.000000	54.356979
2899.000000	53.903926
2898.000000	53.480869
2897.000000	53.142047
2896.000000	52.928592
2895.000000	52.856775
2894.000000	52.919624
2893.000000	53.093683
2892.000000	53.345802
2891.000000	53.640375
2890.000000	53.948521
2889.000000	54.251540
2888.000000	54.537864
2887.000000	54.799933
2886.000000	55.034318
2885.000000	55.241561
2884.000000	55.422322
2883.000000	55.576416
2882.000000	55.705721
2881.000000	55.815329
2880.000000	55.910665
2879.000000	55.995666
2878.000000	56.074428
2877.000000	56.151429
2876.000000	56.228662
2875.000000	56.304526
2874.000000	56.376868
2873.000000	56.444936
2872.000000	56.508573
2871.000000	56.569158
2870.000000	56.632325
2869.000000	56.706624
2868.000000	56.797478
2867.000000	56.904097
2866.000000	57.022398
2865.000000	57.147454
2864.000000	57.272471
2863.000000	57.389782
2862.000000	57.495358
2861.000000	57.590222
2860.000000	57.676566
2859.000000	57.755241
2858.000000	57.828065
2857.000000	57.899110
2856.000000	57.971687
2855.000000	58.046527
2854.000000	58.123924
2853.000000	58.204515
2852.000000	58.286463
2851.000000	58.364983
2850.000000	58.436545
2849.000000	58.501434
2848.000000	58.561422
2847.000000	58.617918
2846.000000	58.673667
2845.000000	58.732858
2844.000000	58.797401
2843.000000	58.865220
2842.000000	58.933812
2841.000000	59.003421
2840.000000	59.075307
2839.000000	59.149325
2838.000000	59.224904
2837.000000	59.302646
2836.000000	59.383517
2835.000000	59.467991
2834.000000	59.556765
2833.000000	59.650428
2832.000000	59.747433
2831.000000	59.844152
2830.000000	59.937888
2829.000000	60.028268
2828.000000	60.115338
2827.000000	60.198575
2826.000000	60.278512
2825.000000	60.357091
2824.000000	60.435399
2823.000000	60.512775
2822.000000	60.588817
2821.000000	60.664127
2820.000000	60.738222
2819.000000	60.808918
2818.000000	60.874778
2817.000000	60.936428
2816.000000	60.994736
2815.000000	61.049630
2814.000000	61.101543
2813.000000	61.152012
2812.000000	61.201824
2811.000000	61.250315
2810.000000	61.297154
2809.000000	61.343055
2808.000000	61.388133
2807.000000	61.431560
2806.000000	61.473589
2805.000000	61.515949
2804.000000	61.559408
2803.000000	61.602795
2802.000000	61.645140
2801.000000	61.686885
2800.000000	61.728262
2799.000000	61.768364
2798.000000	61.806621
2797.000000	61.843502
2796.000000	61.879238
2795.000000	61.913720
2794.000000	61.948092
2793.000000	61.984391
2792.000000	62.022896
2791.000000	62.061683
2790.000000	62.099163
2789.000000	62.134912
2788.000000	62.167599
2787.000000	62.194789
2786.000000	62.216110
2785.000000	62.234789
2784.000000	62.255099
2783.000000	62.280079
2782.000000	62.312170
2781.000000	62.353398
2780.000000	62.403371
2779.000000	62.458701
2778.000000	62.515592
2777.000000	62.571908
2776.000000	62.626347
2775.000000	62.677717
2774.000000	62.726174
2773.000000	62.773555
2772.000000	62.821554
2771.000000	62.870712
2770.000000	62.921377
2769.000000	62.973793
2768.000000	63.026568
2767.000000	63.076697
2766.000000	63.121908
2765.000000	63.161674
2764.000000	63.195894
2763.000000	63.224589
2762.000000	63.249308
2761.000000	63.272889
2760.000000	63.297017
2759.000000	63.321410
2758.000000	63.345710
2757.000000	63.370098
2756.000000	63.393511
2755.000000	63.413400
2754.000000	63.428333
2753.000000	63.439753
2752.000000	63.450857
2751.000000	63.465174
2750.000000	63.486167
2749.000000	63.515662
2748.000000	63.551490
2747.000000	63.588207
2746.000000	63.621003
2745.000000	63.648093
2744.000000	63.669809
2743.000000	63.687625
2742.000000	63.704213
2741.000000	63.721945
2740.000000	63.740107
2739.000000	63.755099
2738.000000	63.764373
2737.000000	63.769489
2736.000000	63.775578
2735.000000	63.789706
2734.000000	63.819305
2733.000000	63.868698
2732.000000	63.935630
2731.000000	64.012425
2730.000000	64.091120
2729.000000	64.166850
2728.000000	64.236921
2727.000000	64.299549
2726.000000	64.354527
2725.000000	64.403020
2724.000000	64.445630
2723.000000	64.482021
2722.000000	64.512585
2721.000000	64.538637
2720.000000	64.560902
2719.000000	64.579391
2718.000000	64.595205
2717.000000	64.610699
2716.000000	64.627279
2715.000000	64.644868
2714.000000	64.663797
2713.000000	64.685381
2712.000000	64.710341
2711.000000	64.738467
2710.000000	64.770061
2709.000000	64.805850
2708.000000	64.845091
2707.000000	64.885466
2706.000000	64.925099
2705.000000	64.962780
2704.000000	64.996042
2703.000000	65.021346
2702.000000	65.036810
2701.000000	65.042887
2700.000000	65.040385
2699.000000	65.029797
2698.000000	65.013081
2697.000000	64.994179
2696.000000	64.976698
2695.000000	64.962644
2694.000000	64.953334
2693.000000	64.949201
2692.000000	64.948251
2691.000000	64.946913
2690.000000	64.943367
2689.000000	64.938700
2688.000000	64.934755
2687.000000	64.932755
2686.000000	64.934352
2685.000000	64.941525
2684.000000	64.954591
2683.000000	64.972253
2682.000000	64.993977
2681.000000	65.020619
2680.000000	65.052176
2679.000000	65.086784
2678.000000	65.122549
2677.000000	65.158251
2676.000000	65.191936
2675.000000	65.220938
2674.000000	65.243942
2673.000000	65.261364
2672.000000	65.273493
2671.000000	65.280247
2670.000000	65.283351
2669.000000	65.286842
2668.000000	65.294609
2667.000000	65.308909
2666.000000	65.331338
2665.000000	65.362871
2664.000000	65.402038
2663.000000	65.444877
2662.000000	65.487176
2661.000000	65.525373
2660.000000	65.555564
2659.000000	65.574174
2658.000000	65.580528
2657.000000	65.577382
2656.000000	65.568586
2655.000000	65.557899
2654.000000	65.550100
2653.000000	65.550572
2652.000000	65.562678
2651.000000	65.586943
2650.000000	65.622774
2649.000000	65.668636
2648.000000	65.720476
2647.000000	65.772377
2646.000000	65.819927
2645.000000	65.861894
2644.000000	65.898525
2643.000000	65.930723
2642.000000	65.961326
2641.000000	65.994717
2640.000000	66.033807
2639.000000	66.078415
2638.000000	66.126644
2637.000000	66.175923
2636.000000	66.222531
2635.000000	66.262419
2634.000000	66.293783
2633.000000	66.317643
2632.000000	66.335769
2631.000000	66.349818
2630.000000	66.362241
2629.000000	66.375808
2628.000000	66.391164
2627.000000	66.406334
2626.000000	66.419192
2625.000000	66.428645
2624.000000	66.433725
2623.000000	66.433854
2622.000000	66.430634
2621.000000	66.427511
2620.000000	66.426718
2619.000000	66.428005
2618.000000	66.430216
2617.000000	66.431792
2616.000000	66.429490
2615.000000	66.418908
2614.000000	66.397697
2613.000000	66.366970
2612.000000	66.329414
2611.000000	66.288289
2610.000000	66.248557
2609.000000	66.216410
2608.000000	66.196189
2607.000000	66.188968
2606.000000	66.194187
2605.000000	66.211001
2604.000000	66.237463
2603.000000	66.270477
2602.000000	66.308016
2601.000000	66.349292
2600.000000	66.392791
2599.000000	66.435878
2598.000000	66.476669
2597.000000	66.514769
2596.000000	66.549638
2595.000000	66.580366
2594.000000	66.607631
2593.000000	66.634009
2592.000000	66.661597
2591.000000	66.690949
2590.000000	66.722398
2589.000000	66.756166
2588.000000	66.790439
2587.000000	66.821192
2586.000000	66.845049
2585.000000	66.861189
2584.000000	66.870535
2583.000000	66.875417
2582.000000	66.880711
2581.000000	66.893135
2580.000000	66.918095
2579.000000	66.957908
2578.000000	67.012510
2577.000000	67.079869
2576.000000	67.154959
2575.000000	67.230644
2574.000000	67.301105
2573.000000	67.363466
2572.000000	67.416771
2571.000000	67.461510
2570.000000	67.500640
2569.000000	67.538919
2568.000000	67.580037
2567.000000	67.625172
2566.000000	67.674153
2565.000000	67.726064
2564.000000	67.778033
2563.000000	67.825721
2562.000000	67.866091
2561.000000	67.898853
2560.000000	67.925323
2559.000000	67.947470
2558.000000	67.968557
2557.000000	67.992596
2556.000000	68.022105
2555.000000	68.057298
2554.000000	68.097415
2553.000000	68.141188
2552.000000	68.185924
2551.000000	68.228204
2550.000000	68.266378
2549.000000	68.301209
2548.000000	68.333879
2547.000000	68.365025
2546.000000	68.395858
2545.000000	68.428201
2544.000000	68.462311
2543.000000	68.496062
2542.000000	68.526744
2541.000000	68.552371
2540.000000	68.571369
2539.000000	68.582580
2538.000000	68.586489
2537.000000	68.584955
2536.000000	68.578824
2535.000000	68.567432
2534.000000	68.550284
2533.000000	68.528039
2532.000000	68.501468
2531.000000	68.470757
2530.000000	68.436849
2529.000000	68.401850
2528.000000	68.367827
2527.000000	68.336413
2526.000000	68.309638
2525.000000	68.289360
2524.000000	68.275088
2523.000000	68.263532
2522.000000	68.250647
2521.000000	68.233029
2520.000000	68.207690
2519.000000	68.172668
2518.000000	68.128637
2517.000000	68.078676
2516.000000	68.025743
2515.000000	67.971840
2514.000000	67.919351
2513.000000	67.871243
2512.000000	67.829311
2511.000000	67.793839
2510.000000	67.765313
2509.000000	67.744994
2508.000000	67.733759
2507.000000	67.731698
2506.000000	67.739885
2505.000000	67.760103
2504.000000	67.792406
2503.000000	67.834488
2502.000000	67.882944
2501.000000	67.934203
2500.000000	67.983767
2499.000000	68.026908
2498.000000	68.061069
2497.000000	68.086347
2496.000000	68.103741
2495.000000	68.114544
2494.000000	68.121418
2493.000000	68.127682
2492.000000	68.135036
2491.000000	68.142990
2490.000000	68.150926
2489.000000	68.159276
2488.000000	68.168478
2487.000000	68.178631
2486.000000	68.190483
2485.000000	68.205188
2484.000000	68.222682
2483.000000	68.241738
2482.000000	68.261566
2481.000000	68.281888
2480.000000	68.301603
2479.000000	68.319236
2478.000000	68.335150
2477.000000	68.351670
2476.000000	68.371162
2475.000000	68.395621
2474.000000	68.427686
2473.000000	68.469916
2472.000000	68.522083
2471.000000	68.580823
2470.000000	68.642158
2469.000000	68.702732
2468.000000	68.759181
2467.000000	68.808650
2466.000000	68.850834
2465.000000	68.888019
2464.000000	68.922759
2463.000000	68.956673
2462.000000	68.991280
2461.000000	69.027824
2460.000000	69.065478
2459.000000	69.101361
2458.000000	69.132383
2457.000000	69.156195
2456.000000	69.170894
2455.000000	69.175885
2454.000000	69.173844
2453.000000	69.170038
2452.000000	69.169335
2451.000000	69.174710
2450.000000	69.187978
2449.000000	69.209685
2448.000000	69.237982
2447.000000	69.269572
2446.000000	69.302269
2445.000000	69.335691
2444.000000	69.369503
2443.000000	69.403108
2442.000000	69.437069
2441.000000	69.472816
2440.000000	69.510705
2439.000000	69.549683
2438.000000	69.588891
2437.000000	69.627799
2436.000000	69.664763
2435.000000	69.697181
2434.000000	69.723456
2433.000000	69.743288
2432.000000	69.756061
2431.000000	69.761071
2430.000000	69.759027
2429.000000	69.751797
2428.000000	69.740282
2427.000000	69.723989
2426.000000	69.703112
2425.000000	69.678695
2424.000000	69.651115
2423.000000	69.620382
2422.000000	69.588364
2421.000000	69.558968
2420.000000	69.535514
2419.000000	69.519524
2418.000000	69.511837
2417.000000	69.512795
2416.000000	69.520534
2415.000000	69.531298
2414.000000	69.541879
2413.000000	69.550200
2412.000000	69.553405
2411.000000	69.547663
2410.000000	69.530584
2409.000000	69.502204
2408.000000	69.463505
2407.000000	69.415438
2406.000000	69.360452
2405.000000	69.302794
2404.000000	69.246688
2403.000000	69.195529
2402.000000	69.152876
2401.000000	69.122210
2400.000000	69.104745
2399.000000	69.098919
2398.000000	69.101826
2397.000000	69.109820
2396.000000	69.117393
2395.000000	69.118426
2394.000000	69.109364
2393.000000	69.090329
2392.000000	69.063424
2391.000000	69.032224
2390.000000	69.003364
2389.000000	68.985661
2388.000000	68.987237
2387.000000	69.013522
2386.000000	69.068131
2385.000000	69.152698
2384.000000	69.264191
2383.000000	69.395072
2382.000000	69.535428
2381.000000	69.674268
2380.000000	69.798330
2379.000000	69.893613
2378.000000	69.952355
2377.000000	69.975318
2376.000000	69.969261
2375.000000	69.942475
2374.000000	69.905157
2373.000000	69.869757
2372.000000	69.844644
2371.000000	69.830205
2370.000000	69.825331
2369.000000	69.834406
2368.000000	69.858877
2367.000000	69.891947
2366.000000	69.934639
2365.000000	69.995628
2364.000000	70.074206
2363.000000	70.169264
2362.000000	70.274438
2361.000000	70.377748
2360.000000	70.472028
2359.000000	70.539830
2358.000000	70.576258
2357.000000	70.581601
2356.000000	70.557095
2355.000000	70.516149
2354.000000	70.483647
2353.000000	70.505913
2352.000000	70.575488
2351.000000	70.632781
2350.000000	70.637301
2349.000000	70.605660
2348.000000	70.609614
2347.000000	70.664571
2346.000000	70.732711
2345.000000	70.766874
2344.000000	70.753817
2343.000000	70.727422
2342.000000	70.700038
2341.000000	70.682139
2340.000000	70.668220
2339.000000	70.657532
2338.000000	70.649674
2337.000000	70.652664
2336.000000	70.670346
2335.000000	70.701469
2334.000000	70.725142
2333.000000	70.725078
2332.000000	70.681749
2331.000000	70.592638
2330.000000	70.486804
2329.000000	70.381088
2328.000000	70.306598
2327.000000	70.258152
2326.000000	70.238950
2325.000000	70.233659
2324.000000	70.220981
2323.000000	70.189381
2322.000000	70.131011
2321.000000	70.063064
2320.000000	69.996113
2319.000000	69.946700
2318.000000	69.920202
2317.000000	69.915806
2316.000000	69.920198
2315.000000	69.910620
2314.000000	69.871773
2313.000000	69.795133
2312.000000	69.690360
2311.000000	69.565771
2310.000000	69.436463
2309.000000	69.306581
2308.000000	69.180949
2307.000000	69.056671
2306.000000	68.935217
2305.000000	68.814883
2304.000000	68.693300
2303.000000	68.565439
2302.000000	68.431900
2301.000000	68.296079
2300.000000	68.165571
2299.000000	68.044482
2298.000000	67.939651
2297.000000	67.852643
2296.000000	67.785434
2295.000000	67.733507
2294.000000	67.695733
2293.000000	67.669254
2292.000000	67.653599
2291.000000	67.647015
2290.000000	67.651520
2289.000000	67.670351
2288.000000	67.707013
2287.000000	67.763729
2286.000000	67.841272
2285.000000	67.937533
2284.000000	68.044771
2283.000000	68.153139
2282.000000	68.253628
2281.000000	68.341015
2280.000000	68.411819
2279.000000	68.466481
2278.000000	68.509141
2277.000000	68.546652
2276.000000	68.585025
2275.000000	68.628502
2274.000000	68.680970
2273.000000	68.744173
2272.000000	68.816939
2271.000000	68.896486
2270.000000	68.982155
2269.000000	69.074918
2268.000000	69.174601
2267.000000	69.279503
2266.000000	69.388686
2265.000000	69.501456
2264.000000	69.616389
2263.000000	69.731010
2262.000000	69.844074
2261.000000	69.955164
2260.000000	70.062544
2259.000000	70.164471
2258.000000	70.260263
2257.000000	70.350642
2256.000000	70.434948
2255.000000	70.511898
2254.000000	70.581426
2253.000000	70.644777
2252.000000	70.703219
2251.000000	70.758017
2250.000000	70.812341
2249.000000	70.869945
2248.000000	70.933163
2247.000000	71.001847
2246.000000	71.074881
2245.000000	71.149707
2244.000000	71.221370
2243.000000	71.283811
2242.000000	71.332987
2241.000000	71.367970
2240.000000	71.389680
2239.000000	71.400486
2238.000000	71.404728
2237.000000	71.407684
2236.000000	71.413429
2235.000000	71.424255
2234.000000	71.441450
2233.000000	71.464710
2232.000000	71.490901
2231.000000	71.515345
2230.000000	71.534699
2229.000000	71.547999
2228.000000	71.555712
2227.000000	71.559708
2226.000000	71.563877
2225.000000	71.572662
2224.000000	71.588224
2223.000000	71.609687
2222.000000	71.634697
2221.000000	71.660265
2220.000000	71.682783
2219.000000	71.699301
2218.000000	71.709562
2217.000000	71.716086
2216.000000	71.722567
2215.000000	71.733009
2214.000000	71.751487
2213.000000	71.780591
2212.000000	71.819696
2211.000000	71.865558
2210.000000	71.914210
2209.000000	71.961467
2208.000000	72.002963
2207.000000	72.035951
2206.000000	72.060975
2205.000000	72.080480
2204.000000	72.095861
2203.000000	72.107052
2202.000000	72.114029
2201.000000	72.116983
2200.000000	72.115406
2199.000000	72.108914
2198.000000	72.099096
2197.000000	72.089218
2196.000000	72.082502
2195.000000	72.081838
2194.000000	72.090521
2193.000000	72.110948
2192.000000	72.142263
2191.000000	72.180645
2190.000000	72.221855
2189.000000	72.262623
2188.000000	72.300470
2187.000000	72.334466
2186.000000	72.366423
2185.000000	72.399949
2184.000000	72.437986
2183.000000	72.481631
2182.000000	72.530429
2181.000000	72.582029
2180.000000	72.632042
2179.000000	72.675775
2178.000000	72.710364
2177.000000	72.734795
2176.000000	72.748957
2175.000000	72.754324
2174.000000	72.754810
2173.000000	72.755198
2172.000000	72.758449
2171.000000	72.765232
2170.000000	72.775131
2169.000000	72.786605
2168.000000	72.796428
2167.000000	72.801203
2166.000000	72.799815
2165.000000	72.793537
2164.000000	72.784325
2163.000000	72.774424
2162.000000	72.767015
2161.000000	72.765473
2160.000000	72.771648
2159.000000	72.785629
2158.000000	72.806624
2157.000000	72.832778
2156.000000	72.860963
2155.000000	72.888320
2154.000000	72.913856
2153.000000	72.937428
2152.000000	72.958126
2151.000000	72.975139
2150.000000	72.989557
2149.000000	73.003549
2148.000000	73.018080
2147.000000	73.032901
2146.000000	73.048054
2145.000000	73.063871
2144.000000	73.079959
2143.000000	73.095516
2142.000000	73.110447
2141.000000	73.124814
2140.000000	73.137499
2139.000000	73.146905
2138.000000	73.152614
2137.000000	73.155102
2136.000000	73.154234
2135.000000	73.149490
2134.000000	73.141479
2133.000000	73.131911
2132.000000	73.122192
2131.000000	73.113037
2130.000000	73.104846
2129.000000	73.097026
2128.000000	73.087437
2127.000000	73.074093
2126.000000	73.057238
2125.000000	73.038885
2124.000000	73.021063
2123.000000	73.006240
2122.000000	72.998767
2121.000000	73.003887
2120.000000	73.024846
2119.000000	73.061442
2118.000000	73.110453
2117.000000	73.165995
2116.000000	73.220224
2115.000000	73.265843
2114.000000	73.298804
2113.000000	73.318511
2112.000000	73.326600
2111.000000	73.326806
2110.000000	73.324822
2109.000000	73.326236
2108.000000	73.334031
2107.000000	73.348488
2106.000000	73.368585
2105.000000	73.392127
2104.000000	73.415174
2103.000000	73.433403
2102.000000	73.443866
2101.000000	73.444926
2100.000000	73.435390
2099.000000	73.415049
2098.000000	73.386341
2097.000000	73.353367
2096.000000	73.320025
2095.000000	73.289884
2094.000000	73.266561
2093.000000	73.252635
2092.000000	73.248725
2091.000000	73.254621
2090.000000	73.270605
2089.000000	73.296494
2088.000000	73.330242
2087.000000	73.369079
2086.000000	73.411027
2085.000000	73.453974
2084.000000	73.494575
2083.000000	73.529553
2082.000000	73.557212
2081.000000	73.576579
2080.000000	73.586245
2079.000000	73.585168
2078.000000	73.574400
2077.000000	73.555810
2076.000000	73.530654
2075.000000	73.500440
2074.000000	73.466971
2073.000000	73.431203
2072.000000	73.391422
2071.000000	73.345117
2070.000000	73.292191
2069.000000	73.234339
2068.000000	73.172072
2067.000000	73.104711
2066.000000	73.033100
2065.000000	72.960163
2064.000000	72.888113
2063.000000	72.816774
2062.000000	72.744763
2061.000000	72.670469
2060.000000	72.592235
2059.000000	72.509347
2058.000000	72.423245
2057.000000	72.336817
2056.000000	72.252858
2055.000000	72.174132
2054.000000	72.103768
2053.000000	72.044364
2052.000000	71.995939
2051.000000	71.956403
2050.000000	71.923737
2049.000000	71.896216
2048.000000	71.870798
2047.000000	71.844857
2046.000000	71.819385
2045.000000	71.797680
2044.000000	71.781863
2043.000000	71.773305
2042.000000	71.774957
2041.000000	71.789834
2040.000000	71.817137
2039.000000	71.853065
2038.000000	71.894810
2037.000000	71.940959
2036.000000	71.989610
2035.000000	72.039432
2034.000000	72.092055
2033.000000	72.150564
2032.000000	72.216221
2031.000000	72.288621
2030.000000	72.367362
2029.000000	72.451165
2028.000000	72.535283
2027.000000	72.614387
2026.000000	72.685530
2025.000000	72.748854
2024.000000	72.804353
2023.000000	72.852564
2022.000000	72.897571
2021.000000	72.944874
2020.000000	72.996364
2019.000000	73.050590
2018.000000	73.107481
2017.000000	73.168989
2016.000000	73.235101
2015.000000	73.303045
2014.000000	73.370635
2013.000000	73.437626
2012.000000	73.503916
2011.000000	73.569551
2010.000000	73.635858
2009.000000	73.704158
2008.000000	73.773286
2007.000000	73.841489
2006.000000	73.908025
2005.000000	73.973320
2004.000000	74.036622
2003.000000	74.097005
2002.000000	74.156258
2001.000000	74.215381
2000.000000	74.274659
1999.000000	74.332305
1998.000000	74.386213
1997.000000	74.436138
1996.000000	74.482750
1995.000000	74.524701
1994.000000	74.560142
1993.000000	74.591635
1992.000000	74.627272
1991.000000	74.674565
1990.000000	74.734836
1989.000000	74.804759
1988.000000	74.880370
1987.000000	74.958304
1986.000000	75.034184
1985.000000	75.102409
1984.000000	75.159209
1983.000000	75.205593
1982.000000	75.247191
1981.000000	75.289470
1980.000000	75.338410
1979.000000	75.397744
1978.000000	75.467933
1977.000000	75.546539
1976.000000	75.629306
1975.000000	75.709708
1974.000000	75.780178
1973.000000	75.836410
1972.000000	75.880102
1971.000000	75.916305
1970.000000	75.949137
1969.000000	75.981564
1968.000000	76.017062
1967.000000	76.058900
1966.000000	76.106577
1965.000000	76.154009
1964.000000	76.191776
1963.000000	76.211359
1962.000000	76.208514
1961.000000	76.185833
1960.000000	76.151291
1959.000000	76.114014
1958.000000	76.081774
1957.000000	76.060642
1956.000000	76.055017
1955.000000	76.066155
1954.000000	76.090093
1953.000000	76.120557
1952.000000	76.149840
1951.000000	76.173735
1950.000000	76.191983
1949.000000	76.204417
1948.000000	76.213002
1947.000000	76.224531
1946.000000	76.245378
1945.000000	76.273674
1944.000000	76.300382
1943.000000	76.320490
1942.000000	76.336798
1941.000000	76.351368
1940.000000	76.360669
1939.000000	76.360989
1938.000000	76.353859
1937.000000	76.345640
1936.000000	76.341908
1935.000000	76.343416
1934.000000	76.347751
1933.000000	76.353106
1932.000000	76.354467
1931.000000	76.349375
1930.000000	76.338905
1929.000000	76.323326
1928.000000	76.307520
1927.000000	76.297500
1926.000000	76.301427
1925.000000	76.316325
1924.000000	76.332815
1923.000000	76.352152
1922.000000	76.383240
1921.000000	76.423289
1920.000000	76.455551
1919.000000	76.466241
1918.000000	76.463667
1917.000000	76.461987
1916.000000	76.460694
1915.000000	76.454122
1914.000000	76.444506
1913.000000	76.438036
1912.000000	76.434163
1911.000000	76.429121
1910.000000	76.421938
1909.000000	76.413151
1908.000000	76.404667
1907.000000	76.395752
1906.000000	76.392963
1905.000000	76.400270
1904.000000	76.415787
1903.000000	76.441628
1902.000000	76.481419
1901.000000	76.530998
1900.000000	76.583125
1899.000000	76.633522
1898.000000	76.684851
1897.000000	76.735246
1896.000000	76.777352
1895.000000	76.813496
1894.000000	76.856065
1893.000000	76.909140
1892.000000	76.961800
1891.000000	77.002665
1890.000000	77.034297
1889.000000	77.065606
1888.000000	77.096323
1887.000000	77.122262
1886.000000	77.144856
1885.000000	77.167802
1884.000000	77.192904
1883.000000	77.224495
1882.000000	77.265760
1881.000000	77.312190
1880.000000	77.357142
1879.000000	77.396565
1878.000000	77.431489
1877.000000	77.464117
1876.000000	77.490846
1875.000000	77.511429
1874.000000	77.536775
1873.000000	77.576635
1872.000000	77.627810
1871.000000	77.678560
1870.000000	77.721482
1869.000000	77.760319
1868.000000	77.797920
1867.000000	77.830579
1866.000000	77.858297
1865.000000	77.883490
1864.000000	77.907117
1863.000000	77.934238
1862.000000	77.973592
1861.000000	78.025967
1860.000000	78.082482
1859.000000	78.136328
1858.000000	78.187725
1857.000000	78.234836
1856.000000	78.270741
1855.000000	78.293969
1854.000000	78.312873
1853.000000	78.330855
1852.000000	78.354713
1851.000000	78.386794
1850.000000	78.425253
1849.000000	78.469236
1848.000000	78.520805
1847.000000	78.580320
1846.000000	78.635276
1845.000000	78.670747
1844.000000	78.696266
1843.000000	78.727944
1842.000000	78.760670
1841.000000	78.786473
1840.000000	78.808360
1839.000000	78.832705
1838.000000	78.868347
1837.000000	78.911324
1836.000000	78.949336
1835.000000	78.980980
1834.000000	79.013697
1833.000000	79.049775
1832.000000	79.083768
1831.000000	79.102418
1830.000000	79.115276
1829.000000	79.147647
1828.000000	79.201811
1827.000000	79.259652
1826.000000	79.306279
1825.000000	79.348209
1824.000000	79.395589
1823.000000	79.441627
1822.000000	79.477356
1821.000000	79.506772
1820.000000	79.537316
1819.000000	79.567587
1818.000000	79.599445
1817.000000	79.635045
1816.000000	79.670267
1815.000000	79.700950
1814.000000	79.724585
1813.000000	79.743632
1812.000000	79.752638
1811.000000	79.748522
1810.000000	79.744342
1809.000000	79.747358
1808.000000	79.749084
1807.000000	79.745179
1806.000000	79.745565
1805.000000	79.757251
1804.000000	79.771927
1803.000000	79.783537
1802.000000	79.791134
1801.000000	79.804037
1800.000000	79.820711
1799.000000	79.834641
1798.000000	79.848106
1797.000000	79.865309
1796.000000	79.887059
1795.000000	79.916739
1794.000000	79.949828
1793.000000	79.982575
1792.000000	80.014962
1791.000000	80.043128
1790.000000	80.061960
1789.000000	80.073459
1788.000000	80.079656
1787.000000	80.081996
1786.000000	80.087172
1785.000000	80.100341
1784.000000	80.118392
1783.000000	80.140256
1782.000000	80.152840
1781.000000	80.158256
1780.000000	80.167411
1779.000000	80.185268
1778.000000	80.205786
1777.000000	80.222026
1776.000000	80.246552
1775.000000	80.292789
1774.000000	80.346836
1773.000000	80.397797
1772.000000	80.467523
1771.000000	80.549266
1770.000000	80.613979
1769.000000	80.656948
1768.000000	80.688535
1767.000000	80.721140
1766.000000	80.756922
1765.000000	80.798153
1764.000000	80.840237
1763.000000	80.870997
1762.000000	80.888668
1761.000000	80.913742
1760.000000	80.944542
1759.000000	80.970379
1758.000000	80.979219
1757.000000	80.975682
1756.000000	80.989856
1755.000000	81.025574
1754.000000	81.065758
1753.000000	81.104344
1752.000000	81.151460
1751.000000	81.212825
1750.000000	81.277323
1749.000000	81.319297
1748.000000	81.341778
1747.000000	81.364614
1746.000000	81.385940
1745.000000	81.406091
1744.000000	81.433412
1743.000000	81.475687
1742.000000	81.531796
1741.000000	81.589843
1740.000000	81.633798
1739.000000	81.666515
1738.000000	81.691675
1737.000000	81.717585
1736.000000	81.733012
1735.000000	81.709417
1734.000000	81.703581
1733.000000	81.758173
1732.000000	81.805624
1731.000000	81.816767
1730.000000	81.813770
1729.000000	81.814794
1728.000000	81.825799
1727.000000	81.836788
1726.000000	81.832706
1725.000000	81.818133
1724.000000	81.796145
1723.000000	81.775907
1722.000000	81.776613
1721.000000	81.806211
1720.000000	81.846857
1719.000000	81.867327
1718.000000	81.897250
1717.000000	81.980341
1716.000000	82.060115
1715.000000	82.082373
1714.000000	82.076827
1713.000000	82.077873
1712.000000	82.082407
1711.000000	82.087910
1710.000000	82.110409
1709.000000	82.160185
1708.000000	82.227129
1707.000000	82.282902
1706.000000	82.323836
1705.000000	82.366623
1704.000000	82.413256
1703.000000	82.475137
1702.000000	82.541249
1701.000000	82.573253
1700.000000	82.625046
1699.000000	82.711306
1698.000000	82.788930
1697.000000	82.853333
1696.000000	82.906395
1695.000000	82.976140
1694.000000	83.041057
1693.000000	83.067638
1692.000000	83.067858
1691.000000	83.067500
1690.000000	83.082464
1689.000000	83.107240
1688.000000	83.146603
1687.000000	83.210216
1686.000000	83.277520
1685.000000	83.297014
1684.000000	83.320484
1683.000000	83.382388
1682.000000	83.404303
1681.000000	83.366406
1680.000000	83.316030
1679.000000	83.302782
1678.000000	83.330761
1677.000000	83.362934
1676.000000	83.371017
1675.000000	83.380757
1674.000000	83.392774
1673.000000	83.380211
1672.000000	83.339186
1671.000000	83.287672
1670.000000	83.249377
1669.000000	83.237583
1668.000000	83.242986
1667.000000	83.254769
1666.000000	83.270593
1665.000000	83.280314
1664.000000	83.260726
1663.000000	83.226655
1662.000000	83.194609
1661.000000	83.141118
1660.000000	83.054555
1659.000000	82.951931
1658.000000	82.847464
1657.000000	82.747975
1656.000000	82.669926
1655.000000	82.558180
1654.000000	82.293754
1653.000000	81.955781
1652.000000	81.641947
1651.000000	81.269031
1650.000000	80.809012
1649.000000	80.202973
1648.000000	79.296338
1647.000000	77.999716
1646.000000	76.384050
1645.000000	74.528117
1644.000000	72.407054
1643.000000	69.945591
1642.000000	67.091013
1641.000000	63.917916
1640.000000	60.688554
1639.000000	57.699865
1638.000000	55.105927
1637.000000	52.955153
1636.000000	51.445140
1635.000000	50.864791
1634.000000	51.183979
1633.000000	52.120283
1632.000000	53.453532
1631.000000	55.062029
1630.000000	56.858331
1629.000000	58.765182
1628.000000	60.699927
1627.000000	62.551327
1626.000000	64.245683
1625.000000	65.830812
1624.000000	67.394183
1623.000000	68.914861
1622.000000	70.253015
1621.000000	71.338066
1620.000000	72.249191
1619.000000	73.091082
1618.000000	73.913368
1617.000000	74.740897
1616.000000	75.561354
1615.000000	76.275204
1614.000000	76.822570
1613.000000	77.254843
1612.000000	77.641002
1611.000000	77.986755
1610.000000	78.237192
1609.000000	78.365475
1608.000000	78.392113
1607.000000	78.318124
1606.000000	78.092638
1605.000000	77.676748
1604.000000	77.069062
1603.000000	76.249473
1602.000000	75.194242
1601.000000	73.953997
1600.000000	72.658391
1599.000000	71.438252
1598.000000	70.373112
1597.000000	69.510313
1596.000000	68.873368
1595.000000	68.431245
1594.000000	68.091497
1593.000000	67.764315
1592.000000	67.412357
1591.000000	67.019415
1590.000000	66.556838
1589.000000	66.009193
1588.000000	65.392834
1587.000000	64.712198
1586.000000	63.936182
1585.000000	63.040155
1584.000000	62.058639
1583.000000	61.029193
1582.000000	59.941976
1581.000000	58.795881
1580.000000	57.637719
1579.000000	56.461651
1578.000000	55.104177
1577.000000	53.339489
1576.000000	51.225342
1575.000000	49.175198
1574.000000	47.466615
1573.000000	46.034052
1572.000000	44.723834
1571.000000	43.467099
1570.000000	42.315545
1569.000000	41.395189
1568.000000	40.810730
1567.000000	40.576529
1566.000000	40.615287
1565.000000	40.818231
1564.000000	41.146647
1563.000000	41.622517
1562.000000	42.270060
1561.000000	43.089679
1560.000000	44.139680
1559.000000	45.508820
1558.000000	46.935111
1557.000000	48.041159
1556.000000	48.867713
1555.000000	49.597427
1554.000000	50.271111
1553.000000	50.845680
1552.000000	51.315960
1551.000000	51.750138
1550.000000	52.224802
1549.000000	52.766305
1548.000000	53.381522
1547.000000	54.100622
1546.000000	54.940863
1545.000000	55.861877
1544.000000	56.802934
1543.000000	57.739901
1542.000000	58.695476
1541.000000	59.683942
1540.000000	60.692569
1539.000000	61.651012
1538.000000	62.455236
1537.000000	63.100089
1536.000000	63.682686
1535.000000	64.299652
1534.000000	64.976419
1533.000000	65.671135
1532.000000	66.316995
1531.000000	66.904675
1530.000000	67.473133
1529.000000	68.030353
1528.000000	68.564496
1527.000000	69.082053
1526.000000	69.578665
1525.000000	70.028462
1524.000000	70.429926
1523.000000	70.812439
1522.000000	71.192750
1521.000000	71.557732
1520.000000	71.885036
1519.000000	72.177855
1518.000000	72.452523
1517.000000	72.709500
1516.000000	72.955397
1515.000000	73.207196
1514.000000	73.463733
1513.000000	73.715681
1512.000000	73.955231
1511.000000	74.192112
1510.000000	74.435110
1509.000000	74.678230
1508.000000	74.900503
1507.000000	75.138809
1506.000000	75.434287
1505.000000	75.702024
1504.000000	75.892726
1503.000000	76.060051
1502.000000	76.243823
1501.000000	76.440185
1500.000000	76.640059
1499.000000	76.845065
1498.000000	77.052959
1497.000000	77.254918
1496.000000	77.441019
1495.000000	77.615714
1494.000000	77.780671
1493.000000	77.932681
1492.000000	78.074821
1491.000000	78.222473
1490.000000	78.389621
1489.000000	78.562681
1488.000000	78.712637
1487.000000	78.839819
1486.000000	78.943251
1485.000000	78.981222
1484.000000	78.940874
1483.000000	78.828276
1482.000000	78.625281
1481.000000	78.303921
1480.000000	77.862748
1479.000000	77.284180
1478.000000	76.466420
1477.000000	75.297352
1476.000000	73.783093
1475.000000	72.018494
1474.000000	70.016353
1473.000000	67.809444
1472.000000	65.687122
1471.000000	63.998981
1470.000000	62.822963
1469.000000	62.058756
1468.000000	61.650651
1467.000000	61.634245
1466.000000	62.069929
1465.000000	62.939492
1464.000000	64.066499
1463.000000	65.168475
1462.000000	66.041674
1461.000000	66.609962
1460.000000	66.848576
1459.000000	66.706422
1458.000000	66.108065
1457.000000	65.159180
1456.000000	64.230123
1455.000000	63.581887
1454.000000	63.180961
1453.000000	62.919472
1452.000000	62.743663
1451.000000	62.644016
1450.000000	62.627659
1449.000000	62.710090
1448.000000	62.894238
1447.000000	63.153989
1446.000000	63.441659
1445.000000	63.752092
1444.000000	64.124779
1443.000000	64.592477
1442.000000	65.180444
1441.000000	65.914289
1440.000000	66.811604
1439.000000	67.871898
1438.000000	69.095402
1437.000000	70.436926
1436.000000	71.722697
1435.000000	72.747686
1434.000000	73.496898
1433.000000	74.094898
1432.000000	74.623046
1431.000000	75.088787
1430.000000	75.491229
1429.000000	75.852417
1428.000000	76.178674
1427.000000	76.468745
1426.000000	76.725059
1425.000000	76.960091
1424.000000	77.185060
1423.000000	77.393419
1422.000000	77.590389
1421.000000	77.791069
1420.000000	77.989012
1419.000000	78.163632
1418.000000	78.318207
1417.000000	78.469652
1416.000000	78.622326
1415.000000	78.770451
1414.000000	78.916272
1413.000000	79.075441
1412.000000	79.251549
1411.000000	79.426064
1410.000000	79.590591
1409.000000	79.757941
1408.000000	79.925184
1407.000000	80.077938
1406.000000	80.210077
1405.000000	80.330241
1404.000000	80.442640
1403.000000	80.529806
1402.000000	80.570407
1401.000000	80.530347
1400.000000	80.357802
1399.000000	80.045068
1398.000000	79.688170
1397.000000	79.429504
1396.000000	79.357077
1395.000000	79.466703
1394.000000	79.669487
1393.000000	79.867092
1392.000000	80.028708
1391.000000	80.190226
1390.000000	80.404976
1389.000000	80.699220
1388.000000	81.052264
1387.000000	81.414562
1386.000000	81.746751
1385.000000	82.041524
1384.000000	82.310133
1383.000000	82.556242
1382.000000	82.782197
1381.000000	82.990098
1380.000000	83.172289
1379.000000	83.311531
1378.000000	83.386649
1377.000000	83.356505
1376.000000	83.111659
1375.000000	82.442482
1374.000000	81.070096
1373.000000	78.773803
1372.000000	75.548227
1371.000000	71.720403
1370.000000	67.977789
1369.000000	65.218920
1368.000000	64.116823
1367.000000	64.657779
1366.000000	66.185631
1365.000000	67.860320
1364.000000	69.004625
1363.000000	69.236776
1362.000000	68.575229
1361.000000	67.482114
1360.000000	66.669520
1359.000000	66.747065
1358.000000	67.929139
1357.000000	69.949799
1356.000000	72.264705
1355.000000	74.383799
1354.000000	76.076297
1353.000000	77.352748
1352.000000	78.318214
1351.000000	79.076746
1350.000000	79.704887
1349.000000	80.251184
1348.000000	80.739027
1347.000000	81.176862
1346.000000	81.569246
1345.000000	81.914314
1344.000000	82.204973
1343.000000	82.438211
1342.000000	82.624530
1341.000000	82.782703
1340.000000	82.931727
1339.000000	83.090129
1338.000000	83.272353
1337.000000	83.480657
1336.000000	83.699110
1335.000000	83.897337
1334.000000	84.037101
1333.000000	84.063086
1332.000000	83.894771
1331.000000	83.442463
1330.000000	82.643310
1329.000000	81.490665
1328.000000	80.008297
1327.000000	78.201462
1326.000000	76.061391
1325.000000	73.675010
1324.000000	71.361215
1323.000000	69.621284
1322.000000	68.841906
1321.000000	69.015216
1320.000000	69.767303
1319.000000	70.651656
1318.000000	71.424049
1317.000000	72.068484
1316.000000	72.648806
1315.000000	73.208084
1314.000000	73.777441
1313.000000	74.413296
1312.000000	75.179954
1311.000000	76.095253
1310.000000	77.101260
1309.000000	78.085257
1308.000000	78.925792
1307.000000	79.537088
1306.000000	79.886820
1305.000000	79.972012
1304.000000	79.788423
1303.000000	79.321192
1302.000000	78.559771
1301.000000	77.533700
1300.000000	76.352040
1299.000000	75.216752
1298.000000	74.360476
1297.000000	73.922956
1296.000000	73.866216
1295.000000	73.995447
1294.000000	74.058670
1293.000000	73.842341
1292.000000	73.218869
1291.000000	72.150527
1290.000000	70.658246
1289.000000	68.801302
1288.000000	66.717871
1287.000000	64.689417
1286.000000	63.101906
1285.000000	62.271709
1284.000000	62.279125
1283.000000	62.964896
1282.000000	64.091572
1281.000000	65.490763
1280.000000	67.059508
1279.000000	68.651422
1278.000000	70.033073
1277.000000	70.980028
1276.000000	71.397072
1275.000000	71.346583
1274.000000	71.000410
1273.000000	70.588737
1272.000000	70.362069
1271.000000	70.533330
1270.000000	71.195600
1269.000000	72.276958
1268.000000	73.583947
1267.000000	74.906663
1266.000000	76.107337
1265.000000	77.142674
1264.000000	78.029214
1263.000000	78.797878
1262.000000	79.471723
1261.000000	80.063040
1260.000000	80.573497
1259.000000	80.998816
1258.000000	81.344186
1257.000000	81.626539
1256.000000	81.865022
1255.000000	82.076429
1254.000000	82.276483
1253.000000	82.478730
1252.000000	82.685799
1251.000000	82.889981
1250.000000	83.084016
1249.000000	83.265278
1248.000000	83.431931
1247.000000	83.582535
1246.000000	83.721935
1245.000000	83.859818
1244.000000	83.999925
1243.000000	84.137415
1242.000000	84.266310
1241.000000	84.381960
1240.000000	84.476232
1239.000000	84.538998
1238.000000	84.568744
1237.000000	84.574182
1236.000000	84.564674
1235.000000	84.546707
1234.000000	84.527170
1233.000000	84.511447
1232.000000	84.494631
1231.000000	84.460871
1230.000000	84.394223
1229.000000	84.281559
1228.000000	84.108879
1227.000000	83.862555
1226.000000	83.533989
1225.000000	83.118634
1224.000000	82.599751
1223.000000	81.945099
1222.000000	81.114913
1221.000000	80.065309
1220.000000	78.761425
1219.000000	77.191859
1218.000000	75.384969
1217.000000	73.410450
1216.000000	71.368763
1215.000000	69.385242
1214.000000	67.604857
1213.000000	66.175686
1212.000000	65.220583
1211.000000	64.803894
1210.000000	64.889281
1209.000000	65.341429
1208.000000	65.967819
1207.000000	66.566379
1206.000000	66.972111
1205.000000	67.080883
1204.000000	66.851424
1203.000000	66.296403
1202.000000	65.478795
1201.000000	64.518048
1200.000000	63.590545
1199.000000	62.900831
1198.000000	62.618694
1197.000000	62.817175
1196.000000	63.462870
1195.000000	64.445807
1194.000000	65.633224
1193.000000	66.918788
1192.000000	68.233252
1191.000000	69.537559
1190.000000	70.807104
1189.000000	72.024416
1188.000000	73.176057
1187.000000	74.247887
1186.000000	75.226169
1185.000000	76.104678
1184.000000	76.887330
1183.000000	77.582678
1182.000000	78.204123
1181.000000	78.762143
1180.000000	79.256488
1179.000000	79.679043
1178.000000	80.022111
1177.000000	80.287541
1176.000000	80.478249
1175.000000	80.592725
1174.000000	80.630101
1173.000000	80.584687
1172.000000	80.440570
1171.000000	80.163365
1170.000000	79.703732
1169.000000	79.008658
1168.000000	78.029875
1167.000000	76.756544
1166.000000	75.253173
1165.000000	73.674218
1164.000000	72.237831
1163.000000	71.167116
1162.000000	70.615180
1161.000000	70.621469
1160.000000	71.117826
1159.000000	71.959605
1158.000000	72.982181
1157.000000	74.039810
1156.000000	75.021870
1155.000000	75.854784
1154.000000	76.498394
1153.000000	76.943381
1152.000000	77.201214
1151.000000	77.292228
1150.000000	77.235107
1149.000000	77.046979
1148.000000	76.725663
1147.000000	76.242296
1146.000000	75.545010
1145.000000	74.554165
1144.000000	73.178768
1143.000000	71.329876
1142.000000	68.962486
1141.000000	66.131012
1140.000000	63.012434
1139.000000	59.880239
1138.000000	57.001828
1137.000000	54.523491
1136.000000	52.423769
1135.000000	50.575903
1134.000000	48.868962
1133.000000	47.351560
1132.000000	46.286345
1131.000000	46.036336
1130.000000	46.878636
1129.000000	48.827198
1128.000000	51.607779
1127.000000	54.757705
1126.000000	57.766188
1125.000000	60.197900
1124.000000	61.745413
1123.000000	62.227843
1122.000000	61.591222
1121.000000	59.919831
1120.000000	57.385763
1119.000000	54.221468
1118.000000	50.759355
1117.000000	47.503119
1116.000000	45.108192
1115.000000	44.174625
1114.000000	44.945188
1113.000000	47.155910
1112.000000	50.148820
1111.000000	53.110175
1110.000000	55.370267
1109.000000	56.654345
1108.000000	57.164676
1107.000000	57.419156
1106.000000	57.917846
1105.000000	58.866247
1104.000000	60.125720
1103.000000	61.341136
1102.000000	62.086907
1101.000000	62.009299
1100.000000	60.972338
1099.000000	59.198072
1098.000000	57.283459
1097.000000	55.990935
1096.000000	55.893349
1095.000000	57.105198
1094.000000	59.276700
1093.000000	61.839784
1092.000000	64.315435
1091.000000	66.451429
1090.000000	68.195361
1089.000000	69.600109
1088.000000	70.744079
1087.000000	71.699021
1086.000000	72.527388
1085.000000	73.279779
1084.000000	73.986292
1083.000000	74.662870
1082.000000	75.314915
1081.000000	75.940180
1080.000000	76.524490
1079.000000	77.038611
1078.000000	77.455396
1077.000000	77.752317
1076.000000	77.907069
1075.000000	77.895290
1074.000000	77.681995
1073.000000	77.224151
1072.000000	76.433547
1071.000000	75.160725
1070.000000	73.203057
1069.000000	70.308401
1068.000000	66.263032
1067.000000	61.036497
1066.000000	54.965695
1065.000000	48.826209
1064.000000	43.634059
1063.000000	40.187802
1062.000000	38.595770
1061.000000	38.158840
1060.000000	37.771874
1059.000000	36.632002
1058.000000	34.720552
1057.000000	32.799489
1056.000000	31.913837
1055.000000	32.718087
1054.000000	35.162576
1053.000000	38.644081
1052.000000	42.437375
1051.000000	46.032112
1050.000000	49.195620
1049.000000	51.905543
1048.000000	54.244572
1047.000000	56.313138
1046.000000	58.173092
1045.000000	59.844932
1044.000000	61.328089
1043.000000	62.626578
1042.000000	63.758284
1041.000000	64.744647
1040.000000	65.613211
1039.000000	66.386087
1038.000000	67.074835
1037.000000	67.681425
1036.000000	68.199979
1035.000000	68.628159
1034.000000	68.970032
1033.000000	69.239224
1032.000000	69.460259
1031.000000	69.661831
1030.000000	69.870929
1029.000000	70.102988
1028.000000	70.355203
1027.000000	70.606738
1026.000000	70.822561
1025.000000	70.965184
1024.000000	71.004030
1023.000000	70.923594
1022.000000	70.730940
1021.000000	70.446137
1020.000000	70.089972
1019.000000	69.665095
1018.000000	69.142218
1017.000000	68.462461
1016.000000	67.543267
1015.000000	66.314478
1014.000000	64.769313
1013.000000	63.008622
1012.000000	61.244333
1011.000000	59.730192
1010.000000	58.637332
1009.000000	57.948342
1008.000000	57.468881
1007.000000	56.977097
1006.000000	56.437968
1005.000000	56.090005
1004.000000	56.305560
1003.000000	57.312227
1002.000000	58.996512
1001.000000	60.975546
1000.000000	62.823838
999.000000	64.255084
998.000000	65.163232
997.000000	65.569111
996.000000	65.567806
995.000000	65.309678
994.000000	64.996852
993.000000	64.855340
992.000000	65.072000
991.000000	65.715544
990.000000	66.699714
989.000000	67.838621
988.000000	68.957083
987.000000	69.960199
986.000000	70.833192
985.000000	71.601681
984.000000	72.294121
983.000000	72.925441
982.000000	73.496742
981.000000	74.001171
980.000000	74.433236
979.000000	74.799224
978.000000	75.114603
977.000000	75.398209
976.000000	75.666016
975.000000	75.927653
974.000000	76.186980
973.000000	76.440066
972.000000	76.677769
971.000000	76.892107
970.000000	77.081927
969.000000	77.254371
968.000000	77.421288
967.000000	77.595859
966.000000	77.788398
965.000000	78.000178
964.000000	78.220628
963.000000	78.431007
962.000000	78.612844
961.000000	78.754316
960.000000	78.852785
959.000000	78.917741
958.000000	78.971324
957.000000	79.041762
956.000000	79.152327
955.000000	79.313746
954.000000	79.522086
953.000000	79.758235
952.000000	79.990753
951.000000	80.186628
950.000000	80.325034
949.000000	80.403720
948.000000	80.436839
947.000000	80.451218
946.000000	80.481046
945.000000	80.556342
944.000000	80.690785
943.000000	80.878311
942.000000	81.098248
941.000000	81.320986
940.000000	81.513090
939.000000	81.648315
938.000000	81.720563
937.000000	81.745444
936.000000	81.749839
935.000000	81.762339
934.000000	81.808721
933.000000	81.904814
932.000000	82.048350
931.000000	82.220471
930.000000	82.396017
929.000000	82.551611
928.000000	82.669309
927.000000	82.742797
926.000000	82.783206
925.000000	82.813330
924.000000	82.853783
923.000000	82.915916
922.000000	83.003594
921.000000	83.113062
920.000000	83.230167
919.000000	83.336332
918.000000	83.421387
917.000000	83.487183
916.000000	83.540736
915.000000	83.591630
914.000000	83.654099
913.000000	83.741070
912.000000	83.850273
911.000000	83.962894
910.000000	84.052142
909.000000	84.085507
908.000000	84.021090
907.000000	83.810435
906.000000	83.415938
905.000000	82.817154
904.000000	82.012114
903.000000	81.045651
902.000000	80.053579
901.000000	79.260219
900.000000	78.891658
899.000000	79.049738
898.000000	79.646111
897.000000	80.463462
896.000000	81.278092
895.000000	81.957119
894.000000	82.480553
893.000000	82.893943
892.000000	83.254298
891.000000	83.600335
890.000000	83.946876
889.000000	84.284167
888.000000	84.581491
887.000000	84.792501
886.000000	84.864118
885.000000	84.745252
884.000000	84.404118
883.000000	83.871274
882.000000	83.258642
881.000000	82.708627
880.000000	82.294721
879.000000	81.974342
878.000000	81.656266
877.000000	81.319192
876.000000	81.062667
875.000000	81.032607
874.000000	81.299744
873.000000	81.800388
872.000000	82.386447
871.000000	82.926673
870.000000	83.369253
869.000000	83.732376
868.000000	84.054263
867.000000	84.360200
866.000000	84.657176
865.000000	84.937947
864.000000	85.182534
863.000000	85.368900
862.000000	85.489340
861.000000	85.553959
860.000000	85.581033
859.000000	85.589132
858.000000	85.599239
857.000000	85.631901
856.000000	85.696982
855.000000	85.791159
854.000000	85.905339
853.000000	86.029139
852.000000	86.148615
851.000000	86.248886
850.000000	86.323165
849.000000	86.374248
848.000000	86.406952
847.000000	86.425430
846.000000	86.437720
845.000000	86.454782
844.000000	86.482707
843.000000	86.521955
842.000000	86.574393
841.000000	86.643904
840.000000	86.729401
839.000000	86.824201
838.000000	86.922510
837.000000	87.019107
836.000000	87.102904
835.000000	87.160338
834.000000	87.187297
833.000000	87.191107
832.000000	87.181465
831.000000	87.168831
830.000000	87.171651
829.000000	87.213261
828.000000	87.306352
827.000000	87.446165
826.000000	87.618940
825.000000	87.806304
824.000000	87.980395
823.000000	88.108966
822.000000	88.174193
821.000000	88.181228
820.000000	88.149192
819.000000	88.103823
818.000000	88.076948
817.000000	88.098105
816.000000	88.177938
815.000000	88.303131
814.000000	88.446251
813.000000	88.572091
812.000000	88.638587
811.000000	88.606919
810.000000	88.460763
809.000000	88.211176
808.000000	87.879148
807.000000	87.483746
806.000000	87.037694
805.000000	86.537614
804.000000	85.951136
803.000000	85.214686
802.000000	84.256158
801.000000	83.010756
800.000000	81.430756
799.000000	79.503925
798.000000	77.265992
797.000000	74.799216
796.000000	72.209335
795.000000	69.609172
794.000000	67.113550
793.000000	64.837985
792.000000	62.892999
791.000000	61.376005
790.000000	60.363177
789.000000	59.892084
788.000000	59.954437
787.000000	60.487819
786.000000	61.387223
785.000000	62.528628
784.000000	63.780136
783.000000	65.013250
782.000000	66.112581
781.000000	66.989709
780.000000	67.588385
779.000000	67.889885
778.000000	67.919170
777.000000	67.737110
776.000000	67.411089
775.000000	66.987665
774.000000	66.499651
773.000000	65.995685
772.000000	65.563771
771.000000	65.322566
770.000000	65.387025
769.000000	65.823082
768.000000	66.620087
767.000000	67.698878
766.000000	68.952769
765.000000	70.291807
764.000000	71.654309
763.000000	72.998935
762.000000	74.294823
761.000000	75.514286
760.000000	76.624380
759.000000	77.590166
758.000000	78.393846
757.000000	79.046928
756.000000	79.583656
755.000000	80.049165
754.000000	80.496503
753.000000	80.976871
752.000000	81.517964
751.000000	82.111054
750.000000	82.718562
749.000000	83.289159
748.000000	83.767179
747.000000	84.108601
746.000000	84.305947
745.000000	84.396249
744.000000	84.441022
743.000000	84.500308
742.000000	84.620390
741.000000	84.826321
740.000000	85.109959
739.000000	85.428419
738.000000	85.721935
737.000000	85.934664
736.000000	86.026164
735.000000	85.982095
734.000000	85.825558
733.000000	85.611123
732.000000	85.399442
731.000000	85.236271
730.000000	85.146683
729.000000	85.131017
728.000000	85.158376
727.000000	85.171467
726.000000	85.111840
725.000000	84.946149
724.000000	84.665941
723.000000	84.263350
722.000000	83.705764
721.000000	82.934224
720.000000	81.893338
719.000000	80.575582
718.000000	79.044760
717.000000	77.428589
716.000000	75.896411
715.000000	74.630681
714.000000	73.791434
713.000000	73.471880
712.000000	73.666252
711.000000	74.280476
710.000000	75.183050
709.000000	76.248224
708.000000	77.366181
707.000000	78.445182
706.000000	79.426922
705.000000	80.296954
704.000000	81.069150
703.000000	81.769732
702.000000	82.437470
701.000000	83.113519
700.000000	83.813525
699.000000	84.514854
698.000000	85.174135
697.000000	85.749639
696.000000	86.205021
695.000000	86.516727
694.000000	86.697994
693.000000	86.803876
692.000000	86.903890
691.000000	87.052984
690.000000	87.284415
689.000000	87.608052
688.000000	87.995998
687.000000	88.383859
686.000000	88.703471
685.000000	88.909609
684.000000	88.983771
683.000000	88.939537
682.000000	88.832714
681.000000	88.744973
680.000000	88.738459
679.000000	88.833260
678.000000	89.010226
677.000000	89.234825
676.000000	89.459234
675.000000	89.613008
674.000000	89.681139
673.000000	89.759210
672.000000	89.995509
671.000000	90.457959
670.000000	91.069131
669.000000	91.430327
668.000000	91.067259
667.000000	90.365751
666.000000	89.979582
665.000000	89.870048
664.000000	89.843642
663.000000	89.802602
662.000000	89.738255
661.000000	89.667663
660.000000	89.620733
659.000000	89.634648
658.000000	89.725787
657.000000	89.874051
656.000000	90.039518
655.000000	90.165208
654.000000	90.203213
653.000000	90.140326
652.000000	90.002757
651.000000	89.838894
650.000000	89.697152
649.000000	89.610766
648.000000	89.595226
647.000000	89.646797
646.000000	89.737740
645.000000	89.819900
644.000000	89.837953
643.000000	89.750954
642.000000	89.554430
641.000000	89.284209
640.000000	89.000171
639.000000	88.764817
638.000000	88.623576
637.000000	88.589514
636.000000	88.638423
635.000000	88.716418
634.000000	88.760426
633.000000	88.720836
632.000000	88.573892
631.000000	88.325734
630.000000	88.011347
629.000000	87.682524
628.000000	87.389424
627.000000	87.164475
626.000000	87.014409
625.000000	86.920163
624.000000	86.841188
623.000000	86.730973
622.000000	86.559041
621.000000	86.320885
620.000000	86.023285
619.000000	85.664301
618.000000	85.235640
617.000000	84.743312
616.000000	84.218123
615.000000	83.693915
614.000000	83.175496
613.000000	82.635642
612.000000	82.041498
611.000000	81.377149
610.000000	80.636757
609.000000	79.809088
608.000000	78.884287
607.000000	77.861153
606.000000	76.736069
605.000000	75.495066
604.000000	74.130725
603.000000	72.661089
602.000000	71.109711
601.000000	69.484198
600.000000	67.797399
599.000000	66.090584
598.000000	64.403829
597.000000	62.741470
596.000000	61.099052
595.000000	59.497948
594.000000	57.958996
593.000000	56.471144
592.000000	55.033784
591.000000	53.694360
590.000000	52.498262
589.000000	51.436787
588.000000	50.479576
587.000000	49.613885
586.000000	48.802539
585.000000	47.952681
584.000000	46.988935
583.000000	45.925584
582.000000	44.833226
581.000000	43.785351
580.000000	42.882743
579.000000	42.278400
578.000000	42.094942
577.000000	42.352926
576.000000	42.999235
575.000000	43.934080
574.000000	44.992863
573.000000	45.974369
572.000000	46.759489
571.000000	47.391413
570.000000	48.023567
569.000000	48.803537
568.000000	49.798332
567.000000	50.974834
566.000000	52.213202
565.000000	53.380292
564.000000	54.420350
563.000000	55.360279
562.000000	56.236972
561.000000	57.053441
560.000000	57.804539
559.000000	58.497535
558.000000	59.132905
557.000000	59.698491
556.000000	60.199255
555.000000	60.673039
554.000000	61.158716
553.000000	61.671803
552.000000	62.221213
551.000000	62.821566
550.000000	63.471674
549.000000	64.140090
548.000000	64.787465
547.000000	65.387722
546.000000	65.923553
545.000000	66.384916
544.000000	66.783312
543.000000	67.153625
542.000000	67.531764
541.000000	67.935208
540.000000	68.368617
539.000000	68.830360
538.000000	69.303641
537.000000	69.754443
536.000000	70.150782
535.000000	70.483691
534.000000	70.765456
533.000000	71.013082
532.000000	71.236400
531.000000	71.438901
530.000000	71.620201
529.000000	71.767700
528.000000	71.846397
527.000000	71.809531
526.000000	71.620750
525.000000	71.274562
524.000000	70.797339
523.000000	70.238047
522.000000	69.669435
521.000000	69.170752
520.000000	68.780188
519.000000	68.433776
518.000000	67.934558
517.000000	67.023339
516.000000	65.525630
515.000000	63.476089
514.000000	61.123249
513.000000	58.832402
512.000000	56.970567
511.000000	55.818707
510.000000	55.495054
509.000000	55.942704
508.000000	57.014240
507.000000	58.515494
506.000000	60.209399
505.000000	61.877954
504.000000	63.404620
503.000000	64.777243
502.000000	66.015019
501.000000	67.138549
500.000000	68.189932
499.000000	69.228887
498.000000	70.281916
497.000000	71.315586
496.000000	72.260018
495.000000	73.049831
494.000000	73.654735
493.000000	74.084565
492.000000	74.389324
491.000000	74.648414
490.000000	74.943439
489.000000	75.332308
488.000000	75.829823
487.000000	76.409383
486.000000	77.015910
485.000000	77.580207
484.000000	78.035280
483.000000	78.337936
482.000000	78.493402
481.000000	78.556354
480.000000	78.599439
479.000000	78.680196
478.000000	78.824700
477.000000	79.024022
476.000000	79.229338
475.000000	79.347382
474.000000	79.259702
473.000000	78.859853
472.000000	78.111366
471.000000	77.099998
470.000000	76.015340
469.000000	75.078894
468.000000	74.468084
467.000000	74.223466
466.000000	74.171318
465.000000	73.986865
464.000000	73.383580
463.000000	72.304796
462.000000	71.021385
461.000000	70.014611
460.000000	69.729381
459.000000	70.390081
458.000000	71.886518
457.000000	73.764257
456.000000	75.505747
455.000000	76.864402
454.000000	77.841215
453.000000	78.504169
452.000000	78.922877
451.000000	79.186372
450.000000	79.374462
449.000000	79.501847
448.000000	79.497615
447.000000	79.241784
446.000000	78.660046
445.000000	77.796464
444.000000	76.820504
443.000000	75.982308
442.000000	75.506353
441.000000	75.474514
440.000000	75.834470
439.000000	76.492181
438.000000	77.359506
437.000000	78.338633
436.000000	79.284986
435.000000	80.028740
434.000000	80.458896
433.000000	80.561558
432.000000	80.373245
431.000000	79.968285
430.000000	79.490361
429.000000	79.115687
428.000000	78.966321
427.000000	79.059877
426.000000	79.317687
425.000000	79.599377
424.000000	79.750655
423.000000	79.676155
422.000000	79.392381
421.000000	78.976862
420.000000	78.495169
419.000000	78.054090
418.000000	77.818756
417.000000	77.834773
416.000000	77.999791
415.000000	78.207710
414.000000	78.403535
413.000000	78.558165
412.000000	78.636438
411.000000	78.609215
410.000000	78.513975
409.000000	78.455245
408.000000	78.516843
407.000000	78.705416
406.000000	78.968294
405.000000	79.240636
404.000000	79.459371
403.000000	79.554398
402.000000	79.517690
401.000000	79.412754
400.000000	79.309736
