PE IR       SUBTECH     SPECTRUM    ASCII       PEDS        4.00        
   -1
23ms157-cis.asc
24/10/17
15:55:35.00
24/10/17
15:55:35.00
Administrator
Sample 1293 By Administrator Date Thursday, October 17 2024
400.000000
#HDR
-1
-1
#GR
cm-1
%T
1.0
0.0
4000.000000
-1.000000
3601
8
85.717082
7.837734
#DATA
4000.000000	60.153290
3999.000000	60.139328
3998.000000	60.130143
3997.000000	60.124301
3996.000000	60.120572
3995.000000	60.118116
3994.000000	60.116137
3993.000000	60.114325
3992.000000	60.113671
3991.000000	60.115814
3990.000000	60.120989
3989.000000	60.128123
3988.000000	60.137484
3987.000000	60.151538
3986.000000	60.172687
3985.000000	60.200785
3984.000000	60.233540
3983.000000	60.268520
3982.000000	60.304179
3981.000000	60.339912
3980.000000	60.375636
3979.000000	60.412295
3978.000000	60.452252
3977.000000	60.497113
3976.000000	60.545395
3975.000000	60.592775
3974.000000	60.635617
3973.000000	60.673601
3972.000000	60.708813
3971.000000	60.744050
3970.000000	60.780787
3969.000000	60.818621
3968.000000	60.856678
3967.000000	60.894800
3966.000000	60.933740
3965.000000	60.975229
3964.000000	61.021408
3963.000000	61.073177
3962.000000	61.129972
3961.000000	61.189221
3960.000000	61.248009
3959.000000	61.307075
3958.000000	61.368799
3957.000000	61.433018
3956.000000	61.496635
3955.000000	61.556885
3954.000000	61.613339
3953.000000	61.665592
3952.000000	61.712086
3951.000000	61.751647
3950.000000	61.784628
3949.000000	61.814060
3948.000000	61.845394
3947.000000	61.882193
3946.000000	61.923530
3945.000000	61.968093
3944.000000	62.016813
3943.000000	62.066081
3942.000000	62.107851
3941.000000	62.139123
3940.000000	62.167177
3939.000000	62.205527
3938.000000	62.258429
3937.000000	62.314401
3936.000000	62.358896
3935.000000	62.390010
3934.000000	62.420774
3933.000000	62.460566
3932.000000	62.504427
3931.000000	62.541388
3930.000000	62.566826
3929.000000	62.588257
3928.000000	62.612730
3927.000000	62.640680
3926.000000	62.671198
3925.000000	62.699736
3924.000000	62.715914
3923.000000	62.712990
3922.000000	62.698237
3921.000000	62.688174
3920.000000	62.690494
3919.000000	62.698936
3918.000000	62.708626
3917.000000	62.724747
3916.000000	62.751655
3915.000000	62.781845
3914.000000	62.810242
3913.000000	62.843000
3912.000000	62.884161
3911.000000	62.930206
3910.000000	62.973637
3909.000000	63.012641
3908.000000	63.049662
3907.000000	63.077721
3906.000000	63.082711
3905.000000	63.055905
3904.000000	63.003320
3903.000000	62.946042
3902.000000	62.907128
3901.000000	62.905126
3900.000000	62.948821
3899.000000	63.023588
3898.000000	63.103703
3897.000000	63.178937
3896.000000	63.256681
3895.000000	63.346515
3894.000000	63.441537
3893.000000	63.523230
3892.000000	63.579336
3891.000000	63.616020
3890.000000	63.638579
3889.000000	63.640933
3888.000000	63.633653
3887.000000	63.654076
3886.000000	63.722861
3885.000000	63.808575
3884.000000	63.860728
3883.000000	63.872843
3882.000000	63.881182
3881.000000	63.911604
3880.000000	63.953104
3879.000000	63.980997
3878.000000	63.987121
3877.000000	63.986946
3876.000000	64.006552
3875.000000	64.057558
3874.000000	64.112872
3873.000000	64.123069
3872.000000	64.076444
3871.000000	64.025442
3870.000000	64.028038
3869.000000	64.075986
3868.000000	64.111188
3867.000000	64.114958
3866.000000	64.135572
3865.000000	64.201220
3864.000000	64.270578
3863.000000	64.300552
3862.000000	64.304618
3861.000000	64.325314
3860.000000	64.385156
3859.000000	64.484950
3858.000000	64.617863
3857.000000	64.760310
3856.000000	64.864529
3855.000000	64.878536
3854.000000	64.797483
3853.000000	64.687472
3852.000000	64.615176
3851.000000	64.588766
3850.000000	64.599403
3849.000000	64.650396
3848.000000	64.728064
3847.000000	64.810417
3846.000000	64.887229
3845.000000	64.954193
3844.000000	65.008496
3843.000000	65.050123
3842.000000	65.075539
3841.000000	65.088341
3840.000000	65.094781
3839.000000	65.094887
3838.000000	65.092267
3837.000000	65.097463
3836.000000	65.117657
3835.000000	65.148266
3834.000000	65.182226
3833.000000	65.224445
3832.000000	65.281617
3831.000000	65.347088
3830.000000	65.408941
3829.000000	65.460726
3828.000000	65.507610
3827.000000	65.565422
3826.000000	65.631326
3825.000000	65.676399
3824.000000	65.680088
3823.000000	65.667273
3822.000000	65.686584
3821.000000	65.745097
3820.000000	65.793956
3819.000000	65.793967
3818.000000	65.766486
3817.000000	65.771437
3816.000000	65.838311
3815.000000	65.927292
3814.000000	65.987414
3813.000000	66.021206
3812.000000	66.064188
3811.000000	66.130053
3810.000000	66.196168
3809.000000	66.235196
3808.000000	66.257027
3807.000000	66.292688
3806.000000	66.339271
3805.000000	66.364744
3804.000000	66.357320
3803.000000	66.357199
3802.000000	66.399967
3801.000000	66.459587
3800.000000	66.484545
3799.000000	66.469192
3798.000000	66.458134
3797.000000	66.489873
3796.000000	66.557769
3795.000000	66.626873
3794.000000	66.681377
3793.000000	66.734285
3792.000000	66.797498
3791.000000	66.865331
3790.000000	66.925056
3789.000000	66.971397
3788.000000	67.008665
3787.000000	67.041258
3786.000000	67.071195
3785.000000	67.099564
3784.000000	67.122874
3783.000000	67.133804
3782.000000	67.134451
3781.000000	67.140032
3780.000000	67.161495
3779.000000	67.192524
3778.000000	67.218371
3777.000000	67.235072
3776.000000	67.255318
3775.000000	67.295130
3774.000000	67.350104
3773.000000	67.394334
3772.000000	67.415316
3771.000000	67.433508
3770.000000	67.465364
3769.000000	67.496405
3768.000000	67.509819
3767.000000	67.519275
3766.000000	67.557652
3765.000000	67.629578
3764.000000	67.700856
3763.000000	67.742194
3762.000000	67.766988
3761.000000	67.811389
3760.000000	67.874463
3759.000000	67.924675
3758.000000	67.955948
3757.000000	67.987860
3756.000000	68.025415
3755.000000	68.055041
3754.000000	68.077067
3753.000000	68.106463
3752.000000	68.132370
3751.000000	68.129550
3750.000000	68.120621
3749.000000	68.149999
3748.000000	68.198775
3747.000000	68.218946
3746.000000	68.219847
3745.000000	68.260988
3744.000000	68.359421
3743.000000	68.455456
3742.000000	68.497671
3741.000000	68.509715
3740.000000	68.532082
3739.000000	68.562727
3738.000000	68.589018
3737.000000	68.630020
3736.000000	68.707375
3735.000000	68.781224
3734.000000	68.805120
3733.000000	68.811367
3732.000000	68.857924
3731.000000	68.945005
3730.000000	69.025906
3729.000000	69.075729
3728.000000	69.120135
3727.000000	69.189243
3726.000000	69.270668
3725.000000	69.328484
3724.000000	69.360101
3723.000000	69.391279
3722.000000	69.433066
3721.000000	69.482496
3720.000000	69.532686
3719.000000	69.584558
3718.000000	69.646826
3717.000000	69.717049
3716.000000	69.775446
3715.000000	69.806103
3714.000000	69.821488
3713.000000	69.848295
3712.000000	69.889525
3711.000000	69.926703
3710.000000	69.958937
3709.000000	70.004465
3708.000000	70.074519
3707.000000	70.162723
3706.000000	70.254629
3705.000000	70.339492
3704.000000	70.416965
3703.000000	70.491914
3702.000000	70.563823
3701.000000	70.627897
3700.000000	70.677202
3699.000000	70.709593
3698.000000	70.742027
3697.000000	70.796244
3696.000000	70.863612
3695.000000	70.914927
3694.000000	70.942627
3693.000000	70.970844
3692.000000	71.012437
3691.000000	71.044557
3690.000000	71.042806
3689.000000	71.028770
3688.000000	71.049278
3687.000000	71.104231
3686.000000	71.158709
3685.000000	71.203820
3684.000000	71.253488
3683.000000	71.310456
3682.000000	71.365813
3681.000000	71.418272
3680.000000	71.474467
3679.000000	71.509928
3678.000000	71.490368
3677.000000	71.443134
3676.000000	71.439175
3675.000000	71.491690
3674.000000	71.530045
3673.000000	71.502792
3672.000000	71.453408
3671.000000	71.474744
3670.000000	71.582664
3669.000000	71.700816
3668.000000	71.780224
3667.000000	71.835245
3666.000000	71.890021
3665.000000	71.956882
3664.000000	72.030382
3663.000000	72.100172
3662.000000	72.161145
3661.000000	72.207893
3660.000000	72.234535
3659.000000	72.236304
3658.000000	72.224558
3657.000000	72.227255
3656.000000	72.257472
3655.000000	72.288854
3654.000000	72.276293
3653.000000	72.213811
3652.000000	72.152276
3651.000000	72.139707
3650.000000	72.159924
3649.000000	72.173464
3648.000000	72.201982
3647.000000	72.279424
3646.000000	72.382759
3645.000000	72.475698
3644.000000	72.557305
3643.000000	72.648400
3642.000000	72.750138
3641.000000	72.838685
3640.000000	72.899021
3639.000000	72.940763
3638.000000	72.974671
3637.000000	72.993416
3636.000000	72.993251
3635.000000	72.993693
3634.000000	73.008445
3633.000000	73.012037
3632.000000	72.964129
3631.000000	72.873103
3630.000000	72.805490
3629.000000	72.806066
3628.000000	72.840486
3627.000000	72.859118
3626.000000	72.850759
3625.000000	72.835279
3624.000000	72.828801
3623.000000	72.821190
3622.000000	72.794835
3621.000000	72.752593
3620.000000	72.703290
3619.000000	72.639201
3618.000000	72.551579
3617.000000	72.443502
3616.000000	72.325491
3615.000000	72.215029
3614.000000	72.121666
3613.000000	72.031286
3612.000000	71.920200
3611.000000	71.785336
3610.000000	71.657414
3609.000000	71.573713
3608.000000	71.529555
3607.000000	71.484310
3606.000000	71.410644
3605.000000	71.312972
3604.000000	71.210818
3603.000000	71.114945
3602.000000	71.024578
3601.000000	70.939529
3600.000000	70.854765
3599.000000	70.758973
3598.000000	70.651540
3597.000000	70.542515
3596.000000	70.440110
3595.000000	70.342259
3594.000000	70.237646
3593.000000	70.117442
3592.000000	69.979073
3591.000000	69.829269
3590.000000	69.696424
3589.000000	69.623943
3588.000000	69.626852
3587.000000	69.669655
3586.000000	69.706921
3585.000000	69.723417
3584.000000	69.725746
3583.000000	69.721317
3582.000000	69.711315
3581.000000	69.693934
3580.000000	69.666184
3579.000000	69.624589
3578.000000	69.569252
3577.000000	69.505455
3576.000000	69.436843
3575.000000	69.363536
3574.000000	69.282926
3573.000000	69.190965
3572.000000	69.081266
3571.000000	68.945332
3570.000000	68.784988
3569.000000	68.625842
3568.000000	68.497079
3567.000000	68.396642
3566.000000	68.297530
3565.000000	68.183413
3564.000000	68.057576
3563.000000	67.930968
3562.000000	67.808450
3561.000000	67.685353
3560.000000	67.553188
3559.000000	67.405850
3558.000000	67.242735
3557.000000	67.067444
3556.000000	66.882922
3555.000000	66.689509
3554.000000	66.487948
3553.000000	66.279655
3552.000000	66.063285
3551.000000	65.832601
3550.000000	65.581758
3549.000000	65.316036
3548.000000	65.049198
3547.000000	64.789357
3546.000000	64.531247
3545.000000	64.265500
3544.000000	63.988499
3543.000000	63.701709
3542.000000	63.406295
3541.000000	63.102061
3540.000000	62.787097
3539.000000	62.456667
3538.000000	62.106782
3537.000000	61.737264
3536.000000	61.350308
3535.000000	60.946018
3534.000000	60.523155
3533.000000	60.083530
3532.000000	59.629719
3531.000000	59.159181
3530.000000	58.664070
3529.000000	58.140768
3528.000000	57.594000
3527.000000	57.029714
3526.000000	56.449528
3525.000000	55.854485
3524.000000	55.247192
3523.000000	54.627332
3522.000000	53.990609
3521.000000	53.334254
3520.000000	52.659853
3519.000000	51.968352
3518.000000	51.257395
3517.000000	50.525258
3516.000000	49.774505
3515.000000	49.009580
3514.000000	48.232347
3513.000000	47.441578
3512.000000	46.634497
3511.000000	45.807569
3510.000000	44.960016
3509.000000	44.099576
3508.000000	43.238307
3507.000000	42.380124
3506.000000	41.517074
3505.000000	40.639612
3504.000000	39.746751
3503.000000	38.846317
3502.000000	37.949687
3501.000000	37.066680
3500.000000	36.200623
3499.000000	35.345751
3498.000000	34.493190
3497.000000	33.640316
3496.000000	32.792337
3495.000000	31.955456
3494.000000	31.133064
3493.000000	30.328561
3492.000000	29.545335
3491.000000	28.782041
3490.000000	28.033646
3489.000000	27.299834
3488.000000	26.588268
3487.000000	25.907537
3486.000000	25.260605
3485.000000	24.645157
3484.000000	24.054375
3483.000000	23.478184
3482.000000	22.910644
3481.000000	22.357932
3480.000000	21.833310
3479.000000	21.342062
3478.000000	20.876730
3477.000000	20.426588
3476.000000	19.985027
3475.000000	19.548434
3474.000000	19.114935
3473.000000	18.686705
3472.000000	18.269352
3471.000000	17.868251
3470.000000	17.490348
3469.000000	17.147885
3468.000000	16.854210
3467.000000	16.614903
3466.000000	16.427038
3465.000000	16.286778
3464.000000	16.191902
3463.000000	16.139407
3462.000000	16.128534
3461.000000	16.164849
3460.000000	16.255262
3459.000000	16.397866
3458.000000	16.581672
3457.000000	16.795578
3456.000000	17.030906
3455.000000	17.276855
3454.000000	17.520709
3453.000000	17.752424
3452.000000	17.963888
3451.000000	18.144107
3450.000000	18.279528
3449.000000	18.360090
3448.000000	18.380953
3447.000000	18.339710
3446.000000	18.238466
3445.000000	18.085172
3444.000000	17.888530
3443.000000	17.653361
3442.000000	17.383734
3441.000000	17.089915
3440.000000	16.786281
3439.000000	16.484733
3438.000000	16.196186
3437.000000	15.935471
3436.000000	15.717978
3435.000000	15.551002
3434.000000	15.432766
3433.000000	15.359176
3432.000000	15.328958
3431.000000	15.343293
3430.000000	15.406822
3429.000000	15.528586
3428.000000	15.715206
3427.000000	15.966704
3426.000000	16.280067
3425.000000	16.655195
3424.000000	17.094346
3423.000000	17.595792
3422.000000	18.156333
3421.000000	18.775150
3420.000000	19.450600
3419.000000	20.176400
3418.000000	20.942842
3417.000000	21.742637
3416.000000	22.570002
3415.000000	23.417067
3414.000000	24.276841
3413.000000	25.145747
3412.000000	26.020069
3411.000000	26.892051
3410.000000	27.753565
3409.000000	28.601496
3408.000000	29.434613
3407.000000	30.247253
3406.000000	31.031500
3405.000000	31.783659
3404.000000	32.504750
3403.000000	33.197784
3402.000000	33.868407
3401.000000	34.525561
3400.000000	35.175611
3399.000000	35.815406
3398.000000	36.435474
3397.000000	37.029190
3396.000000	37.595728
3395.000000	38.137537
3394.000000	38.659004
3393.000000	39.167281
3392.000000	39.669598
3391.000000	40.168580
3390.000000	40.663257
3389.000000	41.152322
3388.000000	41.634328
3387.000000	42.106677
3386.000000	42.567831
3385.000000	43.019712
3384.000000	43.464902
3383.000000	43.903696
3382.000000	44.336480
3381.000000	44.766510
3380.000000	45.196993
3379.000000	45.627440
3378.000000	46.056032
3377.000000	46.483600
3376.000000	46.911391
3375.000000	47.336871
3374.000000	47.755505
3373.000000	48.165796
3372.000000	48.569772
3371.000000	48.969762
3370.000000	49.367998
3369.000000	49.767519
3368.000000	50.170154
3367.000000	50.574123
3366.000000	50.975957
3365.000000	51.373816
3364.000000	51.767026
3363.000000	52.154544
3362.000000	52.536635
3361.000000	52.916143
3360.000000	53.295297
3359.000000	53.672508
3358.000000	54.044653
3357.000000	54.410873
3356.000000	54.771202
3355.000000	55.124072
3354.000000	55.468541
3353.000000	55.807641
3352.000000	56.146354
3351.000000	56.486659
3350.000000	56.826667
3349.000000	57.163382
3348.000000	57.493981
3347.000000	57.815695
3346.000000	58.127565
3345.000000	58.431927
3344.000000	58.731806
3343.000000	59.027430
3342.000000	59.317202
3341.000000	59.600824
3340.000000	59.879484
3339.000000	60.153882
3338.000000	60.423585
3337.000000	60.687710
3336.000000	60.944045
3335.000000	61.188823
3334.000000	61.419516
3333.000000	61.636393
3332.000000	61.840126
3331.000000	62.028441
3330.000000	62.197187
3329.000000	62.344182
3328.000000	62.469111
3327.000000	62.571332
3326.000000	62.649002
3325.000000	62.699510
3324.000000	62.719360
3323.000000	62.702975
3322.000000	62.644836
3321.000000	62.541658
3320.000000	62.390362
3319.000000	62.186822
3318.000000	61.924722
3317.000000	61.597932
3316.000000	61.199875
3315.000000	60.721340
3314.000000	60.153224
3313.000000	59.486949
3312.000000	58.713788
3311.000000	57.825225
3310.000000	56.813283
3309.000000	55.676243
3308.000000	54.414635
3307.000000	53.027439
3306.000000	51.514259
3305.000000	49.874101
3304.000000	48.107541
3303.000000	46.212771
3302.000000	44.189900
3301.000000	42.047742
3300.000000	39.801537
3299.000000	37.473357
3298.000000	35.096611
3297.000000	32.719719
3296.000000	30.399067
3295.000000	28.186704
3294.000000	26.126050
3293.000000	24.254045
3292.000000	22.596331
3291.000000	21.154832
3290.000000	19.912288
3289.000000	18.838714
3288.000000	17.898050
3287.000000	17.053753
3286.000000	16.273390
3285.000000	15.538831
3284.000000	14.841567
3283.000000	14.178362
3282.000000	13.555224
3281.000000	12.987910
3280.000000	12.496688
3279.000000	12.097528
3278.000000	11.803656
3277.000000	11.630848
3276.000000	11.590182
3275.000000	11.681790
3274.000000	11.896096
3273.000000	12.216735
3272.000000	12.619463
3271.000000	13.067193
3270.000000	13.515903
3269.000000	13.922694
3268.000000	14.246840
3267.000000	14.451548
3266.000000	14.513921
3265.000000	14.431926
3264.000000	14.220274
3263.000000	13.904520
3262.000000	13.518178
3261.000000	13.103325
3260.000000	12.701604
3259.000000	12.345481
3258.000000	12.060653
3257.000000	11.869799
3256.000000	11.787412
3255.000000	11.814661
3254.000000	11.943829
3253.000000	12.162554
3252.000000	12.454155
3251.000000	12.794512
3250.000000	13.158368
3249.000000	13.526935
3248.000000	13.884333
3247.000000	14.214116
3246.000000	14.502033
3245.000000	14.740567
3244.000000	14.927000
3243.000000	15.061285
3242.000000	15.147864
3241.000000	15.196710
3240.000000	15.217491
3239.000000	15.214072
3238.000000	15.189666
3237.000000	15.150433
3236.000000	15.102594
3235.000000	15.050122
3234.000000	14.997639
3233.000000	14.951297
3232.000000	14.910629
3231.000000	14.864569
3230.000000	14.800298
3229.000000	14.711589
3228.000000	14.596275
3227.000000	14.450547
3226.000000	14.271459
3225.000000	14.061230
3224.000000	13.822971
3223.000000	13.557325
3222.000000	13.266852
3221.000000	12.960282
3220.000000	12.648256
3219.000000	12.337316
3218.000000	12.032182
3217.000000	11.738267
3216.000000	11.457523
3215.000000	11.186072
3214.000000	10.920246
3213.000000	10.660765
3212.000000	10.407320
3211.000000	10.154596
3210.000000	9.898479
3209.000000	9.642137
3208.000000	9.391145
3207.000000	9.147527
3206.000000	8.913294
3205.000000	8.694354
3204.000000	8.496411
3203.000000	8.320565
3202.000000	8.167451
3201.000000	8.041635
3200.000000	7.946558
3199.000000	7.881026
3198.000000	7.843890
3197.000000	7.837734
3196.000000	7.864476
3195.000000	7.920537
3194.000000	8.002616
3193.000000	8.111706
3192.000000	8.247532
3191.000000	8.405491
3190.000000	8.581401
3189.000000	8.775953
3188.000000	8.989386
3187.000000	9.216621
3186.000000	9.452992
3185.000000	9.698650
3184.000000	9.954146
3183.000000	10.216144
3182.000000	10.481636
3181.000000	10.751921
3180.000000	11.027467
3179.000000	11.304097
3178.000000	11.578116
3177.000000	11.850544
3176.000000	12.122435
3175.000000	12.390594
3174.000000	12.651955
3173.000000	12.907393
3172.000000	13.157578
3171.000000	13.399485
3170.000000	13.631189
3169.000000	13.855461
3168.000000	14.074650
3167.000000	14.286810
3166.000000	14.489805
3165.000000	14.684959
3164.000000	14.872857
3163.000000	15.049890
3162.000000	15.213200
3161.000000	15.363958
3160.000000	15.502975
3159.000000	15.627657
3158.000000	15.736442
3157.000000	15.832570
3156.000000	15.919460
3155.000000	15.997582
3154.000000	16.069332
3153.000000	16.141761
3152.000000	16.220848
3151.000000	16.306813
3150.000000	16.398525
3149.000000	16.497867
3148.000000	16.606293
3147.000000	16.721672
3146.000000	16.842340
3145.000000	16.969891
3144.000000	17.104534
3143.000000	17.242437
3142.000000	17.380682
3141.000000	17.520509
3140.000000	17.662181
3139.000000	17.801306
3138.000000	17.933604
3137.000000	18.058656
3136.000000	18.175403
3135.000000	18.278041
3134.000000	18.360304
3133.000000	18.418785
3132.000000	18.449658
3131.000000	18.445990
3130.000000	18.401097
3129.000000	18.312165
3128.000000	18.176608
3127.000000	17.991835
3126.000000	17.761337
3125.000000	17.496281
3124.000000	17.209673
3123.000000	16.911382
3122.000000	16.612110
3121.000000	16.325061
3120.000000	16.058967
3119.000000	15.814179
3118.000000	15.588624
3117.000000	15.382908
3116.000000	15.196175
3115.000000	15.022964
3114.000000	14.857798
3113.000000	14.698997
3112.000000	14.544769
3111.000000	14.391048
3110.000000	14.237346
3109.000000	14.089196
3108.000000	13.951792
3107.000000	13.825996
3106.000000	13.713203
3105.000000	13.619368
3104.000000	13.549592
3103.000000	13.504656
3102.000000	13.486785
3101.000000	13.502637
3100.000000	13.558432
3099.000000	13.655008
3098.000000	13.791903
3097.000000	13.971165
3096.000000	14.192283
3095.000000	14.450813
3094.000000	14.743419
3093.000000	15.070485
3092.000000	15.431123
3091.000000	15.819254
3090.000000	16.229244
3089.000000	16.658556
3088.000000	17.102953
3087.000000	17.555111
3086.000000	18.010144
3085.000000	18.468474
3084.000000	18.929565
3083.000000	19.388363
3082.000000	19.840893
3081.000000	20.287804
3080.000000	20.729901
3079.000000	21.165058
3078.000000	21.592368
3077.000000	22.013567
3076.000000	22.427815
3075.000000	22.829949
3074.000000	23.216926
3073.000000	23.591362
3072.000000	23.955550
3071.000000	24.307751
3070.000000	24.646877
3069.000000	24.975940
3068.000000	25.297742
3067.000000	25.611011
3066.000000	25.914474
3065.000000	26.210134
3064.000000	26.499658
3063.000000	26.781871
3062.000000	27.056077
3061.000000	27.324304
3060.000000	27.587567
3059.000000	27.843929
3058.000000	28.092830
3057.000000	28.336909
3056.000000	28.577776
3055.000000	28.813883
3054.000000	29.044676
3053.000000	29.272943
3052.000000	29.500453
3051.000000	29.725578
3050.000000	29.947125
3049.000000	30.166267
3048.000000	30.382979
3047.000000	30.594753
3046.000000	30.801240
3045.000000	31.005944
3044.000000	31.211094
3043.000000	31.415229
3042.000000	31.617617
3041.000000	31.820426
3040.000000	32.024119
3039.000000	32.224932
3038.000000	32.419963
3037.000000	32.610869
3036.000000	32.800503
3035.000000	32.989875
3034.000000	33.180265
3033.000000	33.374017
3032.000000	33.570654
3031.000000	33.766390
3030.000000	33.959616
3029.000000	34.152641
3028.000000	34.346131
3027.000000	34.536593
3026.000000	34.721809
3025.000000	34.904254
3024.000000	35.086001
3023.000000	35.264265
3022.000000	35.434622
3021.000000	35.594509
3020.000000	35.741069
3019.000000	35.868333
3018.000000	35.970050
3017.000000	36.042458
3016.000000	36.083078
3015.000000	36.091668
3014.000000	36.075215
3013.000000	36.050319
3012.000000	36.037861
3011.000000	36.057343
3010.000000	36.124959
3009.000000	36.250214
3008.000000	36.429900
3007.000000	36.647590
3006.000000	36.881076
3005.000000	37.107999
3004.000000	37.304425
3003.000000	37.443070
3002.000000	37.496959
3001.000000	37.443096
3000.000000	37.266858
2999.000000	36.972125
2998.000000	36.595395
2997.000000	36.207578
2996.000000	35.895551
2995.000000	35.735851
2994.000000	35.772569
2993.000000	36.006035
2992.000000	36.391934
2991.000000	36.860025
2990.000000	37.342993
2989.000000	37.795956
2988.000000	38.197498
2987.000000	38.541543
2986.000000	38.832351
2985.000000	39.078500
2984.000000	39.285935
2983.000000	39.454915
2982.000000	39.584877
2981.000000	39.676635
2980.000000	39.728549
2979.000000	39.734268
2978.000000	39.687207
2977.000000	39.586976
2976.000000	39.440289
2975.000000	39.262398
2974.000000	39.078953
2973.000000	38.921284
2972.000000	38.814116
2971.000000	38.765002
2970.000000	38.762709
2969.000000	38.777926
2968.000000	38.764257
2967.000000	38.669414
2966.000000	38.458367
2965.000000	38.131667
2964.000000	37.724622
2963.000000	37.292144
2962.000000	36.892775
2961.000000	36.574582
2960.000000	36.366275
2959.000000	36.277240
2958.000000	36.306893
2957.000000	36.448744
2956.000000	36.686498
2955.000000	36.993362
2954.000000	37.338079
2953.000000	37.689248
2952.000000	38.012163
2951.000000	38.272542
2950.000000	38.449052
2949.000000	38.543453
2948.000000	38.575818
2947.000000	38.568996
2946.000000	38.530707
2945.000000	38.435123
2944.000000	38.219699
2943.000000	37.814823
2942.000000	37.203816
2941.000000	36.469084
2940.000000	35.784272
2939.000000	35.349352
2938.000000	35.303953
2937.000000	35.670149
2936.000000	36.351430
2935.000000	37.189652
2934.000000	38.038378
2933.000000	38.807113
2932.000000	39.461303
2931.000000	40.002770
2930.000000	40.452570
2929.000000	40.836413
2928.000000	41.174400
2927.000000	41.477253
2926.000000	41.752241
2925.000000	42.006513
2924.000000	42.244226
2923.000000	42.465420
2922.000000	42.670753
2921.000000	42.863379
2920.000000	43.044560
2919.000000	43.212587
2918.000000	43.366943
2917.000000	43.509737
2916.000000	43.641532
2915.000000	43.760050
2914.000000	43.864642
2913.000000	43.957672
2912.000000	44.040124
2911.000000	44.109798
2910.000000	44.164762
2909.000000	44.204087
2908.000000	44.223389
2907.000000	44.212758
2906.000000	44.160752
2905.000000	44.055734
2904.000000	43.882947
2903.000000	43.625445
2902.000000	43.275032
2901.000000	42.839260
2900.000000	42.342560
2899.000000	41.826403
2898.000000	41.346569
2897.000000	40.964013
2896.000000	40.725573
2895.000000	40.650342
2894.000000	40.731035
2893.000000	40.941035
2892.000000	41.241549
2891.000000	41.590270
2890.000000	41.953112
2889.000000	42.308460
2888.000000	42.642881
2887.000000	42.947313
2886.000000	43.218174
2885.000000	43.457611
2884.000000	43.667995
2883.000000	43.849712
2882.000000	44.004689
2881.000000	44.138358
2880.000000	44.256311
2879.000000	44.362141
2878.000000	44.459715
2877.000000	44.553615
2876.000000	44.645571
2875.000000	44.733521
2874.000000	44.816086
2873.000000	44.894738
2872.000000	44.971157
2871.000000	45.046956
2870.000000	45.127399
2869.000000	45.221144
2868.000000	45.333616
2867.000000	45.463242
2866.000000	45.605003
2865.000000	45.753515
2864.000000	45.901500
2863.000000	46.040475
2862.000000	46.165996
2861.000000	46.279394
2860.000000	46.383107
2859.000000	46.477738
2858.000000	46.564994
2857.000000	46.649152
2856.000000	46.733307
2855.000000	46.817532
2854.000000	46.902238
2853.000000	46.989482
2852.000000	47.079252
2851.000000	47.168292
2850.000000	47.254340
2849.000000	47.338210
2848.000000	47.420502
2847.000000	47.500077
2846.000000	47.577442
2845.000000	47.655850
2844.000000	47.737265
2843.000000	47.820453
2842.000000	47.904575
2841.000000	47.991431
2840.000000	48.082530
2839.000000	48.177026
2838.000000	48.274046
2837.000000	48.374198
2836.000000	48.477522
2835.000000	48.582871
2834.000000	48.690374
2833.000000	48.801651
2832.000000	48.916580
2831.000000	49.032621
2830.000000	49.148081
2829.000000	49.262893
2828.000000	49.375539
2827.000000	49.482851
2826.000000	49.584003
2825.000000	49.681524
2824.000000	49.777368
2823.000000	49.871062
2822.000000	49.962607
2821.000000	50.053589
2820.000000	50.143979
2819.000000	50.231177
2818.000000	50.313550
2817.000000	50.391983
2816.000000	50.466865
2815.000000	50.536713
2814.000000	50.601125
2813.000000	50.662067
2812.000000	50.721025
2811.000000	50.777784
2810.000000	50.832952
2809.000000	50.888528
2808.000000	50.944879
2807.000000	51.000185
2806.000000	51.053942
2805.000000	51.107830
2804.000000	51.162011
2803.000000	51.213940
2802.000000	51.262202
2801.000000	51.308510
2800.000000	51.354703
2799.000000	51.400755
2798.000000	51.446891
2797.000000	51.494456
2796.000000	51.543273
2795.000000	51.591048
2794.000000	51.636612
2793.000000	51.680995
2792.000000	51.724445
2791.000000	51.765541
2790.000000	51.804229
2789.000000	51.842406
2788.000000	51.880227
2787.000000	51.915052
2786.000000	51.945491
2785.000000	51.973679
2784.000000	52.002510
2783.000000	52.033870
2782.000000	52.070687
2781.000000	52.116955
2780.000000	52.173745
2779.000000	52.237717
2778.000000	52.304913
2777.000000	52.373559
2776.000000	52.442260
2775.000000	52.508804
2774.000000	52.572445
2773.000000	52.634660
2772.000000	52.696314
2771.000000	52.756572
2770.000000	52.815409
2769.000000	52.874254
2768.000000	52.933008
2767.000000	52.989130
2766.000000	53.040874
2765.000000	53.088641
2764.000000	53.132307
2763.000000	53.170365
2762.000000	53.202836
2761.000000	53.232241
2760.000000	53.260449
2759.000000	53.287202
2758.000000	53.312680
2757.000000	53.338344
2756.000000	53.364010
2755.000000	53.387117
2754.000000	53.406254
2753.000000	53.423143
2752.000000	53.440359
2751.000000	53.459880
2750.000000	53.484558
2749.000000	53.517368
2748.000000	53.557370
2747.000000	53.599056
2746.000000	53.637133
2745.000000	53.669880
2744.000000	53.697599
2743.000000	53.721077
2742.000000	53.742449
2741.000000	53.764068
2740.000000	53.784725
2739.000000	53.799699
2738.000000	53.806398
2737.000000	53.808438
2736.000000	53.813707
2735.000000	53.831036
2734.000000	53.868620
2733.000000	53.930851
2732.000000	54.014425
2731.000000	54.109729
2730.000000	54.207274
2729.000000	54.301468
2728.000000	54.388653
2727.000000	54.465718
2726.000000	54.532278
2725.000000	54.590875
2724.000000	54.643278
2723.000000	54.689081
2722.000000	54.728445
2721.000000	54.762973
2720.000000	54.793049
2719.000000	54.817148
2718.000000	54.835265
2717.000000	54.850412
2716.000000	54.865471
2715.000000	54.881555
2714.000000	54.900350
2713.000000	54.924897
2712.000000	54.956628
2711.000000	54.994266
2710.000000	55.036622
2709.000000	55.083693
2708.000000	55.133941
2707.000000	55.183407
2706.000000	55.228979
2705.000000	55.269903
2704.000000	55.305044
2703.000000	55.331682
2702.000000	55.348318
2701.000000	55.355749
2700.000000	55.354502
2699.000000	55.343828
2698.000000	55.324604
2697.000000	55.300898
2696.000000	55.277048
2695.000000	55.255601
2694.000000	55.238681
2693.000000	55.228129
2692.000000	55.222993
2691.000000	55.219553
2690.000000	55.215279
2689.000000	55.210821
2688.000000	55.207655
2687.000000	55.206497
2686.000000	55.208900
2685.000000	55.217173
2684.000000	55.231463
2683.000000	55.249805
2682.000000	55.271846
2681.000000	55.299979
2680.000000	55.335620
2679.000000	55.376951
2678.000000	55.421319
2677.000000	55.466734
2676.000000	55.510151
2675.000000	55.547375
2674.000000	55.576115
2673.000000	55.596949
2672.000000	55.610733
2671.000000	55.617761
2670.000000	55.620395
2669.000000	55.623817
2668.000000	55.632975
2667.000000	55.650952
2666.000000	55.680350
2665.000000	55.722610
2664.000000	55.774657
2663.000000	55.829268
2662.000000	55.879949
2661.000000	55.923282
2660.000000	55.956602
2659.000000	55.977090
2658.000000	55.984524
2657.000000	55.982288
2656.000000	55.974475
2655.000000	55.964459
2654.000000	55.956983
2653.000000	55.958178
2652.000000	55.972019
2651.000000	55.999112
2650.000000	56.039296
2649.000000	56.092105
2648.000000	56.154112
2647.000000	56.218944
2646.000000	56.281295
2645.000000	56.338867
2644.000000	56.390053
2643.000000	56.433612
2642.000000	56.471739
2641.000000	56.510147
2640.000000	56.553479
2639.000000	56.602668
2638.000000	56.656968
2637.000000	56.715099
2636.000000	56.773403
2635.000000	56.826185
2634.000000	56.869803
2633.000000	56.904298
2632.000000	56.930597
2631.000000	56.949244
2630.000000	56.962415
2629.000000	56.974068
2628.000000	56.986417
2627.000000	56.998615
2626.000000	57.009795
2625.000000	57.020128
2624.000000	57.028468
2623.000000	57.032263
2622.000000	57.031158
2621.000000	57.028073
2620.000000	57.025328
2619.000000	57.022503
2618.000000	57.018720
2617.000000	57.013678
2616.000000	57.005328
2615.000000	56.989376
2614.000000	56.963037
2613.000000	56.927101
2612.000000	56.883675
2611.000000	56.835220
2610.000000	56.786780
2609.000000	56.745869
2608.000000	56.718222
2607.000000	56.705661
2606.000000	56.708339
2605.000000	56.726405
2604.000000	56.758273
2603.000000	56.800187
2602.000000	56.849332
2601.000000	56.904147
2600.000000	56.961421
2599.000000	57.016100
2598.000000	57.064908
2597.000000	57.108029
2596.000000	57.146422
2595.000000	57.180673
2594.000000	57.213160
2593.000000	57.247923
2592.000000	57.286855
2591.000000	57.328537
2590.000000	57.371249
2589.000000	57.413961
2588.000000	57.453729
2587.000000	57.485617
2586.000000	57.507094
2585.000000	57.520180
2584.000000	57.528675
2583.000000	57.536436
2582.000000	57.549116
2581.000000	57.573664
2580.000000	57.614043
2579.000000	57.669463
2578.000000	57.737245
2577.000000	57.814882
2576.000000	57.898363
2575.000000	57.982198
2574.000000	58.062992
2573.000000	58.140315
2572.000000	58.213620
2571.000000	58.281116
2570.000000	58.342601
2569.000000	58.400443
2568.000000	58.456605
2567.000000	58.511267
2566.000000	58.565216
2565.000000	58.620473
2564.000000	58.676989
2563.000000	58.731678
2562.000000	58.781806
2561.000000	58.826993
2560.000000	58.867266
2559.000000	58.902143
2558.000000	58.933151
2557.000000	58.964316
2556.000000	58.998692
2555.000000	59.036621
2554.000000	59.078086
2553.000000	59.123872
2552.000000	59.173249
2551.000000	59.223326
2550.000000	59.272150
2549.000000	59.320132
2548.000000	59.367405
2547.000000	59.412438
2546.000000	59.454349
2545.000000	59.494108
2544.000000	59.532062
2543.000000	59.566730
2542.000000	59.597025
2541.000000	59.623174
2540.000000	59.644759
2539.000000	59.659817
2538.000000	59.667168
2537.000000	59.667194
2536.000000	59.659185
2535.000000	59.641085
2534.000000	59.612364
2533.000000	59.575324
2532.000000	59.532767
2531.000000	59.486454
2530.000000	59.439045
2529.000000	59.394319
2528.000000	59.354395
2527.000000	59.318903
2526.000000	59.287449
2525.000000	59.260409
2524.000000	59.236507
2523.000000	59.212422
2522.000000	59.185753
2521.000000	59.155837
2520.000000	59.121180
2519.000000	59.078969
2518.000000	59.028182
2517.000000	58.970527
2516.000000	58.907298
2515.000000	58.838651
2514.000000	58.766838
2513.000000	58.697151
2512.000000	58.634341
2511.000000	58.580743
2510.000000	58.538569
2509.000000	58.510868
2508.000000	58.498930
2507.000000	58.501007
2506.000000	58.515732
2505.000000	58.543394
2504.000000	58.583125
2503.000000	58.631849
2502.000000	58.686295
2501.000000	58.744170
2500.000000	58.801970
2499.000000	58.854712
2498.000000	58.899331
2497.000000	58.935835
2496.000000	58.964597
2495.000000	58.985296
2494.000000	58.999190
2493.000000	59.009219
2492.000000	59.017058
2491.000000	59.022368
2490.000000	59.025934
2489.000000	59.030831
2488.000000	59.039340
2487.000000	59.051538
2486.000000	59.067559
2485.000000	59.088340
2484.000000	59.113041
2483.000000	59.138535
2482.000000	59.162420
2481.000000	59.184309
2480.000000	59.203901
2479.000000	59.220752
2478.000000	59.237019
2477.000000	59.257336
2476.000000	59.285094
2475.000000	59.321145
2474.000000	59.366153
2473.000000	59.421269
2472.000000	59.485276
2471.000000	59.554245
2470.000000	59.624975
2469.000000	59.695986
2468.000000	59.765128
2467.000000	59.829359
2466.000000	59.887883
2465.000000	59.942565
2464.000000	59.994431
2463.000000	60.042508
2462.000000	60.086772
2461.000000	60.129095
2460.000000	60.169958
2459.000000	60.207326
2458.000000	60.239230
2457.000000	60.265006
2456.000000	60.283481
2455.000000	60.293046
2454.000000	60.295192
2453.000000	60.295006
2452.000000	60.297248
2451.000000	60.304171
2450.000000	60.317463
2449.000000	60.338966
2448.000000	60.368362
2447.000000	60.403011
2446.000000	60.441169
2445.000000	60.483279
2444.000000	60.529235
2443.000000	60.577445
2442.000000	60.627123
2441.000000	60.678449
2440.000000	60.729954
2439.000000	60.778508
2438.000000	60.822829
2437.000000	60.864204
2436.000000	60.903175
2435.000000	60.938190
2434.000000	60.968248
2433.000000	60.993584
2432.000000	61.012786
2431.000000	61.022785
2430.000000	61.022304
2429.000000	61.012982
2428.000000	60.996086
2427.000000	60.970924
2426.000000	60.938007
2425.000000	60.900117
2424.000000	60.859502
2423.000000	60.816728
2422.000000	60.773503
2421.000000	60.734022
2420.000000	60.702053
2419.000000	60.679137
2418.000000	60.666192
2417.000000	60.663957
2416.000000	60.670442
2415.000000	60.680891
2414.000000	60.691156
2413.000000	60.698571
2412.000000	60.699163
2411.000000	60.687576
2410.000000	60.660974
2409.000000	60.620407
2408.000000	60.567823
2407.000000	60.504446
2406.000000	60.433469
2405.000000	60.360599
2404.000000	60.290580
2403.000000	60.225992
2402.000000	60.170214
2401.000000	60.128133
2400.000000	60.102185
2399.000000	60.090366
2398.000000	60.088774
2397.000000	60.093186
2396.000000	60.097109
2395.000000	60.092276
2394.000000	60.073314
2393.000000	60.040110
2392.000000	59.994879
2391.000000	59.940542
2390.000000	59.882768
2389.000000	59.829256
2388.000000	59.786059
2387.000000	59.755543
2386.000000	59.739707
2385.000000	59.742159
2384.000000	59.764229
2383.000000	59.804120
2382.000000	59.859291
2381.000000	59.927509
2380.000000	60.003825
2379.000000	60.078785
2378.000000	60.142692
2377.000000	60.190399
2376.000000	60.218040
2375.000000	60.221567
2374.000000	60.200794
2373.000000	60.160726
2372.000000	60.108417
2371.000000	60.049203
2370.000000	59.985765
2369.000000	59.924896
2368.000000	59.876788
2367.000000	59.847537
2366.000000	59.836058
2365.000000	59.847621
2364.000000	59.896895
2363.000000	59.976469
2362.000000	60.077800
2361.000000	60.201550
2360.000000	60.329764
2359.000000	60.452070
2358.000000	60.545298
2357.000000	60.598957
2356.000000	60.614500
2355.000000	60.580262
2354.000000	60.513581
2353.000000	60.457717
2352.000000	60.488348
2351.000000	60.610019
2350.000000	60.726193
2349.000000	60.763506
2348.000000	60.711313
2347.000000	60.666285
2346.000000	60.705660
2345.000000	60.826372
2344.000000	60.962860
2343.000000	61.037675
2342.000000	61.071902
2341.000000	61.087980
2340.000000	61.099576
2339.000000	61.099877
2338.000000	61.093689
2337.000000	61.087918
2336.000000	61.092765
2335.000000	61.100519
2334.000000	61.111048
2333.000000	61.105267
2332.000000	61.079132
2331.000000	61.024552
2330.000000	60.932527
2329.000000	60.834640
2328.000000	60.734364
2327.000000	60.659279
2326.000000	60.608046
2325.000000	60.583980
2324.000000	60.585792
2323.000000	60.587004
2322.000000	60.585979
2321.000000	60.568035
2320.000000	60.544692
2319.000000	60.512348
2318.000000	60.480055
2317.000000	60.449824
2316.000000	60.421449
2315.000000	60.389157
2314.000000	60.344399
2313.000000	60.283455
2312.000000	60.199293
2311.000000	60.094535
2310.000000	59.973919
2309.000000	59.849344
2308.000000	59.723556
2307.000000	59.595558
2306.000000	59.463425
2305.000000	59.327222
2304.000000	59.188221
2303.000000	59.045239
2302.000000	58.901024
2301.000000	58.760548
2300.000000	58.625822
2299.000000	58.498706
2298.000000	58.380922
2297.000000	58.279778
2296.000000	58.196041
2295.000000	58.131021
2294.000000	58.083653
2293.000000	58.057233
2292.000000	58.050565
2291.000000	58.061209
2290.000000	58.087632
2289.000000	58.130867
2288.000000	58.191215
2287.000000	58.267571
2286.000000	58.360757
2285.000000	58.470649
2284.000000	58.592170
2283.000000	58.715064
2282.000000	58.831831
2281.000000	58.938097
2280.000000	59.030544
2279.000000	59.105445
2278.000000	59.164645
2277.000000	59.214866
2276.000000	59.263151
2275.000000	59.315047
2274.000000	59.375901
2273.000000	59.450933
2272.000000	59.540498
2271.000000	59.641398
2270.000000	59.751842
2269.000000	59.872331
2268.000000	60.002104
2267.000000	60.138399
2266.000000	60.279578
2265.000000	60.426261
2264.000000	60.576570
2263.000000	60.727457
2262.000000	60.877462
2261.000000	61.026754
2260.000000	61.173685
2259.000000	61.313476
2258.000000	61.443917
2257.000000	61.564711
2256.000000	61.675454
2255.000000	61.774437
2254.000000	61.862810
2253.000000	61.944786
2252.000000	62.023646
2251.000000	62.101185
2250.000000	62.180527
2249.000000	62.265509
2248.000000	62.356463
2247.000000	62.450205
2246.000000	62.542575
2245.000000	62.630611
2244.000000	62.710323
2243.000000	62.777650
2242.000000	62.831836
2241.000000	62.875376
2240.000000	62.909833
2239.000000	62.934970
2238.000000	62.952190
2237.000000	62.964998
2236.000000	62.975827
2235.000000	62.985201
2234.000000	62.994953
2233.000000	63.008325
2232.000000	63.026310
2231.000000	63.046875
2230.000000	63.068386
2229.000000	63.090569
2228.000000	63.111903
2227.000000	63.129890
2226.000000	63.144830
2225.000000	63.160115
2224.000000	63.177839
2223.000000	63.197126
2222.000000	63.216976
2221.000000	63.237469
2220.000000	63.257481
2219.000000	63.274830
2218.000000	63.289601
2217.000000	63.304578
2216.000000	63.321874
2215.000000	63.342135
2214.000000	63.367351
2213.000000	63.400778
2212.000000	63.443250
2211.000000	63.492286
2210.000000	63.545244
2209.000000	63.600204
2208.000000	63.653672
2207.000000	63.700964
2206.000000	63.739628
2205.000000	63.769810
2204.000000	63.790946
2203.000000	63.801479
2202.000000	63.802114
2201.000000	63.796136
2200.000000	63.786010
2199.000000	63.772782
2198.000000	63.759104
2197.000000	63.749288
2196.000000	63.745854
2195.000000	63.749068
2194.000000	63.760260
2193.000000	63.781939
2192.000000	63.813992
2191.000000	63.853252
2190.000000	63.897333
2189.000000	63.945804
2188.000000	63.997238
2187.000000	64.048943
2186.000000	64.100335
2185.000000	64.153299
2184.000000	64.208467
2183.000000	64.264061
2182.000000	64.318863
2181.000000	64.372821
2180.000000	64.424292
2179.000000	64.469864
2178.000000	64.507662
2177.000000	64.538063
2176.000000	64.560893
2175.000000	64.575369
2174.000000	64.583169
2173.000000	64.588286
2172.000000	64.592988
2171.000000	64.596724
2170.000000	64.599213
2169.000000	64.601261
2168.000000	64.602170
2167.000000	64.599800
2166.000000	64.594127
2165.000000	64.587662
2164.000000	64.581819
2163.000000	64.576081
2162.000000	64.571150
2161.000000	64.569661
2160.000000	64.573113
2159.000000	64.581272
2158.000000	64.595060
2157.000000	64.616663
2156.000000	64.646122
2155.000000	64.680631
2154.000000	64.717401
2153.000000	64.754106
2152.000000	64.786836
2151.000000	64.811495
2150.000000	64.828109
2149.000000	64.840746
2148.000000	64.852799
2147.000000	64.865501
2146.000000	64.880581
2145.000000	64.900211
2144.000000	64.923646
2143.000000	64.947271
2142.000000	64.968429
2141.000000	64.986328
2140.000000	64.999526
2139.000000	65.006210
2138.000000	65.007263
2137.000000	65.005578
2136.000000	65.002041
2135.000000	64.995409
2134.000000	64.986177
2133.000000	64.976653
2132.000000	64.966902
2131.000000	64.954364
2130.000000	64.938035
2129.000000	64.919426
2128.000000	64.899015
2127.000000	64.875567
2126.000000	64.849749
2125.000000	64.824926
2124.000000	64.803798
2123.000000	64.788088
2122.000000	64.781830
2121.000000	64.790827
2120.000000	64.817767
2119.000000	64.860628
2118.000000	64.915591
2117.000000	64.977713
2116.000000	65.038826
2115.000000	65.089572
2114.000000	65.125525
2113.000000	65.148765
2112.000000	65.163313
2111.000000	65.172344
2110.000000	65.179581
2109.000000	65.189015
2108.000000	65.201833
2107.000000	65.216402
2106.000000	65.232022
2105.000000	65.249635
2104.000000	65.268487
2103.000000	65.285498
2102.000000	65.298113
2101.000000	65.304638
2100.000000	65.301521
2099.000000	65.284190
2098.000000	65.251953
2097.000000	65.209047
2096.000000	65.160726
2095.000000	65.112101
2094.000000	65.070743
2093.000000	65.045227
2092.000000	65.039332
2091.000000	65.050567
2090.000000	65.075073
2089.000000	65.110688
2088.000000	65.154929
2087.000000	65.204299
2086.000000	65.256413
2085.000000	65.309421
2084.000000	65.359397
2083.000000	65.401667
2082.000000	65.434381
2081.000000	65.457862
2080.000000	65.470774
2079.000000	65.470592
2078.000000	65.458164
2077.000000	65.437127
2076.000000	65.408901
2075.000000	65.372142
2074.000000	65.326713
2073.000000	65.274467
2072.000000	65.215762
2071.000000	65.149362
2070.000000	65.076889
2069.000000	65.003421
2068.000000	64.931895
2067.000000	64.859583
2066.000000	64.781109
2065.000000	64.692894
2064.000000	64.594502
2063.000000	64.489204
2062.000000	64.383039
2061.000000	64.279900
2060.000000	64.177970
2059.000000	64.073682
2058.000000	63.968290
2057.000000	63.866378
2056.000000	63.769393
2055.000000	63.675803
2054.000000	63.586887
2053.000000	63.507058
2052.000000	63.438216
2051.000000	63.378408
2050.000000	63.326505
2049.000000	63.283949
2048.000000	63.250219
2047.000000	63.221419
2046.000000	63.196032
2045.000000	63.177356
2044.000000	63.167906
2043.000000	63.165525
2042.000000	63.167244
2041.000000	63.173576
2040.000000	63.186875
2039.000000	63.209632
2038.000000	63.245212
2037.000000	63.295416
2036.000000	63.356894
2035.000000	63.423933
2034.000000	63.495414
2033.000000	63.574310
2032.000000	63.660493
2031.000000	63.749718
2030.000000	63.839947
2029.000000	63.932511
2028.000000	64.026630
2027.000000	64.118307
2026.000000	64.205478
2025.000000	64.289661
2024.000000	64.370609
2023.000000	64.445062
2022.000000	64.513398
2021.000000	64.582339
2020.000000	64.657160
2019.000000	64.734931
2018.000000	64.808885
2017.000000	64.876258
2016.000000	64.940240
2015.000000	65.007688
2014.000000	65.085740
2013.000000	65.176613
2012.000000	65.274019
2011.000000	65.368207
2010.000000	65.455887
2009.000000	65.540549
2008.000000	65.623959
2007.000000	65.704461
2006.000000	65.783287
2005.000000	65.865716
2004.000000	65.953304
2003.000000	66.041999
2002.000000	66.128728
2001.000000	66.213338
2000.000000	66.294160
1999.000000	66.366796
1998.000000	66.429001
1997.000000	66.484429
1996.000000	66.541348
1995.000000	66.606499
1994.000000	66.679325
1993.000000	66.751655
1992.000000	66.814690
1991.000000	66.869968
1990.000000	66.930059
1989.000000	67.004764
1988.000000	67.090528
1987.000000	67.175351
1986.000000	67.252048
1985.000000	67.323563
1984.000000	67.394792
1983.000000	67.466382
1982.000000	67.537728
1981.000000	67.611046
1980.000000	67.690197
1979.000000	67.776279
1978.000000	67.866142
1977.000000	67.955220
1976.000000	68.041495
1975.000000	68.124577
1974.000000	68.202856
1973.000000	68.274883
1972.000000	68.343454
1971.000000	68.414894
1970.000000	68.492283
1969.000000	68.570837
1968.000000	68.639081
1967.000000	68.685398
1966.000000	68.708130
1965.000000	68.718613
1964.000000	68.730533
1963.000000	68.745844
1962.000000	68.753176
1961.000000	68.741736
1960.000000	68.713539
1959.000000	68.679664
1958.000000	68.649094
1957.000000	68.625569
1956.000000	68.612242
1955.000000	68.611481
1954.000000	68.621901
1953.000000	68.640734
1952.000000	68.666467
1951.000000	68.697948
1950.000000	68.732721
1949.000000	68.767896
1948.000000	68.802215
1947.000000	68.837306
1946.000000	68.876633
1945.000000	68.920513
1944.000000	68.960201
1943.000000	68.979013
1942.000000	68.967080
1941.000000	68.936059
1940.000000	68.911315
1939.000000	68.909072
1938.000000	68.924893
1937.000000	68.942726
1936.000000	68.952383
1935.000000	68.953993
1934.000000	68.949574
1933.000000	68.938597
1932.000000	68.919827
1931.000000	68.897541
1930.000000	68.879976
1929.000000	68.871752
1928.000000	68.871403
1927.000000	68.879879
1926.000000	68.906158
1925.000000	68.951830
1924.000000	68.998029
1923.000000	69.019594
1922.000000	69.015544
1921.000000	69.009011
1920.000000	69.016034
1919.000000	69.031273
1918.000000	69.039683
1917.000000	69.033888
1916.000000	69.018602
1915.000000	69.003825
1914.000000	68.998901
1913.000000	69.005608
1912.000000	69.015301
1911.000000	69.019054
1910.000000	69.015157
1909.000000	69.004088
1908.000000	68.983905
1907.000000	68.958978
1906.000000	68.945976
1905.000000	68.956124
1904.000000	68.981626
1903.000000	69.011679
1902.000000	69.049865
1901.000000	69.102461
1900.000000	69.163704
1899.000000	69.226861
1898.000000	69.297881
1897.000000	69.381281
1896.000000	69.462223
1895.000000	69.522194
1894.000000	69.567767
1893.000000	69.621900
1892.000000	69.691219
1891.000000	69.759961
1890.000000	69.808179
1889.000000	69.828820
1888.000000	69.832366
1887.000000	69.840153
1886.000000	69.871371
1885.000000	69.925563
1884.000000	69.981558
1883.000000	70.024907
1882.000000	70.064547
1881.000000	70.111704
1880.000000	70.160167
1879.000000	70.198999
1878.000000	70.233028
1877.000000	70.274912
1876.000000	70.323969
1875.000000	70.372516
1874.000000	70.425672
1873.000000	70.495944
1872.000000	70.581766
1871.000000	70.667480
1870.000000	70.739303
1869.000000	70.787053
1868.000000	70.800472
1867.000000	70.787326
1866.000000	70.781251
1865.000000	70.808471
1864.000000	70.863998
1863.000000	70.927825
1862.000000	70.991861
1861.000000	71.059908
1860.000000	71.127186
1859.000000	71.182637
1858.000000	71.228268
1857.000000	71.274490
1856.000000	71.318955
1855.000000	71.355014
1854.000000	71.386713
1853.000000	71.421945
1852.000000	71.464732
1851.000000	71.517766
1850.000000	71.588361
1849.000000	71.676326
1848.000000	71.764132
1847.000000	71.832246
1846.000000	71.876111
1845.000000	71.899895
1844.000000	71.905055
1843.000000	71.900729
1842.000000	71.906336
1841.000000	71.936030
1840.000000	71.991196
1839.000000	72.060752
1838.000000	72.126547
1837.000000	72.174926
1836.000000	72.206771
1835.000000	72.237857
1834.000000	72.283715
1833.000000	72.347820
1832.000000	72.425115
1831.000000	72.497915
1830.000000	72.539836
1829.000000	72.549104
1828.000000	72.561811
1827.000000	72.605327
1826.000000	72.671823
1825.000000	72.737422
1824.000000	72.783742
1823.000000	72.813798
1822.000000	72.844705
1821.000000	72.892390
1820.000000	72.956355
1819.000000	73.016165
1818.000000	73.057732
1817.000000	73.089331
1816.000000	73.124198
1815.000000	73.162161
1814.000000	73.200171
1813.000000	73.241535
1812.000000	73.277826
1811.000000	73.284156
1810.000000	73.257938
1809.000000	73.231480
1808.000000	73.222027
1807.000000	73.215368
1806.000000	73.210338
1805.000000	73.228618
1804.000000	73.275798
1803.000000	73.321585
1802.000000	73.332830
1801.000000	73.314293
1800.000000	73.292084
1799.000000	73.284173
1798.000000	73.303835
1797.000000	73.354451
1796.000000	73.413575
1795.000000	73.451623
1794.000000	73.464306
1793.000000	73.474833
1792.000000	73.490721
1791.000000	73.489122
1790.000000	73.471213
1789.000000	73.470372
1788.000000	73.502245
1787.000000	73.549263
1786.000000	73.588371
1785.000000	73.611854
1784.000000	73.626539
1783.000000	73.640842
1782.000000	73.657240
1781.000000	73.675623
1780.000000	73.687579
1779.000000	73.691801
1778.000000	73.704698
1777.000000	73.743326
1776.000000	73.805320
1775.000000	73.869457
1774.000000	73.914238
1773.000000	73.942160
1772.000000	73.978947
1771.000000	74.033987
1770.000000	74.094960
1769.000000	74.155245
1768.000000	74.220685
1767.000000	74.286033
1766.000000	74.342010
1765.000000	74.401763
1764.000000	74.484139
1763.000000	74.575036
1762.000000	74.625075
1761.000000	74.621831
1760.000000	74.610051
1759.000000	74.621615
1758.000000	74.644347
1757.000000	74.655916
1756.000000	74.664685
1755.000000	74.692341
1754.000000	74.733547
1753.000000	74.778483
1752.000000	74.838079
1751.000000	74.919173
1750.000000	74.995378
1749.000000	75.036255
1748.000000	75.061633
1747.000000	75.110969
1746.000000	75.186839
1745.000000	75.267562
1744.000000	75.339840
1743.000000	75.391089
1742.000000	75.404721
1741.000000	75.388933
1740.000000	75.386770
1739.000000	75.427053
1738.000000	75.484141
1737.000000	75.525120
1736.000000	75.542489
1735.000000	75.543680
1734.000000	75.536537
1733.000000	75.531179
1732.000000	75.540286
1731.000000	75.562058
1730.000000	75.586610
1729.000000	75.595905
1728.000000	75.591342
1727.000000	75.593894
1726.000000	75.610907
1725.000000	75.630733
1724.000000	75.636306
1723.000000	75.631612
1722.000000	75.638818
1721.000000	75.672410
1720.000000	75.727763
1719.000000	75.779526
1718.000000	75.797723
1717.000000	75.795906
1716.000000	75.792066
1715.000000	75.772623
1714.000000	75.760258
1713.000000	75.787507
1712.000000	75.840799
1711.000000	75.893835
1710.000000	75.944561
1709.000000	76.003363
1708.000000	76.068869
1707.000000	76.128863
1706.000000	76.189866
1705.000000	76.271260
1704.000000	76.358055
1703.000000	76.413917
1702.000000	76.427284
1701.000000	76.448750
1700.000000	76.517108
1699.000000	76.573958
1698.000000	76.585796
1697.000000	76.603360
1696.000000	76.663288
1695.000000	76.738511
1694.000000	76.799117
1693.000000	76.850117
1692.000000	76.912264
1691.000000	76.999051
1690.000000	77.091547
1689.000000	77.157892
1688.000000	77.189729
1687.000000	77.198915
1686.000000	77.200553
1685.000000	77.200881
1684.000000	77.193146
1683.000000	77.192183
1682.000000	77.205681
1681.000000	77.199055
1680.000000	77.171703
1679.000000	77.146637
1678.000000	77.123996
1677.000000	77.082925
1676.000000	77.022795
1675.000000	76.978476
1674.000000	76.954498
1673.000000	76.917427
1672.000000	76.862614
1671.000000	76.822777
1670.000000	76.805955
1669.000000	76.775525
1668.000000	76.724324
1667.000000	76.687921
1666.000000	76.673669
1665.000000	76.653624
1664.000000	76.608915
1663.000000	76.551525
1662.000000	76.489049
1661.000000	76.399840
1660.000000	76.273724
1659.000000	76.150124
1658.000000	76.062608
1657.000000	75.996846
1656.000000	75.899505
1655.000000	75.711948
1654.000000	75.333046
1653.000000	74.711905
1652.000000	74.069320
1651.000000	73.551910
1650.000000	73.025740
1649.000000	72.321584
1648.000000	71.212692
1647.000000	69.506404
1646.000000	67.314498
1645.000000	64.907620
1644.000000	62.330305
1643.000000	59.436616
1642.000000	56.127305
1641.000000	52.489208
1640.000000	48.829053
1639.000000	45.479362
1638.000000	42.576712
1637.000000	40.109950
1636.000000	38.231229
1635.000000	37.311327
1634.000000	37.436140
1633.000000	38.305729
1632.000000	39.627372
1631.000000	41.243684
1630.000000	43.082851
1629.000000	45.100028
1628.000000	47.219932
1627.000000	49.304748
1626.000000	51.265540
1625.000000	53.168272
1624.000000	55.122860
1623.000000	57.075409
1622.000000	58.824294
1621.000000	60.274762
1620.000000	61.511672
1619.000000	62.659286
1618.000000	63.798514
1617.000000	64.949835
1616.000000	66.040055
1615.000000	66.956717
1614.000000	67.678531
1613.000000	68.279874
1612.000000	68.834328
1611.000000	69.339355
1610.000000	69.734037
1609.000000	69.982973
1608.000000	70.089573
1607.000000	70.039671
1606.000000	69.784319
1605.000000	69.283009
1604.000000	68.521829
1603.000000	67.478769
1602.000000	66.143166
1601.000000	64.587952
1600.000000	62.971530
1599.000000	61.457129
1598.000000	60.141653
1597.000000	59.062651
1596.000000	58.225790
1595.000000	57.595629
1594.000000	57.086999
1593.000000	56.610657
1592.000000	56.121292
1591.000000	55.598816
1590.000000	55.015983
1589.000000	54.353534
1588.000000	53.620466
1587.000000	52.821898
1586.000000	51.927206
1585.000000	50.907111
1584.000000	49.785025
1583.000000	48.603618
1582.000000	47.374267
1581.000000	46.110134
1580.000000	44.859635
1579.000000	43.609687
1578.000000	42.168654
1577.000000	40.239793
1576.000000	37.856359
1575.000000	35.573035
1574.000000	33.789865
1573.000000	32.385232
1572.000000	31.110268
1571.000000	29.841629
1570.000000	28.605584
1569.000000	27.544528
1568.000000	26.818130
1567.000000	26.481952
1566.000000	26.454307
1565.000000	26.601809
1564.000000	26.874761
1563.000000	27.310408
1562.000000	27.938223
1561.000000	28.735577
1560.000000	29.757739
1559.000000	31.083694
1558.000000	32.469785
1557.000000	33.623843
1556.000000	34.578874
1555.000000	35.478340
1554.000000	36.344422
1553.000000	37.101904
1552.000000	37.736771
1551.000000	38.331963
1550.000000	38.959225
1549.000000	39.624161
1548.000000	40.341504
1547.000000	41.183041
1546.000000	42.200481
1545.000000	43.336104
1544.000000	44.463798
1543.000000	45.528891
1542.000000	46.579753
1541.000000	47.661204
1540.000000	48.733881
1539.000000	49.741666
1538.000000	50.660868
1537.000000	51.478585
1536.000000	52.242018
1535.000000	53.043264
1534.000000	53.915213
1533.000000	54.774515
1532.000000	55.539942
1531.000000	56.243870
1530.000000	56.954413
1529.000000	57.684061
1528.000000	58.398794
1527.000000	59.067590
1526.000000	59.669862
1525.000000	60.197274
1524.000000	60.675810
1523.000000	61.156879
1522.000000	61.649498
1521.000000	62.091155
1520.000000	62.456809
1519.000000	62.801823
1518.000000	63.165139
1517.000000	63.516976
1516.000000	63.817894
1515.000000	64.092274
1514.000000	64.383960
1513.000000	64.711648
1512.000000	65.084047
1511.000000	65.491953
1510.000000	65.901465
1509.000000	66.268051
1508.000000	66.553045
1507.000000	66.705352
1506.000000	66.788351
1505.000000	66.959408
1504.000000	67.225868
1503.000000	67.540403
1502.000000	67.875809
1501.000000	68.195178
1500.000000	68.486127
1499.000000	68.757965
1498.000000	68.996950
1497.000000	69.184459
1496.000000	69.351190
1495.000000	69.539706
1494.000000	69.743333
1493.000000	69.946093
1492.000000	70.168125
1491.000000	70.430354
1490.000000	70.681611
1489.000000	70.853464
1488.000000	70.958559
1487.000000	71.048670
1486.000000	71.131769
1485.000000	71.163535
1484.000000	71.116228
1483.000000	70.985535
1482.000000	70.731110
1481.000000	70.302040
1480.000000	69.705082
1479.000000	68.940149
1478.000000	67.893653
1477.000000	66.421834
1476.000000	64.525643
1475.000000	62.305059
1474.000000	59.759199
1473.000000	56.914054
1472.000000	54.172258
1471.000000	52.051272
1470.000000	50.650704
1469.000000	49.791257
1468.000000	49.362638
1467.000000	49.377909
1466.000000	49.898547
1465.000000	50.917501
1464.000000	52.242738
1463.000000	53.559166
1462.000000	54.633825
1461.000000	55.383824
1460.000000	55.773513
1459.000000	55.708979
1458.000000	55.005395
1457.000000	53.708306
1456.000000	52.395906
1455.000000	51.549032
1454.000000	51.101952
1453.000000	50.853569
1452.000000	50.706657
1451.000000	50.635272
1450.000000	50.640020
1449.000000	50.740464
1448.000000	50.955859
1447.000000	51.258580
1446.000000	51.598714
1445.000000	51.978690
1444.000000	52.447962
1443.000000	53.046990
1442.000000	53.795791
1441.000000	54.714041
1440.000000	55.823448
1439.000000	57.139333
1438.000000	58.671247
1437.000000	60.348723
1436.000000	61.927921
1435.000000	63.173340
1434.000000	64.099975
1433.000000	64.864238
1432.000000	65.556958
1431.000000	66.174059
1430.000000	66.693266
1429.000000	67.131095
1428.000000	67.521319
1427.000000	67.886936
1426.000000	68.237799
1425.000000	68.568477
1424.000000	68.867715
1423.000000	69.136793
1422.000000	69.398221
1421.000000	69.672120
1420.000000	69.951519
1419.000000	70.191993
1418.000000	70.354748
1417.000000	70.479563
1416.000000	70.629535
1415.000000	70.821153
1414.000000	71.040970
1413.000000	71.273355
1412.000000	71.507559
1411.000000	71.731138
1410.000000	71.934472
1409.000000	72.127281
1408.000000	72.326526
1407.000000	72.533562
1406.000000	72.730502
1405.000000	72.893882
1404.000000	73.016276
1403.000000	73.105038
1402.000000	73.150662
1401.000000	73.100529
1400.000000	72.874998
1399.000000	72.457677
1398.000000	71.974348
1397.000000	71.618093
1396.000000	71.511346
1395.000000	71.647034
1394.000000	71.895136
1393.000000	72.118925
1392.000000	72.300426
1391.000000	72.510315
1390.000000	72.812097
1389.000000	73.208861
1388.000000	73.642674
1387.000000	74.040403
1386.000000	74.376216
1385.000000	74.683246
1384.000000	75.005110
1383.000000	75.352888
1382.000000	75.705765
1381.000000	76.031122
1380.000000	76.297274
1379.000000	76.479265
1378.000000	76.560875
1377.000000	76.505346
1376.000000	76.184292
1375.000000	75.321108
1374.000000	73.538848
1373.000000	70.573181
1372.000000	66.479910
1371.000000	61.696925
1370.000000	57.037298
1369.000000	53.547720
1368.000000	52.044213
1367.000000	52.561449
1366.000000	54.365038
1365.000000	56.469414
1364.000000	58.018754
1363.000000	58.449593
1362.000000	57.705975
1361.000000	56.365922
1360.000000	55.351980
1359.000000	55.434985
1358.000000	56.889430
1357.000000	59.402307
1356.000000	62.309137
1355.000000	64.999465
1354.000000	67.177923
1353.000000	68.848413
1352.000000	70.134248
1351.000000	71.153158
1350.000000	71.993486
1349.000000	72.706130
1348.000000	73.311611
1347.000000	73.828678
1346.000000	74.284101
1345.000000	74.693010
1344.000000	75.057719
1343.000000	75.389320
1342.000000	75.713152
1341.000000	76.036004
1340.000000	76.327297
1339.000000	76.558907
1338.000000	76.743250
1337.000000	76.913423
1336.000000	77.083185
1335.000000	77.239971
1334.000000	77.354154
1333.000000	77.362214
1332.000000	77.153414
1331.000000	76.598282
1330.000000	75.602840
1329.000000	74.144602
1328.000000	72.245188
1327.000000	69.920795
1326.000000	67.184885
1325.000000	64.157327
1324.000000	61.223674
1323.000000	58.986963
1322.000000	57.913430
1321.000000	57.996271
1320.000000	58.797056
1319.000000	59.797561
1318.000000	60.712467
1317.000000	61.510496
1316.000000	62.249132
1315.000000	62.972612
1314.000000	63.720008
1313.000000	64.559012
1312.000000	65.570066
1311.000000	66.786964
1310.000000	68.147588
1309.000000	69.499876
1308.000000	70.662937
1307.000000	71.505114
1306.000000	71.981196
1305.000000	72.093804
1304.000000	71.849690
1303.000000	71.248187
1302.000000	70.290736
1301.000000	69.013903
1300.000000	67.540257
1299.000000	66.107383
1298.000000	64.995544
1297.000000	64.376133
1296.000000	64.212593
1295.000000	64.288721
1294.000000	64.317493
1293.000000	64.043189
1292.000000	63.302630
1291.000000	62.041054
1290.000000	60.274465
1289.000000	58.059405
1288.000000	55.546237
1287.000000	53.065192
1286.000000	51.079201
1285.000000	49.973525
1284.000000	49.864610
1283.000000	50.596431
1282.000000	51.914375
1281.000000	53.623174
1280.000000	55.587777
1279.000000	57.616154
1278.000000	59.406355
1277.000000	60.658407
1276.000000	61.230583
1275.000000	61.190035
1274.000000	60.753538
1273.000000	60.212979
1272.000000	59.886914
1271.000000	60.055036
1270.000000	60.851847
1269.000000	62.199805
1268.000000	63.861308
1267.000000	65.572333
1266.000000	67.147854
1265.000000	68.509348
1264.000000	69.657254
1263.000000	70.628301
1262.000000	71.462368
1261.000000	72.185535
1260.000000	72.810093
1259.000000	73.345761
1258.000000	73.809142
1257.000000	74.213939
1256.000000	74.564902
1255.000000	74.866429
1254.000000	75.128518
1253.000000	75.363876
1252.000000	75.581674
1251.000000	75.791432
1250.000000	76.005288
1249.000000	76.228841
1248.000000	76.456960
1247.000000	76.681494
1246.000000	76.896849
1245.000000	77.096099
1244.000000	77.269364
1243.000000	77.412840
1242.000000	77.533126
1241.000000	77.637868
1240.000000	77.727872
1239.000000	77.801011
1238.000000	77.858013
1237.000000	77.897775
1236.000000	77.913926
1235.000000	77.903016
1234.000000	77.868908
1233.000000	77.815671
1232.000000	77.740849
1231.000000	77.639098
1230.000000	77.506882
1229.000000	77.335203
1228.000000	77.106794
1227.000000	76.802756
1226.000000	76.404326
1225.000000	75.888852
1224.000000	75.220690
1223.000000	74.357964
1222.000000	73.258491
1221.000000	71.875492
1220.000000	70.176155
1219.000000	68.163582
1218.000000	65.888066
1217.000000	63.438533
1216.000000	60.932479
1215.000000	58.514882
1214.000000	56.347175
1213.000000	54.585026
1212.000000	53.356531
1211.000000	52.736312
1210.000000	52.693207
1209.000000	53.083788
1208.000000	53.700775
1207.000000	54.328403
1206.000000	54.785315
1205.000000	54.942083
1204.000000	54.731530
1203.000000	54.151405
1202.000000	53.262197
1201.000000	52.190888
1200.000000	51.135235
1199.000000	50.333980
1198.000000	49.989577
1197.000000	50.192432
1196.000000	50.914481
1195.000000	52.045237
1194.000000	53.442478
1193.000000	54.980331
1192.000000	56.569170
1191.000000	58.159289
1190.000000	59.720537
1189.000000	61.228309
1188.000000	62.663362
1187.000000	64.011031
1186.000000	65.257248
1185.000000	66.390813
1184.000000	67.409068
1183.000000	68.314173
1182.000000	69.110049
1181.000000	69.795910
1180.000000	70.371324
1179.000000	70.845544
1178.000000	71.231048
1177.000000	71.536696
1176.000000	71.761422
1175.000000	71.899936
1174.000000	71.948760
1173.000000	71.893725
1172.000000	71.706279
1171.000000	71.340405
1170.000000	70.734487
1169.000000	69.822478
1168.000000	68.550768
1167.000000	66.922179
1166.000000	65.030291
1165.000000	63.065017
1164.000000	61.284768
1163.000000	59.955206
1162.000000	59.258599
1161.000000	59.237082
1160.000000	59.805294
1159.000000	60.792964
1158.000000	62.006983
1157.000000	63.271273
1156.000000	64.453387
1155.000000	65.473668
1154.000000	66.291725
1153.000000	66.891336
1152.000000	67.271912
1151.000000	67.445156
1150.000000	67.423429
1149.000000	67.216432
1148.000000	66.816482
1147.000000	66.196196
1146.000000	65.306699
1145.000000	64.063398
1144.000000	62.368559
1143.000000	60.134975
1142.000000	57.329666
1141.000000	54.026764
1140.000000	50.432832
1139.000000	46.858657
1138.000000	43.599822
1137.000000	40.808378
1136.000000	38.453365
1135.000000	36.395978
1134.000000	34.509914
1133.000000	32.821229
1132.000000	31.576925
1131.000000	31.148687
1130.000000	31.852895
1129.000000	33.758389
1128.000000	36.639974
1127.000000	40.048678
1126.000000	43.427798
1125.000000	46.247986
1124.000000	48.103618
1123.000000	48.753743
1122.000000	48.129089
1121.000000	46.334539
1120.000000	43.588266
1119.000000	40.184092
1118.000000	36.502031
1117.000000	33.055914
1116.000000	30.479949
1115.000000	29.351501
1114.000000	29.918867
1113.000000	31.962829
1112.000000	34.892742
1111.000000	37.936878
1110.000000	40.400850
1109.000000	41.928906
1108.000000	42.648543
1107.000000	43.057242
1106.000000	43.677094
1105.000000	44.741195
1104.000000	46.121477
1103.000000	47.455547
1102.000000	48.289545
1101.000000	48.232569
1100.000000	47.130079
1099.000000	45.224940
1098.000000	43.169928
1097.000000	41.794615
1096.000000	41.730070
1095.000000	43.120892
1094.000000	45.600210
1093.000000	48.538499
1092.000000	51.387764
1091.000000	53.853023
1090.000000	55.870016
1089.000000	57.497088
1088.000000	58.829278
1087.000000	59.961934
1086.000000	60.974462
1085.000000	61.916645
1084.000000	62.806267
1083.000000	63.647993
1082.000000	64.436291
1081.000000	65.157794
1080.000000	65.797754
1079.000000	66.345289
1078.000000	66.797139
1077.000000	67.140896
1076.000000	67.348184
1075.000000	67.378808
1074.000000	67.170036
1073.000000	66.638727
1072.000000	65.659179
1071.000000	64.062569
1070.000000	61.648680
1069.000000	58.187028
1068.000000	53.519364
1067.000000	47.705701
1066.000000	41.171716
1065.000000	34.724143
1064.000000	29.340529
1063.000000	25.752111
1062.000000	24.030718
1061.000000	23.504909
1060.000000	23.139421
1059.000000	22.176507
1058.000000	20.552141
1057.000000	18.896518
1056.000000	18.121636
1055.000000	18.844024
1054.000000	21.087666
1053.000000	24.372646
1052.000000	28.067650
1051.000000	31.688353
1050.000000	34.971142
1049.000000	37.844515
1048.000000	40.357576
1047.000000	42.603858
1046.000000	44.649673
1045.000000	46.517596
1044.000000	48.205876
1043.000000	49.716341
1042.000000	51.057297
1041.000000	52.232963
1040.000000	53.255499
1039.000000	54.142639
1038.000000	54.909973
1037.000000	55.567896
1036.000000	56.125979
1035.000000	56.603203
1034.000000	57.017906
1033.000000	57.381177
1032.000000	57.703951
1031.000000	58.000194
1030.000000	58.282046
1029.000000	58.550690
1028.000000	58.799420
1027.000000	59.020944
1026.000000	59.202792
1025.000000	59.325888
1024.000000	59.370341
1023.000000	59.323214
1022.000000	59.180071
1021.000000	58.934432
1020.000000	58.578373
1019.000000	58.097588
1018.000000	57.457553
1017.000000	56.602399
1016.000000	55.462473
1015.000000	53.992063
1014.000000	52.209940
1013.000000	50.233895
1012.000000	48.286778
1011.000000	46.629328
1010.000000	45.427565
1009.000000	44.641661
1008.000000	44.050801
1007.000000	43.420520
1006.000000	42.725058
1005.000000	42.234612
1004.000000	42.373363
1003.000000	43.426185
1002.000000	45.307818
1001.000000	47.613017
1000.000000	49.851365
999.000000	51.657163
998.000000	52.854858
997.000000	53.422830
996.000000	53.453774
995.000000	53.136618
994.000000	52.735701
993.000000	52.538701
992.000000	52.781111
991.000000	53.558421
990.000000	54.779785
989.000000	56.221129
988.000000	57.654059
987.000000	58.937289
986.000000	60.028891
985.000000	60.948662
984.000000	61.740947
983.000000	62.451759
982.000000	63.113126
981.000000	63.735476
980.000000	64.315516
979.000000	64.850740
978.000000	65.336098
977.000000	65.762496
976.000000	66.124997
975.000000	66.431920
974.000000	66.702565
973.000000	66.954851
972.000000	67.203443
971.000000	67.462340
970.000000	67.739649
969.000000	68.031487
968.000000	68.325587
967.000000	68.611248
966.000000	68.881520
965.000000	69.129062
964.000000	69.348499
963.000000	69.541679
962.000000	69.715910
961.000000	69.877404
960.000000	70.031153
959.000000	70.186358
958.000000	70.354298
957.000000	70.540813
956.000000	70.745037
955.000000	70.963934
954.000000	71.192042
953.000000	71.417544
952.000000	71.625547
951.000000	71.807610
950.000000	71.964591
949.000000	72.102062
948.000000	72.228377
947.000000	72.356316
946.000000	72.499038
945.000000	72.661360
944.000000	72.839044
943.000000	73.025657
942.000000	73.215368
941.000000	73.399955
940.000000	73.570316
939.000000	73.723310
938.000000	73.862359
937.000000	73.990282
936.000000	74.107393
935.000000	74.216773
934.000000	74.325345
933.000000	74.437607
932.000000	74.554007
931.000000	74.677179
930.000000	74.812638
929.000000	74.960750
928.000000	75.113522
927.000000	75.262157
926.000000	75.402445
925.000000	75.530386
924.000000	75.639851
923.000000	75.729291
922.000000	75.805647
921.000000	75.878054
920.000000	75.952111
919.000000	76.033118
918.000000	76.128355
917.000000	76.240685
916.000000	76.364685
915.000000	76.493048
914.000000	76.621834
913.000000	76.745619
912.000000	76.851722
911.000000	76.926366
910.000000	76.958636
909.000000	76.930073
908.000000	76.806182
907.000000	76.537970
906.000000	76.075676
905.000000	75.371797
904.000000	74.393757
903.000000	73.174621
902.000000	71.872918
901.000000	70.771027
900.000000	70.172810
899.000000	70.246082
898.000000	70.921952
897.000000	71.950152
896.000000	73.048490
895.000000	74.030749
894.000000	74.838674
893.000000	75.488150
892.000000	76.017917
891.000000	76.465497
890.000000	76.860506
889.000000	77.214462
888.000000	77.520936
887.000000	77.754750
886.000000	77.867172
885.000000	77.785188
884.000000	77.441487
883.000000	76.845101
882.000000	76.113221
881.000000	75.410491
880.000000	74.830662
879.000000	74.337290
878.000000	73.836878
877.000000	73.317780
876.000000	72.919980
875.000000	72.846453
874.000000	73.201025
873.000000	73.900561
872.000000	74.740723
871.000000	75.533204
870.000000	76.188375
869.000000	76.706895
868.000000	77.126475
867.000000	77.486666
866.000000	77.814189
865.000000	78.118934
864.000000	78.395357
863.000000	78.634653
862.000000	78.832606
861.000000	78.985951
860.000000	79.091258
859.000000	79.150967
858.000000	79.179489
857.000000	79.198142
856.000000	79.227433
855.000000	79.286030
854.000000	79.388035
853.000000	79.534175
852.000000	79.707164
851.000000	79.879571
850.000000	80.025238
849.000000	80.124186
848.000000	80.166610
847.000000	80.160404
846.000000	80.131353
845.000000	80.110392
844.000000	80.120479
843.000000	80.173840
842.000000	80.272375
841.000000	80.404822
840.000000	80.548806
839.000000	80.682473
838.000000	80.793727
837.000000	80.877633
836.000000	80.931483
835.000000	80.957968
834.000000	80.967913
833.000000	80.973881
832.000000	80.984586
831.000000	81.009588
830.000000	81.063595
829.000000	81.158736
828.000000	81.294340
827.000000	81.458105
826.000000	81.633378
825.000000	81.800057
824.000000	81.935049
823.000000	82.022533
822.000000	82.065045
821.000000	82.080293
820.000000	82.090060
819.000000	82.114341
818.000000	82.167697
817.000000	82.252201
816.000000	82.353864
815.000000	82.450695
814.000000	82.523074
813.000000	82.554355
812.000000	82.529352
811.000000	82.438073
810.000000	82.278254
809.000000	82.048213
808.000000	81.736023
807.000000	81.323416
806.000000	80.790463
805.000000	80.112234
804.000000	79.256489
803.000000	78.182968
802.000000	76.850237
801.000000	75.212051
800.000000	73.223754
799.000000	70.868913
798.000000	68.174044
797.000000	65.212799
796.000000	62.095509
795.000000	58.960563
794.000000	55.956867
793.000000	53.226558
792.000000	50.898188
791.000000	49.082014
790.000000	47.858234
789.000000	47.254456
788.000000	47.247344
787.000000	47.760557
786.000000	48.673338
785.000000	49.842714
784.000000	51.123287
783.000000	52.386934
782.000000	53.524959
781.000000	54.453784
780.000000	55.120712
779.000000	55.510977
778.000000	55.645916
777.000000	55.569819
776.000000	55.328578
775.000000	54.952350
774.000000	54.464860
773.000000	53.913449
772.000000	53.401531
771.000000	53.082195
770.000000	53.111341
769.000000	53.585267
768.000000	54.507954
767.000000	55.798593
766.000000	57.328916
765.000000	58.970803
764.000000	60.623193
763.000000	62.220421
762.000000	63.725247
761.000000	65.118954
760.000000	66.392359
759.000000	67.543738
758.000000	68.580893
757.000000	69.517945
756.000000	70.369965
755.000000	71.151540
754.000000	71.881234
753.000000	72.578600
752.000000	73.256107
751.000000	73.916088
750.000000	74.552199
749.000000	75.150012
748.000000	75.686951
747.000000	76.140948
746.000000	76.504734
745.000000	76.790006
744.000000	77.020226
743.000000	77.222651
742.000000	77.423596
741.000000	77.641318
740.000000	77.877940
739.000000	78.120844
738.000000	78.350743
737.000000	78.544763
736.000000	78.676656
735.000000	78.724204
734.000000	78.680714
733.000000	78.556214
732.000000	78.370505
731.000000	78.151100
730.000000	77.933154
729.000000	77.748997
728.000000	77.612669
727.000000	77.513059
726.000000	77.416727
725.000000	77.275331
724.000000	77.031162
723.000000	76.618828
722.000000	75.960891
721.000000	74.972921
720.000000	73.596171
719.000000	71.848525
718.000000	69.848502
717.000000	67.792761
716.000000	65.910351
715.000000	64.414038
714.000000	63.459304
713.000000	63.110760
712.000000	63.328424
711.000000	63.989626
710.000000	64.944246
709.000000	66.063170
708.000000	67.252005
707.000000	68.447290
706.000000	69.614551
705.000000	70.743909
704.000000	71.831313
703.000000	72.868005
702.000000	73.849441
701.000000	74.778902
700.000000	75.651651
699.000000	76.448675
698.000000	77.152292
697.000000	77.759002
696.000000	78.272250
695.000000	78.696407
694.000000	79.049783
693.000000	79.368340
692.000000	79.684481
691.000000	80.009440
690.000000	80.340137
689.000000	80.670004
688.000000	80.982507
687.000000	81.251356
686.000000	81.463861
685.000000	81.630660
684.000000	81.764173
683.000000	81.866908
682.000000	81.950482
681.000000	82.040671
680.000000	82.145787
679.000000	82.247444
678.000000	82.333367
677.000000	82.406189
676.000000	82.475803
675.000000	82.546581
674.000000	82.632891
673.000000	82.799324
672.000000	83.174497
671.000000	83.871597
670.000000	84.830124
669.000000	85.646955
668.000000	85.717082
667.000000	84.983741
666.000000	84.062336
665.000000	83.409030
664.000000	83.109722
663.000000	83.059219
662.000000	83.116459
661.000000	83.188102
660.000000	83.237772
659.000000	83.269505
658.000000	83.302124
657.000000	83.335500
656.000000	83.360720
655.000000	83.381485
654.000000	83.396835
653.000000	83.388342
652.000000	83.351669
651.000000	83.315106
650.000000	83.303164
649.000000	83.304823
648.000000	83.298895
647.000000	83.285101
646.000000	83.265274
645.000000	83.221804
644.000000	83.137774
643.000000	83.021137
642.000000	82.890862
641.000000	82.750492
640.000000	82.600401
639.000000	82.458068
638.000000	82.340581
637.000000	82.240660
636.000000	82.142279
635.000000	82.043407
634.000000	81.943592
633.000000	81.827167
632.000000	81.678103
631.000000	81.496142
630.000000	81.282888
629.000000	81.029180
628.000000	80.734887
627.000000	80.425256
626.000000	80.126135
625.000000	79.842966
624.000000	79.575050
623.000000	79.330097
622.000000	79.102584
621.000000	78.857247
620.000000	78.556933
619.000000	78.182858
618.000000	77.716940
617.000000	77.135187
616.000000	76.447237
615.000000	75.710916
614.000000	74.975699
613.000000	74.236152
612.000000	73.463257
611.000000	72.647245
610.000000	71.777212
609.000000	70.809156
608.000000	69.697360
607.000000	68.435689
606.000000	67.030998
605.000000	65.472753
604.000000	63.766029
603.000000	61.963709
602.000000	60.113881
601.000000	58.213539
600.000000	56.258299
599.000000	54.299064
598.000000	52.384671
597.000000	50.498541
596.000000	48.618577
595.000000	46.783313
594.000000	45.037258
593.000000	43.363555
592.000000	41.754278
591.000000	40.277507
590.000000	38.994746
589.000000	37.875864
588.000000	36.863690
587.000000	35.946850
586.000000	35.090059
585.000000	34.180838
584.000000	33.135356
583.000000	31.995341
582.000000	30.851308
581.000000	29.759489
580.000000	28.803873
579.000000	28.152259
578.000000	27.932122
577.000000	28.132678
576.000000	28.681805
575.000000	29.508949
574.000000	30.484052
573.000000	31.402185
572.000000	32.135894
571.000000	32.747548
570.000000	33.403218
569.000000	34.225784
568.000000	35.264048
567.000000	36.507584
566.000000	37.853384
565.000000	39.136471
564.000000	40.258780
563.000000	41.240946
562.000000	42.125436
561.000000	42.906425
560.000000	43.589385
559.000000	44.233488
558.000000	44.879850
557.000000	45.505888
556.000000	46.092906
555.000000	46.679292
554.000000	47.296204
553.000000	47.919265
552.000000	48.530330
551.000000	49.164187
550.000000	49.846895
549.000000	50.545262
548.000000	51.225375
547.000000	51.900154
546.000000	52.575026
545.000000	53.204576
544.000000	53.754999
543.000000	54.254812
542.000000	54.743595
541.000000	55.220216
540.000000	55.682757
539.000000	56.164917
538.000000	56.685497
537.000000	57.209034
536.000000	57.694264
535.000000	58.145598
534.000000	58.572426
533.000000	58.956863
532.000000	59.280237
531.000000	59.551224
530.000000	59.777151
529.000000	59.932844
528.000000	59.979546
527.000000	59.904717
526.000000	59.702575
525.000000	59.350832
524.000000	58.855105
523.000000	58.274316
522.000000	57.686262
521.000000	57.141525
520.000000	56.650701
519.000000	56.158799
518.000000	55.485833
517.000000	54.369281
516.000000	52.644151
515.000000	50.385499
514.000000	47.861944
513.000000	45.413375
512.000000	43.380239
511.000000	42.054414
510.000000	41.573341
509.000000	41.882345
508.000000	42.848575
507.000000	44.327709
506.000000	46.122313
505.000000	48.006180
504.000000	49.841103
503.000000	51.600732
502.000000	53.249496
501.000000	54.708477
500.000000	55.956599
499.000000	57.076773
498.000000	58.154857
497.000000	59.203394
496.000000	60.194790
495.000000	61.109581
494.000000	61.935142
493.000000	62.642028
492.000000	63.213834
491.000000	63.693938
490.000000	64.150019
489.000000	64.629136
488.000000	65.149792
487.000000	65.720093
486.000000	66.326323
485.000000	66.913952
484.000000	67.421398
483.000000	67.832413
482.000000	68.168330
481.000000	68.439747
480.000000	68.651705
479.000000	68.834980
478.000000	69.003634
477.000000	69.126925
476.000000	69.176861
475.000000	69.154562
474.000000	69.018842
473.000000	68.635268
472.000000	67.885886
471.000000	66.841434
470.000000	65.692836
469.000000	64.608369
468.000000	63.740494
467.000000	63.206883
466.000000	62.926025
465.000000	62.592487
464.000000	61.901188
463.000000	60.789472
462.000000	59.516467
461.000000	58.517209
460.000000	58.224969
459.000000	58.929240
458.000000	60.560347
457.000000	62.595416
456.000000	64.470915
455.000000	66.027644
454.000000	67.344812
453.000000	68.442578
452.000000	69.281764
451.000000	69.901075
450.000000	70.345643
449.000000	70.552711
448.000000	70.401539
447.000000	69.834217
446.000000	68.889654
445.000000	67.685303
444.000000	66.447230
443.000000	65.500326
442.000000	65.095042
441.000000	65.242576
440.000000	65.827872
439.000000	66.744399
438.000000	67.854146
437.000000	68.948348
436.000000	69.839551
435.000000	70.463976
434.000000	70.839844
433.000000	70.989657
432.000000	70.956189
431.000000	70.829948
430.000000	70.698106
429.000000	70.575425
428.000000	70.456800
427.000000	70.385977
426.000000	70.385303
425.000000	70.370610
424.000000	70.247586
423.000000	70.073769
422.000000	69.965285
421.000000	69.895484
420.000000	69.713671
419.000000	69.370751
418.000000	69.015008
417.000000	68.739597
416.000000	68.547819
415.000000	68.493449
414.000000	68.610762
413.000000	68.827008
412.000000	69.057920
411.000000	69.296979
410.000000	69.543049
409.000000	69.688228
408.000000	69.659253
407.000000	69.577198
406.000000	69.602142
405.000000	69.720536
404.000000	69.876191
403.000000	70.150591
402.000000	70.633660
401.000000	71.220749
400.000000	71.697756
