PE IR       SUBTECH     SPECTRUM    ASCII       PEDS        4.00        
   -1
23MS240_nitro.asc
24/09/09
17:01:22.00
24/09/09
17:01:22.00
Administrator
Sample 1148 By Administrator Date Monday, September 09 2024
400.000000
#HDR
-1
-1
#GR
cm-1
%T
1.0
0.0
4000.000000
-1.000000
3601
8
75.570816
0.317741
#DATA
4000.000000	38.136355
3999.000000	38.183013
3998.000000	38.231343
3997.000000	38.280461
3996.000000	38.328989
3995.000000	38.375674
3994.000000	38.420151
3993.000000	38.463172
3992.000000	38.506011
3991.000000	38.549598
3990.000000	38.594033
3989.000000	38.638892
3988.000000	38.683798
3987.000000	38.728568
3986.000000	38.772985
3985.000000	38.816538
3984.000000	38.858563
3983.000000	38.898661
3982.000000	38.937124
3981.000000	38.974995
3980.000000	39.013649
3979.000000	39.054122
3978.000000	39.096546
3977.000000	39.140012
3976.000000	39.183004
3975.000000	39.224122
3974.000000	39.262661
3973.000000	39.298837
3972.000000	39.333563
3971.000000	39.368066
3970.000000	39.403333
3969.000000	39.439692
3968.000000	39.476808
3967.000000	39.513998
3966.000000	39.550683
3965.000000	39.586740
3964.000000	39.622468
3963.000000	39.658180
3962.000000	39.694058
3961.000000	39.730301
3960.000000	39.767276
3959.000000	39.805367
3958.000000	39.844403
3957.000000	39.883616
3956.000000	39.922229
3955.000000	39.959792
3954.000000	39.996163
3953.000000	40.031321
3952.000000	40.065609
3951.000000	40.100041
3950.000000	40.135749
3949.000000	40.172877
3948.000000	40.210424
3947.000000	40.247510
3946.000000	40.284616
3945.000000	40.323247
3944.000000	40.364027
3943.000000	40.405331
3942.000000	40.444855
3941.000000	40.482285
3940.000000	40.519441
3939.000000	40.558239
3938.000000	40.598452
3937.000000	40.637889
3936.000000	40.674894
3935.000000	40.709836
3934.000000	40.744652
3933.000000	40.780707
3932.000000	40.817865
3931.000000	40.855225
3930.000000	40.891885
3929.000000	40.928127
3928.000000	40.965313
3927.000000	41.004791
3926.000000	41.045875
3925.000000	41.085091
3924.000000	41.119256
3923.000000	41.148554
3922.000000	41.175772
3921.000000	41.204169
3920.000000	41.236420
3919.000000	41.274058
3918.000000	41.316283
3917.000000	41.359822
3916.000000	41.401531
3915.000000	41.440911
3914.000000	41.479967
3913.000000	41.520837
3912.000000	41.563819
3911.000000	41.607442
3910.000000	41.649110
3909.000000	41.686370
3908.000000	41.718534
3907.000000	41.746036
3906.000000	41.769156
3905.000000	41.786739
3904.000000	41.798359
3903.000000	41.808115
3902.000000	41.823303
3901.000000	41.849293
3900.000000	41.886331
3899.000000	41.930679
3898.000000	41.977966
3897.000000	42.024846
3896.000000	42.068938
3895.000000	42.110475
3894.000000	42.152228
3893.000000	42.196303
3892.000000	42.239672
3891.000000	42.276037
3890.000000	42.303417
3889.000000	42.326279
3888.000000	42.352203
3887.000000	42.386003
3886.000000	42.424060
3885.000000	42.458079
3884.000000	42.484949
3883.000000	42.509050
3882.000000	42.537029
3881.000000	42.571808
3880.000000	42.610377
3879.000000	42.648078
3878.000000	42.683189
3877.000000	42.716786
3876.000000	42.750285
3875.000000	42.782344
3874.000000	42.809497
3873.000000	42.831871
3872.000000	42.855042
3871.000000	42.883636
3870.000000	42.915739
3869.000000	42.947544
3868.000000	42.978930
3867.000000	43.011635
3866.000000	43.046694
3865.000000	43.084077
3864.000000	43.123526
3863.000000	43.164753
3862.000000	43.206186
3861.000000	43.246317
3860.000000	43.285119
3859.000000	43.322739
3858.000000	43.358531
3857.000000	43.392055
3856.000000	43.424745
3855.000000	43.455528
3854.000000	43.476568
3853.000000	43.487122
3852.000000	43.502061
3851.000000	43.532223
3850.000000	43.575672
3849.000000	43.627931
3848.000000	43.686104
3847.000000	43.747399
3846.000000	43.806807
3845.000000	43.858308
3844.000000	43.898025
3843.000000	43.926221
3842.000000	43.947144
3841.000000	43.966925
3840.000000	43.989599
3839.000000	44.016196
3838.000000	44.046674
3837.000000	44.079992
3836.000000	44.114136
3835.000000	44.147441
3834.000000	44.181061
3833.000000	44.218521
3832.000000	44.261814
3831.000000	44.309945
3830.000000	44.360658
3829.000000	44.412017
3828.000000	44.462185
3827.000000	44.508059
3826.000000	44.545728
3825.000000	44.574636
3824.000000	44.599231
3823.000000	44.625780
3822.000000	44.655484
3821.000000	44.682457
3820.000000	44.703794
3819.000000	44.723469
3818.000000	44.747027
3817.000000	44.778162
3816.000000	44.816860
3815.000000	44.861419
3814.000000	44.910033
3813.000000	44.958424
3812.000000	45.002527
3811.000000	45.043700
3810.000000	45.087001
3809.000000	45.134924
3808.000000	45.182427
3807.000000	45.220112
3806.000000	45.244341
3805.000000	45.259939
3804.000000	45.273678
3803.000000	45.291655
3802.000000	45.315553
3801.000000	45.343444
3800.000000	45.375858
3799.000000	45.413163
3798.000000	45.453754
3797.000000	45.497052
3796.000000	45.543801
3795.000000	45.594204
3794.000000	45.646392
3793.000000	45.697015
3792.000000	45.744347
3791.000000	45.789808
3790.000000	45.834818
3789.000000	45.878293
3788.000000	45.918409
3787.000000	45.954949
3786.000000	45.988756
3785.000000	46.019803
3784.000000	46.047848
3783.000000	46.074987
3782.000000	46.105222
3781.000000	46.141195
3780.000000	46.181697
3779.000000	46.223185
3778.000000	46.263446
3777.000000	46.302501
3776.000000	46.340617
3775.000000	46.377411
3774.000000	46.412746
3773.000000	46.447453
3772.000000	46.482686
3771.000000	46.518113
3770.000000	46.551901
3769.000000	46.583709
3768.000000	46.615882
3767.000000	46.650967
3766.000000	46.689382
3765.000000	46.728942
3764.000000	46.767586
3763.000000	46.805485
3762.000000	46.843658
3761.000000	46.882512
3760.000000	46.921551
3759.000000	46.959932
3758.000000	46.995437
3757.000000	47.024594
3756.000000	47.046115
3755.000000	47.062203
3754.000000	47.077096
3753.000000	47.094231
3752.000000	47.114547
3751.000000	47.137145
3750.000000	47.160154
3749.000000	47.181512
3748.000000	47.201162
3747.000000	47.224241
3746.000000	47.259530
3745.000000	47.308477
3744.000000	47.364275
3743.000000	47.424863
3742.000000	47.487595
3741.000000	47.543519
3740.000000	47.588078
3739.000000	47.626525
3738.000000	47.667518
3737.000000	47.713005
3736.000000	47.758094
3735.000000	47.798959
3734.000000	47.838321
3733.000000	47.881178
3732.000000	47.929692
3731.000000	47.983655
3730.000000	48.040530
3729.000000	48.096677
3728.000000	48.150550
3727.000000	48.202432
3726.000000	48.252635
3725.000000	48.300558
3724.000000	48.345343
3723.000000	48.387396
3722.000000	48.429151
3721.000000	48.473747
3720.000000	48.521770
3719.000000	48.571420
3718.000000	48.619567
3717.000000	48.662930
3716.000000	48.700265
3715.000000	48.732228
3714.000000	48.760859
3713.000000	48.788345
3712.000000	48.816933
3711.000000	48.849444
3710.000000	48.888091
3709.000000	48.932668
3708.000000	48.981382
3707.000000	49.032621
3706.000000	49.085200
3705.000000	49.138524
3704.000000	49.192340
3703.000000	49.246488
3702.000000	49.299246
3701.000000	49.348099
3700.000000	49.391931
3699.000000	49.432299
3698.000000	49.471417
3697.000000	49.509565
3696.000000	49.545537
3695.000000	49.578260
3694.000000	49.607267
3693.000000	49.633149
3692.000000	49.658943
3691.000000	49.688392
3690.000000	49.721854
3689.000000	49.755536
3688.000000	49.788179
3687.000000	49.823430
3686.000000	49.864283
3685.000000	49.910132
3684.000000	49.958677
3683.000000	50.008938
3682.000000	50.059524
3681.000000	50.105102
3680.000000	50.137976
3679.000000	50.154508
3678.000000	50.159185
3677.000000	50.160435
3676.000000	50.162842
3675.000000	50.169665
3674.000000	50.184511
3673.000000	50.205979
3672.000000	50.232133
3671.000000	50.267737
3670.000000	50.317273
3669.000000	50.377719
3668.000000	50.440976
3667.000000	50.498928
3666.000000	50.549136
3665.000000	50.595630
3664.000000	50.643468
3663.000000	50.694345
3662.000000	50.745034
3661.000000	50.788481
3660.000000	50.818615
3659.000000	50.833664
3658.000000	50.836841
3657.000000	50.834015
3656.000000	50.831233
3655.000000	50.833039
3654.000000	50.838681
3653.000000	50.843579
3652.000000	50.845063
3651.000000	50.842996
3650.000000	50.836598
3649.000000	50.827255
3648.000000	50.823048
3647.000000	50.832747
3646.000000	50.857890
3645.000000	50.894103
3644.000000	50.936707
3643.000000	50.982881
3642.000000	51.029370
3641.000000	51.071170
3640.000000	51.103693
3639.000000	51.124589
3638.000000	51.133952
3637.000000	51.133762
3636.000000	51.127384
3635.000000	51.117991
3634.000000	51.106330
3633.000000	51.090843
3632.000000	51.069788
3631.000000	51.044025
3630.000000	51.017413
3629.000000	50.995546
3628.000000	50.986618
3627.000000	50.995306
3626.000000	51.014641
3625.000000	51.034559
3624.000000	51.051947
3623.000000	51.068097
3622.000000	51.081714
3621.000000	51.086917
3620.000000	51.078377
3619.000000	51.057889
3618.000000	51.033004
3617.000000	51.009081
3616.000000	50.987123
3615.000000	50.968081
3614.000000	50.953939
3613.000000	50.945290
3612.000000	50.940747
3611.000000	50.938188
3610.000000	50.936625
3609.000000	50.937247
3608.000000	50.941844
3607.000000	50.950761
3606.000000	50.961405
3605.000000	50.969708
3604.000000	50.974219
3603.000000	50.977239
3602.000000	50.981274
3601.000000	50.985559
3600.000000	50.986314
3599.000000	50.979375
3598.000000	50.962853
3597.000000	50.938631
3596.000000	50.913190
3595.000000	50.893949
3594.000000	50.883840
3593.000000	50.879511
3592.000000	50.874430
3591.000000	50.863816
3590.000000	50.848176
3589.000000	50.832704
3588.000000	50.823029
3587.000000	50.821279
3586.000000	50.825610
3585.000000	50.832545
3584.000000	50.840055
3583.000000	50.848879
3582.000000	50.859831
3581.000000	50.871205
3580.000000	50.879809
3579.000000	50.883362
3578.000000	50.881065
3577.000000	50.873276
3576.000000	50.862078
3575.000000	50.851039
3574.000000	50.842899
3573.000000	50.837310
3572.000000	50.831147
3571.000000	50.820037
3570.000000	50.800707
3569.000000	50.773952
3568.000000	50.745984
3567.000000	50.725636
3566.000000	50.718519
3565.000000	50.723893
3564.000000	50.737382
3563.000000	50.755542
3562.000000	50.776071
3561.000000	50.795855
3560.000000	50.811349
3559.000000	50.820398
3558.000000	50.822471
3557.000000	50.817856
3556.000000	50.808224
3555.000000	50.797138
3554.000000	50.788510
3553.000000	50.784144
3552.000000	50.783247
3551.000000	50.783631
3550.000000	50.782976
3549.000000	50.780692
3548.000000	50.778759
3547.000000	50.779653
3546.000000	50.782754
3545.000000	50.784875
3544.000000	50.784500
3543.000000	50.783392
3542.000000	50.783634
3541.000000	50.785484
3540.000000	50.788712
3539.000000	50.793428
3538.000000	50.798391
3537.000000	50.799918
3536.000000	50.794965
3535.000000	50.784378
3534.000000	50.771968
3533.000000	50.761190
3532.000000	50.753462
3531.000000	50.748396
3530.000000	50.744012
3529.000000	50.738054
3528.000000	50.730283
3527.000000	50.722933
3526.000000	50.717890
3525.000000	50.714304
3524.000000	50.709693
3523.000000	50.702695
3522.000000	50.694052
3521.000000	50.685488
3520.000000	50.678243
3519.000000	50.671840
3518.000000	50.664148
3517.000000	50.653277
3516.000000	50.639332
3515.000000	50.623277
3514.000000	50.604505
3513.000000	50.581447
3512.000000	50.554741
3511.000000	50.528069
3510.000000	50.504925
3509.000000	50.485811
3508.000000	50.469027
3507.000000	50.453087
3506.000000	50.437590
3505.000000	50.422828
3504.000000	50.408974
3503.000000	50.395038
3502.000000	50.378781
3501.000000	50.358683
3500.000000	50.335736
3499.000000	50.311704
3498.000000	50.285973
3497.000000	50.255923
3496.000000	50.220640
3495.000000	50.182330
3494.000000	50.143514
3493.000000	50.104648
3492.000000	50.065272
3491.000000	50.025618
3490.000000	49.986032
3489.000000	49.946057
3488.000000	49.904610
3487.000000	49.860119
3486.000000	49.810604
3485.000000	49.755289
3484.000000	49.696853
3483.000000	49.640338
3482.000000	49.588476
3481.000000	49.538910
3480.000000	49.486289
3479.000000	49.426437
3478.000000	49.358478
3477.000000	49.284750
3476.000000	49.209418
3475.000000	49.135948
3474.000000	49.065530
3473.000000	48.998130
3472.000000	48.934025
3471.000000	48.872352
3470.000000	48.808542
3469.000000	48.735860
3468.000000	48.650437
3467.000000	48.553791
3466.000000	48.450676
3465.000000	48.346095
3464.000000	48.244246
3463.000000	48.147491
3462.000000	48.054739
3461.000000	47.961940
3460.000000	47.865125
3459.000000	47.762721
3458.000000	47.655328
3457.000000	47.544624
3456.000000	47.432730
3455.000000	47.320832
3454.000000	47.208091
3453.000000	47.092647
3452.000000	46.973658
3451.000000	46.851452
3450.000000	46.725851
3449.000000	46.596250
3448.000000	46.463614
3447.000000	46.330632
3446.000000	46.199204
3445.000000	46.068810
3444.000000	45.937665
3443.000000	45.804425
3442.000000	45.668562
3441.000000	45.530348
3440.000000	45.390687
3439.000000	45.249859
3438.000000	45.106240
3437.000000	44.956828
3436.000000	44.799341
3435.000000	44.633276
3434.000000	44.459801
3433.000000	44.281699
3432.000000	44.102022
3431.000000	43.921411
3430.000000	43.736926
3429.000000	43.545148
3428.000000	43.346250
3427.000000	43.143351
3426.000000	42.938838
3425.000000	42.732903
3424.000000	42.524739
3423.000000	42.313108
3422.000000	42.095768
3421.000000	41.870735
3420.000000	41.638347
3419.000000	41.400648
3418.000000	41.159431
3417.000000	40.916125
3416.000000	40.672553
3415.000000	40.429268
3414.000000	40.183154
3413.000000	39.929236
3412.000000	39.664713
3411.000000	39.389841
3410.000000	39.105338
3409.000000	38.811103
3408.000000	38.508098
3407.000000	38.199353
3406.000000	37.888652
3405.000000	37.579030
3404.000000	37.271547
3403.000000	36.963745
3402.000000	36.649083
3401.000000	36.319921
3400.000000	35.972378
3399.000000	35.608393
3398.000000	35.234184
3397.000000	34.857138
3396.000000	34.482384
3395.000000	34.110317
3394.000000	33.736582
3393.000000	33.355190
3392.000000	32.961732
3391.000000	32.554201
3390.000000	32.133453
3389.000000	31.703388
3388.000000	31.269259
3387.000000	30.834200
3386.000000	30.398077
3385.000000	29.960320
3384.000000	29.521351
3383.000000	29.080517
3382.000000	28.634732
3381.000000	28.180803
3380.000000	27.718080
3379.000000	27.247736
3378.000000	26.771297
3377.000000	26.291005
3376.000000	25.809577
3375.000000	25.328395
3374.000000	24.847018
3373.000000	24.365030
3372.000000	23.882607
3371.000000	23.398376
3370.000000	22.909425
3369.000000	22.414505
3368.000000	21.915548
3367.000000	21.415379
3366.000000	20.915906
3365.000000	20.419051
3364.000000	19.926643
3363.000000	19.438183
3362.000000	18.950925
3361.000000	18.463258
3360.000000	17.976159
3359.000000	17.490965
3358.000000	17.008230
3357.000000	16.529389
3356.000000	16.056972
3355.000000	15.591992
3354.000000	15.133357
3353.000000	14.680277
3352.000000	14.232772
3351.000000	13.789801
3350.000000	13.349672
3349.000000	12.913042
3348.000000	12.483102
3347.000000	12.061848
3346.000000	11.649059
3345.000000	11.244795
3344.000000	10.849923
3343.000000	10.463948
3342.000000	10.084912
3341.000000	9.712451
3340.000000	9.348166
3339.000000	8.992633
3338.000000	8.645197
3337.000000	8.306456
3336.000000	7.978365
3335.000000	7.661213
3334.000000	7.353195
3333.000000	7.053622
3332.000000	6.763200
3331.000000	6.481469
3330.000000	6.206808
3329.000000	5.939083
3328.000000	5.680158
3327.000000	5.431027
3326.000000	5.191448
3325.000000	4.962056
3324.000000	4.743639
3323.000000	4.534946
3322.000000	4.333612
3321.000000	4.139313
3320.000000	3.953521
3319.000000	3.776030
3318.000000	3.605542
3317.000000	3.442566
3316.000000	3.288810
3315.000000	3.143965
3314.000000	3.005722
3313.000000	2.873177
3312.000000	2.747006
3311.000000	2.626712
3310.000000	2.511198
3309.000000	2.401393
3308.000000	2.299758
3307.000000	2.207097
3306.000000	2.122489
3305.000000	2.046042
3304.000000	1.978029
3303.000000	1.916390
3302.000000	1.857979
3301.000000	1.801955
3300.000000	1.749420
3299.000000	1.700109
3298.000000	1.652753
3297.000000	1.608043
3296.000000	1.567906
3295.000000	1.532541
3294.000000	1.500839
3293.000000	1.473184
3292.000000	1.450764
3291.000000	1.432412
3290.000000	1.415611
3289.000000	1.399799
3288.000000	1.385989
3287.000000	1.373857
3286.000000	1.362099
3285.000000	1.351270
3284.000000	1.342917
3283.000000	1.336611
3282.000000	1.330716
3281.000000	1.325368
3280.000000	1.321807
3279.000000	1.319356
3278.000000	1.316246
3277.000000	1.312842
3276.000000	1.310895
3275.000000	1.310161
3274.000000	1.308794
3273.000000	1.306845
3272.000000	1.306373
3271.000000	1.308373
3270.000000	1.312224
3269.000000	1.317633
3268.000000	1.324439
3267.000000	1.331128
3266.000000	1.336218
3265.000000	1.340605
3264.000000	1.346075
3263.000000	1.352199
3262.000000	1.357347
3261.000000	1.361770
3260.000000	1.366913
3259.000000	1.372548
3258.000000	1.377397
3257.000000	1.381959
3256.000000	1.387851
3255.000000	1.395056
3254.000000	1.402403
3253.000000	1.410009
3252.000000	1.418524
3251.000000	1.426784
3250.000000	1.433035
3249.000000	1.437937
3248.000000	1.443763
3247.000000	1.451218
3246.000000	1.459464
3245.000000	1.468366
3244.000000	1.478183
3243.000000	1.487828
3242.000000	1.496086
3241.000000	1.503795
3240.000000	1.512470
3239.000000	1.521539
3238.000000	1.529339
3237.000000	1.535842
3236.000000	1.542107
3235.000000	1.548155
3234.000000	1.553848
3233.000000	1.560685
3232.000000	1.569990
3231.000000	1.580300
3230.000000	1.589155
3229.000000	1.596477
3228.000000	1.603708
3227.000000	1.610797
3226.000000	1.616754
3225.000000	1.622154
3224.000000	1.628265
3223.000000	1.634534
3222.000000	1.639529
3221.000000	1.643557
3220.000000	1.647912
3219.000000	1.652425
3218.000000	1.656193
3217.000000	1.659737
3216.000000	1.663960
3215.000000	1.667973
3214.000000	1.670337
3213.000000	1.671562
3212.000000	1.672981
3211.000000	1.674261
3210.000000	1.674361
3209.000000	1.673800
3208.000000	1.673581
3207.000000	1.673010
3206.000000	1.670972
3205.000000	1.668285
3204.000000	1.666342
3203.000000	1.664575
3202.000000	1.661599
3201.000000	1.657721
3200.000000	1.653975
3199.000000	1.649848
3198.000000	1.644372
3197.000000	1.638257
3196.000000	1.632606
3195.000000	1.626729
3194.000000	1.619560
3193.000000	1.611959
3192.000000	1.605296
3191.000000	1.599027
3190.000000	1.592046
3189.000000	1.584999
3188.000000	1.578882
3187.000000	1.572724
3186.000000	1.565153
3185.000000	1.556947
3184.000000	1.549561
3183.000000	1.542475
3182.000000	1.534495
3181.000000	1.526334
3180.000000	1.519344
3179.000000	1.512954
3178.000000	1.505869
3177.000000	1.498657
3176.000000	1.492683
3175.000000	1.487639
3174.000000	1.482486
3173.000000	1.477619
3172.000000	1.473778
3171.000000	1.470141
3170.000000	1.465772
3169.000000	1.461677
3168.000000	1.459142
3167.000000	1.457384
3166.000000	1.455141
3165.000000	1.453130
3164.000000	1.452570
3163.000000	1.452740
3162.000000	1.452393
3161.000000	1.452221
3160.000000	1.453525
3159.000000	1.455746
3158.000000	1.457662
3157.000000	1.459594
3156.000000	1.462263
3155.000000	1.464979
3154.000000	1.467377
3153.000000	1.471379
3152.000000	1.478821
3151.000000	1.488489
3150.000000	1.497944
3149.000000	1.506915
3148.000000	1.516527
3147.000000	1.526621
3146.000000	1.536423
3145.000000	1.546572
3144.000000	1.557915
3143.000000	1.569474
3142.000000	1.579981
3141.000000	1.590427
3140.000000	1.602845
3139.000000	1.617610
3138.000000	1.634003
3137.000000	1.652043
3136.000000	1.671609
3135.000000	1.691089
3134.000000	1.709099
3133.000000	1.726543
3132.000000	1.745006
3131.000000	1.764505
3130.000000	1.784668
3129.000000	1.806434
3128.000000	1.830484
3127.000000	1.855441
3126.000000	1.879762
3125.000000	1.903968
3124.000000	1.928982
3123.000000	1.954012
3122.000000	1.978250
3121.000000	2.003039
3120.000000	2.030085
3119.000000	2.058964
3118.000000	2.088680
3117.000000	2.120119
3116.000000	2.154562
3115.000000	2.191161
3114.000000	2.228084
3113.000000	2.264920
3112.000000	2.301916
3111.000000	2.338369
3110.000000	2.374025
3109.000000	2.410690
3108.000000	2.450292
3107.000000	2.492437
3106.000000	2.535634
3105.000000	2.579541
3104.000000	2.624158
3103.000000	2.668506
3102.000000	2.712195
3101.000000	2.756820
3100.000000	2.803892
3099.000000	2.852685
3098.000000	2.901973
3097.000000	2.952204
3096.000000	3.003975
3095.000000	3.056130
3094.000000	3.107490
3093.000000	3.159017
3092.000000	3.212226
3091.000000	3.266806
3090.000000	3.321779
3089.000000	3.377497
3088.000000	3.434597
3087.000000	3.492490
3086.000000	3.550714
3085.000000	3.610342
3084.000000	3.672069
3083.000000	3.734460
3082.000000	3.796072
3081.000000	3.857828
3080.000000	3.921478
3079.000000	3.987131
3078.000000	4.054126
3077.000000	4.122746
3076.000000	4.193076
3075.000000	4.263679
3074.000000	4.333330
3073.000000	4.402661
3072.000000	4.472455
3071.000000	4.541870
3070.000000	4.610263
3069.000000	4.679171
3068.000000	4.750453
3067.000000	4.823876
3066.000000	4.898280
3065.000000	4.973683
3064.000000	5.050322
3063.000000	5.127068
3062.000000	5.202785
3061.000000	5.277998
3060.000000	5.353576
3059.000000	5.429158
3058.000000	5.504488
3057.000000	5.580775
3056.000000	5.658891
3055.000000	5.737623
3054.000000	5.815546
3053.000000	5.893284
3052.000000	5.972177
3051.000000	6.052056
3050.000000	6.132025
3049.000000	6.212169
3048.000000	6.292755
3047.000000	6.373066
3046.000000	6.452676
3045.000000	6.532667
3044.000000	6.614078
3043.000000	6.696377
3042.000000	6.778805
3041.000000	6.861772
3040.000000	6.945417
3039.000000	7.028405
3038.000000	7.109831
3037.000000	7.190992
3036.000000	7.273683
3035.000000	7.358011
3034.000000	7.443294
3033.000000	7.529567
3032.000000	7.616606
3031.000000	7.702909
3030.000000	7.787397
3029.000000	7.870937
3028.000000	7.954788
3027.000000	8.038901
3026.000000	8.123092
3025.000000	8.208299
3024.000000	8.295046
3023.000000	8.382028
3022.000000	8.467859
3021.000000	8.552954
3020.000000	8.638253
3019.000000	8.723437
3018.000000	8.807965
3017.000000	8.892548
3016.000000	8.978078
3015.000000	9.064321
3014.000000	9.151057
3013.000000	9.239178
3012.000000	9.329132
3011.000000	9.419552
3010.000000	9.508856
3009.000000	9.597115
3008.000000	9.685066
3007.000000	9.772648
3006.000000	9.859861
3005.000000	9.947735
3004.000000	10.036980
3003.000000	10.126700
3002.000000	10.215702
3001.000000	10.303994
3000.000000	10.391973
2999.000000	10.479430
2998.000000	10.566461
2997.000000	10.654015
2996.000000	10.742394
2995.000000	10.830614
2994.000000	10.918404
2993.000000	11.007283
2992.000000	11.098306
2991.000000	11.190159
2990.000000	11.280904
2989.000000	11.370289
2988.000000	11.459031
2987.000000	11.547224
2986.000000	11.634917
2985.000000	11.722996
2984.000000	11.812015
2983.000000	11.901217
2982.000000	11.989979
2981.000000	12.079025
2980.000000	12.168940
2979.000000	12.258740
2978.000000	12.347298
2977.000000	12.435059
2976.000000	12.523109
2975.000000	12.611736
2974.000000	12.701145
2973.000000	12.792199
2972.000000	12.885000
2971.000000	12.977870
2970.000000	13.069177
2969.000000	13.159151
2968.000000	13.248609
2967.000000	13.337231
2966.000000	13.424555
2965.000000	13.511589
2964.000000	13.599765
2963.000000	13.689124
2962.000000	13.778907
2961.000000	13.868959
2960.000000	13.959236
2959.000000	14.048919
2958.000000	14.137302
2957.000000	14.224762
2956.000000	14.311814
2955.000000	14.398387
2954.000000	14.484974
2953.000000	14.573028
2952.000000	14.662893
2951.000000	14.752581
2950.000000	14.839994
2949.000000	14.925217
2948.000000	15.009469
2947.000000	15.093139
2946.000000	15.176304
2945.000000	15.260002
2944.000000	15.345336
2943.000000	15.432040
2942.000000	15.519198
2941.000000	15.606572
2940.000000	15.694010
2939.000000	15.780491
2938.000000	15.865080
2937.000000	15.948086
2936.000000	16.030172
2935.000000	16.111173
2934.000000	16.191030
2933.000000	16.270975
2932.000000	16.352436
2931.000000	16.435416
2930.000000	16.518998
2929.000000	16.602677
2928.000000	16.686057
2927.000000	16.768194
2926.000000	16.848518
2925.000000	16.927843
2924.000000	17.007513
2923.000000	17.088199
2922.000000	17.170224
2921.000000	17.253957
2920.000000	17.338890
2919.000000	17.423228
2918.000000	17.505381
2917.000000	17.585188
2916.000000	17.663119
2915.000000	17.739414
2914.000000	17.814776
2913.000000	17.890777
2912.000000	17.968551
2911.000000	18.047754
2910.000000	18.127497
2909.000000	18.207325
2908.000000	18.286582
2907.000000	18.363941
2906.000000	18.438607
2905.000000	18.511357
2904.000000	18.583675
2903.000000	18.656516
2902.000000	18.730648
2901.000000	18.806806
2900.000000	18.884790
2899.000000	18.963101
2898.000000	19.040134
2897.000000	19.115229
2896.000000	19.188123
2895.000000	19.258602
2894.000000	19.327518
2893.000000	19.397074
2892.000000	19.469016
2891.000000	19.543187
2890.000000	19.618438
2889.000000	19.693987
2888.000000	19.769033
2887.000000	19.842145
2886.000000	19.912326
2885.000000	19.980207
2884.000000	20.047387
2883.000000	20.115187
2882.000000	20.184604
2881.000000	20.256523
2880.000000	20.330854
2879.000000	20.406113
2878.000000	20.480890
2877.000000	20.555154
2876.000000	20.629214
2875.000000	20.702022
2874.000000	20.771746
2873.000000	20.837897
2872.000000	20.902087
2871.000000	20.966831
2870.000000	21.034080
2869.000000	21.104307
2868.000000	21.176070
2867.000000	21.246712
2866.000000	21.314298
2865.000000	21.379005
2864.000000	21.442646
2863.000000	21.507289
2862.000000	21.574433
2861.000000	21.644492
2860.000000	21.716313
2859.000000	21.787698
2858.000000	21.857015
2857.000000	21.923955
2856.000000	21.988702
2855.000000	22.051393
2854.000000	22.113043
2853.000000	22.176086
2852.000000	22.242962
2851.000000	22.314385
2850.000000	22.389185
2849.000000	22.465027
2848.000000	22.538944
2847.000000	22.608329
2846.000000	22.672511
2845.000000	22.733208
2844.000000	22.793202
2843.000000	22.855059
2842.000000	22.920884
2841.000000	22.991660
2840.000000	23.065741
2839.000000	23.139038
2838.000000	23.208037
2837.000000	23.272365
2836.000000	23.333838
2835.000000	23.393948
2834.000000	23.453333
2833.000000	23.513070
2832.000000	23.575015
2831.000000	23.640661
2830.000000	23.710290
2829.000000	23.783008
2828.000000	23.856901
2827.000000	23.929447
2826.000000	23.998688
2825.000000	24.064341
2824.000000	24.127650
2823.000000	24.190478
2822.000000	24.254772
2821.000000	24.322113
2820.000000	24.392828
2819.000000	24.465543
2818.000000	24.538023
2817.000000	24.608294
2816.000000	24.674912
2815.000000	24.737076
2814.000000	24.795435
2813.000000	24.852381
2812.000000	24.910577
2811.000000	24.971086
2810.000000	25.033193
2809.000000	25.095586
2808.000000	25.156951
2807.000000	25.215813
2806.000000	25.270887
2805.000000	25.321871
2804.000000	25.369640
2803.000000	25.415824
2802.000000	25.462465
2801.000000	25.511478
2800.000000	25.563442
2799.000000	25.616902
2798.000000	25.669409
2797.000000	25.719269
2796.000000	25.766097
2795.000000	25.810330
2794.000000	25.853092
2793.000000	25.896399
2792.000000	25.942501
2791.000000	25.992559
2790.000000	26.046166
2789.000000	26.101895
2788.000000	26.157868
2787.000000	26.212121
2786.000000	26.263293
2785.000000	26.311219
2784.000000	26.356618
2783.000000	26.400414
2782.000000	26.443698
2781.000000	26.487891
2780.000000	26.533956
2779.000000	26.581319
2778.000000	26.627980
2777.000000	26.671525
2776.000000	26.709782
2775.000000	26.740965
2774.000000	26.764389
2773.000000	26.781320
2772.000000	26.794241
2771.000000	26.804984
2770.000000	26.813748
2769.000000	26.819653
2768.000000	26.821566
2767.000000	26.818205
2766.000000	26.808477
2765.000000	26.792325
2764.000000	26.770972
2763.000000	26.746373
2762.000000	26.720596
2761.000000	26.695578
2760.000000	26.672718
2759.000000	26.652254
2758.000000	26.633345
2757.000000	26.614698
2756.000000	26.594900
2755.000000	26.572552
2754.000000	26.546832
2753.000000	26.518069
2752.000000	26.487180
2751.000000	26.454509
2750.000000	26.419464
2749.000000	26.380882
2748.000000	26.337287
2747.000000	26.286914
2746.000000	26.228451
2745.000000	26.162106
2744.000000	26.089420
2743.000000	26.012429
2742.000000	25.933557
2741.000000	25.855988
2740.000000	25.783356
2739.000000	25.718877
2738.000000	25.665093
2737.000000	25.624553
2736.000000	25.599869
2735.000000	25.593006
2734.000000	25.605474
2733.000000	25.638393
2732.000000	25.692111
2731.000000	25.765844
2730.000000	25.857610
2729.000000	25.965038
2728.000000	26.085178
2727.000000	26.214042
2726.000000	26.347613
2725.000000	26.482951
2724.000000	26.618385
2723.000000	26.752519
2722.000000	26.883535
2721.000000	27.009767
2720.000000	27.130260
2719.000000	27.244461
2718.000000	27.351881
2717.000000	27.452192
2716.000000	27.545135
2715.000000	27.630371
2714.000000	27.707390
2713.000000	27.775864
2712.000000	27.835876
2711.000000	27.887286
2710.000000	27.929786
2709.000000	27.963416
2708.000000	27.988777
2707.000000	28.006830
2706.000000	28.018477
2705.000000	28.024957
2704.000000	28.027833
2703.000000	28.028168
2702.000000	28.026186
2701.000000	28.021633
2700.000000	28.014436
2699.000000	28.004820
2698.000000	27.993265
2697.000000	27.980736
2696.000000	27.968394
2695.000000	27.956820
2694.000000	27.945705
2693.000000	27.934302
2692.000000	27.921873
2691.000000	27.907580
2690.000000	27.890627
2689.000000	27.870949
2688.000000	27.849539
2687.000000	27.827966
2686.000000	27.807753
2685.000000	27.790168
2684.000000	27.775957
2683.000000	27.764901
2682.000000	27.755799
2681.000000	27.747124
2680.000000	27.737587
2679.000000	27.726401
2678.000000	27.713817
2677.000000	27.701593
2676.000000	27.692545
2675.000000	27.689105
2674.000000	27.692231
2673.000000	27.701645
2672.000000	27.716386
2671.000000	27.735164
2670.000000	27.756669
2669.000000	27.779949
2668.000000	27.804766
2667.000000	27.831374
2666.000000	27.860163
2665.000000	27.891352
2664.000000	27.924384
2663.000000	27.957469
2662.000000	27.987939
2661.000000	28.013225
2660.000000	28.031685
2659.000000	28.042999
2658.000000	28.048404
2657.000000	28.050809
2656.000000	28.054126
2655.000000	28.061878
2654.000000	28.076074
2653.000000	28.096930
2652.000000	28.123084
2651.000000	28.152352
2650.000000	28.183103
2649.000000	28.215334
2648.000000	28.250870
2647.000000	28.292581
2646.000000	28.343554
2645.000000	28.406622
2644.000000	28.483025
2643.000000	28.571333
2642.000000	28.667606
2641.000000	28.766700
2640.000000	28.863886
2639.000000	28.955674
2638.000000	29.040602
2637.000000	29.119795
2636.000000	29.196144
2635.000000	29.272197
2634.000000	29.348554
2633.000000	29.423786
2632.000000	29.495129
2631.000000	29.559130
2630.000000	29.612202
2629.000000	29.652177
2628.000000	29.679557
2627.000000	29.697264
2626.000000	29.709721
2625.000000	29.721515
2624.000000	29.736204
2623.000000	29.754962
2622.000000	29.775953
2621.000000	29.795428
2620.000000	29.809177
2619.000000	29.813788
2618.000000	29.807725
2617.000000	29.792096
2616.000000	29.770376
2615.000000	29.746296
2614.000000	29.721907
2613.000000	29.697226
2612.000000	29.670628
2611.000000	29.639455
2610.000000	29.600855
2609.000000	29.553565
2608.000000	29.499552
2607.000000	29.443936
2606.000000	29.393542
2605.000000	29.355301
2604.000000	29.334565
2603.000000	29.333489
2602.000000	29.350855
2601.000000	29.382858
2600.000000	29.424718
2599.000000	29.472076
2598.000000	29.521915
2597.000000	29.574031
2596.000000	29.630793
2595.000000	29.695470
2594.000000	29.770280
2593.000000	29.854954
2592.000000	29.946692
2591.000000	30.040569
2590.000000	30.131012
2589.000000	30.214247
2588.000000	30.289947
2587.000000	30.361043
2586.000000	30.432196
2585.000000	30.508363
2584.000000	30.593472
2583.000000	30.688722
2582.000000	30.791752
2581.000000	30.897708
2580.000000	31.001448
2579.000000	31.099174
2578.000000	31.189164
2577.000000	31.272417
2576.000000	31.352674
2575.000000	31.434867
2574.000000	31.522734
2573.000000	31.617369
2572.000000	31.716932
2571.000000	31.816965
2570.000000	31.911492
2569.000000	31.995062
2568.000000	32.064983
2567.000000	32.121685
2566.000000	32.167789
2565.000000	32.207316
2564.000000	32.244161
2563.000000	32.280054
2562.000000	32.312703
2561.000000	32.336559
2560.000000	32.345734
2559.000000	32.335834
2558.000000	32.305473
2557.000000	32.257467
2556.000000	32.199191
2555.000000	32.140979
2554.000000	32.093186
2553.000000	32.064256
2552.000000	32.059708
2551.000000	32.081099
2550.000000	32.125396
2549.000000	32.187211
2548.000000	32.261492
2547.000000	32.344886
2546.000000	32.435814
2545.000000	32.533675
2544.000000	32.638939
2543.000000	32.751668
2542.000000	32.869422
2541.000000	32.987271
2540.000000	33.099540
2539.000000	33.201604
2538.000000	33.290705
2537.000000	33.366782
2536.000000	33.432904
2535.000000	33.494219
2534.000000	33.555353
2533.000000	33.618735
2532.000000	33.684498
2531.000000	33.750382
2530.000000	33.812366
2529.000000	33.866498
2528.000000	33.911287
2527.000000	33.948438
2526.000000	33.981582
2525.000000	34.015219
2524.000000	34.053826
2523.000000	34.100056
2522.000000	34.152948
2521.000000	34.208255
2520.000000	34.260757
2519.000000	34.306091
2518.000000	34.341502
2517.000000	34.366848
2516.000000	34.385270
2515.000000	34.402018
2514.000000	34.421952
2513.000000	34.447995
2512.000000	34.480977
2511.000000	34.519293
2510.000000	34.558904
2509.000000	34.595101
2508.000000	34.625035
2507.000000	34.648557
2506.000000	34.667344
2505.000000	34.684357
2504.000000	34.703414
2503.000000	34.727313
2502.000000	34.755755
2501.000000	34.785575
2500.000000	34.812998
2499.000000	34.835192
2498.000000	34.850564
2497.000000	34.859540
2496.000000	34.865254
2495.000000	34.872321
2494.000000	34.884379
2493.000000	34.902936
2492.000000	34.927679
2491.000000	34.956374
2490.000000	34.984736
2489.000000	35.008109
2488.000000	35.023979
2487.000000	35.032618
2486.000000	35.035938
2485.000000	35.036877
2484.000000	35.039257
2483.000000	35.046255
2482.000000	35.058445
2481.000000	35.073918
2480.000000	35.090144
2479.000000	35.105017
2478.000000	35.116808
2477.000000	35.124885
2476.000000	35.130732
2475.000000	35.137105
2474.000000	35.145953
2473.000000	35.157724
2472.000000	35.172000
2471.000000	35.187428
2470.000000	35.201302
2469.000000	35.210817
2468.000000	35.215109
2467.000000	35.215491
2466.000000	35.214177
2465.000000	35.213790
2464.000000	35.217413
2463.000000	35.227206
2462.000000	35.242632
2461.000000	35.260910
2460.000000	35.279148
2459.000000	35.295178
2458.000000	35.307110
2457.000000	35.314007
2456.000000	35.317173
2455.000000	35.319487
2454.000000	35.323218
2453.000000	35.329188
2452.000000	35.337527
2451.000000	35.347795
2450.000000	35.358535
2449.000000	35.368171
2448.000000	35.376603
2447.000000	35.385058
2446.000000	35.394626
2445.000000	35.405968
2444.000000	35.419839
2443.000000	35.436365
2442.000000	35.453866
2441.000000	35.469720
2440.000000	35.482369
2439.000000	35.491598
2438.000000	35.497522
2437.000000	35.500846
2436.000000	35.503885
2435.000000	35.509606
2434.000000	35.519439
2433.000000	35.532998
2432.000000	35.549504
2431.000000	35.568033
2430.000000	35.586752
2429.000000	35.603635
2428.000000	35.618242
2427.000000	35.631643
2426.000000	35.644634
2425.000000	35.657267
2424.000000	35.669796
2423.000000	35.682562
2422.000000	35.694985
2421.000000	35.706047
2420.000000	35.715804
2419.000000	35.725361
2418.000000	35.735622
2417.000000	35.747375
2416.000000	35.762116
2415.000000	35.781154
2414.000000	35.803772
2413.000000	35.827493
2412.000000	35.850103
2411.000000	35.870291
2410.000000	35.886938
2409.000000	35.899539
2408.000000	35.909392
2407.000000	35.918979
2406.000000	35.930135
2405.000000	35.943840
2404.000000	35.961136
2403.000000	35.982471
2402.000000	36.006329
2401.000000	36.030096
2400.000000	36.052479
2399.000000	36.073932
2398.000000	36.095088
2397.000000	36.116370
2396.000000	36.138802
2395.000000	36.163413
2394.000000	36.189634
2393.000000	36.215574
2392.000000	36.239795
2391.000000	36.261819
2390.000000	36.281552
2389.000000	36.299802
2388.000000	36.319379
2387.000000	36.343812
2386.000000	36.374976
2385.000000	36.412882
2384.000000	36.456669
2383.000000	36.504744
2382.000000	36.553979
2381.000000	36.601399
2380.000000	36.646981
2379.000000	36.693069
2378.000000	36.741730
2377.000000	36.794029
2376.000000	36.851007
2375.000000	36.913094
2374.000000	36.978539
2373.000000	37.043763
2372.000000	37.105975
2371.000000	37.163871
2370.000000	37.215862
2369.000000	37.261747
2368.000000	37.305103
2367.000000	37.350988
2366.000000	37.400774
2365.000000	37.453059
2364.000000	37.509423
2363.000000	37.567907
2362.000000	37.622722
2361.000000	37.672530
2360.000000	37.717158
2359.000000	37.761882
2358.000000	37.809074
2357.000000	37.857996
2356.000000	37.912161
2355.000000	37.968405
2354.000000	38.022512
2353.000000	38.071175
2352.000000	38.121880
2351.000000	38.182041
2350.000000	38.238616
2349.000000	38.281346
2348.000000	38.311123
2347.000000	38.348059
2346.000000	38.408396
2345.000000	38.484447
2344.000000	38.560465
2343.000000	38.618782
2342.000000	38.663834
2341.000000	38.703486
2340.000000	38.741125
2339.000000	38.779142
2338.000000	38.818868
2337.000000	38.862771
2336.000000	38.913535
2335.000000	38.971220
2334.000000	39.032867
2333.000000	39.091620
2332.000000	39.143616
2331.000000	39.191637
2330.000000	39.232274
2329.000000	39.270321
2328.000000	39.306485
2327.000000	39.347205
2326.000000	39.395662
2325.000000	39.449348
2324.000000	39.510954
2323.000000	39.574951
2322.000000	39.638633
2321.000000	39.694085
2320.000000	39.740911
2319.000000	39.782251
2318.000000	39.820056
2317.000000	39.855601
2316.000000	39.889384
2315.000000	39.925973
2314.000000	39.965748
2313.000000	40.007583
2312.000000	40.048331
2311.000000	40.088230
2310.000000	40.127103
2309.000000	40.165446
2308.000000	40.205504
2307.000000	40.250423
2306.000000	40.301395
2305.000000	40.355453
2304.000000	40.409850
2303.000000	40.461895
2302.000000	40.508383
2301.000000	40.546301
2300.000000	40.575760
2299.000000	40.601177
2298.000000	40.626511
2297.000000	40.654851
2296.000000	40.688605
2295.000000	40.730008
2294.000000	40.777725
2293.000000	40.827140
2292.000000	40.874525
2291.000000	40.918103
2290.000000	40.956770
2289.000000	40.989189
2288.000000	41.017150
2287.000000	41.044511
2286.000000	41.073874
2285.000000	41.104498
2284.000000	41.135390
2283.000000	41.166174
2282.000000	41.195972
2281.000000	41.223394
2280.000000	41.249354
2279.000000	41.276922
2278.000000	41.308233
2277.000000	41.343611
2276.000000	41.383238
2275.000000	41.427210
2274.000000	41.472429
2273.000000	41.513476
2272.000000	41.546660
2271.000000	41.571759
2270.000000	41.589774
2269.000000	41.602129
2268.000000	41.612549
2267.000000	41.626139
2266.000000	41.645451
2265.000000	41.669818
2264.000000	41.697891
2263.000000	41.728478
2262.000000	41.758529
2261.000000	41.783764
2260.000000	41.802693
2259.000000	41.816703
2258.000000	41.827003
2257.000000	41.833210
2256.000000	41.835582
2255.000000	41.834782
2254.000000	41.829155
2253.000000	41.815604
2252.000000	41.793182
2251.000000	41.764021
2250.000000	41.729862
2249.000000	41.691550
2248.000000	41.651143
2247.000000	41.611063
2246.000000	41.570561
2245.000000	41.525390
2244.000000	41.471718
2243.000000	41.407440
2242.000000	41.330271
2241.000000	41.238497
2240.000000	41.134413
2239.000000	41.024407
2238.000000	40.915072
2237.000000	40.811657
2236.000000	40.719681
2235.000000	40.644226
2234.000000	40.586806
2233.000000	40.545250
2232.000000	40.517209
2231.000000	40.501034
2230.000000	40.493677
2229.000000	40.490992
2228.000000	40.490751
2227.000000	40.492709
2226.000000	40.495158
2225.000000	40.494588
2224.000000	40.488986
2223.000000	40.478787
2222.000000	40.464461
2221.000000	40.446342
2220.000000	40.427333
2219.000000	40.412450
2218.000000	40.404668
2217.000000	40.403459
2216.000000	40.407415
2215.000000	40.415208
2214.000000	40.423611
2213.000000	40.427992
2212.000000	40.425987
2211.000000	40.418481
2210.000000	40.406885
2209.000000	40.392296
2208.000000	40.377405
2207.000000	40.365800
2206.000000	40.358431
2205.000000	40.353318
2204.000000	40.349109
2203.000000	40.346214
2202.000000	40.344316
2201.000000	40.342031
2200.000000	40.339661
2199.000000	40.339257
2198.000000	40.341189
2197.000000	40.343165
2196.000000	40.342853
2195.000000	40.338725
2194.000000	40.328171
2193.000000	40.308303
2192.000000	40.279644
2191.000000	40.246511
2190.000000	40.213368
2189.000000	40.183200
2188.000000	40.159049
2187.000000	40.143370
2186.000000	40.135040
2185.000000	40.129811
2184.000000	40.124496
2183.000000	40.118358
2182.000000	40.110657
2181.000000	40.100486
2180.000000	40.089678
2179.000000	40.082684
2178.000000	40.082506
2177.000000	40.089115
2176.000000	40.101972
2175.000000	40.120946
2174.000000	40.144436
2173.000000	40.169814
2172.000000	40.196730
2171.000000	40.227392
2170.000000	40.263165
2169.000000	40.303590
2168.000000	40.348602
2167.000000	40.398274
2166.000000	40.449635
2165.000000	40.497081
2164.000000	40.536944
2163.000000	40.569216
2162.000000	40.595014
2161.000000	40.616057
2160.000000	40.637025
2159.000000	40.664472
2158.000000	40.701847
2157.000000	40.747852
2156.000000	40.799598
2155.000000	40.854112
2154.000000	40.906691
2153.000000	40.952043
2152.000000	40.988660
2151.000000	41.019339
2150.000000	41.047002
2149.000000	41.072981
2148.000000	41.099267
2147.000000	41.128349
2146.000000	41.159877
2145.000000	41.190756
2144.000000	41.219464
2143.000000	41.247403
2142.000000	41.275955
2141.000000	41.305973
2140.000000	41.340510
2139.000000	41.383882
2138.000000	41.436757
2137.000000	41.495074
2136.000000	41.553986
2135.000000	41.609506
2134.000000	41.656693
2133.000000	41.691128
2132.000000	41.713789
2131.000000	41.731120
2130.000000	41.749439
2129.000000	41.772455
2128.000000	41.803495
2127.000000	41.845033
2126.000000	41.894629
2125.000000	41.945260
2124.000000	41.991168
2123.000000	42.030482
2122.000000	42.062524
2121.000000	42.087204
2120.000000	42.108017
2119.000000	42.131119
2118.000000	42.159771
2117.000000	42.192703
2116.000000	42.228040
2115.000000	42.264742
2114.000000	42.299888
2113.000000	42.329547
2112.000000	42.353987
2111.000000	42.378299
2110.000000	42.406969
2109.000000	42.441332
2108.000000	42.481963
2107.000000	42.528472
2106.000000	42.575753
2105.000000	42.614925
2104.000000	42.639739
2103.000000	42.649239
2102.000000	42.644445
2101.000000	42.627419
2100.000000	42.604341
2099.000000	42.584046
2098.000000	42.571657
2097.000000	42.566523
2096.000000	42.566207
2095.000000	42.568222
2094.000000	42.567587
2093.000000	42.558270
2092.000000	42.539192
2091.000000	42.515275
2090.000000	42.491996
2089.000000	42.472636
2088.000000	42.460565
2087.000000	42.458945
2086.000000	42.466569
2085.000000	42.478285
2084.000000	42.490999
2083.000000	42.505784
2082.000000	42.524057
2081.000000	42.546439
2080.000000	42.576191
2079.000000	42.618747
2078.000000	42.675724
2077.000000	42.742939
2076.000000	42.814900
2075.000000	42.887136
2074.000000	42.953680
2073.000000	43.008159
2072.000000	43.049796
2071.000000	43.084308
2070.000000	43.118021
2069.000000	43.155195
2068.000000	43.201184
2067.000000	43.262236
2066.000000	43.339697
2065.000000	43.428207
2064.000000	43.521168
2063.000000	43.614271
2062.000000	43.703515
2061.000000	43.785484
2060.000000	43.861474
2059.000000	43.936819
2058.000000	44.014429
2057.000000	44.092761
2056.000000	44.170323
2055.000000	44.247157
2054.000000	44.321000
2053.000000	44.387876
2052.000000	44.448320
2051.000000	44.508018
2050.000000	44.571421
2049.000000	44.639837
2048.000000	44.715611
2047.000000	44.801380
2046.000000	44.893879
2045.000000	44.984198
2044.000000	45.065942
2043.000000	45.138385
2042.000000	45.201608
2041.000000	45.255051
2040.000000	45.302402
2039.000000	45.351902
2038.000000	45.409698
2037.000000	45.477400
2036.000000	45.556306
2035.000000	45.647859
2034.000000	45.748921
2033.000000	45.852307
2032.000000	45.953539
2031.000000	46.052589
2030.000000	46.148353
2029.000000	46.237940
2028.000000	46.321962
2027.000000	46.404451
2026.000000	46.485998
2025.000000	46.563047
2024.000000	46.634848
2023.000000	46.704115
2022.000000	46.771084
2021.000000	46.833831
2020.000000	46.895635
2019.000000	46.965191
2018.000000	47.048035
2017.000000	47.143093
2016.000000	47.247876
2015.000000	47.360239
2014.000000	47.474054
2013.000000	47.580368
2012.000000	47.674983
2011.000000	47.759958
2010.000000	47.837401
2009.000000	47.908422
2008.000000	47.978322
2007.000000	48.055674
2006.000000	48.144369
2005.000000	48.242550
2004.000000	48.349880
2003.000000	48.467794
2002.000000	48.592964
2001.000000	48.716800
2000.000000	48.834069
1999.000000	48.945580
1998.000000	49.049931
1997.000000	49.141694
1996.000000	49.219722
1995.000000	49.289884
1994.000000	49.357340
1993.000000	49.423291
1992.000000	49.490470
1991.000000	49.563143
1990.000000	49.640455
1989.000000	49.718503
1988.000000	49.798448
1987.000000	49.884635
1986.000000	49.975727
1985.000000	50.065668
1984.000000	50.152913
1983.000000	50.239427
1982.000000	50.321784
1981.000000	50.391458
1980.000000	50.445378
1979.000000	50.487986
1978.000000	50.521654
1977.000000	50.546046
1976.000000	50.567262
1975.000000	50.597214
1974.000000	50.641761
1973.000000	50.698239
1972.000000	50.764312
1971.000000	50.839037
1970.000000	50.915119
1969.000000	50.981301
1968.000000	51.034379
1967.000000	51.079685
1966.000000	51.118964
1965.000000	51.148989
1964.000000	51.172755
1963.000000	51.199465
1962.000000	51.232262
1961.000000	51.266697
1960.000000	51.301569
1959.000000	51.340098
1958.000000	51.380362
1957.000000	51.416585
1956.000000	51.450774
1955.000000	51.492304
1954.000000	51.543963
1953.000000	51.600155
1952.000000	51.657912
1951.000000	51.717265
1950.000000	51.771812
1949.000000	51.809394
1948.000000	51.824680
1947.000000	51.822085
1946.000000	51.806834
1945.000000	51.784082
1944.000000	51.766725
1943.000000	51.773023
1942.000000	51.810690
1941.000000	51.870410
1940.000000	51.939814
1939.000000	52.011075
1938.000000	52.072248
1937.000000	52.109249
1936.000000	52.121107
1935.000000	52.120869
1934.000000	52.119047
1933.000000	52.119253
1932.000000	52.127158
1931.000000	52.149239
1930.000000	52.183026
1929.000000	52.216228
1928.000000	52.241863
1927.000000	52.260589
1926.000000	52.271313
1925.000000	52.273519
1924.000000	52.274655
1923.000000	52.287048
1922.000000	52.312778
1921.000000	52.345046
1920.000000	52.383043
1919.000000	52.425930
1918.000000	52.460046
1917.000000	52.467939
1916.000000	52.448510
1915.000000	52.420558
1914.000000	52.401735
1913.000000	52.397843
1912.000000	52.413087
1911.000000	52.453579
1910.000000	52.516089
1909.000000	52.583697
1908.000000	52.642234
1907.000000	52.686303
1906.000000	52.709624
1905.000000	52.707510
1904.000000	52.687772
1903.000000	52.669931
1902.000000	52.667448
1901.000000	52.678888
1900.000000	52.699813
1899.000000	52.727474
1898.000000	52.751941
1897.000000	52.759300
1896.000000	52.747122
1895.000000	52.728279
1894.000000	52.714784
1893.000000	52.710245
1892.000000	52.719018
1891.000000	52.745349
1890.000000	52.782027
1889.000000	52.812070
1888.000000	52.822778
1887.000000	52.811811
1886.000000	52.778377
1885.000000	52.722410
1884.000000	52.657054
1883.000000	52.607109
1882.000000	52.589460
1881.000000	52.603509
1880.000000	52.643052
1879.000000	52.701359
1878.000000	52.760620
1877.000000	52.797103
1876.000000	52.801216
1875.000000	52.778513
1874.000000	52.734687
1873.000000	52.677487
1872.000000	52.630612
1871.000000	52.619169
1870.000000	52.637776
1869.000000	52.658835
1868.000000	52.667110
1867.000000	52.664108
1866.000000	52.650956
1865.000000	52.624873
1864.000000	52.590631
1863.000000	52.563396
1862.000000	52.554703
1861.000000	52.563809
1860.000000	52.585625
1859.000000	52.614753
1858.000000	52.636646
1857.000000	52.630332
1856.000000	52.588228
1855.000000	52.521489
1854.000000	52.446263
1853.000000	52.372088
1852.000000	52.311902
1851.000000	52.284160
1850.000000	52.285595
1849.000000	52.285556
1848.000000	52.260835
1847.000000	52.224441
1846.000000	52.195713
1845.000000	52.165144
1844.000000	52.125071
1843.000000	52.087524
1842.000000	52.056035
1841.000000	52.028795
1840.000000	52.012809
1839.000000	52.008551
1838.000000	52.000182
1837.000000	51.970312
1836.000000	51.915458
1835.000000	51.844703
1834.000000	51.768857
1833.000000	51.699115
1832.000000	51.648234
1831.000000	51.616603
1830.000000	51.590136
1829.000000	51.553957
1828.000000	51.503294
1827.000000	51.445891
1826.000000	51.377631
1825.000000	51.284903
1824.000000	51.176193
1823.000000	51.075547
1822.000000	50.993639
1821.000000	50.925607
1820.000000	50.872186
1819.000000	50.839869
1818.000000	50.821063
1817.000000	50.793942
1816.000000	50.741842
1815.000000	50.664491
1814.000000	50.565348
1813.000000	50.447418
1812.000000	50.325541
1811.000000	50.221624
1810.000000	50.146477
1809.000000	50.095118
1808.000000	50.059315
1807.000000	50.028911
1806.000000	49.982880
1805.000000	49.903515
1804.000000	49.800675
1803.000000	49.708926
1802.000000	49.650921
1801.000000	49.621972
1800.000000	49.612151
1799.000000	49.612293
1798.000000	49.601992
1797.000000	49.554923
1796.000000	49.468528
1795.000000	49.370676
1794.000000	49.276439
1793.000000	49.173235
1792.000000	49.074873
1791.000000	49.018552
1790.000000	49.003306
1789.000000	48.995956
1788.000000	48.976905
1787.000000	48.946521
1786.000000	48.904407
1785.000000	48.843127
1784.000000	48.757609
1783.000000	48.653664
1782.000000	48.534422
1781.000000	48.400559
1780.000000	48.274171
1779.000000	48.177934
1778.000000	48.096382
1777.000000	47.986292
1776.000000	47.840643
1775.000000	47.711483
1774.000000	47.627288
1773.000000	47.537844
1772.000000	47.406457
1771.000000	47.258840
1770.000000	47.129374
1769.000000	47.043367
1768.000000	47.006816
1767.000000	46.989764
1766.000000	46.939244
1765.000000	46.830424
1764.000000	46.687441
1763.000000	46.543576
1762.000000	46.413193
1761.000000	46.298358
1760.000000	46.201087
1759.000000	46.131152
1758.000000	46.090788
1757.000000	46.051696
1756.000000	45.978562
1755.000000	45.854664
1754.000000	45.692783
1753.000000	45.527815
1752.000000	45.390612
1751.000000	45.292884
1750.000000	45.216275
1749.000000	45.125374
1748.000000	45.013300
1747.000000	44.902264
1746.000000	44.790347
1745.000000	44.653086
1744.000000	44.492392
1743.000000	44.337891
1742.000000	44.202638
1741.000000	44.067861
1740.000000	43.911807
1739.000000	43.720909
1738.000000	43.474284
1737.000000	43.190483
1736.000000	42.938087
1735.000000	42.729897
1734.000000	42.550970
1733.000000	42.399358
1732.000000	42.240986
1731.000000	42.060572
1730.000000	41.874172
1729.000000	41.689215
1728.000000	41.508279
1727.000000	41.337383
1726.000000	41.160978
1725.000000	40.948108
1724.000000	40.694504
1723.000000	40.416117
1722.000000	40.111437
1721.000000	39.773534
1720.000000	39.430068
1719.000000	39.110932
1718.000000	38.820117
1717.000000	38.557789
1716.000000	38.317491
1715.000000	38.086425
1714.000000	37.851453
1713.000000	37.599242
1712.000000	37.329430
1711.000000	37.057941
1710.000000	36.796484
1709.000000	36.537691
1708.000000	36.271834
1707.000000	35.990274
1706.000000	35.667881
1705.000000	35.284434
1704.000000	34.858587
1703.000000	34.468552
1702.000000	34.158915
1701.000000	33.835483
1700.000000	33.458540
1699.000000	33.104946
1698.000000	32.799340
1697.000000	32.530622
1696.000000	32.289988
1695.000000	32.077350
1694.000000	31.868096
1693.000000	31.619829
1692.000000	31.332993
1691.000000	31.022034
1690.000000	30.679542
1689.000000	30.295286
1688.000000	29.900506
1687.000000	29.573151
1686.000000	29.334869
1685.000000	29.076585
1684.000000	28.757952
1683.000000	28.468859
1682.000000	28.219893
1681.000000	27.965475
1680.000000	27.695903
1679.000000	27.427273
1678.000000	27.174172
1677.000000	26.927570
1676.000000	26.665148
1675.000000	26.395431
1674.000000	26.137703
1673.000000	25.879137
1672.000000	25.611427
1671.000000	25.335238
1670.000000	25.045511
1669.000000	24.752344
1668.000000	24.483596
1667.000000	24.254104
1666.000000	24.049708
1665.000000	23.843073
1664.000000	23.611568
1663.000000	23.358631
1662.000000	23.105938
1661.000000	22.855990
1660.000000	22.606658
1659.000000	22.360067
1658.000000	22.096491
1657.000000	21.792070
1656.000000	21.486310
1655.000000	21.242190
1654.000000	21.009699
1653.000000	20.770681
1652.000000	20.601359
1651.000000	20.475403
1650.000000	20.323774
1649.000000	20.126493
1648.000000	19.885685
1647.000000	19.630788
1646.000000	19.411649
1645.000000	19.231034
1644.000000	19.056516
1643.000000	18.878169
1642.000000	18.699131
1641.000000	18.508989
1640.000000	18.302090
1639.000000	18.096753
1638.000000	17.913144
1637.000000	17.732190
1636.000000	17.533369
1635.000000	17.352628
1634.000000	17.208730
1633.000000	17.071288
1632.000000	16.926757
1631.000000	16.787934
1630.000000	16.655925
1629.000000	16.513638
1628.000000	16.358297
1627.000000	16.212517
1626.000000	16.090329
1625.000000	15.978294
1624.000000	15.861146
1623.000000	15.747915
1622.000000	15.646305
1621.000000	15.538399
1620.000000	15.419396
1619.000000	15.317767
1618.000000	15.251926
1617.000000	15.206037
1616.000000	15.166400
1615.000000	15.134024
1614.000000	15.103666
1613.000000	15.068238
1612.000000	15.029465
1611.000000	14.995163
1610.000000	14.967239
1609.000000	14.937972
1608.000000	14.905823
1607.000000	14.882605
1606.000000	14.875182
1605.000000	14.874589
1604.000000	14.874833
1603.000000	14.882594
1602.000000	14.900028
1601.000000	14.916450
1600.000000	14.926123
1599.000000	14.936947
1598.000000	14.953643
1597.000000	14.969219
1596.000000	14.980335
1595.000000	14.995610
1594.000000	15.019815
1593.000000	15.044667
1592.000000	15.064236
1591.000000	15.084212
1590.000000	15.107956
1589.000000	15.128133
1588.000000	15.141150
1587.000000	15.155256
1586.000000	15.177347
1585.000000	15.201368
1584.000000	15.220849
1583.000000	15.242158
1582.000000	15.266049
1581.000000	15.272329
1580.000000	15.244420
1579.000000	15.200607
1578.000000	15.175677
1577.000000	15.177709
1576.000000	15.195373
1575.000000	15.219499
1574.000000	15.233050
1573.000000	15.228011
1572.000000	15.221148
1571.000000	15.225806
1570.000000	15.236967
1569.000000	15.244027
1568.000000	15.243831
1567.000000	15.246337
1566.000000	15.259997
1565.000000	15.271210
1564.000000	15.255463
1563.000000	15.213830
1562.000000	15.194515
1561.000000	15.253511
1560.000000	15.359100
1559.000000	15.478971
1558.000000	15.621566
1557.000000	15.739924
1556.000000	15.827034
1555.000000	15.934470
1554.000000	16.083866
1553.000000	16.244780
1552.000000	16.390170
1551.000000	16.535169
1550.000000	16.698253
1549.000000	16.864394
1548.000000	17.007802
1547.000000	17.135484
1546.000000	17.273470
1545.000000	17.427281
1544.000000	17.585166
1543.000000	17.750831
1542.000000	17.946971
1541.000000	18.185264
1540.000000	18.470797
1539.000000	18.788264
1538.000000	19.072413
1537.000000	19.282548
1536.000000	19.456771
1535.000000	19.664471
1534.000000	19.938925
1533.000000	20.254581
1532.000000	20.561758
1531.000000	20.843183
1530.000000	21.113810
1529.000000	21.385343
1528.000000	21.667317
1527.000000	21.977449
1526.000000	22.314287
1525.000000	22.638349
1524.000000	22.934604
1523.000000	23.259932
1522.000000	23.686425
1521.000000	24.197721
1520.000000	24.685091
1519.000000	25.090757
1518.000000	25.457044
1517.000000	25.833049
1516.000000	26.217700
1515.000000	26.589729
1514.000000	26.957205
1513.000000	27.340527
1512.000000	27.725320
1511.000000	28.071425
1510.000000	28.369717
1509.000000	28.676664
1508.000000	29.061087
1507.000000	29.573288
1506.000000	30.199763
1505.000000	30.789316
1504.000000	31.233636
1503.000000	31.582921
1502.000000	31.925752
1501.000000	32.289342
1500.000000	32.644334
1499.000000	32.980658
1498.000000	33.330202
1497.000000	33.721959
1496.000000	34.143524
1495.000000	34.549442
1494.000000	34.902156
1493.000000	35.205426
1492.000000	35.499968
1491.000000	35.823081
1490.000000	36.175923
1489.000000	36.518613
1488.000000	36.814879
1487.000000	37.070561
1486.000000	37.304544
1485.000000	37.511733
1484.000000	37.689113
1483.000000	37.863005
1482.000000	38.050888
1481.000000	38.231189
1480.000000	38.373848
1479.000000	38.477870
1478.000000	38.541990
1477.000000	38.542302
1476.000000	38.476659
1475.000000	38.393021
1474.000000	38.322526
1473.000000	38.237036
1472.000000	38.126213
1471.000000	38.003229
1470.000000	37.834021
1469.000000	37.567804
1468.000000	37.197017
1467.000000	36.738885
1466.000000	36.176780
1465.000000	35.484490
1464.000000	34.731903
1463.000000	34.033614
1462.000000	33.406937
1461.000000	32.795732
1460.000000	32.179625
1459.000000	31.578147
1458.000000	30.948105
1457.000000	30.240917
1456.000000	29.539170
1455.000000	28.902297
1454.000000	28.238965
1453.000000	27.445196
1452.000000	26.519465
1451.000000	25.517954
1450.000000	24.437762
1449.000000	23.213170
1448.000000	21.845078
1447.000000	20.430751
1446.000000	19.024576
1445.000000	17.591509
1444.000000	16.114907
1443.000000	14.619054
1442.000000	13.108611
1441.000000	11.594847
1440.000000	10.143460
1439.000000	8.787356
1438.000000	7.428877
1437.000000	5.987847
1436.000000	4.642376
1435.000000	3.631638
1434.000000	2.922255
1433.000000	2.356930
1432.000000	1.892611
1431.000000	1.559030
1430.000000	1.332453
1429.000000	1.161969
1428.000000	1.066332
1427.000000	1.079317
1426.000000	1.170095
1425.000000	1.303486
1424.000000	1.509595
1423.000000	1.814169
1422.000000	2.180199
1421.000000	2.597534
1420.000000	3.148834
1419.000000	3.882560
1418.000000	4.687779
1417.000000	5.454673
1416.000000	6.222401
1415.000000	7.058081
1414.000000	7.949602
1413.000000	8.867086
1412.000000	9.831037
1411.000000	10.859380
1410.000000	11.909321
1409.000000	12.936765
1408.000000	13.955894
1407.000000	14.997466
1406.000000	16.062973
1405.000000	17.142454
1404.000000	18.224448
1403.000000	19.273088
1402.000000	20.262617
1401.000000	21.234707
1400.000000	22.258093
1399.000000	23.322700
1398.000000	24.344123
1397.000000	25.299123
1396.000000	26.263221
1395.000000	27.294214
1394.000000	28.353412
1393.000000	29.366675
1392.000000	30.304657
1391.000000	31.176405
1390.000000	32.006631
1389.000000	32.836138
1388.000000	33.693980
1387.000000	34.550388
1386.000000	35.335275
1385.000000	36.013685
1384.000000	36.599570
1383.000000	37.101242
1382.000000	37.498080
1381.000000	37.763564
1380.000000	37.875049
1379.000000	37.803134
1378.000000	37.518866
1377.000000	37.001993
1376.000000	36.217804
1375.000000	35.124557
1374.000000	33.742318
1373.000000	32.179042
1372.000000	30.559106
1371.000000	28.975199
1370.000000	27.531799
1369.000000	26.385928
1368.000000	25.704773
1367.000000	25.572951
1366.000000	25.970580
1365.000000	26.833486
1364.000000	28.094401
1363.000000	29.660191
1362.000000	31.379542
1361.000000	33.084010
1360.000000	34.655188
1359.000000	36.030023
1358.000000	37.170124
1357.000000	38.043812
1356.000000	38.617965
1355.000000	38.861269
1354.000000	38.757835
1353.000000	38.308105
1352.000000	37.519330
1351.000000	36.397199
1350.000000	34.956133
1349.000000	33.230328
1348.000000	31.262680
1347.000000	29.095993
1346.000000	26.773821
1345.000000	24.346480
1344.000000	21.877898
1343.000000	19.432522
1342.000000	17.054857
1341.000000	14.781068
1340.000000	12.681861
1339.000000	10.870063
1338.000000	9.440183
1337.000000	8.408020
1336.000000	7.722331
1335.000000	7.301494
1334.000000	7.039368
1333.000000	6.816777
1332.000000	6.530311
1331.000000	6.113680
1330.000000	5.542280
1329.000000	4.830830
1328.000000	4.033521
1327.000000	3.228963
1326.000000	2.487858
1325.000000	1.853845
1324.000000	1.349837
1323.000000	0.983924
1322.000000	0.741217
1321.000000	0.588486
1320.000000	0.497403
1319.000000	0.450831
1318.000000	0.430460
1317.000000	0.415923
1316.000000	0.398516
1315.000000	0.382513
1314.000000	0.368560
1313.000000	0.350990
1312.000000	0.331592
1311.000000	0.319704
1310.000000	0.317741
1309.000000	0.320382
1308.000000	0.329558
1307.000000	0.355740
1306.000000	0.403226
1305.000000	0.468969
1304.000000	0.556082
1303.000000	0.673865
1302.000000	0.823667
1301.000000	0.998144
1300.000000	1.196077
1299.000000	1.422311
1298.000000	1.674126
1297.000000	1.942722
1296.000000	2.226449
1295.000000	2.529983
1294.000000	2.850665
1293.000000	3.179022
1292.000000	3.510849
1291.000000	3.845243
1290.000000	4.171746
1289.000000	4.471549
1288.000000	4.729185
1287.000000	4.932196
1286.000000	5.065696
1285.000000	5.122020
1284.000000	5.118855
1283.000000	5.099541
1282.000000	5.114423
1281.000000	5.206011
1280.000000	5.404253
1279.000000	5.717603
1278.000000	6.125455
1277.000000	6.592285
1276.000000	7.089261
1275.000000	7.599045
1274.000000	8.108221
1273.000000	8.607107
1272.000000	9.095446
1271.000000	9.576442
1270.000000	10.046851
1269.000000	10.500162
1268.000000	10.935566
1267.000000	11.355499
1266.000000	11.758946
1265.000000	12.144886
1264.000000	12.519008
1263.000000	12.890367
1262.000000	13.262614
1261.000000	13.635023
1260.000000	14.007935
1259.000000	14.380218
1258.000000	14.745559
1257.000000	15.097376
1256.000000	15.435335
1255.000000	15.762875
1254.000000	16.082114
1253.000000	16.395653
1252.000000	16.708915
1251.000000	17.025857
1250.000000	17.344564
1249.000000	17.659996
1248.000000	17.968658
1247.000000	18.267994
1246.000000	18.555403
1245.000000	18.831673
1244.000000	19.102558
1243.000000	19.374390
1242.000000	19.649917
1241.000000	19.929503
1240.000000	20.212299
1239.000000	20.493484
1238.000000	20.764342
1237.000000	21.017720
1236.000000	21.251985
1235.000000	21.469872
1234.000000	21.676720
1233.000000	21.881159
1232.000000	22.093471
1231.000000	22.320360
1230.000000	22.562002
1229.000000	22.813706
1228.000000	23.068244
1227.000000	23.316970
1226.000000	23.552936
1225.000000	23.774995
1224.000000	23.987539
1223.000000	24.196821
1222.000000	24.409296
1221.000000	24.631396
1220.000000	24.866615
1219.000000	25.111936
1218.000000	25.359435
1217.000000	25.601246
1216.000000	25.831879
1215.000000	26.048872
1214.000000	26.255115
1213.000000	26.459451
1212.000000	26.671607
1211.000000	26.896225
1210.000000	27.132499
1209.000000	27.376166
1208.000000	27.618886
1207.000000	27.848754
1206.000000	28.056166
1205.000000	28.239843
1204.000000	28.405744
1203.000000	28.563204
1202.000000	28.723978
1201.000000	28.899858
1200.000000	29.096416
1199.000000	29.308793
1198.000000	29.524446
1197.000000	29.727943
1196.000000	29.901451
1195.000000	30.027761
1194.000000	30.097095
1193.000000	30.109324
1192.000000	30.069593
1191.000000	29.983384
1190.000000	29.859966
1189.000000	29.716188
1188.000000	29.574462
1187.000000	29.459511
1186.000000	29.396309
1185.000000	29.404851
1184.000000	29.492519
1183.000000	29.652935
1182.000000	29.871568
1181.000000	30.134817
1180.000000	30.431428
1179.000000	30.749402
1178.000000	31.076015
1177.000000	31.396445
1176.000000	31.692996
1175.000000	31.950307
1174.000000	32.165512
1173.000000	32.350717
1172.000000	32.524610
1171.000000	32.704670
1170.000000	32.905763
1169.000000	33.137079
1168.000000	33.394496
1167.000000	33.660513
1166.000000	33.914815
1165.000000	34.143243
1164.000000	34.338440
1163.000000	34.500573
1162.000000	34.641613
1161.000000	34.782108
1160.000000	34.939046
1159.000000	35.119029
1158.000000	35.320945
1157.000000	35.538078
1156.000000	35.755800
1155.000000	35.955797
1154.000000	36.128568
1153.000000	36.278455
1152.000000	36.416347
1151.000000	36.554021
1150.000000	36.705035
1149.000000	36.880338
1148.000000	37.076951
1147.000000	37.276608
1146.000000	37.458349
1145.000000	37.608187
1144.000000	37.719203
1143.000000	37.793265
1142.000000	37.847354
1141.000000	37.909762
1140.000000	38.004188
1139.000000	38.139963
1138.000000	38.314722
1137.000000	38.516697
1136.000000	38.722290
1135.000000	38.901914
1134.000000	39.036354
1133.000000	39.125255
1132.000000	39.180990
1131.000000	39.222505
1130.000000	39.274154
1129.000000	39.358248
1128.000000	39.481726
1127.000000	39.633621
1126.000000	39.796142
1125.000000	39.952607
1124.000000	40.087456
1123.000000	40.191488
1122.000000	40.272270
1121.000000	40.351534
1120.000000	40.449135
1119.000000	40.573843
1118.000000	40.726330
1117.000000	40.899071
1116.000000	41.071362
1115.000000	41.215468
1114.000000	41.314943
1113.000000	41.373204
1112.000000	41.405866
1111.000000	41.434789
1110.000000	41.488259
1109.000000	41.592152
1108.000000	41.753272
1107.000000	41.955262
1106.000000	42.170856
1105.000000	42.371258
1104.000000	42.527556
1103.000000	42.619901
1102.000000	42.652833
1101.000000	42.654486
1100.000000	42.657766
1099.000000	42.687460
1098.000000	42.760592
1097.000000	42.882162
1096.000000	43.036642
1095.000000	43.194005
1094.000000	43.330402
1093.000000	43.438543
1092.000000	43.521684
1091.000000	43.590401
1090.000000	43.666290
1089.000000	43.773961
1088.000000	43.922098
1087.000000	44.097826
1086.000000	44.278899
1085.000000	44.442356
1084.000000	44.564266
1083.000000	44.628511
1082.000000	44.642690
1081.000000	44.637309
1080.000000	44.646507
1079.000000	44.695137
1078.000000	44.798551
1077.000000	44.956088
1076.000000	45.140247
1075.000000	45.303904
1074.000000	45.404190
1073.000000	45.417162
1072.000000	45.331914
1071.000000	45.149158
1070.000000	44.886745
1069.000000	44.568008
1068.000000	44.203772
1067.000000	43.787630
1066.000000	43.311844
1065.000000	42.780603
1064.000000	42.211981
1063.000000	41.643655
1062.000000	41.137773
1061.000000	40.766200
1060.000000	40.580370
1059.000000	40.599394
1058.000000	40.811299
1057.000000	41.179460
1056.000000	41.646028
1055.000000	42.141177
1054.000000	42.608036
1053.000000	43.014013
1052.000000	43.347899
1051.000000	43.618615
1050.000000	43.857562
1049.000000	44.106269
1048.000000	44.391304
1047.000000	44.713532
1046.000000	45.057123
1045.000000	45.397948
1044.000000	45.702806
1043.000000	45.940509
1042.000000	46.102884
1041.000000	46.208848
1040.000000	46.288612
1039.000000	46.371740
1038.000000	46.486104
1037.000000	46.649531
1036.000000	46.855261
1035.000000	47.075714
1034.000000	47.283240
1033.000000	47.462177
1032.000000	47.605629
1031.000000	47.717537
1030.000000	47.820288
1029.000000	47.945773
1028.000000	48.111956
1027.000000	48.313694
1026.000000	48.532850
1025.000000	48.745255
1024.000000	48.919378
1023.000000	49.027804
1022.000000	49.069388
1021.000000	49.071500
1020.000000	49.070636
1019.000000	49.099493
1018.000000	49.186277
1017.000000	49.345943
1016.000000	49.565095
1015.000000	49.805603
1014.000000	50.027300
1013.000000	50.202305
1012.000000	50.313861
1011.000000	50.360925
1010.000000	50.367869
1009.000000	50.375038
1008.000000	50.413130
1007.000000	50.492554
1006.000000	50.611071
1005.000000	50.756570
1004.000000	50.903019
1003.000000	51.021354
1002.000000	51.101666
1001.000000	51.157562
1000.000000	51.210086
999.000000	51.278047
998.000000	51.379853
997.000000	51.525687
996.000000	51.702161
995.000000	51.875363
994.000000	52.013295
993.000000	52.098575
992.000000	52.125336
991.000000	52.101948
990.000000	52.059761
989.000000	52.043223
988.000000	52.084142
987.000000	52.190774
986.000000	52.355806
985.000000	52.559849
984.000000	52.767340
983.000000	52.937276
982.000000	53.046626
981.000000	53.098124
980.000000	53.107648
979.000000	53.096871
978.000000	53.095030
977.000000	53.129113
976.000000	53.204616
975.000000	53.304121
974.000000	53.406257
973.000000	53.496113
972.000000	53.561792
971.000000	53.598563
970.000000	53.620561
969.000000	53.654515
968.000000	53.718606
967.000000	53.814485
966.000000	53.935540
965.000000	54.067856
964.000000	54.184094
963.000000	54.253281
962.000000	54.263977
961.000000	54.229964
960.000000	54.174587
959.000000	54.122837
958.000000	54.104722
957.000000	54.146116
956.000000	54.249038
955.000000	54.390529
954.000000	54.541469
953.000000	54.676771
952.000000	54.772186
951.000000	54.810770
950.000000	54.798289
949.000000	54.760221
948.000000	54.721414
947.000000	54.697407
946.000000	54.700967
945.000000	54.738194
944.000000	54.796558
943.000000	54.850857
942.000000	54.885637
941.000000	54.901914
940.000000	54.904443
939.000000	54.898199
938.000000	54.897069
937.000000	54.918438
936.000000	54.964109
935.000000	55.017378
934.000000	55.059534
933.000000	55.077918
932.000000	55.060003
931.000000	54.997567
930.000000	54.900003
929.000000	54.792086
928.000000	54.696525
927.000000	54.627623
926.000000	54.597129
925.000000	54.608302
924.000000	54.642718
923.000000	54.666970
922.000000	54.655323
921.000000	54.596732
920.000000	54.484436
919.000000	54.317403
918.000000	54.113143
917.000000	53.901180
916.000000	53.701494
915.000000	53.517678
914.000000	53.347827
913.000000	53.187102
912.000000	53.018769
911.000000	52.820381
910.000000	52.581620
909.000000	52.306316
908.000000	51.998873
907.000000	51.661206
906.000000	51.302319
905.000000	50.933500
904.000000	50.551922
903.000000	50.142504
902.000000	49.693395
901.000000	49.200574
900.000000	48.658813
899.000000	48.063512
898.000000	47.424685
897.000000	46.762979
896.000000	46.092542
895.000000	45.414695
894.000000	44.724616
893.000000	44.013611
892.000000	43.262261
891.000000	42.446052
890.000000	41.551071
889.000000	40.577933
888.000000	39.535990
887.000000	38.439980
886.000000	37.311270
885.000000	36.170477
884.000000	35.024906
883.000000	33.869201
882.000000	32.693426
881.000000	31.487555
880.000000	30.242262
879.000000	28.953367
878.000000	27.628008
877.000000	26.283559
876.000000	24.941921
875.000000	23.624280
874.000000	22.348025
873.000000	21.123271
872.000000	19.953329
871.000000	18.838180
870.000000	17.776019
869.000000	16.768066
868.000000	15.819925
867.000000	14.939778
866.000000	14.134333
865.000000	13.405600
864.000000	12.755050
863.000000	12.180515
862.000000	11.672212
861.000000	11.217096
860.000000	10.804611
859.000000	10.428736
858.000000	10.082742
857.000000	9.760839
856.000000	9.465349
855.000000	9.203269
854.000000	8.978833
853.000000	8.791757
852.000000	8.642296
851.000000	8.532101
850.000000	8.457678
849.000000	8.412549
848.000000	8.395299
847.000000	8.411046
846.000000	8.466795
845.000000	8.567921
844.000000	8.721713
843.000000	8.935694
842.000000	9.210404
841.000000	9.540347
840.000000	9.919123
839.000000	10.342604
838.000000	10.805881
837.000000	11.303262
836.000000	11.834584
835.000000	12.404439
834.000000	13.011123
833.000000	13.629731
832.000000	14.197331
831.000000	14.578711
830.000000	14.542582
829.000000	13.805501
828.000000	12.212378
827.000000	9.966940
826.000000	7.668585
825.000000	6.034931
824.000000	5.502095
823.000000	6.038919
822.000000	7.293936
821.000000	8.881426
820.000000	10.532115
819.000000	12.087916
818.000000	13.471053
817.000000	14.670312
816.000000	15.723454
815.000000	16.674892
814.000000	17.557532
813.000000	18.398067
812.000000	19.215743
811.000000	20.007027
810.000000	20.749801
809.000000	21.425227
808.000000	22.025991
807.000000	22.554183
806.000000	23.025416
805.000000	23.474191
804.000000	23.938651
803.000000	24.437635
802.000000	24.969967
801.000000	25.525970
800.000000	26.087644
799.000000	26.625189
798.000000	27.111527
797.000000	27.542417
796.000000	27.934538
795.000000	28.310942
794.000000	28.697074
793.000000	29.119282
792.000000	29.589893
791.000000	30.093946
790.000000	30.599365
789.000000	31.077265
788.000000	31.508177
787.000000	31.882588
786.000000	32.210881
785.000000	32.527159
784.000000	32.870643
783.000000	33.263378
782.000000	33.706409
781.000000	34.184427
780.000000	34.664339
779.000000	35.101194
778.000000	35.461769
777.000000	35.743813
776.000000	35.970323
775.000000	36.175268
774.000000	36.398924
773.000000	36.679613
772.000000	37.032604
771.000000	37.438358
770.000000	37.856619
769.000000	38.246882
768.000000	38.574941
767.000000	38.819723
766.000000	38.989922
765.000000	39.126124
764.000000	39.275953
763.000000	39.469793
762.000000	39.718433
761.000000	40.015884
760.000000	40.333105
759.000000	40.623144
758.000000	40.848727
757.000000	41.004341
756.000000	41.110397
755.000000	41.200250
754.000000	41.317276
753.000000	41.504147
752.000000	41.775980
751.000000	42.107566
750.000000	42.451800
749.000000	42.763007
748.000000	43.002742
747.000000	43.147698
746.000000	43.210282
745.000000	43.241824
744.000000	43.302119
743.000000	43.429195
742.000000	43.636127
741.000000	43.915426
740.000000	44.232481
739.000000	44.530162
738.000000	44.758905
737.000000	44.901253
736.000000	44.966925
735.000000	44.980962
734.000000	44.983498
733.000000	45.020165
732.000000	45.113495
731.000000	45.247814
730.000000	45.386538
729.000000	45.494004
728.000000	45.540155
727.000000	45.508896
726.000000	45.418722
725.000000	45.323602
724.000000	45.280641
723.000000	45.322827
722.000000	45.461867
721.000000	45.693538
720.000000	45.985008
719.000000	46.275790
718.000000	46.512593
717.000000	46.679217
716.000000	46.789703
715.000000	46.872799
714.000000	46.971959
713.000000	47.136527
712.000000	47.391059
711.000000	47.718846
710.000000	48.082213
709.000000	48.444323
708.000000	48.767971
707.000000	49.020468
706.000000	49.199723
705.000000	49.342435
704.000000	49.493655
703.000000	49.677865
702.000000	49.902682
701.000000	50.165777
700.000000	50.442354
699.000000	50.686846
698.000000	50.865476
697.000000	50.978820
696.000000	51.047605
695.000000	51.097888
694.000000	51.169676
693.000000	51.310934
692.000000	51.539443
691.000000	51.826503
690.000000	52.128677
689.000000	52.415143
688.000000	52.654763
687.000000	52.810487
686.000000	52.875723
685.000000	52.893495
684.000000	52.918915
683.000000	52.981961
682.000000	53.098015
681.000000	53.280617
680.000000	53.517839
679.000000	53.763371
678.000000	53.978704
677.000000	54.158537
676.000000	54.307395
675.000000	54.431680
674.000000	54.554070
673.000000	54.709133
672.000000	54.917488
671.000000	55.181284
670.000000	55.498068
669.000000	55.841507
668.000000	56.105794
667.000000	56.163802
666.000000	56.053940
665.000000	55.940583
664.000000	55.925832
663.000000	56.028596
662.000000	56.228790
661.000000	56.495037
660.000000	56.791286
659.000000	57.074925
658.000000	57.310788
657.000000	57.483599
656.000000	57.593234
655.000000	57.656371
654.000000	57.704141
653.000000	57.766919
652.000000	57.862592
651.000000	57.995905
650.000000	58.162677
649.000000	58.350506
648.000000	58.540596
647.000000	58.717919
646.000000	58.882852
645.000000	59.048708
644.000000	59.223635
643.000000	59.402319
642.000000	59.577426
641.000000	59.746173
640.000000	59.900237
639.000000	60.023327
638.000000	60.106960
637.000000	60.161591
636.000000	60.208842
635.000000	60.271149
634.000000	60.370805
633.000000	60.524190
632.000000	60.729179
631.000000	60.966231
630.000000	61.214702
629.000000	61.458414
628.000000	61.677137
627.000000	61.850536
626.000000	61.977255
625.000000	62.075240
624.000000	62.157092
623.000000	62.222402
622.000000	62.278431
621.000000	62.347830
620.000000	62.447041
619.000000	62.575998
618.000000	62.734470
617.000000	62.929247
616.000000	63.155464
615.000000	63.389393
614.000000	63.606051
613.000000	63.787700
612.000000	63.909981
611.000000	63.943951
610.000000	63.877562
609.000000	63.712067
608.000000	63.433633
607.000000	62.997706
606.000000	62.345929
605.000000	61.396459
604.000000	59.999449
603.000000	57.935371
602.000000	54.950832
601.000000	50.858059
600.000000	45.697748
599.000000	39.911156
598.000000	34.319560
597.000000	29.830280
596.000000	27.089940
595.000000	26.291908
594.000000	27.177394
593.000000	29.203637
592.000000	31.816534
591.000000	34.593848
590.000000	37.264495
589.000000	39.717798
588.000000	41.954202
587.000000	44.009904
586.000000	45.904535
585.000000	47.642035
584.000000	49.218248
583.000000	50.627641
582.000000	51.872511
581.000000	52.968191
580.000000	53.929248
579.000000	54.755682
578.000000	55.461541
577.000000	56.089080
576.000000	56.675950
575.000000	57.227746
574.000000	57.736157
573.000000	58.209811
572.000000	58.661322
571.000000	59.087875
570.000000	59.488915
569.000000	59.880650
568.000000	60.272573
567.000000	60.649280
566.000000	60.993794
565.000000	61.308374
564.000000	61.589913
563.000000	61.815268
562.000000	61.973958
561.000000	62.092262
560.000000	62.207239
559.000000	62.340564
558.000000	62.513350
557.000000	62.753667
556.000000	63.066314
555.000000	63.415564
554.000000	63.756464
553.000000	64.061784
552.000000	64.308127
551.000000	64.471189
550.000000	64.559832
549.000000	64.621717
548.000000	64.694799
547.000000	64.783433
546.000000	64.891457
545.000000	65.039605
544.000000	65.230396
543.000000	65.435184
542.000000	65.634797
541.000000	65.841336
540.000000	66.060693
539.000000	66.273029
538.000000	66.468556
537.000000	66.664826
536.000000	66.865416
535.000000	67.039697
534.000000	67.165625
533.000000	67.256452
532.000000	67.326159
531.000000	67.367312
530.000000	67.387987
529.000000	67.428455
528.000000	67.521714
527.000000	67.671359
526.000000	67.878622
525.000000	68.141012
524.000000	68.402909
523.000000	68.554499
522.000000	68.511121
521.000000	68.251550
520.000000	67.771514
519.000000	67.058082
518.000000	66.144838
517.000000	65.158951
516.000000	64.266648
515.000000	63.597373
514.000000	63.223654
513.000000	63.159235
512.000000	63.335526
511.000000	63.611616
510.000000	63.839684
509.000000	63.905923
508.000000	63.695181
507.000000	63.082703
506.000000	62.001572
505.000000	60.471727
504.000000	58.560669
503.000000	56.411164
502.000000	54.334642
501.000000	52.731985
500.000000	51.854969
499.000000	51.712957
498.000000	52.189418
497.000000	53.116469
496.000000	54.271795
495.000000	55.417121
494.000000	56.381797
493.000000	57.117598
492.000000	57.663846
491.000000	58.101967
490.000000	58.533622
489.000000	59.046021
488.000000	59.662495
487.000000	60.351590
486.000000	61.090360
485.000000	61.888264
484.000000	62.739334
483.000000	63.599486
482.000000	64.436289
481.000000	65.251298
480.000000	66.026967
479.000000	66.707335
478.000000	67.262534
477.000000	67.725836
476.000000	68.129915
475.000000	68.452498
474.000000	68.673656
473.000000	68.824931
472.000000	68.942409
471.000000	69.020565
470.000000	69.059198
469.000000	69.117529
468.000000	69.262801
467.000000	69.500711
466.000000	69.789175
465.000000	70.087169
464.000000	70.350798
463.000000	70.518776
462.000000	70.558548
461.000000	70.492736
460.000000	70.341791
459.000000	70.103342
458.000000	69.830934
457.000000	69.663116
456.000000	69.674548
455.000000	69.790314
454.000000	69.933559
453.000000	70.118804
452.000000	70.339847
451.000000	70.474199
450.000000	70.387695
449.000000	70.054257
448.000000	69.500389
447.000000	68.715390
446.000000	67.684799
445.000000	66.414881
444.000000	64.864712
443.000000	62.926515
442.000000	60.539950
441.000000	57.792502
440.000000	54.852558
439.000000	51.900549
438.000000	49.158076
437.000000	46.933854
436.000000	45.536362
435.000000	45.101790
434.000000	45.522552
433.000000	46.582796
432.000000	48.117485
431.000000	49.951748
430.000000	51.875664
429.000000	53.772765
428.000000	55.639370
427.000000	57.461029
426.000000	59.198910
425.000000	60.899683
424.000000	62.617233
423.000000	64.226339
422.000000	65.509609
421.000000	66.458977
420.000000	67.279679
419.000000	68.132082
418.000000	69.045351
417.000000	69.974196
416.000000	70.793390
415.000000	71.353751
414.000000	71.639349
413.000000	71.817428
412.000000	72.025636
411.000000	72.224492
410.000000	72.392271
409.000000	72.683854
408.000000	73.211518
407.000000	73.870789
406.000000	74.474747
405.000000	75.015460
404.000000	75.459191
403.000000	75.570816
402.000000	75.198745
401.000000	74.549387
400.000000	73.892800
