PE IR       SUBTECH     SPECTRUM    ASCII       PEDS        4.00        
   -1
23ms084_nitro.asc
24/09/12
15:30:19.00
24/09/12
15:30:19.00
Administrator
Sample 1167 By Administrator Date Thursday, September 12 2024
400.000000
#HDR
-1
-1
#GR
cm-1
%T
1.0
0.0
4000.000000
-1.000000
3601
8
76.920388
7.898303
#DATA
4000.000000	44.526666
3999.000000	44.560994
3998.000000	44.595493
3997.000000	44.629563
3996.000000	44.662532
3995.000000	44.694684
3994.000000	44.727081
3993.000000	44.760196
3992.000000	44.793248
3991.000000	44.825319
3990.000000	44.856668
3989.000000	44.888306
3988.000000	44.920504
3987.000000	44.952469
3986.000000	44.983472
3985.000000	45.013575
3984.000000	45.043303
3983.000000	45.073121
3982.000000	45.103432
3981.000000	45.134603
3980.000000	45.166679
3979.000000	45.199027
3978.000000	45.230472
3977.000000	45.260060
3976.000000	45.287745
3975.000000	45.313972
3974.000000	45.339191
3973.000000	45.364005
3972.000000	45.389177
3971.000000	45.415379
3970.000000	45.442743
3969.000000	45.471113
3968.000000	45.499981
3967.000000	45.528808
3966.000000	45.557361
3965.000000	45.585628
3964.000000	45.613511
3963.000000	45.640573
3962.000000	45.666696
3961.000000	45.692628
3960.000000	45.718941
3959.000000	45.745223
3958.000000	45.770780
3957.000000	45.796535
3956.000000	45.824105
3955.000000	45.853935
3954.000000	45.884935
3953.000000	45.915273
3952.000000	45.943745
3951.000000	45.969994
3950.000000	45.994601
3949.000000	46.018251
3948.000000	46.041793
3947.000000	46.067436
3946.000000	46.097136
3945.000000	46.129068
3944.000000	46.158578
3943.000000	46.184075
3942.000000	46.209898
3941.000000	46.240644
3940.000000	46.274848
3939.000000	46.307482
3938.000000	46.335804
3937.000000	46.362615
3936.000000	46.391891
3935.000000	46.423143
3934.000000	46.452771
3933.000000	46.478985
3932.000000	46.504291
3931.000000	46.530582
3930.000000	46.556270
3929.000000	46.580970
3928.000000	46.608112
3927.000000	46.640069
3926.000000	46.671921
3925.000000	46.698228
3924.000000	46.721937
3923.000000	46.748147
3922.000000	46.774793
3921.000000	46.797370
3920.000000	46.818175
3919.000000	46.844136
3918.000000	46.875621
3917.000000	46.907104
3916.000000	46.936922
3915.000000	46.968269
3914.000000	47.001365
3913.000000	47.033429
3912.000000	47.063075
3911.000000	47.092955
3910.000000	47.123338
3909.000000	47.153606
3908.000000	47.183907
3907.000000	47.213849
3906.000000	47.238181
3905.000000	47.249405
3904.000000	47.251562
3903.000000	47.259167
3902.000000	47.279930
3901.000000	47.306944
3900.000000	47.330325
3899.000000	47.351586
3898.000000	47.378655
3897.000000	47.412075
3896.000000	47.446286
3895.000000	47.481231
3894.000000	47.519996
3893.000000	47.560832
3892.000000	47.591576
3891.000000	47.607713
3890.000000	47.621279
3889.000000	47.648025
3888.000000	47.687750
3887.000000	47.722060
3886.000000	47.738617
3885.000000	47.751127
3884.000000	47.776558
3883.000000	47.810850
3882.000000	47.836643
3881.000000	47.846532
3880.000000	47.853570
3879.000000	47.874971
3878.000000	47.913405
3877.000000	47.959148
3876.000000	47.996820
3875.000000	48.016645
3874.000000	48.029213
3873.000000	48.056797
3872.000000	48.100254
3871.000000	48.130112
3870.000000	48.130753
3869.000000	48.130072
3868.000000	48.155490
3867.000000	48.197004
3866.000000	48.225958
3865.000000	48.238817
3864.000000	48.260065
3863.000000	48.301001
3862.000000	48.345507
3861.000000	48.382198
3860.000000	48.412191
3859.000000	48.443853
3858.000000	48.485365
3857.000000	48.543090
3856.000000	48.607209
3855.000000	48.639143
3854.000000	48.624138
3853.000000	48.611593
3852.000000	48.631368
3851.000000	48.659291
3850.000000	48.674649
3849.000000	48.683863
3848.000000	48.704952
3847.000000	48.746659
3846.000000	48.800367
3845.000000	48.852189
3844.000000	48.891240
3843.000000	48.916709
3842.000000	48.939029
3841.000000	48.967382
3840.000000	48.994241
3839.000000	49.012981
3838.000000	49.029153
3837.000000	49.049513
3836.000000	49.072400
3835.000000	49.094896
3834.000000	49.119409
3833.000000	49.146999
3832.000000	49.175927
3831.000000	49.208728
3830.000000	49.249292
3829.000000	49.296588
3828.000000	49.340587
3827.000000	49.370147
3826.000000	49.388251
3825.000000	49.414343
3824.000000	49.458492
3823.000000	49.504187
3822.000000	49.523577
3821.000000	49.519844
3820.000000	49.526727
3819.000000	49.560925
3818.000000	49.606444
3817.000000	49.634305
3816.000000	49.645729
3815.000000	49.673791
3814.000000	49.729265
3813.000000	49.783342
3812.000000	49.812030
3811.000000	49.827199
3810.000000	49.857702
3809.000000	49.909073
3808.000000	49.954075
3807.000000	49.972788
3806.000000	49.981433
3805.000000	50.005928
3804.000000	50.046610
3803.000000	50.078909
3802.000000	50.083479
3801.000000	50.084261
3800.000000	50.111382
3799.000000	50.155774
3798.000000	50.192854
3797.000000	50.214312
3796.000000	50.236962
3795.000000	50.278246
3794.000000	50.334154
3793.000000	50.385602
3792.000000	50.423881
3791.000000	50.456214
3790.000000	50.490664
3789.000000	50.527298
3788.000000	50.564142
3787.000000	50.601078
3786.000000	50.636124
3785.000000	50.664658
3784.000000	50.687548
3783.000000	50.713122
3782.000000	50.744874
3781.000000	50.776054
3780.000000	50.799758
3779.000000	50.822270
3778.000000	50.854469
3777.000000	50.896311
3776.000000	50.935209
3775.000000	50.963499
3774.000000	50.989236
3773.000000	51.024752
3772.000000	51.066456
3771.000000	51.099022
3770.000000	51.120092
3769.000000	51.143660
3768.000000	51.177240
3767.000000	51.213470
3766.000000	51.241542
3765.000000	51.261883
3764.000000	51.287583
3763.000000	51.326980
3762.000000	51.370504
3761.000000	51.404731
3760.000000	51.432378
3759.000000	51.466070
3758.000000	51.502234
3757.000000	51.531004
3756.000000	51.555601
3755.000000	51.583864
3754.000000	51.612845
3753.000000	51.632995
3752.000000	51.649662
3751.000000	51.675739
3750.000000	51.701878
3749.000000	51.713517
3748.000000	51.726652
3747.000000	51.767025
3746.000000	51.819110
3745.000000	51.848212
3744.000000	51.874055
3743.000000	51.929248
3742.000000	51.992813
3741.000000	52.032111
3740.000000	52.049086
3739.000000	52.076526
3738.000000	52.129678
3737.000000	52.187018
3736.000000	52.229516
3735.000000	52.266539
3734.000000	52.311965
3733.000000	52.357348
3732.000000	52.392219
3731.000000	52.423422
3730.000000	52.463386
3729.000000	52.514086
3728.000000	52.564607
3727.000000	52.606224
3726.000000	52.647442
3725.000000	52.697310
3724.000000	52.748349
3723.000000	52.789171
3722.000000	52.822324
3721.000000	52.858645
3720.000000	52.901936
3719.000000	52.947965
3718.000000	52.987573
3717.000000	53.020349
3716.000000	53.055219
3715.000000	53.094666
3714.000000	53.130677
3713.000000	53.156348
3712.000000	53.179064
3711.000000	53.211883
3710.000000	53.256690
3709.000000	53.306706
3708.000000	53.353875
3707.000000	53.395550
3706.000000	53.436679
3705.000000	53.482335
3704.000000	53.531483
3703.000000	53.578580
3702.000000	53.621904
3701.000000	53.665432
3700.000000	53.712530
3699.000000	53.762452
3698.000000	53.808483
3697.000000	53.845182
3696.000000	53.877821
3695.000000	53.913114
3694.000000	53.948046
3693.000000	53.978264
3692.000000	54.007490
3691.000000	54.041371
3690.000000	54.077637
3689.000000	54.113044
3688.000000	54.149610
3687.000000	54.189712
3686.000000	54.232187
3685.000000	54.270930
3684.000000	54.302748
3683.000000	54.336511
3682.000000	54.380752
3681.000000	54.425176
3680.000000	54.456473
3679.000000	54.482308
3678.000000	54.520016
3677.000000	54.556325
3676.000000	54.569030
3675.000000	54.578182
3674.000000	54.610174
3673.000000	54.659836
3672.000000	54.704706
3671.000000	54.730911
3670.000000	54.759201
3669.000000	54.819214
3668.000000	54.900581
3667.000000	54.972658
3666.000000	55.024505
3665.000000	55.067374
3664.000000	55.116506
3663.000000	55.176323
3662.000000	55.236832
3661.000000	55.286156
3660.000000	55.325473
3659.000000	55.362094
3658.000000	55.396333
3657.000000	55.419434
3656.000000	55.433454
3655.000000	55.451684
3654.000000	55.479395
3653.000000	55.507933
3652.000000	55.523273
3651.000000	55.522323
3650.000000	55.525024
3649.000000	55.553332
3648.000000	55.602481
3647.000000	55.655245
3646.000000	55.704019
3645.000000	55.750372
3644.000000	55.796022
3643.000000	55.841381
3642.000000	55.886830
3641.000000	55.934742
3640.000000	55.984030
3639.000000	56.027982
3638.000000	56.063878
3637.000000	56.096446
3636.000000	56.129225
3635.000000	56.155309
3634.000000	56.169388
3633.000000	56.180243
3632.000000	56.198969
3631.000000	56.217412
3630.000000	56.214904
3629.000000	56.204887
3628.000000	56.227115
3627.000000	56.281322
3626.000000	56.332878
3625.000000	56.363143
3624.000000	56.381726
3623.000000	56.408145
3622.000000	56.446664
3621.000000	56.480620
3620.000000	56.495694
3619.000000	56.499295
3618.000000	56.506196
3617.000000	56.520050
3616.000000	56.536135
3615.000000	56.547467
3614.000000	56.552453
3613.000000	56.559613
3612.000000	56.578926
3611.000000	56.609466
3610.000000	56.641670
3609.000000	56.670787
3608.000000	56.702281
3607.000000	56.741789
3606.000000	56.784441
3605.000000	56.820730
3604.000000	56.847928
3603.000000	56.870828
3602.000000	56.894559
3601.000000	56.919364
3600.000000	56.944513
3599.000000	56.968403
3598.000000	56.988112
3597.000000	57.003113
3596.000000	57.017557
3595.000000	57.033856
3594.000000	57.052722
3593.000000	57.073127
3592.000000	57.092983
3591.000000	57.111743
3590.000000	57.128906
3589.000000	57.144012
3588.000000	57.161663
3587.000000	57.190257
3586.000000	57.229802
3585.000000	57.270480
3584.000000	57.304270
3583.000000	57.331560
3582.000000	57.357314
3581.000000	57.384457
3580.000000	57.412990
3579.000000	57.441377
3578.000000	57.468245
3577.000000	57.493203
3576.000000	57.517374
3575.000000	57.542778
3574.000000	57.570201
3573.000000	57.598758
3572.000000	57.625823
3571.000000	57.649478
3570.000000	57.667802
3569.000000	57.678120
3568.000000	57.683102
3567.000000	57.694836
3566.000000	57.722744
3565.000000	57.762443
3564.000000	57.803874
3563.000000	57.842229
3562.000000	57.878595
3561.000000	57.915216
3560.000000	57.952801
3559.000000	57.991186
3558.000000	58.029143
3557.000000	58.064856
3556.000000	58.097685
3555.000000	58.128773
3554.000000	58.158350
3553.000000	58.185625
3552.000000	58.211682
3551.000000	58.239466
3550.000000	58.270193
3549.000000	58.302223
3548.000000	58.334474
3547.000000	58.368788
3546.000000	58.406354
3545.000000	58.445078
3544.000000	58.482028
3543.000000	58.516305
3542.000000	58.548438
3541.000000	58.579920
3540.000000	58.613252
3539.000000	58.649901
3538.000000	58.687440
3537.000000	58.721442
3536.000000	58.751352
3535.000000	58.780676
3534.000000	58.812376
3533.000000	58.845465
3532.000000	58.878200
3531.000000	58.910498
3530.000000	58.942028
3529.000000	58.971348
3528.000000	58.999342
3527.000000	59.030534
3526.000000	59.067217
3525.000000	59.105059
3524.000000	59.137813
3523.000000	59.164902
3522.000000	59.191173
3521.000000	59.220762
3520.000000	59.253550
3519.000000	59.287043
3518.000000	59.319985
3517.000000	59.353009
3516.000000	59.386497
3515.000000	59.418432
3514.000000	59.446002
3513.000000	59.468009
3512.000000	59.485533
3511.000000	59.500901
3510.000000	59.516545
3509.000000	59.534393
3508.000000	59.555812
3507.000000	59.580969
3506.000000	59.607798
3505.000000	59.632960
3504.000000	59.654516
3503.000000	59.672937
3502.000000	59.689318
3501.000000	59.704270
3500.000000	59.718352
3499.000000	59.731398
3498.000000	59.741756
3497.000000	59.748333
3496.000000	59.753032
3495.000000	59.758863
3494.000000	59.766146
3493.000000	59.772612
3492.000000	59.776754
3491.000000	59.779118
3490.000000	59.780165
3489.000000	59.778777
3488.000000	59.773870
3487.000000	59.765923
3486.000000	59.755964
3485.000000	59.744694
3484.000000	59.733563
3483.000000	59.724556
3482.000000	59.717751
3481.000000	59.709897
3480.000000	59.696578
3479.000000	59.675689
3478.000000	59.648319
3477.000000	59.617470
3476.000000	59.586581
3475.000000	59.558242
3474.000000	59.533442
3473.000000	59.512063
3472.000000	59.493310
3471.000000	59.474671
3470.000000	59.451382
3469.000000	59.418710
3468.000000	59.375208
3467.000000	59.323429
3466.000000	59.267476
3465.000000	59.210679
3464.000000	59.155325
3463.000000	59.102399
3462.000000	59.050540
3461.000000	58.996295
3460.000000	58.936611
3459.000000	58.871056
3458.000000	58.801511
3457.000000	58.730542
3456.000000	58.660342
3455.000000	58.591719
3454.000000	58.523395
3453.000000	58.452613
3452.000000	58.378032
3451.000000	58.300404
3450.000000	58.219396
3449.000000	58.132210
3448.000000	58.037569
3447.000000	57.939477
3446.000000	57.843671
3445.000000	57.751078
3444.000000	57.657393
3443.000000	57.558649
3442.000000	57.454951
3441.000000	57.349317
3440.000000	57.244322
3439.000000	57.140073
3438.000000	57.034230
3437.000000	56.923059
3436.000000	56.803521
3435.000000	56.674716
3434.000000	56.537820
3433.000000	56.394999
3432.000000	56.248431
3431.000000	56.098768
3430.000000	55.944148
3429.000000	55.782516
3428.000000	55.615013
3427.000000	55.445169
3426.000000	55.274864
3425.000000	55.103001
3424.000000	54.927435
3423.000000	54.746045
3422.000000	54.556309
3421.000000	54.357060
3420.000000	54.150931
3419.000000	53.942377
3418.000000	53.733427
3417.000000	53.523008
3416.000000	53.309800
3415.000000	53.092695
3414.000000	52.868625
3413.000000	52.633928
3412.000000	52.388270
3411.000000	52.134723
3410.000000	51.875447
3409.000000	51.609812
3408.000000	51.337494
3407.000000	51.060158
3406.000000	50.779484
3405.000000	50.495910
3404.000000	50.209160
3403.000000	49.917750
3402.000000	49.617781
3401.000000	49.304770
3400.000000	48.977783
3399.000000	48.640253
3398.000000	48.297285
3397.000000	47.953060
3396.000000	47.609320
3395.000000	47.264095
3394.000000	46.911706
3393.000000	46.546578
3392.000000	46.167658
3391.000000	45.778349
3390.000000	45.383394
3389.000000	44.986530
3388.000000	44.589772
3387.000000	44.192356
3386.000000	43.790787
3385.000000	43.382183
3384.000000	42.966793
3383.000000	42.546401
3382.000000	42.121748
3381.000000	41.692980
3380.000000	41.261452
3379.000000	40.828698
3378.000000	40.394520
3377.000000	39.957760
3376.000000	39.518058
3375.000000	39.076036
3374.000000	38.632578
3373.000000	38.188974
3372.000000	37.746465
3371.000000	37.304363
3370.000000	36.859930
3369.000000	36.411055
3368.000000	35.958072
3367.000000	35.502593
3366.000000	35.046157
3365.000000	34.590737
3364.000000	34.138602
3363.000000	33.690497
3362.000000	33.245460
3361.000000	32.803257
3360.000000	32.365200
3359.000000	31.931754
3358.000000	31.501243
3357.000000	31.072016
3356.000000	30.644407
3355.000000	30.219542
3354.000000	29.798011
3353.000000	29.380597
3352.000000	28.968468
3351.000000	28.562119
3350.000000	28.161447
3349.000000	27.767273
3348.000000	27.380901
3347.000000	27.001493
3346.000000	26.626232
3345.000000	26.253481
3344.000000	25.884046
3343.000000	25.519364
3342.000000	25.160394
3341.000000	24.808709
3340.000000	24.465825
3339.000000	24.130881
3338.000000	23.801505
3337.000000	23.477107
3336.000000	23.159368
3335.000000	22.849098
3334.000000	22.545044
3333.000000	22.246520
3332.000000	21.954244
3331.000000	21.668427
3330.000000	21.388256
3329.000000	21.113574
3328.000000	20.845180
3327.000000	20.582721
3326.000000	20.324955
3325.000000	20.072354
3324.000000	19.826878
3323.000000	19.589320
3322.000000	19.358765
3321.000000	19.134825
3320.000000	18.917922
3319.000000	18.706956
3318.000000	18.499845
3317.000000	18.296276
3316.000000	18.097757
3315.000000	17.905113
3314.000000	17.717971
3313.000000	17.536942
3312.000000	17.363339
3311.000000	17.196735
3310.000000	17.035566
3309.000000	16.879718
3308.000000	16.730466
3307.000000	16.587825
3306.000000	16.450709
3305.000000	16.319926
3304.000000	16.197562
3303.000000	16.083762
3302.000000	15.976545
3301.000000	15.874778
3300.000000	15.779071
3299.000000	15.689298
3298.000000	15.604235
3297.000000	15.523736
3296.000000	15.448667
3295.000000	15.378917
3294.000000	15.313475
3293.000000	15.252724
3292.000000	15.198212
3291.000000	15.149822
3290.000000	15.105885
3289.000000	15.065590
3288.000000	15.029355
3287.000000	14.997011
3286.000000	14.967601
3285.000000	14.941260
3284.000000	14.918717
3283.000000	14.899331
3282.000000	14.881656
3281.000000	14.865525
3280.000000	14.851642
3279.000000	14.839412
3278.000000	14.827514
3277.000000	14.816175
3276.000000	14.806619
3275.000000	14.798824
3274.000000	14.791944
3273.000000	14.786502
3272.000000	14.783875
3271.000000	14.783926
3270.000000	14.785351
3269.000000	14.787786
3268.000000	14.791417
3267.000000	14.795182
3266.000000	14.797657
3265.000000	14.799370
3264.000000	14.802054
3263.000000	14.806008
3262.000000	14.810414
3261.000000	14.815540
3260.000000	14.822270
3259.000000	14.830026
3258.000000	14.837327
3257.000000	14.844014
3256.000000	14.850883
3255.000000	14.857833
3254.000000	14.864363
3253.000000	14.871165
3252.000000	14.879170
3251.000000	14.887719
3250.000000	14.895764
3249.000000	14.903994
3248.000000	14.913631
3247.000000	14.924063
3246.000000	14.933868
3245.000000	14.943333
3244.000000	14.953634
3243.000000	14.964331
3242.000000	14.974130
3241.000000	14.983298
3240.000000	14.993000
3239.000000	15.002961
3238.000000	15.012052
3237.000000	15.020436
3236.000000	15.028990
3235.000000	15.037408
3234.000000	15.045038
3233.000000	15.052791
3232.000000	15.061943
3231.000000	15.071715
3230.000000	15.080306
3229.000000	15.087550
3228.000000	15.094434
3227.000000	15.100811
3226.000000	15.105797
3225.000000	15.109781
3224.000000	15.113889
3223.000000	15.118092
3222.000000	15.121747
3221.000000	15.125182
3220.000000	15.128772
3219.000000	15.131361
3218.000000	15.131743
3217.000000	15.130735
3216.000000	15.129800
3215.000000	15.128684
3214.000000	15.126301
3213.000000	15.122893
3212.000000	15.119186
3211.000000	15.114522
3210.000000	15.108003
3209.000000	15.100401
3208.000000	15.092909
3207.000000	15.084970
3206.000000	15.075388
3205.000000	15.064581
3204.000000	15.053536
3203.000000	15.041668
3202.000000	15.027876
3201.000000	15.012676
3200.000000	14.997190
3199.000000	14.981027
3198.000000	14.963344
3197.000000	14.944926
3196.000000	14.926965
3195.000000	14.908852
3194.000000	14.889273
3193.000000	14.868548
3192.000000	14.847761
3191.000000	14.826487
3190.000000	14.803635
3189.000000	14.779608
3188.000000	14.755568
3187.000000	14.731459
3186.000000	14.706687
3185.000000	14.681823
3184.000000	14.657607
3183.000000	14.633342
3182.000000	14.608114
3181.000000	14.582537
3180.000000	14.557536
3179.000000	14.532588
3178.000000	14.506949
3177.000000	14.481374
3176.000000	14.456729
3175.000000	14.432243
3174.000000	14.407059
3173.000000	14.382119
3172.000000	14.358526
3171.000000	14.335441
3170.000000	14.311724
3169.000000	14.288301
3168.000000	14.266741
3167.000000	14.246707
3166.000000	14.226987
3165.000000	14.207751
3164.000000	14.189659
3163.000000	14.172004
3162.000000	14.153837
3161.000000	14.135878
3160.000000	14.119334
3159.000000	14.103939
3158.000000	14.089079
3157.000000	14.075532
3156.000000	14.064144
3155.000000	14.053943
3154.000000	14.043535
3153.000000	14.033322
3152.000000	14.024452
3151.000000	14.016823
3150.000000	14.009886
3149.000000	14.004118
3148.000000	13.999929
3147.000000	13.996314
3146.000000	13.992513
3145.000000	13.989678
3144.000000	13.989080
3143.000000	13.990014
3142.000000	13.991216
3141.000000	13.993062
3140.000000	13.996491
3139.000000	14.001047
3138.000000	14.005970
3137.000000	14.011795
3136.000000	14.019073
3135.000000	14.026904
3134.000000	14.034524
3133.000000	14.043018
3132.000000	14.053593
3131.000000	14.065627
3130.000000	14.078211
3129.000000	14.091981
3128.000000	14.107697
3127.000000	14.124427
3126.000000	14.140969
3125.000000	14.157677
3124.000000	14.175153
3123.000000	14.192679
3122.000000	14.209668
3121.000000	14.227312
3120.000000	14.247038
3119.000000	14.268556
3118.000000	14.291141
3117.000000	14.315325
3116.000000	14.341644
3115.000000	14.369262
3114.000000	14.397380
3113.000000	14.426510
3112.000000	14.456800
3111.000000	14.486836
3110.000000	14.515792
3109.000000	14.545051
3108.000000	14.576109
3107.000000	14.608456
3106.000000	14.641166
3105.000000	14.674948
3104.000000	14.710835
3103.000000	14.748340
3102.000000	14.786521
3101.000000	14.825481
3100.000000	14.865264
3099.000000	14.904659
3098.000000	14.942903
3097.000000	14.981178
3096.000000	15.020842
3095.000000	15.061712
3094.000000	15.103485
3093.000000	15.147172
3092.000000	15.193389
3091.000000	15.240775
3090.000000	15.287818
3089.000000	15.334781
3088.000000	15.382241
3087.000000	15.429323
3086.000000	15.475187
3085.000000	15.520875
3084.000000	15.567879
3083.000000	15.616133
3082.000000	15.665030
3081.000000	15.715040
3080.000000	15.766732
3079.000000	15.819444
3078.000000	15.872494
3077.000000	15.926435
3076.000000	15.981620
3075.000000	16.036953
3074.000000	16.091475
3073.000000	16.145788
3072.000000	16.200600
3071.000000	16.255207
3070.000000	16.308881
3069.000000	16.362416
3068.000000	16.416904
3067.000000	16.472352
3066.000000	16.528738
3065.000000	16.586927
3064.000000	16.647088
3063.000000	16.707584
3062.000000	16.766905
3061.000000	16.825342
3060.000000	16.883480
3059.000000	16.940617
3058.000000	16.996174
3057.000000	17.051336
3056.000000	17.107761
3055.000000	17.165836
3054.000000	17.225416
3053.000000	17.286787
3052.000000	17.349539
3051.000000	17.411884
3050.000000	17.472545
3049.000000	17.532159
3048.000000	17.591575
3047.000000	17.650240
3046.000000	17.707611
3045.000000	17.764711
3044.000000	17.822864
3043.000000	17.882194
3042.000000	17.942589
3041.000000	18.004682
3040.000000	18.068423
3039.000000	18.132136
3038.000000	18.194360
3037.000000	18.255443
3036.000000	18.316236
3035.000000	18.376621
3034.000000	18.436558
3033.000000	18.497009
3032.000000	18.558401
3031.000000	18.619673
3030.000000	18.680156
3029.000000	18.740929
3028.000000	18.803072
3027.000000	18.866086
3026.000000	18.929280
3025.000000	18.993115
3024.000000	19.057805
3023.000000	19.122042
3022.000000	19.184518
3021.000000	19.245467
3020.000000	19.305563
3019.000000	19.364694
3018.000000	19.423083
3017.000000	19.482190
3016.000000	19.543147
3015.000000	19.605536
3014.000000	19.668779
3013.000000	19.733301
3012.000000	19.799035
3011.000000	19.864314
3010.000000	19.927616
3009.000000	19.989218
3008.000000	20.050032
3007.000000	20.110274
3006.000000	20.170411
3005.000000	20.231848
3004.000000	20.295294
3003.000000	20.359628
3002.000000	20.423576
3001.000000	20.487189
3000.000000	20.550655
2999.000000	20.613173
2998.000000	20.674324
2997.000000	20.735151
2996.000000	20.796469
2995.000000	20.857482
2994.000000	20.917457
2993.000000	20.977479
2992.000000	21.039081
2991.000000	21.102259
2990.000000	21.166141
2989.000000	21.230546
2988.000000	21.295577
2987.000000	21.360710
2986.000000	21.425446
2985.000000	21.489847
2984.000000	21.553401
2983.000000	21.614648
2982.000000	21.673100
2981.000000	21.730432
2980.000000	21.788701
2979.000000	21.848522
2978.000000	21.909944
2977.000000	21.973679
2976.000000	22.040069
2975.000000	22.107900
2974.000000	22.175468
2973.000000	22.241919
2972.000000	22.306666
2971.000000	22.368858
2970.000000	22.428669
2969.000000	22.488000
2968.000000	22.548625
2967.000000	22.610598
2966.000000	22.673413
2965.000000	22.737439
2964.000000	22.802972
2963.000000	22.869076
2962.000000	22.934609
2961.000000	22.999310
2960.000000	23.062876
2959.000000	23.124329
2958.000000	23.183476
2957.000000	23.241703
2956.000000	23.300071
2955.000000	23.357936
2954.000000	23.414660
2953.000000	23.471382
2952.000000	23.529732
2951.000000	23.589830
2950.000000	23.650777
2949.000000	23.712000
2948.000000	23.773074
2947.000000	23.833315
2946.000000	23.892688
2945.000000	23.952144
2944.000000	24.012185
2943.000000	24.072078
2942.000000	24.131281
2941.000000	24.190460
2940.000000	24.250299
2939.000000	24.310621
2938.000000	24.371520
2937.000000	24.433904
2936.000000	24.497770
2935.000000	24.561176
2934.000000	24.622061
2933.000000	24.680006
2932.000000	24.735410
2931.000000	24.788539
2930.000000	24.840643
2929.000000	24.894566
2928.000000	24.952620
2927.000000	25.014636
2926.000000	25.079043
2925.000000	25.144633
2924.000000	25.210311
2923.000000	25.274520
2922.000000	25.336226
2921.000000	25.395466
2920.000000	25.452016
2919.000000	25.504850
2918.000000	25.553747
2917.000000	25.600018
2916.000000	25.644756
2915.000000	25.687767
2914.000000	25.729228
2913.000000	25.770934
2912.000000	25.814770
2911.000000	25.861036
2910.000000	25.909217
2909.000000	25.959214
2908.000000	26.010698
2907.000000	26.062275
2906.000000	26.112411
2905.000000	26.160560
2904.000000	26.206669
2903.000000	26.250975
2902.000000	26.294851
2901.000000	26.340737
2900.000000	26.390479
2899.000000	26.443892
2898.000000	26.499588
2897.000000	26.555906
2896.000000	26.610734
2895.000000	26.661876
2894.000000	26.708696
2893.000000	26.752629
2892.000000	26.795482
2891.000000	26.838232
2890.000000	26.881829
2889.000000	26.927706
2888.000000	26.976511
2887.000000	27.027368
2886.000000	27.079109
2885.000000	27.131245
2884.000000	27.183134
2883.000000	27.233514
2882.000000	27.281775
2881.000000	27.328689
2880.000000	27.375137
2879.000000	27.421211
2878.000000	27.467389
2877.000000	27.515292
2876.000000	27.565943
2875.000000	27.618026
2874.000000	27.669013
2873.000000	27.717594
2872.000000	27.764337
2871.000000	27.810623
2870.000000	27.857672
2869.000000	27.905871
2868.000000	27.954139
2867.000000	28.000391
2866.000000	28.043403
2865.000000	28.084034
2864.000000	28.124532
2863.000000	28.167136
2862.000000	28.213359
2861.000000	28.263439
2860.000000	28.315921
2859.000000	28.368643
2858.000000	28.420592
2857.000000	28.472126
2856.000000	28.523350
2855.000000	28.573444
2854.000000	28.621990
2853.000000	28.669788
2852.000000	28.717817
2851.000000	28.766184
2850.000000	28.814362
2849.000000	28.861434
2848.000000	28.905958
2847.000000	28.946869
2846.000000	28.984939
2845.000000	29.022341
2844.000000	29.060633
2843.000000	29.100150
2842.000000	29.141182
2841.000000	29.183968
2840.000000	29.227162
2839.000000	29.268183
2838.000000	29.306162
2837.000000	29.343310
2836.000000	29.382580
2835.000000	29.425101
2834.000000	29.470441
2833.000000	29.517991
2832.000000	29.566965
2831.000000	29.616010
2830.000000	29.663980
2829.000000	29.710586
2828.000000	29.755699
2827.000000	29.798863
2826.000000	29.840207
2825.000000	29.881115
2824.000000	29.923317
2823.000000	29.967891
2822.000000	30.015472
2821.000000	30.066360
2820.000000	30.119660
2819.000000	30.173081
2818.000000	30.224346
2817.000000	30.272343
2816.000000	30.316700
2815.000000	30.357349
2814.000000	30.395228
2813.000000	30.432469
2812.000000	30.470980
2811.000000	30.511305
2810.000000	30.553279
2809.000000	30.596969
2808.000000	30.642203
2807.000000	30.687853
2806.000000	30.732270
2805.000000	30.774073
2804.000000	30.812242
2803.000000	30.846326
2802.000000	30.877189
2801.000000	30.906856
2800.000000	30.936945
2799.000000	30.967755
2798.000000	30.999328
2797.000000	31.032516
2796.000000	31.068319
2795.000000	31.106795
2794.000000	31.147242
2793.000000	31.188780
2792.000000	31.230085
2791.000000	31.269165
2790.000000	31.304342
2789.000000	31.335424
2788.000000	31.363650
2787.000000	31.390909
2786.000000	31.419282
2785.000000	31.450592
2784.000000	31.485632
2783.000000	31.523933
2782.000000	31.564436
2781.000000	31.605939
2780.000000	31.646710
2779.000000	31.684475
2778.000000	31.717314
2777.000000	31.744291
2776.000000	31.765268
2775.000000	31.780803
2774.000000	31.792556
2773.000000	31.802968
2772.000000	31.813809
2771.000000	31.825461
2770.000000	31.837660
2769.000000	31.850009
2768.000000	31.861328
2767.000000	31.869264
2766.000000	31.871476
2765.000000	31.866953
2764.000000	31.855973
2763.000000	31.839648
2762.000000	31.819961
2761.000000	31.799617
2760.000000	31.781028
2759.000000	31.765427
2758.000000	31.753180
2757.000000	31.744198
2756.000000	31.737592
2755.000000	31.731535
2754.000000	31.724000
2753.000000	31.713363
2752.000000	31.698151
2751.000000	31.677072
2750.000000	31.649800
2749.000000	31.617194
2748.000000	31.580488
2747.000000	31.540724
2746.000000	31.499138
2745.000000	31.457198
2744.000000	31.415558
2743.000000	31.373716
2742.000000	31.331190
2741.000000	31.288385
2740.000000	31.246059
2739.000000	31.204891
2738.000000	31.166194
2737.000000	31.132657
2736.000000	31.107698
2735.000000	31.094455
2734.000000	31.095770
2733.000000	31.113755
2732.000000	31.148925
2731.000000	31.200182
2730.000000	31.265495
2729.000000	31.342251
2728.000000	31.426435
2727.000000	31.512830
2726.000000	31.597282
2725.000000	31.678189
2724.000000	31.755911
2723.000000	31.831499
2722.000000	31.906306
2721.000000	31.981907
2720.000000	32.059219
2719.000000	32.137739
2718.000000	32.215884
2717.000000	32.291603
2716.000000	32.362412
2715.000000	32.425818
2714.000000	32.480254
2713.000000	32.525540
2712.000000	32.562334
2711.000000	32.591438
2710.000000	32.614177
2709.000000	32.632581
2708.000000	32.648595
2707.000000	32.663453
2706.000000	32.677657
2705.000000	32.691260
2704.000000	32.703674
2703.000000	32.713670
2702.000000	32.720164
2701.000000	32.722576
2700.000000	32.720546
2699.000000	32.713883
2698.000000	32.703149
2697.000000	32.689951
2696.000000	32.676199
2695.000000	32.663573
2694.000000	32.653675
2693.000000	32.647756
2692.000000	32.645708
2691.000000	32.645779
2690.000000	32.645718
2689.000000	32.643755
2688.000000	32.638403
2687.000000	32.628329
2686.000000	32.613295
2685.000000	32.594953
2684.000000	32.576179
2683.000000	32.559720
2682.000000	32.547517
2681.000000	32.540526
2680.000000	32.538465
2679.000000	32.539947
2678.000000	32.543288
2677.000000	32.546970
2676.000000	32.549572
2675.000000	32.550010
2674.000000	32.548340
2673.000000	32.546029
2672.000000	32.545091
2671.000000	32.547303
2670.000000	32.554145
2669.000000	32.566554
2668.000000	32.584335
2667.000000	32.606133
2666.000000	32.630270
2665.000000	32.655201
2664.000000	32.679076
2663.000000	32.699707
2662.000000	32.715369
2661.000000	32.725278
2660.000000	32.729387
2659.000000	32.728453
2658.000000	32.724428
2657.000000	32.720086
2656.000000	32.717806
2655.000000	32.719008
2654.000000	32.724711
2653.000000	32.735665
2652.000000	32.751501
2651.000000	32.770526
2650.000000	32.790895
2649.000000	32.811535
2648.000000	32.832196
2647.000000	32.853486
2646.000000	32.877365
2645.000000	32.906995
2644.000000	32.945081
2643.000000	32.992731
2642.000000	33.049621
2641.000000	33.114274
2640.000000	33.183942
2639.000000	33.254685
2638.000000	33.322613
2637.000000	33.385067
2636.000000	33.440746
2635.000000	33.489469
2634.000000	33.532154
2633.000000	33.570428
2632.000000	33.605693
2631.000000	33.638741
2630.000000	33.669990
2629.000000	33.699808
2628.000000	33.728141
2627.000000	33.754265
2626.000000	33.777436
2625.000000	33.797297
2624.000000	33.813725
2623.000000	33.826486
2622.000000	33.835269
2621.000000	33.839995
2620.000000	33.840780
2619.000000	33.838116
2618.000000	33.833129
2617.000000	33.827242
2616.000000	33.821515
2615.000000	33.816163
2614.000000	33.810610
2613.000000	33.803428
2612.000000	33.792228
2611.000000	33.774599
2610.000000	33.749505
2609.000000	33.717896
2608.000000	33.682274
2607.000000	33.646150
2606.000000	33.613776
2605.000000	33.589305
2604.000000	33.575436
2603.000000	33.572876
2602.000000	33.581140
2601.000000	33.598864
2600.000000	33.623767
2599.000000	33.653221
2598.000000	33.685275
2597.000000	33.719439
2596.000000	33.756017
2595.000000	33.795588
2594.000000	33.838977
2593.000000	33.886658
2592.000000	33.938193
2591.000000	33.992423
2590.000000	34.048455
2589.000000	34.105980
2588.000000	34.164542
2587.000000	34.223395
2586.000000	34.282048
2585.000000	34.340360
2584.000000	34.397949
2583.000000	34.454100
2582.000000	34.508552
2581.000000	34.561954
2580.000000	34.615465
2579.000000	34.670377
2578.000000	34.728111
2577.000000	34.789822
2576.000000	34.855517
2575.000000	34.923771
2574.000000	34.992362
2573.000000	35.058869
2572.000000	35.120808
2571.000000	35.176124
2570.000000	35.224195
2569.000000	35.266119
2568.000000	35.304114
2567.000000	35.340516
2566.000000	35.377077
2565.000000	35.414386
2564.000000	35.451119
2563.000000	35.484429
2562.000000	35.511042
2561.000000	35.528119
2560.000000	35.533654
2559.000000	35.526566
2558.000000	35.507626
2557.000000	35.479673
2556.000000	35.446707
2555.000000	35.412984
2554.000000	35.382649
2553.000000	35.359820
2552.000000	35.348177
2551.000000	35.350326
2550.000000	35.367307
2549.000000	35.398811
2548.000000	35.443210
2547.000000	35.497992
2546.000000	35.560577
2545.000000	35.628162
2544.000000	35.697829
2543.000000	35.766860
2542.000000	35.833479
2541.000000	35.897341
2540.000000	35.959093
2539.000000	36.019858
2538.000000	36.080784
2537.000000	36.142414
2536.000000	36.203993
2535.000000	36.263588
2534.000000	36.318867
2533.000000	36.368009
2532.000000	36.410246
2531.000000	36.445993
2530.000000	36.476962
2529.000000	36.505756
2528.000000	36.535117
2527.000000	36.567314
2526.000000	36.603645
2525.000000	36.644006
2524.000000	36.686563
2523.000000	36.728233
2522.000000	36.766051
2521.000000	36.798361
2520.000000	36.825196
2519.000000	36.847897
2518.000000	36.868526
2517.000000	36.889297
2516.000000	36.911865
2515.000000	36.936860
2514.000000	36.963865
2513.000000	36.991767
2512.000000	37.019296
2511.000000	37.045507
2510.000000	37.070055
2509.000000	37.093096
2508.000000	37.114918
2507.000000	37.135690
2506.000000	37.155387
2505.000000	37.173808
2504.000000	37.190654
2503.000000	37.205774
2502.000000	37.219564
2501.000000	37.233036
2500.000000	37.247490
2499.000000	37.264036
2498.000000	37.283194
2497.000000	37.304536
2496.000000	37.326523
2495.000000	37.346927
2494.000000	37.363782
2493.000000	37.376157
2492.000000	37.384322
2491.000000	37.389478
2490.000000	37.393560
2489.000000	37.398987
2488.000000	37.407947
2487.000000	37.421432
2486.000000	37.438687
2485.000000	37.457489
2484.000000	37.475142
2483.000000	37.489530
2482.000000	37.499743
2481.000000	37.506057
2480.000000	37.509521
2479.000000	37.511623
2478.000000	37.514116
2477.000000	37.518711
2476.000000	37.526425
2475.000000	37.537047
2474.000000	37.549319
2473.000000	37.561697
2472.000000	37.573022
2471.000000	37.582739
2470.000000	37.590815
2469.000000	37.597563
2468.000000	37.603408
2467.000000	37.608641
2466.000000	37.613390
2465.000000	37.617782
2464.000000	37.622093
2463.000000	37.626697
2462.000000	37.631993
2461.000000	37.638464
2460.000000	37.646671
2459.000000	37.656901
2458.000000	37.668708
2457.000000	37.680786
2456.000000	37.691490
2455.000000	37.699604
2454.000000	37.704750
2453.000000	37.707283
2452.000000	37.708103
2451.000000	37.708658
2450.000000	37.710851
2449.000000	37.716428
2448.000000	37.726132
2447.000000	37.739321
2446.000000	37.754324
2445.000000	37.769070
2444.000000	37.781556
2443.000000	37.790343
2442.000000	37.795138
2441.000000	37.797010
2440.000000	37.797842
2439.000000	37.799458
2438.000000	37.803177
2437.000000	37.809822
2436.000000	37.819652
2435.000000	37.832126
2434.000000	37.845937
2433.000000	37.859549
2432.000000	37.871808
2431.000000	37.882130
2430.000000	37.890360
2429.000000	37.896651
2428.000000	37.901460
2427.000000	37.905536
2426.000000	37.909855
2425.000000	37.915396
2424.000000	37.922848
2423.000000	37.932394
2422.000000	37.943826
2421.000000	37.956767
2420.000000	37.970760
2419.000000	37.985118
2418.000000	37.998849
2417.000000	38.010851
2416.000000	38.020311
2415.000000	38.027111
2414.000000	38.032011
2413.000000	38.036427
2412.000000	38.041878
2411.000000	38.049572
2410.000000	38.060366
2409.000000	38.074757
2408.000000	38.092454
2407.000000	38.112037
2406.000000	38.131321
2405.000000	38.148296
2404.000000	38.161776
2403.000000	38.171468
2402.000000	38.177946
2401.000000	38.182781
2400.000000	38.188365
2399.000000	38.197094
2398.000000	38.210412
2397.000000	38.228377
2396.000000	38.249849
2395.000000	38.273047
2394.000000	38.296220
2393.000000	38.318024
2392.000000	38.337515
2391.000000	38.354210
2390.000000	38.368616
2389.000000	38.382405
2388.000000	38.397889
2387.000000	38.416809
2386.000000	38.440026
2385.000000	38.468301
2384.000000	38.502140
2383.000000	38.541560
2382.000000	38.585436
2381.000000	38.631875
2380.000000	38.679104
2379.000000	38.725088
2378.000000	38.768101
2377.000000	38.807253
2376.000000	38.842491
2375.000000	38.874116
2374.000000	38.903251
2373.000000	38.932208
2372.000000	38.963821
2371.000000	38.999524
2370.000000	39.038507
2369.000000	39.079845
2368.000000	39.122918
2367.000000	39.165554
2366.000000	39.204311
2365.000000	39.237989
2364.000000	39.269708
2363.000000	39.299143
2362.000000	39.325787
2361.000000	39.353888
2360.000000	39.385940
2359.000000	39.424682
2358.000000	39.468282
2357.000000	39.513046
2356.000000	39.558306
2355.000000	39.598159
2354.000000	39.632826
2353.000000	39.664453
2352.000000	39.702136
2351.000000	39.746720
2350.000000	39.784664
2349.000000	39.810592
2348.000000	39.832598
2347.000000	39.871983
2346.000000	39.934312
2345.000000	39.999799
2344.000000	40.050946
2343.000000	40.080291
2342.000000	40.103677
2341.000000	40.129083
2340.000000	40.157198
2339.000000	40.185846
2338.000000	40.213903
2337.000000	40.243477
2336.000000	40.273841
2335.000000	40.307772
2334.000000	40.345209
2333.000000	40.388274
2332.000000	40.433001
2331.000000	40.482453
2330.000000	40.529461
2329.000000	40.579252
2328.000000	40.623586
2327.000000	40.666073
2326.000000	40.703537
2325.000000	40.737723
2324.000000	40.770166
2323.000000	40.800151
2322.000000	40.830110
2321.000000	40.860359
2320.000000	40.894028
2319.000000	40.934520
2318.000000	40.980403
2317.000000	41.030594
2316.000000	41.077681
2315.000000	41.122113
2314.000000	41.158588
2313.000000	41.190314
2312.000000	41.214799
2311.000000	41.239567
2310.000000	41.265167
2309.000000	41.296822
2308.000000	41.332122
2307.000000	41.373255
2306.000000	41.416431
2305.000000	41.460358
2304.000000	41.500731
2303.000000	41.538588
2302.000000	41.572716
2301.000000	41.604807
2300.000000	41.633376
2299.000000	41.661323
2298.000000	41.688264
2297.000000	41.716135
2296.000000	41.743905
2295.000000	41.773858
2294.000000	41.805935
2293.000000	41.840653
2292.000000	41.877008
2291.000000	41.914953
2290.000000	41.953041
2289.000000	41.988602
2288.000000	42.019400
2287.000000	42.044766
2286.000000	42.065567
2285.000000	42.082831
2284.000000	42.099524
2283.000000	42.119692
2282.000000	42.147056
2281.000000	42.182241
2280.000000	42.223854
2279.000000	42.269121
2278.000000	42.314222
2277.000000	42.354549
2276.000000	42.386768
2275.000000	42.410640
2274.000000	42.427860
2273.000000	42.441395
2272.000000	42.455112
2271.000000	42.473525
2270.000000	42.499275
2269.000000	42.531919
2268.000000	42.568963
2267.000000	42.607460
2266.000000	42.643968
2265.000000	42.675240
2264.000000	42.699720
2263.000000	42.718427
2262.000000	42.733256
2261.000000	42.745566
2260.000000	42.756878
2259.000000	42.768609
2258.000000	42.781233
2257.000000	42.793761
2256.000000	42.805773
2255.000000	42.817956
2254.000000	42.830356
2253.000000	42.841455
2252.000000	42.849134
2251.000000	42.852050
2250.000000	42.848290
2249.000000	42.835930
2248.000000	42.813767
2247.000000	42.782961
2246.000000	42.745463
2245.000000	42.703058
2244.000000	42.658180
2243.000000	42.614031
2242.000000	42.572373
2241.000000	42.532125
2240.000000	42.490588
2239.000000	42.445280
2238.000000	42.394295
2237.000000	42.336817
2236.000000	42.274817
2235.000000	42.213244
2234.000000	42.157769
2233.000000	42.112611
2232.000000	42.080706
2231.000000	42.063763
2230.000000	42.060807
2229.000000	42.067439
2228.000000	42.077816
2227.000000	42.087223
2226.000000	42.092401
2225.000000	42.091346
2224.000000	42.084096
2223.000000	42.073054
2222.000000	42.061216
2221.000000	42.050459
2220.000000	42.041893
2219.000000	42.036620
2218.000000	42.035032
2217.000000	42.036245
2216.000000	42.039192
2215.000000	42.043583
2214.000000	42.049069
2213.000000	42.054352
2212.000000	42.057942
2211.000000	42.059006
2210.000000	42.056911
2209.000000	42.051010
2208.000000	42.041890
2207.000000	42.032036
2206.000000	42.024488
2205.000000	42.021401
2204.000000	42.024166
2203.000000	42.033388
2202.000000	42.047675
2201.000000	42.063241
2200.000000	42.075772
2199.000000	42.082180
2198.000000	42.080614
2197.000000	42.070549
2196.000000	42.054091
2195.000000	42.035983
2194.000000	42.020926
2193.000000	42.011247
2192.000000	42.007286
2191.000000	42.008479
2190.000000	42.012837
2189.000000	42.016559
2188.000000	42.015741
2187.000000	42.008451
2186.000000	41.994840
2185.000000	41.976459
2184.000000	41.956257
2183.000000	41.938077
2182.000000	41.924857
2181.000000	41.917698
2180.000000	41.916900
2179.000000	41.922810
2178.000000	41.934932
2177.000000	41.951423
2176.000000	41.970558
2175.000000	41.991747
2174.000000	42.014406
2173.000000	42.036916
2172.000000	42.057854
2171.000000	42.077217
2170.000000	42.095634
2169.000000	42.113487
2168.000000	42.131897
2167.000000	42.153480
2166.000000	42.180870
2165.000000	42.214913
2164.000000	42.254771
2163.000000	42.298451
2162.000000	42.342405
2161.000000	42.382032
2160.000000	42.414205
2159.000000	42.438884
2158.000000	42.457838
2157.000000	42.473226
2156.000000	42.488221
2155.000000	42.507224
2154.000000	42.533643
2153.000000	42.567848
2152.000000	42.607801
2151.000000	42.650457
2150.000000	42.691914
2149.000000	42.727895
2148.000000	42.755934
2147.000000	42.776598
2146.000000	42.792013
2145.000000	42.804592
2144.000000	42.817783
2143.000000	42.835839
2142.000000	42.861222
2141.000000	42.893219
2140.000000	42.930059
2139.000000	42.970799
2138.000000	43.014124
2137.000000	43.057096
2136.000000	43.096872
2135.000000	43.132658
2134.000000	43.164905
2133.000000	43.193915
2132.000000	43.220441
2131.000000	43.246266
2130.000000	43.272827
2129.000000	43.300373
2128.000000	43.329398
2127.000000	43.361452
2126.000000	43.397279
2125.000000	43.435389
2124.000000	43.473574
2123.000000	43.510314
2122.000000	43.543794
2121.000000	43.571516
2120.000000	43.592596
2119.000000	43.609311
2118.000000	43.625364
2117.000000	43.643891
2116.000000	43.667734
2115.000000	43.699404
2114.000000	43.738990
2113.000000	43.783282
2112.000000	43.828198
2111.000000	43.870849
2110.000000	43.908662
2109.000000	43.938910
2108.000000	43.960804
2107.000000	43.976529
2106.000000	43.989099
2105.000000	44.000607
2104.000000	44.013240
2103.000000	44.029674
2102.000000	44.050447
2101.000000	44.072686
2100.000000	44.092552
2099.000000	44.107722
2098.000000	44.116733
2097.000000	44.117564
2096.000000	44.109106
2095.000000	44.092971
2094.000000	44.072519
2093.000000	44.051243
2092.000000	44.032636
2091.000000	44.019621
2090.000000	44.012801
2089.000000	44.010538
2088.000000	44.011700
2087.000000	44.017006
2086.000000	44.026756
2085.000000	44.039274
2084.000000	44.052838
2083.000000	44.067501
2082.000000	44.083651
2081.000000	44.100794
2080.000000	44.118979
2079.000000	44.140035
2078.000000	44.165970
2077.000000	44.197142
2076.000000	44.233701
2075.000000	44.276346
2074.000000	44.324477
2073.000000	44.375206
2072.000000	44.424680
2071.000000	44.469627
2070.000000	44.507908
2069.000000	44.540521
2068.000000	44.573603
2067.000000	44.614993
2066.000000	44.667278
2065.000000	44.726781
2064.000000	44.789839
2063.000000	44.856709
2062.000000	44.928230
2061.000000	45.002215
2060.000000	45.075442
2059.000000	45.146584
2058.000000	45.215035
2057.000000	45.279372
2056.000000	45.339573
2055.000000	45.398173
2054.000000	45.457283
2053.000000	45.517032
2052.000000	45.577832
2051.000000	45.641302
2050.000000	45.707866
2049.000000	45.775462
2048.000000	45.841337
2047.000000	45.903729
2046.000000	45.961682
2045.000000	46.015906
2044.000000	46.070305
2043.000000	46.129379
2042.000000	46.193127
2041.000000	46.257410
2040.000000	46.320136
2039.000000	46.383972
2038.000000	46.452031
2037.000000	46.524225
2036.000000	46.599359
2035.000000	46.677424
2034.000000	46.757465
2033.000000	46.836058
2032.000000	46.910717
2031.000000	46.981944
2030.000000	47.050919
2029.000000	47.117510
2028.000000	47.182565
2027.000000	47.249252
2026.000000	47.319801
2025.000000	47.393648
2024.000000	47.468218
2023.000000	47.540226
2022.000000	47.606766
2021.000000	47.668769
2020.000000	47.733729
2019.000000	47.809916
2018.000000	47.896399
2017.000000	47.983481
2016.000000	48.063776
2015.000000	48.138339
2014.000000	48.212033
2013.000000	48.287820
2012.000000	48.367283
2011.000000	48.452259
2010.000000	48.542893
2009.000000	48.636103
2008.000000	48.729043
2007.000000	48.821454
2006.000000	48.912325
2005.000000	48.999250
2004.000000	49.081390
2003.000000	49.161919
2002.000000	49.243947
2001.000000	49.327649
2000.000000	49.413742
1999.000000	49.501687
1998.000000	49.585305
1997.000000	49.657553
1996.000000	49.721862
1995.000000	49.792388
1994.000000	49.878112
1993.000000	49.971346
1992.000000	50.059842
1991.000000	50.141607
1990.000000	50.221178
1989.000000	50.300954
1988.000000	50.381003
1987.000000	50.462034
1986.000000	50.543598
1985.000000	50.623399
1984.000000	50.700531
1983.000000	50.776501
1982.000000	50.850015
1981.000000	50.916577
1980.000000	50.976245
1979.000000	51.033709
1978.000000	51.090960
1977.000000	51.145983
1976.000000	51.199887
1975.000000	51.256545
1974.000000	51.313616
1973.000000	51.361679
1972.000000	51.395860
1971.000000	51.423398
1970.000000	51.458897
1969.000000	51.513789
1968.000000	51.587768
1967.000000	51.669047
1966.000000	51.742363
1965.000000	51.799568
1964.000000	51.846000
1963.000000	51.892800
1962.000000	51.943007
1961.000000	51.991661
1960.000000	52.037212
1959.000000	52.084509
1958.000000	52.137194
1957.000000	52.193957
1956.000000	52.253389
1955.000000	52.314091
1954.000000	52.370789
1953.000000	52.416949
1952.000000	52.450739
1951.000000	52.476862
1950.000000	52.499516
1949.000000	52.518818
1948.000000	52.535875
1947.000000	52.555170
1946.000000	52.583167
1945.000000	52.629515
1944.000000	52.699550
1943.000000	52.782327
1942.000000	52.857410
1941.000000	52.911412
1940.000000	52.947270
1939.000000	52.977993
1938.000000	53.010539
1937.000000	53.043361
1936.000000	53.077734
1935.000000	53.118756
1934.000000	53.166634
1933.000000	53.215404
1932.000000	53.260036
1931.000000	53.303708
1930.000000	53.346276
1929.000000	53.376454
1928.000000	53.383333
1927.000000	53.370389
1926.000000	53.359877
1925.000000	53.375951
1924.000000	53.424152
1923.000000	53.492755
1922.000000	53.565744
1921.000000	53.630423
1920.000000	53.685141
1919.000000	53.733136
1918.000000	53.775941
1917.000000	53.812017
1916.000000	53.837406
1915.000000	53.850367
1914.000000	53.851410
1913.000000	53.845212
1912.000000	53.845498
1911.000000	53.870180
1910.000000	53.921720
1909.000000	53.985171
1908.000000	54.046644
1907.000000	54.103804
1906.000000	54.161294
1905.000000	54.216441
1904.000000	54.263480
1903.000000	54.304062
1902.000000	54.338494
1901.000000	54.358571
1900.000000	54.359541
1899.000000	54.351469
1898.000000	54.355366
1897.000000	54.382917
1896.000000	54.425922
1895.000000	54.467808
1894.000000	54.496497
1893.000000	54.510639
1892.000000	54.527284
1891.000000	54.564023
1890.000000	54.611496
1889.000000	54.647485
1888.000000	54.665223
1887.000000	54.677033
1886.000000	54.695541
1885.000000	54.718009
1884.000000	54.736276
1883.000000	54.752867
1882.000000	54.774212
1881.000000	54.800054
1880.000000	54.828934
1879.000000	54.862847
1878.000000	54.901457
1877.000000	54.935710
1876.000000	54.954108
1875.000000	54.955315
1874.000000	54.942870
1873.000000	54.911119
1872.000000	54.858498
1871.000000	54.815971
1870.000000	54.822921
1869.000000	54.880382
1868.000000	54.962598
1867.000000	55.046040
1866.000000	55.113945
1865.000000	55.156133
1864.000000	55.174356
1863.000000	55.180844
1862.000000	55.185669
1861.000000	55.190538
1860.000000	55.196207
1859.000000	55.207851
1858.000000	55.226957
1857.000000	55.247492
1856.000000	55.264946
1855.000000	55.282074
1854.000000	55.296276
1853.000000	55.292991
1852.000000	55.265158
1851.000000	55.223462
1850.000000	55.192961
1849.000000	55.197301
1848.000000	55.244063
1847.000000	55.317283
1846.000000	55.377571
1845.000000	55.386094
1844.000000	55.353122
1843.000000	55.321009
1842.000000	55.300281
1841.000000	55.279693
1840.000000	55.262015
1839.000000	55.262757
1838.000000	55.281235
1837.000000	55.290831
1836.000000	55.272837
1835.000000	55.233864
1834.000000	55.177969
1833.000000	55.104949
1832.000000	55.046479
1831.000000	55.029636
1830.000000	55.038762
1829.000000	55.050730
1828.000000	55.056672
1827.000000	55.062467
1826.000000	55.068272
1825.000000	55.064211
1824.000000	55.049823
1823.000000	55.028394
1822.000000	54.996631
1821.000000	54.953983
1820.000000	54.910156
1819.000000	54.875602
1818.000000	54.848228
1817.000000	54.811273
1816.000000	54.752865
1815.000000	54.677918
1814.000000	54.602946
1813.000000	54.548543
1812.000000	54.519673
1811.000000	54.505477
1810.000000	54.496202
1809.000000	54.484323
1808.000000	54.463286
1807.000000	54.429857
1806.000000	54.383618
1805.000000	54.326022
1804.000000	54.271121
1803.000000	54.243602
1802.000000	54.247294
1801.000000	54.257045
1800.000000	54.244536
1799.000000	54.211377
1798.000000	54.183949
1797.000000	54.180780
1796.000000	54.194857
1795.000000	54.206253
1794.000000	54.207973
1793.000000	54.203969
1792.000000	54.197717
1791.000000	54.200979
1790.000000	54.215199
1789.000000	54.227063
1788.000000	54.223474
1787.000000	54.196166
1786.000000	54.135628
1785.000000	54.034573
1784.000000	53.910942
1783.000000	53.806297
1782.000000	53.742089
1781.000000	53.703419
1780.000000	53.662812
1779.000000	53.610391
1778.000000	53.548753
1777.000000	53.488116
1776.000000	53.441391
1775.000000	53.411776
1774.000000	53.390066
1773.000000	53.350631
1772.000000	53.290838
1771.000000	53.238640
1770.000000	53.195909
1769.000000	53.138353
1768.000000	53.061140
1767.000000	52.991697
1766.000000	52.943721
1765.000000	52.905341
1764.000000	52.867592
1763.000000	52.821757
1762.000000	52.755951
1761.000000	52.681997
1760.000000	52.620673
1759.000000	52.583234
1758.000000	52.541645
1757.000000	52.460920
1756.000000	52.360986
1755.000000	52.270861
1754.000000	52.171271
1753.000000	52.026518
1752.000000	51.852660
1751.000000	51.714295
1750.000000	51.641716
1749.000000	51.592058
1748.000000	51.524478
1747.000000	51.439655
1746.000000	51.351969
1745.000000	51.279649
1744.000000	51.240859
1743.000000	51.233074
1742.000000	51.215605
1741.000000	51.140769
1740.000000	51.018777
1739.000000	50.922009
1738.000000	50.882549
1737.000000	50.844964
1736.000000	50.732417
1735.000000	50.501122
1734.000000	50.198958
1733.000000	49.936999
1732.000000	49.753530
1731.000000	49.640624
1730.000000	49.552604
1729.000000	49.434342
1728.000000	49.275382
1727.000000	49.095345
1726.000000	48.907211
1725.000000	48.712040
1724.000000	48.515484
1723.000000	48.335086
1722.000000	48.159734
1721.000000	47.938749
1720.000000	47.668070
1719.000000	47.405371
1718.000000	47.170074
1717.000000	46.951720
1716.000000	46.738312
1715.000000	46.522127
1714.000000	46.310454
1713.000000	46.103906
1712.000000	45.894438
1711.000000	45.678891
1710.000000	45.449649
1709.000000	45.195576
1708.000000	44.917133
1707.000000	44.645399
1706.000000	44.354559
1705.000000	44.092717
1704.000000	43.836208
1703.000000	43.545828
1702.000000	43.209406
1701.000000	42.905408
1700.000000	42.634912
1699.000000	42.656283
1698.000000	42.568296
1697.000000	42.429103
1696.000000	42.174085
1695.000000	41.807146
1694.000000	41.471668
1693.000000	41.164793
1692.000000	40.875009
1691.000000	40.590603
1690.000000	40.319876
1689.000000	40.081755
1688.000000	39.896170
1687.000000	39.740205
1686.000000	39.592753
1685.000000	39.366736
1684.000000	38.999226
1683.000000	38.641813
1682.000000	38.379789
1681.000000	38.187087
1680.000000	38.039261
1679.000000	37.930648
1678.000000	37.828622
1677.000000	37.652663
1676.000000	37.356748
1675.000000	37.008206
1674.000000	36.705334
1673.000000	36.470007
1672.000000	36.283104
1671.000000	36.116051
1670.000000	35.911715
1669.000000	35.649085
1668.000000	35.384573
1667.000000	35.172197
1666.000000	35.003007
1665.000000	34.834161
1664.000000	34.639315
1663.000000	34.419655
1662.000000	34.189084
1661.000000	33.952674
1660.000000	33.717153
1659.000000	33.501710
1658.000000	33.329723
1657.000000	33.207150
1656.000000	33.126652
1655.000000	33.101191
1654.000000	32.943592
1653.000000	32.527201
1652.000000	32.099055
1651.000000	31.772797
1650.000000	31.536521
1649.000000	31.396244
1648.000000	31.314488
1647.000000	31.183838
1646.000000	30.983098
1645.000000	30.765798
1644.000000	30.559916
1643.000000	30.375239
1642.000000	30.196505
1641.000000	30.005535
1640.000000	29.816960
1639.000000	29.668878
1638.000000	29.592359
1637.000000	29.536303
1636.000000	29.380597
1635.000000	29.141739
1634.000000	28.917382
1633.000000	28.731095
1632.000000	28.568401
1631.000000	28.415340
1630.000000	28.264046
1629.000000	28.107620
1628.000000	27.949033
1627.000000	27.807117
1626.000000	27.685968
1625.000000	27.569272
1624.000000	27.437995
1623.000000	27.294118
1622.000000	27.161517
1621.000000	27.053025
1620.000000	26.972797
1619.000000	26.925052
1618.000000	26.889701
1617.000000	26.816487
1616.000000	26.703062
1615.000000	26.596837
1614.000000	26.517828
1613.000000	26.449269
1612.000000	26.376722
1611.000000	26.311271
1610.000000	26.266201
1609.000000	26.233750
1608.000000	26.202859
1607.000000	26.177246
1606.000000	26.158236
1605.000000	26.138592
1604.000000	26.119048
1603.000000	26.108275
1602.000000	26.104313
1601.000000	26.091879
1600.000000	26.065073
1599.000000	26.035415
1598.000000	26.013829
1597.000000	26.000912
1596.000000	25.995964
1595.000000	26.001785
1594.000000	26.014324
1593.000000	26.021504
1592.000000	26.019523
1591.000000	26.017774
1590.000000	26.020803
1589.000000	26.020710
1588.000000	26.013407
1587.000000	26.007200
1586.000000	26.007244
1585.000000	26.005009
1584.000000	25.994461
1583.000000	25.977341
1582.000000	25.952160
1581.000000	25.915428
1580.000000	25.877868
1579.000000	25.865446
1578.000000	25.893070
1577.000000	25.917687
1576.000000	25.887081
1575.000000	25.827572
1574.000000	25.779984
1573.000000	25.748217
1572.000000	25.719851
1571.000000	25.693609
1570.000000	25.659972
1569.000000	25.607247
1568.000000	25.552500
1567.000000	25.517144
1566.000000	25.504503
1565.000000	25.509013
1564.000000	25.541919
1563.000000	25.618950
1562.000000	25.679217
1561.000000	25.685323
1560.000000	25.749866
1559.000000	25.776810
1558.000000	25.754053
1557.000000	25.746651
1556.000000	25.768218
1555.000000	25.819435
1554.000000	25.871592
1553.000000	25.915731
1552.000000	25.968679
1551.000000	26.057294
1550.000000	26.176842
1549.000000	26.293364
1548.000000	26.378163
1547.000000	26.433836
1546.000000	26.499566
1545.000000	26.605163
1544.000000	26.732026
1543.000000	26.852413
1542.000000	27.025402
1541.000000	27.289728
1540.000000	27.523584
1539.000000	27.677967
1538.000000	27.793130
1537.000000	27.894368
1536.000000	28.005204
1535.000000	28.157928
1534.000000	28.360580
1533.000000	28.572591
1532.000000	28.758507
1531.000000	28.922430
1530.000000	29.091545
1529.000000	29.287099
1528.000000	29.514545
1527.000000	29.766330
1526.000000	30.026339
1525.000000	30.276069
1524.000000	30.523324
1523.000000	30.820852
1522.000000	31.174723
1521.000000	31.511373
1520.000000	31.775229
1519.000000	32.008691
1518.000000	32.314955
1517.000000	32.711662
1516.000000	33.124698
1515.000000	33.495445
1514.000000	33.810280
1513.000000	34.079018
1512.000000	34.310973
1511.000000	34.514840
1510.000000	34.718863
1509.000000	35.066531
1508.000000	35.710885
1507.000000	36.421624
1506.000000	36.974284
1505.000000	37.356528
1504.000000	37.629427
1503.000000	37.904276
1502.000000	38.234489
1501.000000	38.601994
1500.000000	38.975962
1499.000000	39.366082
1498.000000	39.799905
1497.000000	40.255893
1496.000000	40.677956
1495.000000	41.039594
1494.000000	41.341625
1493.000000	41.582462
1492.000000	41.797874
1491.000000	42.090467
1490.000000	42.507440
1489.000000	42.979610
1488.000000	43.418302
1487.000000	43.801446
1486.000000	44.144002
1485.000000	44.438908
1484.000000	44.688736
1483.000000	44.930578
1482.000000	45.192198
1481.000000	45.449999
1480.000000	45.662638
1479.000000	45.821359
1478.000000	45.945731
1477.000000	46.051838
1476.000000	46.142480
1475.000000	46.237548
1474.000000	46.349726
1473.000000	46.399513
1472.000000	46.308999
1471.000000	46.120701
1470.000000	45.890828
1469.000000	45.616563
1468.000000	45.271923
1467.000000	44.832844
1466.000000	44.250699
1465.000000	43.471318
1464.000000	42.566885
1463.000000	41.700199
1462.000000	40.941310
1461.000000	40.261334
1460.000000	39.644580
1459.000000	39.117460
1458.000000	38.567666
1457.000000	37.800236
1456.000000	36.934615
1455.000000	36.175781
1454.000000	35.489506
1453.000000	34.748489
1452.000000	33.905656
1451.000000	33.002411
1450.000000	32.047926
1449.000000	30.992689
1448.000000	29.838487
1447.000000	28.674284
1446.000000	27.550141
1445.000000	26.434721
1444.000000	25.303723
1443.000000	24.166736
1442.000000	23.030803
1441.000000	21.916119
1440.000000	20.871014
1439.000000	19.882877
1438.000000	18.816954
1437.000000	17.567219
1436.000000	16.301329
1435.000000	15.282716
1434.000000	14.514425
1433.000000	13.852120
1432.000000	13.246718
1431.000000	12.733101
1430.000000	12.310873
1429.000000	11.952613
1428.000000	11.691325
1427.000000	11.569050
1426.000000	11.558110
1425.000000	11.620109
1424.000000	11.775222
1423.000000	12.037566
1422.000000	12.350023
1421.000000	12.666383
1420.000000	13.042013
1419.000000	13.527076
1418.000000	14.042530
1417.000000	14.509524
1416.000000	14.966729
1415.000000	15.466178
1414.000000	15.991759
1413.000000	16.520813
1412.000000	17.082145
1411.000000	17.701947
1410.000000	18.346685
1409.000000	18.978530
1408.000000	19.617263
1407.000000	20.304323
1406.000000	21.044944
1405.000000	21.818584
1404.000000	22.611171
1403.000000	23.399649
1402.000000	24.157339
1401.000000	24.907807
1400.000000	25.717902
1399.000000	26.598846
1398.000000	27.488237
1397.000000	28.368860
1396.000000	29.304755
1395.000000	30.322862
1394.000000	31.352039
1393.000000	32.325152
1392.000000	33.253315
1391.000000	34.169505
1390.000000	35.084591
1389.000000	36.019349
1388.000000	37.001134
1387.000000	37.998482
1386.000000	38.933881
1385.000000	39.778055
1384.000000	40.559674
1383.000000	41.291040
1382.000000	41.944809
1381.000000	42.489313
1380.000000	42.901287
1379.000000	43.143502
1378.000000	43.173497
1377.000000	42.978168
1376.000000	42.566680
1375.000000	41.926732
1374.000000	41.035873
1373.000000	39.940812
1372.000000	38.749492
1371.000000	37.561216
1370.000000	36.465076
1369.000000	35.571522
1368.000000	34.997668
1367.000000	34.808137
1366.000000	35.001593
1365.000000	35.567697
1364.000000	36.513844
1363.000000	37.794613
1362.000000	39.256833
1361.000000	40.718929
1360.000000	42.067911
1359.000000	43.253968
1358.000000	44.244442
1357.000000	45.008687
1356.000000	45.515564
1355.000000	45.728005
1354.000000	45.611665
1353.000000	45.150797
1352.000000	44.349614
1351.000000	43.220964
1350.000000	41.783789
1349.000000	40.076755
1348.000000	38.157849
1347.000000	36.092443
1346.000000	33.942236
1345.000000	31.765553
1344.000000	29.625601
1343.000000	27.581185
1342.000000	25.671058
1341.000000	23.920261
1340.000000	22.362461
1339.000000	21.045441
1338.000000	20.003419
1337.000000	19.224978
1336.000000	18.661994
1335.000000	18.251064
1334.000000	17.912337
1333.000000	17.556968
1332.000000	17.110997
1331.000000	16.532346
1330.000000	15.811936
1329.000000	14.969856
1328.000000	14.052939
1327.000000	13.121751
1326.000000	12.226211
1325.000000	11.396536
1324.000000	10.657441
1323.000000	10.034018
1322.000000	9.536341
1321.000000	9.155362
1320.000000	8.880003
1319.000000	8.698066
1318.000000	8.582135
1317.000000	8.495548
1316.000000	8.416439
1315.000000	8.342684
1314.000000	8.271010
1313.000000	8.192416
1312.000000	8.108727
1311.000000	8.032871
1310.000000	7.971570
1309.000000	7.924070
1308.000000	7.898303
1307.000000	7.909884
1306.000000	7.963175
1305.000000	8.050943
1304.000000	8.171108
1303.000000	8.326538
1302.000000	8.509673
1301.000000	8.704332
1300.000000	8.904382
1299.000000	9.113586
1298.000000	9.329395
1297.000000	9.543730
1296.000000	9.757356
1295.000000	9.977842
1294.000000	10.203903
1293.000000	10.426986
1292.000000	10.646140
1291.000000	10.866481
1290.000000	11.084423
1289.000000	11.288845
1288.000000	11.473806
1287.000000	11.635459
1286.000000	11.760472
1285.000000	11.832575
1284.000000	11.851719
1283.000000	11.836029
1282.000000	11.807346
1281.000000	11.786759
1280.000000	11.799010
1279.000000	11.863740
1278.000000	11.980615
1277.000000	12.135074
1276.000000	12.316718
1275.000000	12.521417
1274.000000	12.740459
1273.000000	12.962483
1272.000000	13.185376
1271.000000	13.412662
1270.000000	13.641010
1269.000000	13.863543
1268.000000	14.081894
1267.000000	14.302647
1266.000000	14.524434
1265.000000	14.740746
1264.000000	14.952490
1263.000000	15.165853
1262.000000	15.380215
1261.000000	15.589947
1260.000000	15.795387
1259.000000	16.000492
1258.000000	16.203259
1257.000000	16.399640
1256.000000	16.593308
1255.000000	16.790799
1254.000000	16.990837
1253.000000	17.188139
1252.000000	17.383583
1251.000000	17.581045
1250.000000	17.778238
1249.000000	17.970109
1248.000000	18.158025
1247.000000	18.346625
1246.000000	18.535056
1245.000000	18.719920
1244.000000	18.903020
1243.000000	19.087876
1242.000000	19.272154
1241.000000	19.451840
1240.000000	19.629063
1239.000000	19.807842
1238.000000	19.986155
1237.000000	20.159893
1236.000000	20.330660
1235.000000	20.502074
1234.000000	20.672131
1233.000000	20.837037
1232.000000	20.998796
1231.000000	21.161571
1230.000000	21.324344
1229.000000	21.484273
1228.000000	21.643782
1227.000000	21.807229
1226.000000	21.973935
1225.000000	22.140942
1224.000000	22.309007
1223.000000	22.479585
1222.000000	22.649613
1221.000000	22.815472
1220.000000	22.978796
1219.000000	23.142651
1218.000000	23.305647
1217.000000	23.465461
1216.000000	23.624392
1215.000000	23.786051
1214.000000	23.949874
1213.000000	24.113972
1212.000000	24.279542
1211.000000	24.447406
1210.000000	24.614254
1209.000000	24.777124
1208.000000	24.937891
1207.000000	25.098991
1206.000000	25.258902
1205.000000	25.416239
1204.000000	25.573853
1203.000000	25.734498
1202.000000	25.896566
1201.000000	26.057828
1200.000000	26.219318
1199.000000	26.381304
1198.000000	26.539448
1197.000000	26.689208
1196.000000	26.829192
1195.000000	26.957373
1194.000000	27.067360
1193.000000	27.151696
1192.000000	27.206095
1191.000000	27.226761
1190.000000	27.210435
1189.000000	27.160970
1188.000000	27.092948
1187.000000	27.026569
1186.000000	26.980585
1185.000000	26.970931
1184.000000	27.009534
1183.000000	27.098617
1182.000000	27.227745
1181.000000	27.382344
1180.000000	27.552228
1179.000000	27.730605
1178.000000	27.911733
1177.000000	28.092822
1176.000000	28.275452
1175.000000	28.460620
1174.000000	28.645389
1173.000000	28.826838
1172.000000	29.005060
1171.000000	29.179857
1170.000000	29.348458
1169.000000	29.509271
1168.000000	29.664214
1167.000000	29.815828
1166.000000	29.965395
1165.000000	30.115383
1164.000000	30.269663
1163.000000	30.429107
1162.000000	30.590798
1161.000000	30.752631
1160.000000	30.914889
1159.000000	31.076702
1158.000000	31.235146
1157.000000	31.389200
1156.000000	31.540515
1155.000000	31.689432
1154.000000	31.834303
1153.000000	31.974917
1152.000000	32.113016
1151.000000	32.249098
1150.000000	32.382610
1149.000000	32.515546
1148.000000	32.651447
1147.000000	32.790901
1146.000000	32.931662
1145.000000	33.072360
1144.000000	33.212086
1143.000000	33.346941
1142.000000	33.472051
1141.000000	33.587058
1140.000000	33.695752
1139.000000	33.801576
1138.000000	33.907230
1137.000000	34.017285
1136.000000	34.136179
1135.000000	34.263584
1134.000000	34.395551
1133.000000	34.528902
1132.000000	34.660750
1131.000000	34.785877
1130.000000	34.899844
1129.000000	35.004272
1128.000000	35.104999
1127.000000	35.206344
1126.000000	35.310746
1125.000000	35.421289
1124.000000	35.539688
1123.000000	35.663213
1122.000000	35.787862
1121.000000	35.913065
1120.000000	36.039400
1119.000000	36.164503
1118.000000	36.285768
1117.000000	36.404636
1116.000000	36.523501
1115.000000	36.640676
1114.000000	36.753203
1113.000000	36.862259
1112.000000	36.971190
1111.000000	37.081530
1110.000000	37.194994
1109.000000	37.316289
1108.000000	37.449076
1107.000000	37.590568
1106.000000	37.734255
1105.000000	37.874542
1104.000000	38.005608
1103.000000	38.120065
1102.000000	38.215152
1101.000000	38.296291
1100.000000	38.372250
1099.000000	38.449758
1098.000000	38.535208
1097.000000	38.637008
1096.000000	38.758831
1095.000000	38.894658
1094.000000	39.034478
1093.000000	39.171512
1092.000000	39.300818
1091.000000	39.417347
1090.000000	39.521564
1089.000000	39.622391
1088.000000	39.729112
1087.000000	39.844283
1086.000000	39.967642
1085.000000	40.100938
1084.000000	40.243739
1083.000000	40.389863
1082.000000	40.533361
1081.000000	40.673594
1080.000000	40.810336
1079.000000	40.939246
1078.000000	41.057184
1077.000000	41.164859
1076.000000	41.260042
1075.000000	41.333847
1074.000000	41.377469
1073.000000	41.389124
1072.000000	41.367145
1071.000000	41.304645
1070.000000	41.194037
1069.000000	41.027839
1068.000000	40.795746
1067.000000	40.483716
1066.000000	40.085448
1065.000000	39.612566
1064.000000	39.091894
1063.000000	38.562033
1062.000000	38.072163
1061.000000	37.674352
1060.000000	37.406951
1059.000000	37.286382
1058.000000	37.307905
1057.000000	37.453545
1056.000000	37.695791
1055.000000	37.998098
1054.000000	38.328093
1053.000000	38.665016
1052.000000	38.997570
1051.000000	39.319638
1050.000000	39.630893
1049.000000	39.937844
1048.000000	40.244710
1047.000000	40.548049
1046.000000	40.843538
1045.000000	41.131579
1044.000000	41.411426
1043.000000	41.677712
1042.000000	41.928009
1041.000000	42.166965
1040.000000	42.398771
1039.000000	42.621150
1038.000000	42.831829
1037.000000	43.033417
1036.000000	43.226877
1035.000000	43.408838
1034.000000	43.580233
1033.000000	43.751041
1032.000000	43.931352
1031.000000	44.123733
1030.000000	44.327819
1029.000000	44.542814
1028.000000	44.760430
1027.000000	44.964007
1026.000000	45.141341
1025.000000	45.293030
1024.000000	45.425425
1023.000000	45.545040
1022.000000	45.664070
1021.000000	45.800234
1020.000000	45.963739
1019.000000	46.149953
1018.000000	46.348058
1017.000000	46.548576
1016.000000	46.739111
1015.000000	46.904855
1014.000000	47.041247
1013.000000	47.158979
1012.000000	47.271836
1011.000000	47.387665
1010.000000	47.513511
1009.000000	47.657445
1008.000000	47.818803
1007.000000	47.985593
1006.000000	48.147199
1005.000000	48.302277
1004.000000	48.451507
1003.000000	48.592922
1002.000000	48.729184
1001.000000	48.869129
1000.000000	49.016029
999.000000	49.162231
998.000000	49.300068
997.000000	49.429570
996.000000	49.552023
995.000000	49.666679
994.000000	49.779253
993.000000	49.903826
992.000000	50.049898
991.000000	50.214418
990.000000	50.388961
989.000000	50.565110
988.000000	50.729289
987.000000	50.864767
986.000000	50.966634
985.000000	51.047951
984.000000	51.127152
983.000000	51.217606
982.000000	51.330889
981.000000	51.476332
980.000000	51.649827
979.000000	51.831882
978.000000	52.002539
977.000000	52.151657
976.000000	52.274170
975.000000	52.368431
974.000000	52.444913
973.000000	52.524748
972.000000	52.622973
971.000000	52.739900
970.000000	52.870565
969.000000	53.011148
968.000000	53.152302
967.000000	53.279569
966.000000	53.388064
965.000000	53.488046
964.000000	53.591485
963.000000	53.702700
962.000000	53.824052
961.000000	53.957621
960.000000	54.095649
959.000000	54.221281
958.000000	54.324949
957.000000	54.411871
956.000000	54.491222
955.000000	54.569767
954.000000	54.659133
953.000000	54.774507
952.000000	54.918499
951.000000	55.075706
950.000000	55.227743
949.000000	55.363598
948.000000	55.474134
947.000000	55.552401
946.000000	55.606651
945.000000	55.660409
944.000000	55.733250
943.000000	55.829802
942.000000	55.948286
941.000000	56.085466
940.000000	56.228124
939.000000	56.354586
938.000000	56.453114
937.000000	56.529845
936.000000	56.595533
935.000000	56.656991
934.000000	56.724098
933.000000	56.808798
932.000000	56.909666
931.000000	57.009832
930.000000	57.095156
929.000000	57.164121
928.000000	57.218159
927.000000	57.257260
926.000000	57.290601
925.000000	57.335780
924.000000	57.399980
923.000000	57.471941
922.000000	57.536065
921.000000	57.582574
920.000000	57.600418
919.000000	57.577620
918.000000	57.516932
917.000000	57.438423
916.000000	57.362120
915.000000	57.296997
914.000000	57.247069
913.000000	57.212106
912.000000	57.175840
911.000000	57.109695
910.000000	56.994620
909.000000	56.830496
908.000000	56.623564
907.000000	56.378286
906.000000	56.106723
905.000000	55.827146
904.000000	55.545547
903.000000	55.251072
902.000000	54.931129
901.000000	54.580754
900.000000	54.194046
899.000000	53.761035
898.000000	53.280808
897.000000	52.762641
896.000000	52.211432
895.000000	51.621538
894.000000	50.986834
893.000000	50.307661
892.000000	49.581662
891.000000	48.803293
890.000000	47.975862
889.000000	47.112372
888.000000	46.223230
887.000000	45.308856
886.000000	44.367463
885.000000	43.399312
884.000000	42.399312
883.000000	41.357194
882.000000	40.267738
881.000000	39.136569
880.000000	37.974552
879.000000	36.793256
878.000000	35.608027
877.000000	34.437266
876.000000	33.294640
875.000000	32.184458
874.000000	31.107051
873.000000	30.062950
872.000000	29.052036
871.000000	28.072937
870.000000	27.125769
869.000000	26.216917
868.000000	25.355085
867.000000	24.545856
866.000000	23.791591
865.000000	23.092982
864.000000	22.450551
863.000000	21.860446
862.000000	21.314584
861.000000	20.806573
860.000000	20.332581
859.000000	19.889483
858.000000	19.473016
857.000000	19.080787
856.000000	18.714181
855.000000	18.373457
854.000000	18.057415
853.000000	17.767083
852.000000	17.506713
851.000000	17.280182
850.000000	17.087828
849.000000	16.931008
848.000000	16.813545
847.000000	16.736798
846.000000	16.698777
845.000000	16.697261
844.000000	16.732493
843.000000	16.803892
842.000000	16.909047
841.000000	17.050309
840.000000	17.234710
839.000000	17.468996
838.000000	17.756766
837.000000	18.101735
836.000000	18.508818
835.000000	18.977719
834.000000	19.498205
833.000000	20.047527
832.000000	20.578438
831.000000	20.985589
830.000000	21.083891
829.000000	20.640780
828.000000	19.499785
827.000000	17.749168
826.000000	15.777532
825.000000	14.115604
824.000000	13.148712
823.000000	12.933158
822.000000	13.258925
821.000000	13.859124
820.000000	14.549726
819.000000	15.239006
818.000000	15.891525
817.000000	16.502212
816.000000	17.083102
815.000000	17.642660
814.000000	18.181369
813.000000	18.703563
812.000000	19.216646
811.000000	19.719244
810.000000	20.202145
809.000000	20.662353
808.000000	21.103367
807.000000	21.525350
806.000000	21.926457
805.000000	22.312072
804.000000	22.689402
803.000000	23.055066
802.000000	23.401978
801.000000	23.734828
800.000000	24.066789
799.000000	24.404445
798.000000	24.748059
797.000000	25.102101
796.000000	25.470928
795.000000	25.847192
794.000000	26.217042
793.000000	26.573543
792.000000	26.914783
791.000000	27.235665
790.000000	27.535001
789.000000	27.825518
788.000000	28.124493
787.000000	28.438608
786.000000	28.767075
785.000000	29.111391
784.000000	29.469652
783.000000	29.828004
782.000000	30.170822
781.000000	30.495036
780.000000	30.804846
779.000000	31.100212
778.000000	31.382059
777.000000	31.661081
776.000000	31.948519
775.000000	32.243634
774.000000	32.540342
773.000000	32.838554
772.000000	33.138822
771.000000	33.434332
770.000000	33.719559
769.000000	33.999528
768.000000	34.279514
767.000000	34.553461
766.000000	34.812851
765.000000	35.057992
764.000000	35.290647
763.000000	35.505601
762.000000	35.701793
761.000000	35.892950
760.000000	36.095806
759.000000	36.315819
758.000000	36.552799
757.000000	36.808604
756.000000	37.077180
755.000000	37.337460
754.000000	37.569370
753.000000	37.769359
752.000000	37.942674
751.000000	38.093870
750.000000	38.235960
749.000000	38.395165
748.000000	38.591470
747.000000	38.822467
746.000000	39.074994
745.000000	39.339748
744.000000	39.603793
743.000000	39.844441
742.000000	40.046779
741.000000	40.218034
740.000000	40.373551
739.000000	40.520495
738.000000	40.665221
737.000000	40.820308
736.000000	40.989628
735.000000	41.158799
734.000000	41.313761
733.000000	41.456662
732.000000	41.592841
731.000000	41.717279
730.000000	41.826238
729.000000	41.926660
728.000000	42.021029
727.000000	42.097025
726.000000	42.145369
725.000000	42.175679
724.000000	42.203459
723.000000	42.236632
722.000000	42.287642
721.000000	42.382218
720.000000	42.538546
719.000000	42.748719
718.000000	42.992796
717.000000	43.255701
716.000000	43.517726
715.000000	43.749350
714.000000	43.935461
713.000000	44.091990
712.000000	44.245877
711.000000	44.413887
710.000000	44.611693
709.000000	44.859797
708.000000	45.161221
707.000000	45.488992
706.000000	45.810196
705.000000	46.108431
704.000000	46.372862
703.000000	46.588142
702.000000	46.755440
701.000000	46.904199
700.000000	47.063722
699.000000	47.240054
698.000000	47.431378
697.000000	47.643814
696.000000	47.874432
695.000000	48.100132
694.000000	48.306084
693.000000	48.504733
692.000000	48.708940
691.000000	48.911153
690.000000	49.104941
689.000000	49.301295
688.000000	49.500609
687.000000	49.674417
686.000000	49.804046
685.000000	49.910901
684.000000	50.026001
683.000000	50.159705
682.000000	50.322294
681.000000	50.538557
680.000000	50.810107
679.000000	51.092611
678.000000	51.340163
677.000000	51.536995
676.000000	51.675764
675.000000	51.751262
674.000000	51.788016
673.000000	51.845257
672.000000	51.973080
671.000000	52.185157
670.000000	52.484025
669.000000	52.863118
668.000000	53.221005
667.000000	53.435695
666.000000	53.527731
665.000000	53.569979
664.000000	53.604407
663.000000	53.651976
662.000000	53.725620
661.000000	53.841083
660.000000	54.005027
659.000000	54.207115
658.000000	54.430205
657.000000	54.658387
656.000000	54.879159
655.000000	55.092100
654.000000	55.306937
653.000000	55.533117
652.000000	55.773601
651.000000	56.021761
650.000000	56.264228
649.000000	56.486459
648.000000	56.677416
647.000000	56.835869
646.000000	56.978449
645.000000	57.137972
644.000000	57.342625
643.000000	57.599833
642.000000	57.903566
641.000000	58.240341
640.000000	58.579116
639.000000	58.872370
638.000000	59.085140
637.000000	59.220911
636.000000	59.312422
635.000000	59.399107
634.000000	59.522367
633.000000	59.720003
632.000000	60.004132
631.000000	60.350408
630.000000	60.716737
629.000000	61.063997
628.000000	61.357844
627.000000	61.574382
626.000000	61.721051
625.000000	61.837053
624.000000	61.957401
623.000000	62.094779
622.000000	62.262841
621.000000	62.483957
620.000000	62.757257
619.000000	63.046679
618.000000	63.321334
617.000000	63.587802
616.000000	63.863627
615.000000	64.144749
614.000000	64.418971
613.000000	64.683919
612.000000	64.926996
611.000000	65.112575
610.000000	65.211598
609.000000	65.222993
608.000000	65.151785
607.000000	64.979040
606.000000	64.665902
605.000000	64.137722
604.000000	63.229248
603.000000	61.676113
602.000000	59.177848
601.000000	55.528207
600.000000	50.766983
599.000000	45.309465
598.000000	39.906851
597.000000	35.368935
596.000000	32.264756
595.000000	30.786481
594.000000	30.770945
593.000000	31.829345
592.000000	33.542019
591.000000	35.556066
590.000000	37.606410
589.000000	39.550416
588.000000	41.348641
587.000000	43.009660
586.000000	44.546899
585.000000	45.970836
584.000000	47.287955
583.000000	48.503132
582.000000	49.634068
581.000000	50.709535
580.000000	51.733476
579.000000	52.667777
578.000000	53.486786
577.000000	54.216400
576.000000	54.893564
575.000000	55.515599
574.000000	56.060257
573.000000	56.533028
572.000000	56.954188
571.000000	57.331467
570.000000	57.680167
569.000000	58.038408
568.000000	58.431340
567.000000	58.844034
566.000000	59.256125
565.000000	59.676033
564.000000	60.107208
563.000000	60.514160
562.000000	60.856305
561.000000	61.129926
560.000000	61.350428
559.000000	61.525566
558.000000	61.679368
557.000000	61.866344
556.000000	62.126994
555.000000	62.451379
554.000000	62.809247
553.000000	63.183947
552.000000	63.551454
551.000000	63.863711
550.000000	64.092235
549.000000	64.259765
548.000000	64.401418
547.000000	64.532731
546.000000	64.678121
545.000000	64.882604
544.000000	65.161109
543.000000	65.476785
542.000000	65.793764
541.000000	66.112214
540.000000	66.426337
539.000000	66.698507
538.000000	66.910512
537.000000	67.096375
536.000000	67.287999
535.000000	67.472363
534.000000	67.637015
533.000000	67.808799
532.000000	68.009492
531.000000	68.217583
530.000000	68.413685
529.000000	68.619649
528.000000	68.856975
527.000000	69.110902
526.000000	69.363038
525.000000	69.604062
524.000000	69.789782
523.000000	69.837053
522.000000	69.696858
521.000000	69.391054
520.000000	68.958940
519.000000	68.418465
518.000000	67.811385
517.000000	67.232405
516.000000	66.763369
515.000000	66.424423
514.000000	66.214761
513.000000	66.143556
512.000000	66.181623
511.000000	66.234682
510.000000	66.208307
509.000000	66.061285
508.000000	65.754770
507.000000	65.208775
506.000000	64.351559
505.000000	63.160580
504.000000	61.636144
503.000000	59.834653
502.000000	57.984340
501.000000	56.443141
500.000000	55.470912
499.000000	55.117100
498.000000	55.318199
497.000000	55.960923
496.000000	56.855001
495.000000	57.761449
494.000000	58.505047
493.000000	59.052348
492.000000	59.457251
491.000000	59.791206
490.000000	60.143718
489.000000	60.609088
488.000000	61.215169
487.000000	61.905145
486.000000	62.619144
485.000000	63.350075
484.000000	64.091731
483.000000	64.798947
482.000000	65.455219
481.000000	66.113379
480.000000	66.817784
479.000000	67.547986
478.000000	68.269585
477.000000	68.966430
476.000000	69.581730
475.000000	70.005688
474.000000	70.200818
473.000000	70.280642
472.000000	70.370423
471.000000	70.475800
470.000000	70.593921
469.000000	70.806760
468.000000	71.172492
467.000000	71.613170
466.000000	71.986527
465.000000	72.226526
464.000000	72.325612
463.000000	72.280420
462.000000	72.149698
461.000000	72.062325
460.000000	72.078303
459.000000	72.144153
458.000000	72.240175
457.000000	72.409265
456.000000	72.605842
455.000000	72.709939
454.000000	72.692103
453.000000	72.661379
452.000000	72.708897
451.000000	72.763572
450.000000	72.696737
449.000000	72.464198
448.000000	72.046479
447.000000	71.354578
446.000000	70.320406
445.000000	68.980819
444.000000	67.380989
443.000000	65.500316
442.000000	63.332459
441.000000	60.957453
440.000000	58.462034
439.000000	55.886738
438.000000	53.317187
437.000000	50.988381
436.000000	49.199548
435.000000	48.132633
434.000000	47.803301
433.000000	48.170861
432.000000	49.204658
431.000000	50.775849
430.000000	52.652812
429.000000	54.653486
428.000000	56.658709
427.000000	58.517194
426.000000	60.124353
425.000000	61.569937
424.000000	63.001263
423.000000	64.385184
422.000000	65.606819
421.000000	66.698413
420.000000	67.792623
419.000000	68.951913
418.000000	70.004027
417.000000	70.813756
416.000000	71.499489
415.000000	72.101844
414.000000	72.605001
413.000000	73.133125
412.000000	73.756939
411.000000	74.271489
410.000000	74.498415
409.000000	74.594273
408.000000	74.747545
407.000000	74.929276
406.000000	75.089355
405.000000	75.438648
404.000000	76.087638
403.000000	76.706295
402.000000	76.920388
401.000000	76.791213
400.000000	76.552748
