PE IR       SUBTECH     SPECTRUM    ASCII       PEDS        4.00        
   -1
23ms261_nitrito.asc
24/09/02
17:12:55.00
24/09/02
17:12:55.00
Administrator
Sample 1086 By Administrator Date Monday, September 02 2024
400.000000
#HDR
-1
-1
#GR
cm-1
%T
1.0
0.0
4000.000000
-1.000000
3601
8
87.935547
9.407713
#DATA
4000.000000	68.514190
3999.000000	68.557348
3998.000000	68.598326
3997.000000	68.636434
3996.000000	68.671671
3995.000000	68.705694
3994.000000	68.740881
3993.000000	68.778404
3992.000000	68.817806
3991.000000	68.858429
3990.000000	68.899975
3989.000000	68.941496
3988.000000	68.981231
3987.000000	69.018346
3986.000000	69.054046
3985.000000	69.090214
3984.000000	69.127749
3983.000000	69.166632
3982.000000	69.206687
3981.000000	69.247555
3980.000000	69.288085
3979.000000	69.326477
3978.000000	69.361596
3977.000000	69.393932
3976.000000	69.424781
3975.000000	69.454932
3974.000000	69.484951
3973.000000	69.516445
3972.000000	69.550975
3971.000000	69.588325
3970.000000	69.626429
3969.000000	69.662695
3968.000000	69.695366
3967.000000	69.724294
3966.000000	69.751344
3965.000000	69.779178
3964.000000	69.809788
3963.000000	69.843407
3962.000000	69.879063
3961.000000	69.915782
3960.000000	69.951505
3959.000000	69.983810
3958.000000	70.012656
3957.000000	70.040308
3956.000000	70.068650
3955.000000	70.097187
3954.000000	70.125418
3953.000000	70.153753
3952.000000	70.183412
3951.000000	70.215658
3950.000000	70.249810
3949.000000	70.283147
3948.000000	70.314394
3947.000000	70.346966
3946.000000	70.384100
3945.000000	70.423592
3944.000000	70.461898
3943.000000	70.500067
3942.000000	70.542416
3941.000000	70.588937
3940.000000	70.631208
3939.000000	70.661958
3938.000000	70.684872
3937.000000	70.709687
3936.000000	70.742492
3935.000000	70.781370
3934.000000	70.823551
3933.000000	70.868114
3932.000000	70.912204
3931.000000	70.949768
3930.000000	70.976136
3929.000000	70.996462
3928.000000	71.022029
3927.000000	71.055182
3926.000000	71.087425
3925.000000	71.116003
3924.000000	71.150128
3923.000000	71.192388
3922.000000	71.231104
3921.000000	71.262006
3920.000000	71.296879
3919.000000	71.343125
3918.000000	71.390291
3917.000000	71.426543
3916.000000	71.456262
3915.000000	71.488462
3914.000000	71.520698
3913.000000	71.549855
3912.000000	71.579131
3911.000000	71.609949
3910.000000	71.638410
3909.000000	71.661105
3908.000000	71.683515
3907.000000	71.710087
3906.000000	71.738707
3905.000000	71.764187
3904.000000	71.793157
3903.000000	71.838347
3902.000000	71.893436
3901.000000	71.932886
3900.000000	71.946784
3899.000000	71.954525
3898.000000	71.976106
3897.000000	72.008438
3896.000000	72.040224
3895.000000	72.077848
3894.000000	72.132267
3893.000000	72.191481
3892.000000	72.225949
3891.000000	72.233876
3890.000000	72.254289
3889.000000	72.299912
3888.000000	72.345835
3887.000000	72.371236
3886.000000	72.378021
3885.000000	72.396191
3884.000000	72.448479
3883.000000	72.506647
3882.000000	72.541067
3881.000000	72.554561
3880.000000	72.568480
3879.000000	72.606828
3878.000000	72.664057
3877.000000	72.709335
3876.000000	72.726085
3875.000000	72.720314
3874.000000	72.724634
3873.000000	72.767949
3872.000000	72.827349
3871.000000	72.852609
3870.000000	72.839060
3869.000000	72.849993
3868.000000	72.915151
3867.000000	72.975619
3866.000000	72.994177
3865.000000	73.004783
3864.000000	73.041115
3863.000000	73.093581
3862.000000	73.133186
3861.000000	73.154994
3860.000000	73.168906
3859.000000	73.173592
3858.000000	73.170833
3857.000000	73.175047
3856.000000	73.208492
3855.000000	73.260482
3854.000000	73.275221
3853.000000	73.264087
3852.000000	73.314257
3851.000000	73.401492
3850.000000	73.451225
3849.000000	73.477706
3848.000000	73.519798
3847.000000	73.581415
3846.000000	73.645262
3845.000000	73.698795
3844.000000	73.734707
3843.000000	73.759512
3842.000000	73.788926
3841.000000	73.822805
3840.000000	73.847052
3839.000000	73.857237
3838.000000	73.867195
3837.000000	73.890576
3836.000000	73.931019
3835.000000	73.979794
3834.000000	74.027367
3833.000000	74.066479
3832.000000	74.098143
3831.000000	74.137444
3830.000000	74.195402
3829.000000	74.260068
3828.000000	74.304238
3827.000000	74.316959
3826.000000	74.325188
3825.000000	74.362924
3824.000000	74.425994
3823.000000	74.479730
3822.000000	74.488250
3821.000000	74.460935
3820.000000	74.476098
3819.000000	74.548777
3818.000000	74.609618
3817.000000	74.622931
3816.000000	74.614273
3815.000000	74.646595
3814.000000	74.726814
3813.000000	74.785534
3812.000000	74.797759
3811.000000	74.812402
3810.000000	74.867280
3809.000000	74.940722
3808.000000	74.979301
3807.000000	74.975705
3806.000000	74.989444
3805.000000	75.051446
3804.000000	75.114851
3803.000000	75.137091
3802.000000	75.114295
3801.000000	75.097031
3800.000000	75.152218
3799.000000	75.242454
3798.000000	75.299245
3797.000000	75.321759
3796.000000	75.347254
3795.000000	75.399384
3794.000000	75.462572
3793.000000	75.511138
3792.000000	75.545991
3791.000000	75.583166
3790.000000	75.625471
3789.000000	75.666577
3788.000000	75.704725
3787.000000	75.740907
3786.000000	75.768566
3785.000000	75.784726
3784.000000	75.803708
3783.000000	75.843469
3782.000000	75.898705
3781.000000	75.948015
3780.000000	75.978202
3779.000000	76.001336
3778.000000	76.038252
3777.000000	76.082603
3776.000000	76.111025
3775.000000	76.123527
3774.000000	76.146463
3773.000000	76.191813
3772.000000	76.240071
3771.000000	76.268968
3770.000000	76.287439
3769.000000	76.322322
3768.000000	76.376687
3767.000000	76.423372
3766.000000	76.445393
3765.000000	76.457842
3764.000000	76.488529
3763.000000	76.538593
3762.000000	76.581444
3761.000000	76.608383
3760.000000	76.633577
3759.000000	76.663437
3758.000000	76.687705
3757.000000	76.701026
3756.000000	76.713415
3755.000000	76.727697
3754.000000	76.743766
3753.000000	76.771175
3752.000000	76.812207
3751.000000	76.838741
3750.000000	76.830342
3749.000000	76.823536
3748.000000	76.858650
3747.000000	76.922157
3746.000000	76.977385
3745.000000	76.988004
3744.000000	76.989242
3743.000000	77.076949
3742.000000	77.199670
3741.000000	77.255603
3740.000000	77.272108
3739.000000	77.310716
3738.000000	77.373806
3737.000000	77.422846
3736.000000	77.454039
3735.000000	77.495656
3734.000000	77.548832
3733.000000	77.581495
3732.000000	77.591761
3731.000000	77.617889
3730.000000	77.675582
3729.000000	77.740426
3728.000000	77.788838
3727.000000	77.823720
3726.000000	77.864924
3725.000000	77.918812
3724.000000	77.966077
3723.000000	77.997917
3722.000000	78.026755
3721.000000	78.066621
3720.000000	78.114116
3719.000000	78.152526
3718.000000	78.174359
3717.000000	78.192845
3716.000000	78.224182
3715.000000	78.263666
3714.000000	78.301047
3713.000000	78.333547
3712.000000	78.358754
3711.000000	78.381295
3710.000000	78.413866
3709.000000	78.457425
3708.000000	78.502178
3707.000000	78.544952
3706.000000	78.592774
3705.000000	78.649043
3704.000000	78.706352
3703.000000	78.753463
3702.000000	78.784813
3701.000000	78.811236
3700.000000	78.848758
3699.000000	78.892388
3698.000000	78.923315
3697.000000	78.939713
3696.000000	78.958361
3695.000000	78.985963
3694.000000	79.011805
3693.000000	79.033591
3692.000000	79.062635
3691.000000	79.099682
3690.000000	79.125812
3689.000000	79.127587
3688.000000	79.130997
3687.000000	79.167861
3686.000000	79.222741
3685.000000	79.263141
3684.000000	79.289820
3683.000000	79.322920
3682.000000	79.361514
3681.000000	79.377916
3680.000000	79.367696
3679.000000	79.366340
3678.000000	79.393909
3677.000000	79.417104
3676.000000	79.384183
3675.000000	79.334223
3674.000000	79.355949
3673.000000	79.419100
3672.000000	79.452362
3671.000000	79.454168
3670.000000	79.449559
3669.000000	79.473812
3668.000000	79.531522
3667.000000	79.582527
3666.000000	79.610401
3665.000000	79.630061
3664.000000	79.654413
3663.000000	79.677957
3662.000000	79.687492
3661.000000	79.680829
3660.000000	79.672064
3659.000000	79.668672
3658.000000	79.656859
3657.000000	79.617616
3656.000000	79.564588
3655.000000	79.539294
3654.000000	79.540449
3653.000000	79.532296
3652.000000	79.507553
3651.000000	79.480089
3650.000000	79.444051
3649.000000	79.391854
3648.000000	79.337843
3647.000000	79.304566
3646.000000	79.296488
3645.000000	79.299477
3644.000000	79.299123
3643.000000	79.290814
3642.000000	79.277515
3641.000000	79.260862
3640.000000	79.237423
3639.000000	79.200880
3638.000000	79.157507
3637.000000	79.118724
3636.000000	79.080023
3635.000000	79.024236
3634.000000	78.950977
3633.000000	78.884241
3632.000000	78.836202
3631.000000	78.795484
3630.000000	78.734932
3629.000000	78.643968
3628.000000	78.578489
3627.000000	78.572129
3626.000000	78.567090
3625.000000	78.526748
3624.000000	78.474722
3623.000000	78.435072
3622.000000	78.400497
3621.000000	78.348826
3620.000000	78.271996
3619.000000	78.184197
3618.000000	78.111606
3617.000000	78.062489
3616.000000	78.019910
3615.000000	77.966270
3614.000000	77.900544
3613.000000	77.837347
3612.000000	77.789666
3611.000000	77.752792
3610.000000	77.712491
3609.000000	77.664805
3608.000000	77.618490
3607.000000	77.582568
3606.000000	77.553103
3605.000000	77.519366
3604.000000	77.479651
3603.000000	77.437080
3602.000000	77.389996
3601.000000	77.335977
3600.000000	77.279052
3599.000000	77.221617
3598.000000	77.162231
3597.000000	77.104145
3596.000000	77.050653
3595.000000	76.999172
3594.000000	76.946270
3593.000000	76.893351
3592.000000	76.840750
3591.000000	76.789232
3590.000000	76.740665
3589.000000	76.696202
3588.000000	76.652626
3587.000000	76.611874
3586.000000	76.579372
3585.000000	76.548620
3584.000000	76.509307
3583.000000	76.462062
3582.000000	76.412572
3581.000000	76.363356
3580.000000	76.314347
3579.000000	76.265411
3578.000000	76.216248
3577.000000	76.168041
3576.000000	76.121165
3575.000000	76.074160
3574.000000	76.024622
3573.000000	75.970985
3572.000000	75.913512
3571.000000	75.853872
3570.000000	75.793782
3569.000000	75.732629
3568.000000	75.669928
3567.000000	75.609252
3566.000000	75.559575
3565.000000	75.521864
3564.000000	75.487416
3563.000000	75.450688
3562.000000	75.411930
3561.000000	75.371096
3560.000000	75.326839
3559.000000	75.278298
3558.000000	75.225008
3557.000000	75.168136
3556.000000	75.111419
3555.000000	75.056907
3554.000000	75.002026
3553.000000	74.943367
3552.000000	74.882746
3551.000000	74.824524
3550.000000	74.769029
3549.000000	74.714405
3548.000000	74.662793
3547.000000	74.616357
3546.000000	74.570991
3545.000000	74.521150
3544.000000	74.465993
3543.000000	74.407560
3542.000000	74.347083
3541.000000	74.286128
3540.000000	74.228127
3539.000000	74.174429
3538.000000	74.122229
3537.000000	74.067621
3536.000000	74.010549
3535.000000	73.953157
3534.000000	73.896063
3533.000000	73.838658
3532.000000	73.781141
3531.000000	73.723465
3530.000000	73.663141
3529.000000	73.599350
3528.000000	73.536902
3527.000000	73.482819
3526.000000	73.437500
3525.000000	73.394271
3524.000000	73.346465
3523.000000	73.292607
3522.000000	73.235446
3521.000000	73.178373
3520.000000	73.122656
3519.000000	73.067185
3518.000000	73.011031
3517.000000	72.955053
3516.000000	72.899532
3515.000000	72.842188
3514.000000	72.780673
3513.000000	72.715474
3512.000000	72.648543
3511.000000	72.580799
3510.000000	72.511671
3509.000000	72.441667
3508.000000	72.372929
3507.000000	72.306179
3506.000000	72.239574
3505.000000	72.172115
3504.000000	72.104357
3503.000000	72.035998
3502.000000	71.965423
3501.000000	71.892750
3500.000000	71.819902
3499.000000	71.747089
3498.000000	71.671580
3497.000000	71.592079
3496.000000	71.511084
3495.000000	71.431026
3494.000000	71.351115
3493.000000	71.269464
3492.000000	71.185767
3491.000000	71.100510
3490.000000	71.013178
3489.000000	70.923093
3488.000000	70.830916
3487.000000	70.737621
3486.000000	70.643080
3485.000000	70.547316
3484.000000	70.452134
3483.000000	70.359354
3482.000000	70.268327
3481.000000	70.176177
3480.000000	70.079533
3479.000000	69.976366
3478.000000	69.867602
3477.000000	69.757683
3476.000000	69.651523
3475.000000	69.550296
3474.000000	69.451920
3473.000000	69.355053
3472.000000	69.259643
3471.000000	69.163586
3470.000000	69.062143
3469.000000	68.951665
3468.000000	68.832489
3467.000000	68.707810
3466.000000	68.581359
3465.000000	68.456345
3464.000000	68.334783
3463.000000	68.216010
3462.000000	68.096813
3461.000000	67.974018
3460.000000	67.846520
3459.000000	67.715035
3458.000000	67.581706
3457.000000	67.449687
3456.000000	67.321424
3455.000000	67.195987
3454.000000	67.068977
3453.000000	66.936780
3452.000000	66.800052
3451.000000	66.661562
3450.000000	66.521471
3449.000000	66.377901
3448.000000	66.230745
3447.000000	66.082668
3446.000000	65.935994
3445.000000	65.790086
3444.000000	65.642448
3443.000000	65.491174
3442.000000	65.336235
3441.000000	65.180005
3440.000000	65.025566
3439.000000	64.873438
3438.000000	64.720717
3437.000000	64.563493
3436.000000	64.399603
3435.000000	64.228402
3434.000000	64.049613
3433.000000	63.864538
3432.000000	63.676042
3431.000000	63.485267
3430.000000	63.289933
3429.000000	63.088628
3428.000000	62.884043
3427.000000	62.679426
3426.000000	62.474534
3425.000000	62.267402
3424.000000	62.057012
3423.000000	61.841659
3422.000000	61.617971
3421.000000	61.384988
3420.000000	61.146886
3419.000000	60.908649
3418.000000	60.671442
3417.000000	60.434157
3416.000000	60.196180
3415.000000	59.955569
3414.000000	59.707368
3413.000000	59.447720
3412.000000	59.177362
3411.000000	58.898856
3410.000000	58.612845
3409.000000	58.319493
3408.000000	58.021112
3407.000000	57.719965
3406.000000	57.415982
3405.000000	57.108653
3404.000000	56.798154
3403.000000	56.482683
3402.000000	56.157523
3401.000000	55.819159
3400.000000	55.468430
3399.000000	55.108467
3398.000000	54.742336
3397.000000	54.373162
3396.000000	54.002579
3395.000000	53.627790
3394.000000	53.242695
3393.000000	52.843746
3392.000000	52.432486
3391.000000	52.011897
3390.000000	51.584144
3389.000000	51.151736
3388.000000	50.716882
3387.000000	50.277882
3386.000000	49.829803
3385.000000	49.370586
3384.000000	48.902443
3383.000000	48.426979
3382.000000	47.943099
3381.000000	47.450833
3380.000000	46.953212
3379.000000	46.452329
3378.000000	45.947039
3377.000000	45.435826
3376.000000	44.918312
3375.000000	44.393552
3374.000000	43.859984
3373.000000	43.318101
3372.000000	42.770254
3371.000000	42.216874
3370.000000	41.656630
3369.000000	41.089879
3368.000000	40.518593
3367.000000	39.942961
3366.000000	39.361638
3365.000000	38.775662
3364.000000	38.187887
3363.000000	37.598487
3362.000000	37.005360
3361.000000	36.408979
3360.000000	35.812670
3359.000000	35.217657
3358.000000	34.621974
3357.000000	34.024850
3356.000000	33.427578
3355.000000	32.830008
3354.000000	32.230556
3353.000000	31.630132
3352.000000	31.032028
3351.000000	30.437813
3350.000000	29.847169
3349.000000	29.261278
3348.000000	28.681891
3347.000000	28.107152
3346.000000	27.533301
3345.000000	26.960400
3344.000000	26.392105
3343.000000	25.830384
3342.000000	25.274885
3341.000000	24.726992
3340.000000	24.189241
3339.000000	23.661021
3338.000000	23.139837
3337.000000	22.626103
3336.000000	22.122217
3335.000000	21.627545
3334.000000	21.139452
3333.000000	20.659032
3332.000000	20.190070
3331.000000	19.733158
3330.000000	19.285641
3329.000000	18.846649
3328.000000	18.417864
3327.000000	17.999366
3326.000000	17.590285
3325.000000	17.192688
3324.000000	16.809404
3323.000000	16.439403
3322.000000	16.079597
3321.000000	15.730317
3320.000000	15.394191
3319.000000	15.070190
3318.000000	14.755143
3317.000000	14.449110
3316.000000	14.154408
3315.000000	13.870564
3314.000000	13.594980
3313.000000	13.327998
3312.000000	13.071682
3311.000000	12.824817
3310.000000	12.584923
3309.000000	12.353432
3308.000000	12.134478
3307.000000	11.929414
3306.000000	11.737292
3305.000000	11.559367
3304.000000	11.396636
3303.000000	11.245384
3302.000000	11.100210
3301.000000	10.960105
3300.000000	10.827058
3299.000000	10.700198
3298.000000	10.577307
3297.000000	10.460202
3296.000000	10.352426
3295.000000	10.253602
3294.000000	10.161173
3293.000000	10.076436
3292.000000	10.003056
3291.000000	9.940266
3290.000000	9.883788
3289.000000	9.831622
3288.000000	9.784176
3287.000000	9.740195
3286.000000	9.697722
3285.000000	9.658473
3284.000000	9.625508
3283.000000	9.598134
3282.000000	9.573779
3281.000000	9.553007
3280.000000	9.537842
3279.000000	9.526579
3278.000000	9.515715
3277.000000	9.505551
3276.000000	9.498654
3275.000000	9.494500
3274.000000	9.490734
3273.000000	9.488563
3272.000000	9.491832
3271.000000	9.501667
3270.000000	9.516513
3269.000000	9.535688
3268.000000	9.558340
3267.000000	9.580918
3266.000000	9.600404
3265.000000	9.618729
3264.000000	9.639655
3263.000000	9.663011
3262.000000	9.686573
3261.000000	9.710873
3260.000000	9.737385
3259.000000	9.764242
3258.000000	9.788832
3257.000000	9.812837
3256.000000	9.839702
3255.000000	9.869079
3254.000000	9.898389
3253.000000	9.927879
3252.000000	9.959114
3251.000000	9.990544
3250.000000	10.019653
3249.000000	10.047796
3248.000000	10.078118
3247.000000	10.110349
3246.000000	10.142245
3245.000000	10.174279
3244.000000	10.208234
3243.000000	10.242903
3242.000000	10.275954
3241.000000	10.308192
3240.000000	10.341524
3239.000000	10.374468
3238.000000	10.404129
3237.000000	10.430792
3236.000000	10.456669
3235.000000	10.482215
3234.000000	10.507739
3233.000000	10.536127
3232.000000	10.569230
3231.000000	10.603671
3230.000000	10.634761
3229.000000	10.662430
3228.000000	10.689143
3227.000000	10.714603
3226.000000	10.737153
3225.000000	10.758156
3224.000000	10.779959
3223.000000	10.801495
3222.000000	10.820349
3221.000000	10.837247
3220.000000	10.854144
3219.000000	10.869963
3218.000000	10.882734
3217.000000	10.893673
3216.000000	10.904848
3215.000000	10.915044
3214.000000	10.922125
3213.000000	10.927340
3212.000000	10.932772
3211.000000	10.936846
3210.000000	10.936832
3209.000000	10.933603
3208.000000	10.929689
3207.000000	10.924749
3206.000000	10.917166
3205.000000	10.908008
3204.000000	10.898945
3203.000000	10.888564
3202.000000	10.874982
3201.000000	10.859730
3200.000000	10.844893
3199.000000	10.828645
3198.000000	10.808139
3197.000000	10.784528
3196.000000	10.760825
3195.000000	10.737070
3194.000000	10.711821
3193.000000	10.686066
3192.000000	10.661304
3191.000000	10.635912
3190.000000	10.607798
3189.000000	10.578451
3188.000000	10.550244
3187.000000	10.522050
3186.000000	10.491714
3185.000000	10.460518
3184.000000	10.430973
3183.000000	10.402501
3182.000000	10.373344
3181.000000	10.344356
3180.000000	10.316843
3179.000000	10.289138
3178.000000	10.259553
3177.000000	10.230348
3176.000000	10.204523
3175.000000	10.181018
3174.000000	10.157255
3173.000000	10.133961
3172.000000	10.113223
3171.000000	10.094207
3170.000000	10.075015
3169.000000	10.056564
3168.000000	10.040591
3167.000000	10.026013
3166.000000	10.011392
3165.000000	9.998575
3164.000000	9.989937
3163.000000	9.984316
3162.000000	9.979369
3161.000000	9.975630
3160.000000	9.974434
3159.000000	9.974415
3158.000000	9.973959
3157.000000	9.974478
3156.000000	9.977632
3155.000000	9.982015
3154.000000	9.986584
3153.000000	9.994618
3152.000000	10.009829
3151.000000	10.031092
3150.000000	10.054852
3149.000000	10.080237
3148.000000	10.107975
3147.000000	10.136866
3146.000000	10.165706
3145.000000	10.196280
3144.000000	10.230323
3143.000000	10.265959
3142.000000	10.300930
3141.000000	10.337209
3140.000000	10.378473
3139.000000	10.425113
3138.000000	10.475554
3137.000000	10.529785
3136.000000	10.587873
3135.000000	10.647388
3134.000000	10.706012
3133.000000	10.764971
3132.000000	10.826531
3131.000000	10.890568
3130.000000	10.956600
3129.000000	11.026190
3128.000000	11.100237
3127.000000	11.176481
3126.000000	11.252910
3125.000000	11.330776
3124.000000	11.411087
3123.000000	11.491512
3122.000000	11.570309
3121.000000	11.650274
3120.000000	11.735003
3119.000000	11.824003
3118.000000	11.915394
3117.000000	12.010293
3116.000000	12.110481
3115.000000	12.214462
3114.000000	12.319532
3113.000000	12.425444
3112.000000	12.532584
3111.000000	12.639365
3110.000000	12.745133
3109.000000	12.852920
3108.000000	12.965682
3107.000000	13.082089
3106.000000	13.199238
3105.000000	13.317010
3104.000000	13.436296
3103.000000	13.555773
3102.000000	13.674262
3101.000000	13.793965
3100.000000	13.917656
3099.000000	14.044547
3098.000000	14.172379
3097.000000	14.301287
3096.000000	14.432140
3095.000000	14.563544
3094.000000	14.693929
3093.000000	14.824604
3092.000000	14.957558
3091.000000	15.092253
3090.000000	15.227531
3089.000000	15.364278
3088.000000	15.503240
3087.000000	15.642672
3086.000000	15.781209
3085.000000	15.920770
3084.000000	16.063399
3083.000000	16.207590
3082.000000	16.350913
3081.000000	16.493918
3080.000000	16.638469
3079.000000	16.784548
3078.000000	16.931783
3077.000000	17.081588
3076.000000	17.234557
3075.000000	17.388070
3074.000000	17.539543
3073.000000	17.689870
3072.000000	17.840801
3071.000000	17.991322
3070.000000	18.139937
3069.000000	18.288272
3068.000000	18.439001
3067.000000	18.592054
3066.000000	18.745886
3065.000000	18.900645
3064.000000	19.056967
3063.000000	19.213487
3062.000000	19.368542
3061.000000	19.522650
3060.000000	19.676674
3059.000000	19.829500
3058.000000	19.980204
3057.000000	20.130515
3056.000000	20.282368
3055.000000	20.434968
3054.000000	20.586838
3053.000000	20.738714
3052.000000	20.891767
3051.000000	21.044983
3050.000000	21.197028
3049.000000	21.348703
3048.000000	21.500935
3047.000000	21.652425
3046.000000	21.802022
3045.000000	21.951357
3044.000000	22.102466
3043.000000	22.254806
3042.000000	22.407146
3041.000000	22.560079
3040.000000	22.713889
3039.000000	22.866159
3038.000000	23.014524
3037.000000	23.160127
3036.000000	23.305803
3035.000000	23.452613
3034.000000	23.600475
3033.000000	23.749968
3032.000000	23.900732
3031.000000	24.050236
3030.000000	24.196818
3029.000000	24.342015
3028.000000	24.487665
3027.000000	24.632964
3026.000000	24.776901
3025.000000	24.921136
3024.000000	25.067426
3023.000000	25.214207
3022.000000	25.358738
3021.000000	25.500970
3020.000000	25.642501
3019.000000	25.783293
3018.000000	25.922377
3017.000000	26.060422
3016.000000	26.198835
3015.000000	26.337622
3014.000000	26.476566
3013.000000	26.617044
3012.000000	26.760103
3011.000000	26.904214
3010.000000	27.047266
3009.000000	27.189371
3008.000000	27.331507
3007.000000	27.473112
3006.000000	27.613371
3005.000000	27.753241
3004.000000	27.893769
3003.000000	28.033715
3002.000000	28.171109
3001.000000	28.305880
3000.000000	28.439020
2999.000000	28.570753
2998.000000	28.701690
2997.000000	28.833947
2996.000000	28.968700
2995.000000	29.104271
2994.000000	29.238790
2993.000000	29.373111
2992.000000	29.508744
2991.000000	29.644666
2990.000000	29.778806
2989.000000	29.911227
2988.000000	30.043334
2987.000000	30.175339
2986.000000	30.306837
2985.000000	30.438471
2984.000000	30.570617
2983.000000	30.701788
2982.000000	30.830682
2981.000000	30.958530
2980.000000	31.087235
2979.000000	31.216512
2978.000000	31.345119
2977.000000	31.473551
2976.000000	31.603078
2975.000000	31.733297
2974.000000	31.862916
2973.000000	31.991772
2972.000000	32.119960
2971.000000	32.246283
2970.000000	32.370002
2969.000000	32.493010
2968.000000	32.617862
2967.000000	32.744655
2966.000000	32.871848
2965.000000	32.998858
2964.000000	33.125589
2963.000000	33.250727
2962.000000	33.373016
2961.000000	33.493163
2960.000000	33.612381
2959.000000	33.730301
2958.000000	33.846417
2957.000000	33.962157
2956.000000	34.079074
2955.000000	34.196329
2954.000000	34.312261
2953.000000	34.427073
2952.000000	34.541644
2951.000000	34.655083
2950.000000	34.766127
2949.000000	34.875870
2948.000000	34.986635
2947.000000	35.099039
2946.000000	35.212313
2945.000000	35.326369
2944.000000	35.441189
2943.000000	35.555150
2942.000000	35.666390
2941.000000	35.775263
2940.000000	35.883416
2939.000000	35.991394
2938.000000	36.099092
2937.000000	36.207438
2936.000000	36.317260
2935.000000	36.427334
2934.000000	36.535824
2933.000000	36.642707
2932.000000	36.748548
2931.000000	36.852092
2930.000000	36.951815
2929.000000	37.049254
2928.000000	37.148079
2927.000000	37.250170
2926.000000	37.354728
2925.000000	37.460387
2924.000000	37.565807
2923.000000	37.668911
2922.000000	37.768307
2921.000000	37.865279
2920.000000	37.962343
2919.000000	38.060396
2918.000000	38.159042
2917.000000	38.258570
2916.000000	38.358943
2915.000000	38.457397
2914.000000	38.549765
2913.000000	38.634466
2912.000000	38.713556
2911.000000	38.790138
2910.000000	38.866721
2909.000000	38.945693
2908.000000	39.028835
2907.000000	39.115714
2906.000000	39.203875
2905.000000	39.290766
2904.000000	39.374636
2903.000000	39.454260
2902.000000	39.529600
2901.000000	39.602685
2900.000000	39.676602
2899.000000	39.753336
2898.000000	39.832789
2897.000000	39.913324
2896.000000	39.992070
2895.000000	40.065864
2894.000000	40.133494
2893.000000	40.196757
2892.000000	40.258298
2891.000000	40.319205
2890.000000	40.379712
2889.000000	40.440850
2888.000000	40.503470
2887.000000	40.566232
2886.000000	40.626309
2885.000000	40.681611
2884.000000	40.730931
2883.000000	40.772914
2882.000000	40.806853
2881.000000	40.834152
2880.000000	40.857399
2879.000000	40.878466
2878.000000	40.898907
2877.000000	40.921126
2876.000000	40.946749
2875.000000	40.974124
2874.000000	40.999971
2873.000000	41.023895
2872.000000	41.050006
2871.000000	41.084310
2870.000000	41.131864
2869.000000	41.195928
2868.000000	41.277251
2867.000000	41.373461
2866.000000	41.480504
2865.000000	41.595126
2864.000000	41.715416
2863.000000	41.839633
2862.000000	41.966037
2861.000000	42.093787
2860.000000	42.222890
2859.000000	42.353143
2858.000000	42.484043
2857.000000	42.615221
2856.000000	42.745644
2855.000000	42.872905
2854.000000	42.994630
2853.000000	43.110559
2852.000000	43.222423
2851.000000	43.332175
2850.000000	43.441219
2849.000000	43.550462
2848.000000	43.659587
2847.000000	43.766592
2846.000000	43.869310
2845.000000	43.967211
2844.000000	44.061074
2843.000000	44.151754
2842.000000	44.240422
2841.000000	44.329075
2840.000000	44.419115
2839.000000	44.509852
2838.000000	44.599716
2837.000000	44.688296
2836.000000	44.775673
2835.000000	44.860545
2834.000000	44.941122
2833.000000	45.017843
2832.000000	45.093489
2831.000000	45.170588
2830.000000	45.250125
2829.000000	45.332387
2828.000000	45.417081
2827.000000	45.502370
2826.000000	45.585454
2825.000000	45.664633
2824.000000	45.739934
2823.000000	45.811988
2822.000000	45.881825
2821.000000	45.951665
2820.000000	46.024117
2819.000000	46.100019
2818.000000	46.178029
2817.000000	46.256278
2816.000000	46.333248
2815.000000	46.407411
2814.000000	46.477931
2813.000000	46.546138
2812.000000	46.614914
2811.000000	46.686230
2810.000000	46.760318
2809.000000	46.836958
2808.000000	46.915787
2807.000000	46.995091
2806.000000	47.072048
2805.000000	47.144961
2804.000000	47.214346
2803.000000	47.281793
2802.000000	47.349100
2801.000000	47.418479
2800.000000	47.491671
2799.000000	47.568064
2798.000000	47.644730
2797.000000	47.718823
2796.000000	47.789074
2795.000000	47.855214
2794.000000	47.917736
2793.000000	47.978684
2792.000000	48.041038
2791.000000	48.106444
2790.000000	48.174515
2789.000000	48.244427
2788.000000	48.315554
2787.000000	48.386098
2786.000000	48.452954
2785.000000	48.514185
2784.000000	48.570774
2783.000000	48.625397
2782.000000	48.680486
2781.000000	48.737812
2780.000000	48.798367
2779.000000	48.861521
2778.000000	48.925088
2777.000000	48.986832
2776.000000	49.045441
2775.000000	49.100242
2774.000000	49.151515
2773.000000	49.201593
2772.000000	49.254098
2771.000000	49.311095
2770.000000	49.371700
2769.000000	49.433636
2768.000000	49.494843
2767.000000	49.553369
2766.000000	49.607534
2765.000000	49.657424
2764.000000	49.705341
2763.000000	49.754035
2762.000000	49.805218
2761.000000	49.859822
2760.000000	49.917940
2759.000000	49.977638
2758.000000	50.035203
2757.000000	50.087703
2756.000000	50.134808
2755.000000	50.178006
2754.000000	50.219463
2753.000000	50.262108
2752.000000	50.309024
2751.000000	50.361348
2750.000000	50.417339
2749.000000	50.473985
2748.000000	50.528670
2747.000000	50.579160
2746.000000	50.623889
2745.000000	50.663488
2744.000000	50.700944
2743.000000	50.739319
2742.000000	50.780048
2741.000000	50.823634
2740.000000	50.870220
2739.000000	50.918373
2738.000000	50.964782
2737.000000	51.006627
2736.000000	51.043723
2735.000000	51.077882
2734.000000	51.111280
2733.000000	51.146000
2732.000000	51.183670
2731.000000	51.224220
2730.000000	51.265690
2729.000000	51.305880
2728.000000	51.343411
2727.000000	51.377118
2726.000000	51.406233
2725.000000	51.432218
2724.000000	51.458929
2723.000000	51.489702
2722.000000	51.525075
2721.000000	51.563736
2720.000000	51.604063
2719.000000	51.643770
2718.000000	51.679784
2717.000000	51.710301
2716.000000	51.736422
2715.000000	51.761045
2714.000000	51.787043
2713.000000	51.816910
2712.000000	51.852244
2711.000000	51.891976
2710.000000	51.932140
2709.000000	51.968547
2708.000000	51.999129
2707.000000	52.023450
2706.000000	52.041677
2705.000000	52.055410
2704.000000	52.067977
2703.000000	52.082266
2702.000000	52.098807
2701.000000	52.116433
2700.000000	52.133572
2699.000000	52.147981
2698.000000	52.156922
2697.000000	52.159424
2696.000000	52.157476
2695.000000	52.154041
2694.000000	52.150860
2693.000000	52.148779
2692.000000	52.148476
2691.000000	52.149145
2690.000000	52.147793
2689.000000	52.141463
2688.000000	52.129553
2687.000000	52.113342
2686.000000	52.094586
2685.000000	52.075733
2684.000000	52.059962
2683.000000	52.049001
2682.000000	52.041406
2681.000000	52.033904
2680.000000	52.023681
2679.000000	52.008828
2678.000000	51.988289
2677.000000	51.963213
2676.000000	51.937505
2675.000000	51.915625
2674.000000	51.900184
2673.000000	51.892116
2672.000000	51.891533
2671.000000	51.897272
2670.000000	51.906811
2669.000000	51.918161
2668.000000	51.931717
2667.000000	51.949356
2666.000000	51.973059
2665.000000	52.005140
2664.000000	52.047939
2663.000000	52.102002
2662.000000	52.164834
2661.000000	52.232626
2660.000000	52.302563
2659.000000	52.372648
2658.000000	52.441325
2657.000000	52.508670
2656.000000	52.577098
2655.000000	52.649398
2654.000000	52.726133
2653.000000	52.805718
2652.000000	52.885801
2651.000000	52.963500
2650.000000	53.035642
2649.000000	53.100595
2648.000000	53.159513
2647.000000	53.214970
2646.000000	53.269086
2645.000000	53.323471
2644.000000	53.379465
2643.000000	53.436612
2642.000000	53.491853
2641.000000	53.541657
2640.000000	53.584257
2639.000000	53.619509
2638.000000	53.648023
2637.000000	53.672039
2636.000000	53.695811
2635.000000	53.722932
2634.000000	53.753757
2633.000000	53.786166
2632.000000	53.817714
2631.000000	53.845991
2630.000000	53.868330
2629.000000	53.883516
2628.000000	53.893314
2627.000000	53.901025
2626.000000	53.909160
2625.000000	53.919117
2624.000000	53.931700
2623.000000	53.946108
2622.000000	53.959324
2621.000000	53.968227
2620.000000	53.971853
2619.000000	53.970998
2618.000000	53.966979
2617.000000	53.962044
2616.000000	53.959575
2615.000000	53.961744
2614.000000	53.967397
2613.000000	53.973251
2612.000000	53.976200
2611.000000	53.973726
2610.000000	53.963704
2609.000000	53.945922
2608.000000	53.923080
2607.000000	53.898516
2606.000000	53.873627
2605.000000	53.847935
2604.000000	53.820251
2603.000000	53.788366
2602.000000	53.748774
2601.000000	53.699207
2600.000000	53.640919
2599.000000	53.577641
2598.000000	53.513418
2597.000000	53.452282
2596.000000	53.398346
2595.000000	53.354128
2594.000000	53.319327
2593.000000	53.292380
2592.000000	53.272883
2591.000000	53.261370
2590.000000	53.258647
2589.000000	53.266905
2588.000000	53.289730
2587.000000	53.330152
2586.000000	53.388265
2585.000000	53.461810
2584.000000	53.547986
2583.000000	53.642803
2582.000000	53.741176
2581.000000	53.839165
2580.000000	53.936074
2579.000000	54.033582
2578.000000	54.133217
2577.000000	54.236197
2576.000000	54.343838
2575.000000	54.456058
2574.000000	54.570094
2573.000000	54.682096
2572.000000	54.789706
2571.000000	54.892289
2570.000000	54.990152
2569.000000	55.085150
2568.000000	55.180840
2567.000000	55.279821
2566.000000	55.381213
2565.000000	55.481892
2564.000000	55.579036
2563.000000	55.670442
2562.000000	55.753981
2561.000000	55.829242
2560.000000	55.899295
2559.000000	55.968789
2558.000000	56.040892
2557.000000	56.116871
2556.000000	56.196858
2555.000000	56.278949
2554.000000	56.358359
2553.000000	56.430122
2552.000000	56.492464
2551.000000	56.546476
2550.000000	56.594155
2549.000000	56.638348
2548.000000	56.683264
2547.000000	56.732021
2546.000000	56.783782
2545.000000	56.835113
2544.000000	56.882891
2543.000000	56.924715
2542.000000	56.958041
2541.000000	56.981501
2540.000000	56.996886
2539.000000	57.007192
2538.000000	57.013526
2537.000000	57.015209
2536.000000	57.011200
2535.000000	56.999799
2534.000000	56.977452
2533.000000	56.940977
2532.000000	56.890843
2531.000000	56.830331
2530.000000	56.763144
2529.000000	56.692952
2528.000000	56.623967
2527.000000	56.559343
2526.000000	56.499304
2525.000000	56.442879
2524.000000	56.390779
2523.000000	56.345263
2522.000000	56.308547
2521.000000	56.283932
2520.000000	56.276470
2519.000000	56.290551
2518.000000	56.326861
2517.000000	56.382251
2516.000000	56.452339
2515.000000	56.531555
2514.000000	56.613161
2513.000000	56.692235
2512.000000	56.768050
2511.000000	56.842924
2510.000000	56.919103
2509.000000	56.998428
2508.000000	57.083071
2507.000000	57.173400
2506.000000	57.265903
2505.000000	57.355393
2504.000000	57.438856
2503.000000	57.515584
2502.000000	57.585269
2501.000000	57.648534
2500.000000	57.708486
2499.000000	57.768846
2498.000000	57.830445
2497.000000	57.891601
2496.000000	57.950613
2495.000000	58.005924
2494.000000	58.055263
2493.000000	58.097408
2492.000000	58.134729
2491.000000	58.171490
2490.000000	58.210221
2489.000000	58.251436
2488.000000	58.295215
2487.000000	58.340452
2486.000000	58.383228
2485.000000	58.418914
2484.000000	58.446091
2483.000000	58.466614
2482.000000	58.483176
2481.000000	58.499018
2480.000000	58.518629
2479.000000	58.545503
2478.000000	58.578941
2477.000000	58.614948
2476.000000	58.649499
2475.000000	58.679431
2474.000000	58.701975
2473.000000	58.716504
2472.000000	58.726421
2471.000000	58.736856
2470.000000	58.750835
2469.000000	58.769203
2468.000000	58.792389
2467.000000	58.819490
2466.000000	58.846616
2465.000000	58.869144
2464.000000	58.885527
2463.000000	58.897215
2462.000000	58.906224
2461.000000	58.915076
2460.000000	58.927524
2459.000000	58.946043
2458.000000	58.968960
2457.000000	58.992227
2456.000000	59.013299
2455.000000	59.031319
2454.000000	59.045210
2453.000000	59.054781
2452.000000	59.062887
2451.000000	59.073658
2450.000000	59.088880
2449.000000	59.107932
2448.000000	59.129811
2447.000000	59.152690
2446.000000	59.172818
2445.000000	59.187025
2444.000000	59.195964
2443.000000	59.202891
2442.000000	59.210386
2441.000000	59.220394
2440.000000	59.235602
2439.000000	59.257355
2438.000000	59.282814
2437.000000	59.306907
2436.000000	59.326500
2435.000000	59.340778
2434.000000	59.349466
2433.000000	59.353914
2432.000000	59.358802
2431.000000	59.369371
2430.000000	59.387139
2429.000000	59.410231
2428.000000	59.436418
2427.000000	59.463113
2426.000000	59.486009
2425.000000	59.501485
2424.000000	59.510197
2423.000000	59.515980
2422.000000	59.522147
2421.000000	59.531143
2420.000000	59.546006
2419.000000	59.568465
2418.000000	59.595987
2417.000000	59.623459
2416.000000	59.647343
2415.000000	59.666241
2414.000000	59.679185
2413.000000	59.686757
2412.000000	59.692917
2411.000000	59.702469
2410.000000	59.716966
2409.000000	59.735092
2408.000000	59.755621
2407.000000	59.777225
2406.000000	59.796882
2405.000000	59.811982
2404.000000	59.823586
2403.000000	59.835059
2402.000000	59.848420
2401.000000	59.864342
2400.000000	59.884006
2399.000000	59.907665
2398.000000	59.932289
2397.000000	59.953709
2396.000000	59.970578
2395.000000	59.984177
2394.000000	59.995986
2393.000000	60.008350
2392.000000	60.025715
2391.000000	60.051633
2390.000000	60.085073
2389.000000	60.121836
2388.000000	60.158761
2387.000000	60.193489
2386.000000	60.222803
2385.000000	60.245314
2384.000000	60.264362
2383.000000	60.286554
2382.000000	60.316706
2381.000000	60.357339
2380.000000	60.410780
2379.000000	60.476635
2378.000000	60.549235
2377.000000	60.620451
2376.000000	60.684990
2375.000000	60.740995
2374.000000	60.788096
2373.000000	60.828285
2372.000000	60.867567
2371.000000	60.912086
2370.000000	60.962098
2369.000000	61.015350
2368.000000	61.071875
2367.000000	61.131633
2366.000000	61.190071
2365.000000	61.242477
2364.000000	61.293041
2363.000000	61.343588
2362.000000	61.391444
2361.000000	61.440024
2360.000000	61.490953
2359.000000	61.547415
2358.000000	61.604771
2357.000000	61.655894
2356.000000	61.704034
2355.000000	61.748166
2354.000000	61.790428
2353.000000	61.832322
2352.000000	61.883032
2351.000000	61.948132
2350.000000	62.010345
2349.000000	62.061112
2348.000000	62.105539
2347.000000	62.165785
2346.000000	62.246386
2345.000000	62.320885
2344.000000	62.371981
2343.000000	62.397400
2342.000000	62.420902
2341.000000	62.456461
2340.000000	62.505130
2339.000000	62.563500
2338.000000	62.624109
2337.000000	62.679995
2336.000000	62.728672
2335.000000	62.771409
2334.000000	62.811617
2333.000000	62.850925
2332.000000	62.893195
2331.000000	62.946691
2330.000000	63.005315
2329.000000	63.069998
2328.000000	63.133331
2327.000000	63.195937
2326.000000	63.254658
2325.000000	63.303434
2324.000000	63.348304
2323.000000	63.389501
2322.000000	63.432291
2321.000000	63.473527
2320.000000	63.516586
2319.000000	63.564574
2318.000000	63.615266
2317.000000	63.664793
2316.000000	63.709793
2315.000000	63.754329
2314.000000	63.798414
2313.000000	63.843288
2312.000000	63.889268
2311.000000	63.940296
2310.000000	63.994783
2309.000000	64.048492
2308.000000	64.097673
2307.000000	64.141155
2306.000000	64.177999
2305.000000	64.208047
2304.000000	64.237427
2303.000000	64.274756
2302.000000	64.324428
2301.000000	64.385091
2300.000000	64.452593
2299.000000	64.522519
2298.000000	64.586178
2297.000000	64.636027
2296.000000	64.670314
2295.000000	64.694903
2294.000000	64.716468
2293.000000	64.741059
2292.000000	64.775965
2291.000000	64.826233
2290.000000	64.889487
2289.000000	64.956338
2288.000000	65.018691
2287.000000	65.071610
2286.000000	65.111918
2285.000000	65.138806
2284.000000	65.158604
2283.000000	65.181398
2282.000000	65.213822
2281.000000	65.256558
2280.000000	65.308290
2279.000000	65.365912
2278.000000	65.422143
2277.000000	65.468913
2276.000000	65.504128
2275.000000	65.532372
2274.000000	65.558543
2273.000000	65.586372
2272.000000	65.620307
2271.000000	65.663262
2270.000000	65.711526
2269.000000	65.756684
2268.000000	65.793119
2267.000000	65.819919
2266.000000	65.837359
2265.000000	65.847834
2264.000000	65.858900
2263.000000	65.879929
2262.000000	65.914065
2261.000000	65.957010
2260.000000	66.002898
2259.000000	66.045331
2258.000000	66.075962
2257.000000	66.088028
2256.000000	66.083675
2255.000000	66.072863
2254.000000	66.065256
2253.000000	66.067258
2252.000000	66.083434
2251.000000	66.114559
2250.000000	66.152561
2249.000000	66.184349
2248.000000	66.200512
2247.000000	66.198587
2246.000000	66.180051
2245.000000	66.149720
2244.000000	66.118310
2243.000000	66.097516
2242.000000	66.091459
2241.000000	66.095839
2240.000000	66.103950
2239.000000	66.108540
2238.000000	66.100330
2237.000000	66.072429
2236.000000	66.027649
2235.000000	65.976598
2234.000000	65.928846
2233.000000	65.889760
2232.000000	65.862862
2231.000000	65.847881
2230.000000	65.836399
2229.000000	65.816030
2228.000000	65.780208
2227.000000	65.730393
2226.000000	65.670837
2225.000000	65.607328
2224.000000	65.549618
2223.000000	65.507309
2222.000000	65.481502
2221.000000	65.464512
2220.000000	65.447289
2219.000000	65.422845
2218.000000	65.384898
2217.000000	65.330969
2216.000000	65.267976
2215.000000	65.209215
2214.000000	65.164786
2213.000000	65.137971
2212.000000	65.128220
2211.000000	65.130880
2210.000000	65.134585
2209.000000	65.126096
2208.000000	65.099912
2207.000000	65.060283
2206.000000	65.015394
2205.000000	64.974675
2204.000000	64.949421
2203.000000	64.947789
2202.000000	64.967139
2201.000000	64.995347
2200.000000	65.019830
2199.000000	65.032058
2198.000000	65.026478
2197.000000	65.003064
2196.000000	64.971758
2195.000000	64.948213
2194.000000	64.943328
2193.000000	64.959299
2192.000000	64.992903
2191.000000	65.036194
2190.000000	65.075374
2189.000000	65.096848
2188.000000	65.096884
2187.000000	65.082005
2186.000000	65.061348
2185.000000	65.043582
2184.000000	65.038267
2183.000000	65.051674
2182.000000	65.079578
2181.000000	65.109308
2180.000000	65.129427
2179.000000	65.134042
2178.000000	65.120768
2177.000000	65.092292
2176.000000	65.060003
2175.000000	65.038763
2174.000000	65.035914
2173.000000	65.048583
2172.000000	65.069596
2171.000000	65.090135
2170.000000	65.098683
2169.000000	65.086156
2168.000000	65.054638
2167.000000	65.016423
2166.000000	64.984412
2165.000000	64.967342
2164.000000	64.971100
2163.000000	64.996022
2162.000000	65.031781
2161.000000	65.061379
2160.000000	65.072334
2159.000000	65.061405
2158.000000	65.031341
2157.000000	64.990283
2156.000000	64.953370
2155.000000	64.936510
2154.000000	64.945531
2153.000000	64.974298
2152.000000	65.011738
2151.000000	65.045659
2150.000000	65.062674
2149.000000	65.053739
2148.000000	65.022291
2147.000000	64.982131
2146.000000	64.946896
2145.000000	64.925297
2144.000000	64.922949
2143.000000	64.939883
2142.000000	64.965708
2141.000000	64.984231
2140.000000	64.985139
2139.000000	64.967831
2138.000000	64.936585
2137.000000	64.899057
2136.000000	64.868012
2135.000000	64.855679
2134.000000	64.863774
2133.000000	64.883224
2132.000000	64.902761
2131.000000	64.913299
2130.000000	64.906801
2129.000000	64.880057
2128.000000	64.841317
2127.000000	64.806834
2126.000000	64.789175
2125.000000	64.792132
2124.000000	64.814012
2123.000000	64.847810
2122.000000	64.878926
2121.000000	64.891408
2120.000000	64.879409
2119.000000	64.849085
2118.000000	64.810911
2117.000000	64.776155
2116.000000	64.758151
2115.000000	64.767268
2114.000000	64.801831
2113.000000	64.848740
2112.000000	64.893605
2111.000000	64.926361
2110.000000	64.940328
2109.000000	64.935107
2108.000000	64.921651
2107.000000	64.917536
2106.000000	64.935155
2105.000000	64.977556
2104.000000	65.042608
2103.000000	65.123460
2102.000000	65.205879
2101.000000	65.274553
2100.000000	65.324589
2099.000000	65.363163
2098.000000	65.400804
2097.000000	65.446704
2096.000000	65.510437
2095.000000	65.597832
2094.000000	65.702968
2093.000000	65.810284
2092.000000	65.905813
2091.000000	65.982267
2090.000000	66.036513
2089.000000	66.071448
2088.000000	66.100414
2087.000000	66.140697
2086.000000	66.200233
2085.000000	66.274626
2084.000000	66.354539
2083.000000	66.429191
2082.000000	66.484511
2081.000000	66.508929
2080.000000	66.503932
2079.000000	66.483298
2078.000000	66.461715
2077.000000	66.449034
2076.000000	66.452874
2075.000000	66.475279
2074.000000	66.506179
2073.000000	66.528042
2072.000000	66.528598
2071.000000	66.505940
2070.000000	66.464137
2069.000000	66.412174
2068.000000	66.365112
2067.000000	66.336642
2066.000000	66.328549
2065.000000	66.332755
2064.000000	66.342228
2063.000000	66.352656
2062.000000	66.356193
2061.000000	66.344641
2060.000000	66.320424
2059.000000	66.296674
2058.000000	66.285807
2057.000000	66.294051
2056.000000	66.324819
2055.000000	66.376870
2054.000000	66.439051
2053.000000	66.495523
2052.000000	66.537878
2051.000000	66.568171
2050.000000	66.592242
2049.000000	66.617814
2048.000000	66.657471
2047.000000	66.723598
2046.000000	66.817587
2045.000000	66.929161
2044.000000	67.045798
2043.000000	67.156686
2042.000000	67.250795
2041.000000	67.322805
2040.000000	67.382481
2039.000000	67.449428
2038.000000	67.537289
2037.000000	67.648577
2036.000000	67.781608
2035.000000	67.931905
2034.000000	68.086884
2033.000000	68.230230
2032.000000	68.355125
2031.000000	68.466330
2030.000000	68.571120
2029.000000	68.675796
2028.000000	68.790483
2027.000000	68.924934
2026.000000	69.077154
2025.000000	69.234642
2024.000000	69.385894
2023.000000	69.526211
2022.000000	69.653503
2021.000000	69.768382
2020.000000	69.878653
2019.000000	69.993806
2018.000000	70.114129
2017.000000	70.233384
2016.000000	70.351441
2015.000000	70.472681
2014.000000	70.592717
2013.000000	70.699347
2012.000000	70.788015
2011.000000	70.865598
2010.000000	70.939637
2009.000000	71.014235
2008.000000	71.096814
2007.000000	71.195374
2006.000000	71.306228
2005.000000	71.415616
2004.000000	71.512689
2003.000000	71.595777
2002.000000	71.663381
2001.000000	71.714569
2000.000000	71.758600
1999.000000	71.809107
1998.000000	71.873392
1997.000000	71.953574
1996.000000	72.052470
1995.000000	72.165765
1994.000000	72.272584
1993.000000	72.347372
1992.000000	72.384759
1991.000000	72.403546
1990.000000	72.422864
1989.000000	72.448127
1988.000000	72.481802
1987.000000	72.529005
1986.000000	72.586928
1985.000000	72.643785
1984.000000	72.691328
1983.000000	72.730010
1982.000000	72.759265
1981.000000	72.778595
1980.000000	72.797478
1979.000000	72.828567
1978.000000	72.874102
1977.000000	72.926475
1976.000000	72.980656
1975.000000	73.034242
1974.000000	73.079304
1973.000000	73.108683
1972.000000	73.129778
1971.000000	73.159312
1970.000000	73.203654
1969.000000	73.253939
1968.000000	73.298616
1967.000000	73.331875
1966.000000	73.352836
1965.000000	73.364847
1964.000000	73.375311
1963.000000	73.389260
1962.000000	73.402516
1961.000000	73.409586
1960.000000	73.416333
1959.000000	73.434755
1958.000000	73.466990
1957.000000	73.504031
1956.000000	73.539300
1955.000000	73.570030
1954.000000	73.590797
1953.000000	73.596609
1952.000000	73.593097
1951.000000	73.595444
1950.000000	73.610443
1949.000000	73.635469
1948.000000	73.674262
1947.000000	73.734184
1946.000000	73.807597
1945.000000	73.870159
1944.000000	73.900772
1943.000000	73.892532
1942.000000	73.851438
1941.000000	73.797776
1940.000000	73.757075
1939.000000	73.742439
1938.000000	73.749393
1937.000000	73.766031
1936.000000	73.786862
1935.000000	73.810469
1934.000000	73.830195
1933.000000	73.836124
1932.000000	73.828355
1931.000000	73.819927
1930.000000	73.814027
1929.000000	73.807380
1928.000000	73.806809
1927.000000	73.828511
1926.000000	73.875682
1925.000000	73.923503
1924.000000	73.948364
1923.000000	73.948995
1922.000000	73.936172
1921.000000	73.914716
1920.000000	73.880551
1919.000000	73.836690
1918.000000	73.793406
1917.000000	73.758738
1916.000000	73.738767
1915.000000	73.730763
1914.000000	73.725526
1913.000000	73.718792
1912.000000	73.713797
1911.000000	73.712435
1910.000000	73.701566
1909.000000	73.670818
1908.000000	73.629670
1907.000000	73.598057
1906.000000	73.582690
1905.000000	73.567897
1904.000000	73.544537
1903.000000	73.518185
1902.000000	73.487890
1901.000000	73.450540
1900.000000	73.417677
1899.000000	73.410099
1898.000000	73.433151
1897.000000	73.466561
1896.000000	73.491501
1895.000000	73.510064
1894.000000	73.532660
1893.000000	73.560937
1892.000000	73.587555
1891.000000	73.601576
1890.000000	73.586798
1889.000000	73.539101
1888.000000	73.487782
1887.000000	73.464439
1886.000000	73.465200
1885.000000	73.466915
1884.000000	73.462913
1883.000000	73.464465
1882.000000	73.472220
1881.000000	73.475991
1880.000000	73.475280
1879.000000	73.477356
1878.000000	73.482945
1877.000000	73.481634
1876.000000	73.469325
1875.000000	73.462061
1874.000000	73.476990
1873.000000	73.512888
1872.000000	73.559404
1871.000000	73.610343
1870.000000	73.655526
1869.000000	73.666977
1868.000000	73.629355
1867.000000	73.567263
1866.000000	73.503693
1865.000000	73.438950
1864.000000	73.378153
1863.000000	73.332025
1862.000000	73.294525
1861.000000	73.250145
1860.000000	73.201659
1859.000000	73.166533
1858.000000	73.148960
1857.000000	73.138921
1856.000000	73.132255
1855.000000	73.133959
1854.000000	73.132769
1853.000000	73.114532
1852.000000	73.087307
1851.000000	73.064119
1850.000000	73.055075
1849.000000	73.067807
1848.000000	73.100467
1847.000000	73.122258
1846.000000	73.082276
1845.000000	72.964434
1844.000000	72.823649
1843.000000	72.737430
1842.000000	72.712073
1841.000000	72.696233
1840.000000	72.665416
1839.000000	72.636053
1838.000000	72.611287
1837.000000	72.563720
1836.000000	72.492441
1835.000000	72.438044
1834.000000	72.423567
1833.000000	72.433027
1832.000000	72.438536
1831.000000	72.422239
1830.000000	72.374056
1829.000000	72.301848
1828.000000	72.233314
1827.000000	72.167689
1826.000000	72.079682
1825.000000	71.960713
1824.000000	71.832281
1823.000000	71.723187
1822.000000	71.633167
1821.000000	71.550400
1820.000000	71.477262
1819.000000	71.423951
1818.000000	71.386977
1817.000000	71.346309
1816.000000	71.302849
1815.000000	71.274563
1814.000000	71.261047
1813.000000	71.237183
1812.000000	71.176827
1811.000000	71.084103
1810.000000	70.978596
1809.000000	70.872050
1808.000000	70.779001
1807.000000	70.716891
1806.000000	70.686413
1805.000000	70.665644
1804.000000	70.642123
1803.000000	70.614077
1802.000000	70.569086
1801.000000	70.490277
1800.000000	70.385278
1799.000000	70.297242
1798.000000	70.255803
1797.000000	70.250075
1796.000000	70.256250
1795.000000	70.246235
1794.000000	70.189295
1793.000000	70.068534
1792.000000	69.899002
1791.000000	69.740059
1790.000000	69.638040
1789.000000	69.576123
1788.000000	69.520415
1787.000000	69.457781
1786.000000	69.385817
1785.000000	69.307695
1784.000000	69.255535
1783.000000	69.245989
1782.000000	69.245351
1781.000000	69.215719
1780.000000	69.153350
1779.000000	69.095921
1778.000000	69.070118
1777.000000	69.077573
1776.000000	69.111977
1775.000000	69.137635
1774.000000	69.101634
1773.000000	68.983108
1772.000000	68.808015
1771.000000	68.635745
1770.000000	68.495438
1769.000000	68.353889
1768.000000	68.211849
1767.000000	68.124480
1766.000000	68.109652
1765.000000	68.110141
1764.000000	68.062489
1763.000000	67.955020
1762.000000	67.821440
1761.000000	67.712205
1760.000000	67.654999
1759.000000	67.623209
1758.000000	67.554243
1757.000000	67.438006
1756.000000	67.339663
1755.000000	67.311167
1754.000000	67.321019
1753.000000	67.310747
1752.000000	67.274777
1751.000000	67.246740
1750.000000	67.218557
1749.000000	67.133542
1748.000000	66.985074
1747.000000	66.819559
1746.000000	66.673520
1745.000000	66.548066
1744.000000	66.431190
1743.000000	66.321443
1742.000000	66.201683
1741.000000	66.035023
1740.000000	65.838433
1739.000000	65.701289
1738.000000	65.658787
1737.000000	65.623600
1736.000000	65.481713
1735.000000	65.219130
1734.000000	64.916457
1733.000000	64.678206
1732.000000	64.536009
1731.000000	64.411859
1730.000000	64.230915
1729.000000	63.991774
1728.000000	63.749167
1727.000000	63.539312
1726.000000	63.350201
1725.000000	63.149569
1724.000000	62.929342
1723.000000	62.741442
1722.000000	62.625987
1721.000000	62.558834
1720.000000	62.490134
1719.000000	62.393668
1718.000000	62.219902
1717.000000	61.899766
1716.000000	61.481758
1715.000000	61.079759
1714.000000	60.738255
1713.000000	60.445823
1712.000000	60.186936
1711.000000	59.957557
1710.000000	59.747481
1709.000000	59.545198
1708.000000	59.334909
1707.000000	59.095879
1706.000000	58.818635
1705.000000	58.538710
1704.000000	58.316400
1703.000000	58.113443
1702.000000	57.795704
1701.000000	57.335981
1700.000000	56.932031
1699.000000	56.753631
1698.000000	56.654730
1697.000000	56.334194
1696.000000	55.729755
1695.000000	55.132399
1694.000000	54.779398
1693.000000	54.586483
1692.000000	54.404582
1691.000000	54.188037
1690.000000	53.940321
1689.000000	53.691116
1688.000000	53.478594
1687.000000	53.290446
1686.000000	53.039441
1685.000000	52.614688
1684.000000	52.008165
1683.000000	51.442177
1682.000000	51.067493
1681.000000	50.761793
1680.000000	50.434314
1679.000000	50.104750
1678.000000	49.775625
1677.000000	49.393797
1676.000000	48.942998
1675.000000	48.515560
1674.000000	48.212765
1673.000000	48.013094
1672.000000	47.804730
1671.000000	47.503479
1670.000000	47.064774
1669.000000	46.527215
1668.000000	46.036348
1667.000000	45.687295
1666.000000	45.439164
1665.000000	45.194494
1664.000000	44.896969
1663.000000	44.549365
1662.000000	44.176216
1661.000000	43.812834
1660.000000	43.481076
1659.000000	43.197368
1658.000000	42.979248
1657.000000	42.837356
1656.000000	42.729476
1655.000000	42.571558
1654.000000	42.221751
1653.000000	41.598940
1652.000000	41.059877
1651.000000	40.873784
1650.000000	40.829773
1649.000000	40.733111
1648.000000	40.493296
1647.000000	40.074149
1646.000000	39.580071
1645.000000	39.176771
1644.000000	38.909828
1643.000000	38.715222
1642.000000	38.529538
1641.000000	38.333568
1640.000000	38.155671
1639.000000	38.024588
1638.000000	37.902634
1637.000000	37.692536
1636.000000	37.324193
1635.000000	36.899771
1634.000000	36.600743
1633.000000	36.427199
1632.000000	36.289101
1631.000000	36.150762
1630.000000	36.000742
1629.000000	35.828438
1628.000000	35.646892
1627.000000	35.497218
1626.000000	35.392852
1625.000000	35.297218
1624.000000	35.171757
1623.000000	35.019642
1622.000000	34.879745
1621.000000	34.785111
1620.000000	34.731344
1619.000000	34.690071
1618.000000	34.622599
1617.000000	34.497703
1616.000000	34.353175
1615.000000	34.269622
1614.000000	34.253725
1613.000000	34.251533
1612.000000	34.239575
1611.000000	34.228751
1610.000000	34.221707
1609.000000	34.205868
1608.000000	34.189070
1607.000000	34.198607
1606.000000	34.241869
1605.000000	34.304050
1604.000000	34.368136
1603.000000	34.424122
1602.000000	34.463029
1601.000000	34.480071
1600.000000	34.491288
1599.000000	34.524693
1598.000000	34.592894
1597.000000	34.685233
1596.000000	34.786888
1595.000000	34.889559
1594.000000	34.981346
1593.000000	35.048585
1592.000000	35.092549
1591.000000	35.128453
1590.000000	35.165869
1589.000000	35.207194
1588.000000	35.261307
1587.000000	35.341936
1586.000000	35.442691
1585.000000	35.542616
1584.000000	35.630419
1583.000000	35.702526
1582.000000	35.762699
1581.000000	35.829889
1580.000000	35.928959
1579.000000	36.060917
1578.000000	36.194678
1577.000000	36.279766
1576.000000	36.298577
1575.000000	36.313402
1574.000000	36.377900
1573.000000	36.467869
1572.000000	36.542712
1571.000000	36.596762
1570.000000	36.632267
1569.000000	36.659541
1568.000000	36.719806
1567.000000	36.831670
1566.000000	36.967609
1565.000000	37.104794
1564.000000	37.250613
1563.000000	37.404781
1562.000000	37.555046
1561.000000	37.674923
1560.000000	37.821264
1559.000000	37.907952
1558.000000	37.880121
1557.000000	37.942788
1556.000000	38.091102
1555.000000	38.225578
1554.000000	38.349469
1553.000000	38.486277
1552.000000	38.636570
1551.000000	38.783196
1550.000000	38.933343
1549.000000	39.103018
1548.000000	39.315709
1547.000000	39.584316
1546.000000	39.913745
1545.000000	40.289535
1544.000000	40.662678
1543.000000	41.004825
1542.000000	41.332432
1541.000000	41.628076
1540.000000	41.806038
1539.000000	41.932990
1538.000000	42.174674
1537.000000	42.507893
1536.000000	42.853254
1535.000000	43.202329
1534.000000	43.556999
1533.000000	43.886815
1532.000000	44.186916
1531.000000	44.514577
1530.000000	44.904400
1529.000000	45.352242
1528.000000	45.844596
1527.000000	46.366626
1526.000000	46.899486
1525.000000	47.419198
1524.000000	47.900743
1523.000000	48.340283
1522.000000	48.739248
1521.000000	49.098309
1520.000000	49.473801
1519.000000	49.916412
1518.000000	50.407271
1517.000000	50.882753
1516.000000	51.292598
1515.000000	51.653511
1514.000000	51.999443
1513.000000	52.351161
1512.000000	52.752793
1511.000000	53.242863
1510.000000	53.816885
1509.000000	54.421629
1508.000000	54.995246
1507.000000	55.359135
1506.000000	55.482675
1505.000000	55.651560
1504.000000	55.950113
1503.000000	56.291037
1502.000000	56.654850
1501.000000	57.045401
1500.000000	57.482893
1499.000000	57.970771
1498.000000	58.472641
1497.000000	58.905467
1496.000000	59.242866
1495.000000	59.558071
1494.000000	59.886377
1493.000000	60.198466
1492.000000	60.507027
1491.000000	60.877441
1490.000000	61.285780
1489.000000	61.606139
1488.000000	61.803882
1487.000000	61.960468
1486.000000	62.101957
1485.000000	62.192152
1484.000000	62.226967
1483.000000	62.226627
1482.000000	62.189905
1481.000000	62.098299
1480.000000	61.978022
1479.000000	61.867588
1478.000000	61.739356
1477.000000	61.516076
1476.000000	61.162844
1475.000000	60.660421
1474.000000	59.877248
1473.000000	58.637803
1472.000000	57.043380
1471.000000	55.441355
1470.000000	53.943509
1469.000000	52.387812
1468.000000	50.631076
1467.000000	48.562375
1466.000000	45.995889
1465.000000	42.863860
1464.000000	39.510564
1463.000000	36.414427
1462.000000	33.689705
1461.000000	31.199311
1460.000000	28.839772
1459.000000	26.505510
1458.000000	23.973428
1457.000000	21.280049
1456.000000	19.057527
1455.000000	17.694612
1454.000000	16.909899
1453.000000	16.406456
1452.000000	16.151943
1451.000000	16.200994
1450.000000	16.546120
1449.000000	17.166180
1448.000000	18.076934
1447.000000	19.219864
1446.000000	20.458944
1445.000000	21.731908
1444.000000	23.069734
1443.000000	24.487657
1442.000000	25.942603
1441.000000	27.385890
1440.000000	28.799733
1439.000000	30.205842
1438.000000	31.688428
1437.000000	33.327823
1436.000000	35.022939
1435.000000	36.554615
1434.000000	37.862978
1433.000000	39.053651
1432.000000	40.226298
1431.000000	41.387098
1430.000000	42.481786
1429.000000	43.466725
1428.000000	44.327396
1427.000000	45.059725
1426.000000	45.676802
1425.000000	46.220311
1424.000000	46.707144
1423.000000	47.125845
1422.000000	47.495398
1421.000000	47.876941
1420.000000	48.338882
1419.000000	48.876403
1418.000000	49.422132
1417.000000	49.950597
1416.000000	50.470686
1415.000000	50.993833
1414.000000	51.553756
1413.000000	52.187710
1412.000000	52.892960
1411.000000	53.633704
1410.000000	54.393146
1409.000000	55.169419
1408.000000	55.939190
1407.000000	56.661875
1406.000000	57.313801
1405.000000	57.903671
1404.000000	58.439883
1403.000000	58.931506
1402.000000	59.411195
1401.000000	59.923145
1400.000000	60.479744
1399.000000	61.033641
1398.000000	61.531053
1397.000000	61.948683
1396.000000	62.263894
1395.000000	62.461269
1394.000000	62.598408
1393.000000	62.777816
1392.000000	63.024827
1391.000000	63.293868
1390.000000	63.559543
1389.000000	63.817461
1388.000000	64.029087
1387.000000	64.139182
1386.000000	64.160128
1385.000000	64.161695
1384.000000	64.177556
1383.000000	64.208529
1382.000000	64.266679
1381.000000	64.350380
1380.000000	64.417206
1379.000000	64.421520
1378.000000	64.366266
1377.000000	64.277482
1376.000000	64.147607
1375.000000	63.943717
1374.000000	63.678773
1373.000000	63.432945
1372.000000	63.269445
1371.000000	63.175817
1370.000000	63.104484
1369.000000	63.012273
1368.000000	62.859058
1367.000000	62.629358
1366.000000	62.345030
1365.000000	62.024401
1364.000000	61.643132
1363.000000	61.159401
1362.000000	60.588609
1361.000000	60.002934
1360.000000	59.444124
1359.000000	58.907034
1358.000000	58.399568
1357.000000	57.959409
1356.000000	57.628258
1355.000000	57.443969
1354.000000	57.444630
1353.000000	57.637892
1352.000000	57.971762
1351.000000	58.352499
1350.000000	58.677814
1349.000000	58.853280
1348.000000	58.794113
1347.000000	58.448235
1346.000000	57.813967
1345.000000	56.926174
1344.000000	55.833838
1343.000000	54.579982
1342.000000	53.182574
1341.000000	51.613857
1340.000000	49.820848
1339.000000	47.798640
1338.000000	45.608223
1337.000000	43.305418
1336.000000	40.901556
1335.000000	38.404909
1334.000000	35.852351
1333.000000	33.287882
1332.000000	30.754781
1331.000000	28.318583
1330.000000	26.061622
1329.000000	24.042328
1328.000000	22.281714
1327.000000	20.774762
1326.000000	19.486231
1325.000000	18.352616
1324.000000	17.314007
1323.000000	16.348629
1322.000000	15.458179
1321.000000	14.638831
1320.000000	13.898581
1319.000000	13.281891
1318.000000	12.856157
1317.000000	12.674828
1316.000000	12.767297
1315.000000	13.152207
1314.000000	13.823136
1313.000000	14.738653
1312.000000	15.843129
1311.000000	17.086852
1310.000000	18.427531
1309.000000	19.818045
1308.000000	21.211116
1307.000000	22.572450
1306.000000	23.880663
1305.000000	25.123080
1304.000000	26.296217
1303.000000	27.406806
1302.000000	28.464911
1301.000000	29.474736
1300.000000	30.429476
1299.000000	31.314826
1298.000000	32.113313
1297.000000	32.809458
1296.000000	33.406500
1295.000000	33.943308
1294.000000	34.491243
1293.000000	35.127254
1292.000000	35.904799
1291.000000	36.840524
1290.000000	37.917401
1289.000000	39.093292
1288.000000	40.314136
1287.000000	41.536021
1286.000000	42.741130
1285.000000	43.932259
1284.000000	45.112289
1283.000000	46.273472
1282.000000	47.399397
1281.000000	48.464331
1280.000000	49.429379
1279.000000	50.257380
1278.000000	50.940322
1277.000000	51.502761
1276.000000	51.986477
1275.000000	52.441546
1274.000000	52.923395
1273.000000	53.475071
1272.000000	54.102375
1271.000000	54.778194
1270.000000	55.469458
1269.000000	56.149721
1268.000000	56.795246
1267.000000	57.393426
1266.000000	57.959939
1265.000000	58.529185
1264.000000	59.123171
1263.000000	59.740267
1262.000000	60.364948
1261.000000	60.968407
1260.000000	61.502841
1259.000000	61.922573
1258.000000	62.220962
1257.000000	62.426631
1256.000000	62.570984
1255.000000	62.678276
1254.000000	62.772534
1253.000000	62.866887
1252.000000	62.939492
1251.000000	62.943679
1250.000000	62.844031
1249.000000	62.627895
1248.000000	62.297024
1247.000000	61.868224
1246.000000	61.380905
1245.000000	60.879396
1244.000000	60.379766
1243.000000	59.868598
1242.000000	59.322547
1241.000000	58.715253
1240.000000	58.018617
1239.000000	57.221688
1238.000000	56.353905
1237.000000	55.474494
1236.000000	54.641932
1235.000000	53.900606
1234.000000	53.281255
1233.000000	52.790693
1232.000000	52.404025
1231.000000	52.081150
1230.000000	51.791761
1229.000000	51.527677
1228.000000	51.296360
1227.000000	51.119331
1226.000000	51.033327
1225.000000	51.071425
1224.000000	51.243536
1223.000000	51.532671
1222.000000	51.906238
1221.000000	52.325749
1220.000000	52.750008
1219.000000	53.152196
1218.000000	53.536415
1217.000000	53.930959
1216.000000	54.366736
1215.000000	54.863351
1214.000000	55.428312
1213.000000	56.050412
1212.000000	56.692424
1211.000000	57.306260
1210.000000	57.862539
1209.000000	58.361458
1208.000000	58.821057
1207.000000	59.270532
1206.000000	59.749395
1205.000000	60.289600
1204.000000	60.889621
1203.000000	61.514244
1202.000000	62.119267
1201.000000	62.667040
1200.000000	63.129385
1199.000000	63.500419
1198.000000	63.812852
1197.000000	64.125191
1196.000000	64.485443
1195.000000	64.913884
1194.000000	65.408270
1193.000000	65.942271
1192.000000	66.461243
1191.000000	66.903794
1190.000000	67.240822
1189.000000	67.485809
1188.000000	67.673668
1187.000000	67.848941
1186.000000	68.064289
1185.000000	68.360093
1184.000000	68.733477
1183.000000	69.137132
1182.000000	69.510945
1181.000000	69.806481
1180.000000	69.996515
1179.000000	70.090766
1178.000000	70.143872
1177.000000	70.225188
1176.000000	70.374105
1175.000000	70.591366
1174.000000	70.858191
1173.000000	71.140229
1172.000000	71.383303
1171.000000	71.535928
1170.000000	71.587145
1169.000000	71.569901
1168.000000	71.530780
1167.000000	71.513551
1166.000000	71.559077
1165.000000	71.688171
1164.000000	71.877232
1163.000000	72.067936
1162.000000	72.206950
1161.000000	72.266349
1160.000000	72.238596
1159.000000	72.141786
1158.000000	72.029105
1157.000000	71.965275
1156.000000	71.984477
1155.000000	72.079340
1154.000000	72.220615
1153.000000	72.365826
1152.000000	72.458995
1151.000000	72.455755
1150.000000	72.360045
1149.000000	72.220750
1148.000000	72.092884
1147.000000	72.016337
1146.000000	72.017707
1145.000000	72.098643
1144.000000	72.218370
1143.000000	72.310024
1142.000000	72.323843
1141.000000	72.247023
1140.000000	72.093396
1139.000000	71.899844
1138.000000	71.727591
1137.000000	71.635866
1136.000000	71.642804
1135.000000	71.719471
1134.000000	71.815999
1133.000000	71.877671
1132.000000	71.849199
1131.000000	71.698452
1130.000000	71.445291
1129.000000	71.150720
1128.000000	70.875519
1127.000000	70.659413
1126.000000	70.524128
1125.000000	70.462830
1124.000000	70.426123
1123.000000	70.341557
1122.000000	70.157179
1121.000000	69.860405
1120.000000	69.464018
1119.000000	68.999831
1118.000000	68.519392
1117.000000	68.070400
1116.000000	67.664491
1115.000000	67.273326
1114.000000	66.854379
1113.000000	66.366837
1112.000000	65.772931
1111.000000	65.055770
1110.000000	64.235931
1109.000000	63.357317
1108.000000	62.454136
1107.000000	61.535883
1106.000000	60.596190
1105.000000	59.609160
1104.000000	58.526955
1103.000000	57.302966
1102.000000	55.918722
1101.000000	54.389162
1100.000000	52.744872
1099.000000	51.019859
1098.000000	49.247191
1097.000000	47.439668
1096.000000	45.582090
1095.000000	43.642905
1094.000000	41.593956
1093.000000	39.423726
1092.000000	37.142086
1091.000000	34.786818
1090.000000	32.415835
1089.000000	30.088699
1088.000000	27.854566
1087.000000	25.750806
1086.000000	23.795402
1085.000000	21.987114
1084.000000	20.323328
1083.000000	18.805417
1082.000000	17.436045
1081.000000	16.212320
1080.000000	15.134033
1079.000000	14.208070
1078.000000	13.426298
1077.000000	12.765928
1076.000000	12.204230
1075.000000	11.723753
1074.000000	11.305520
1073.000000	10.926581
1072.000000	10.579080
1071.000000	10.271287
1070.000000	10.008117
1069.000000	9.788085
1068.000000	9.614258
1067.000000	9.495596
1066.000000	9.431055
1065.000000	9.407713
1064.000000	9.420473
1063.000000	9.473942
1062.000000	9.568816
1061.000000	9.701143
1060.000000	9.875469
1059.000000	10.105083
1058.000000	10.392632
1057.000000	10.728226
1056.000000	11.105245
1055.000000	11.521178
1054.000000	11.966098
1053.000000	12.423862
1052.000000	12.890229
1051.000000	13.376401
1050.000000	13.891853
1049.000000	14.440482
1048.000000	15.028809
1047.000000	15.663121
1046.000000	16.337164
1045.000000	17.033829
1044.000000	17.742194
1043.000000	18.461144
1042.000000	19.191257
1041.000000	19.936240
1040.000000	20.708777
1039.000000	21.525874
1038.000000	22.394035
1037.000000	23.305335
1036.000000	24.245568
1035.000000	25.196118
1034.000000	26.133992
1033.000000	27.041419
1032.000000	27.919174
1031.000000	28.786739
1030.000000	29.668816
1029.000000	30.583940
1028.000000	31.539092
1027.000000	32.526009
1026.000000	33.520343
1025.000000	34.489992
1024.000000	35.407987
1023.000000	36.263114
1022.000000	37.065023
1021.000000	37.840462
1020.000000	38.622548
1019.000000	39.436970
1018.000000	40.291633
1017.000000	41.173386
1016.000000	42.050392
1015.000000	42.884474
1014.000000	43.649007
1013.000000	44.340552
1012.000000	44.978246
1011.000000	45.596057
1010.000000	46.232912
1009.000000	46.916669
1008.000000	47.647761
1007.000000	48.399037
1006.000000	49.130177
1005.000000	49.804075
1004.000000	50.397382
1003.000000	50.910514
1002.000000	51.373983
1001.000000	51.836415
1000.000000	52.340102
999.000000	52.904662
998.000000	53.524161
997.000000	54.168916
996.000000	54.789704
995.000000	55.337583
994.000000	55.791711
993.000000	56.167591
992.000000	56.503342
991.000000	56.845324
990.000000	57.238126
989.000000	57.706924
988.000000	58.238660
987.000000	58.787621
986.000000	59.301237
985.000000	59.741165
984.000000	60.090914
983.000000	60.363319
982.000000	60.604705
981.000000	60.875266
980.000000	61.214628
979.000000	61.626747
978.000000	62.087620
977.000000	62.554246
976.000000	62.971117
975.000000	63.293315
974.000000	63.517312
973.000000	63.682839
972.000000	63.846182
971.000000	64.057850
970.000000	64.353040
969.000000	64.737762
968.000000	65.174469
967.000000	65.595362
966.000000	65.939649
965.000000	66.178319
964.000000	66.315069
963.000000	66.385718
962.000000	66.456163
961.000000	66.595841
960.000000	66.837965
959.000000	67.168177
958.000000	67.541973
957.000000	67.901088
956.000000	68.183527
955.000000	68.348486
954.000000	68.406262
953.000000	68.414021
952.000000	68.439106
951.000000	68.531628
950.000000	68.717981
949.000000	68.992407
948.000000	69.306543
947.000000	69.587316
946.000000	69.779979
945.000000	69.871560
944.000000	69.883285
943.000000	69.861533
942.000000	69.871015
941.000000	69.967585
940.000000	70.162536
939.000000	70.418440
938.000000	70.676143
937.000000	70.878163
936.000000	70.979422
935.000000	70.966461
934.000000	70.877377
933.000000	70.786378
932.000000	70.759208
931.000000	70.827304
930.000000	70.988972
929.000000	71.209104
928.000000	71.417795
927.000000	71.537158
926.000000	71.527550
925.000000	71.403702
924.000000	71.214660
923.000000	71.023919
922.000000	70.897956
921.000000	70.881022
920.000000	70.964423
919.000000	71.088604
918.000000	71.179534
917.000000	71.178270
916.000000	71.051378
915.000000	70.804147
914.000000	70.491085
913.000000	70.191781
912.000000	69.963953
911.000000	69.823083
910.000000	69.750382
909.000000	69.698997
908.000000	69.599386
907.000000	69.387786
906.000000	69.046737
905.000000	68.610796
904.000000	68.135970
903.000000	67.676161
902.000000	67.274631
901.000000	66.947133
900.000000	66.661791
899.000000	66.349915
898.000000	65.948259
897.000000	65.424397
896.000000	64.777418
895.000000	64.037767
894.000000	63.264778
893.000000	62.521474
892.000000	61.836941
891.000000	61.195636
890.000000	60.553860
889.000000	59.854670
888.000000	59.041001
887.000000	58.078716
886.000000	56.980704
885.000000	55.799760
884.000000	54.594454
883.000000	53.407951
882.000000	52.261296
881.000000	51.145580
880.000000	50.018888
879.000000	48.824213
878.000000	47.522375
877.000000	46.107813
876.000000	44.604436
875.000000	43.056465
874.000000	41.515495
873.000000	40.021105
872.000000	38.584946
871.000000	37.191736
870.000000	35.813023
869.000000	34.421151
868.000000	32.999885
867.000000	31.551901
866.000000	30.099117
865.000000	28.672736
864.000000	27.302646
863.000000	26.007546
862.000000	24.788746
861.000000	23.633658
860.000000	22.526067
859.000000	21.459336
858.000000	20.441532
857.000000	19.497985
856.000000	18.672089
855.000000	18.007533
854.000000	17.530400
853.000000	17.238768
852.000000	17.104858
851.000000	17.082106
850.000000	17.109967
849.000000	17.134471
848.000000	17.127133
847.000000	17.086738
846.000000	17.029615
845.000000	16.980501
844.000000	16.969009
843.000000	17.019254
842.000000	17.138446
841.000000	17.319989
840.000000	17.553260
839.000000	17.828784
838.000000	18.139355
837.000000	18.484185
836.000000	18.873016
835.000000	19.316648
834.000000	19.816757
833.000000	20.366626
832.000000	20.957850
831.000000	21.585010
830.000000	22.246030
829.000000	22.944422
828.000000	23.687647
827.000000	24.479210
826.000000	25.317455
825.000000	26.200112
824.000000	27.124885
823.000000	28.082897
822.000000	29.055762
821.000000	30.019768
820.000000	30.948908
819.000000	31.820126
818.000000	32.625979
817.000000	33.382998
816.000000	34.121681
815.000000	34.869409
814.000000	35.641927
813.000000	36.440209
812.000000	37.246968
811.000000	38.029527
810.000000	38.757675
809.000000	39.420910
808.000000	40.029179
807.000000	40.607539
806.000000	41.193448
805.000000	41.825785
804.000000	42.522647
803.000000	43.270135
802.000000	44.035637
801.000000	44.784787
800.000000	45.486655
799.000000	46.121094
798.000000	46.695156
797.000000	47.244431
796.000000	47.808703
795.000000	48.409545
794.000000	49.049691
793.000000	49.716146
792.000000	50.377031
791.000000	50.990168
790.000000	51.529881
789.000000	52.002131
788.000000	52.433465
787.000000	52.858201
786.000000	53.315140
785.000000	53.833156
784.000000	54.406855
783.000000	54.993822
782.000000	55.542735
781.000000	56.017429
780.000000	56.399298
779.000000	56.691705
778.000000	56.932674
777.000000	57.185337
776.000000	57.501075
775.000000	57.895163
774.000000	58.354126
773.000000	58.846113
772.000000	59.320836
771.000000	59.724087
770.000000	60.031337
769.000000	60.261588
768.000000	60.456294
767.000000	60.658311
766.000000	60.908097
765.000000	61.232056
764.000000	61.619481
763.000000	62.022730
762.000000	62.390056
761.000000	62.690681
760.000000	62.913119
759.000000	63.066207
758.000000	63.190464
757.000000	63.344281
756.000000	63.563403
755.000000	63.841240
754.000000	64.148006
753.000000	64.448655
752.000000	64.701165
751.000000	64.867383
750.000000	64.944444
749.000000	64.972714
748.000000	65.004261
747.000000	65.075760
746.000000	65.208936
745.000000	65.407466
744.000000	65.640001
743.000000	65.846791
742.000000	65.979048
741.000000	66.023816
740.000000	65.993336
739.000000	65.916365
738.000000	65.844470
737.000000	65.836235
736.000000	65.916551
735.000000	66.062897
734.000000	66.235879
733.000000	66.403402
732.000000	66.535113
731.000000	66.607568
730.000000	66.634473
729.000000	66.669800
728.000000	66.767385
727.000000	66.950888
726.000000	67.220944
725.000000	67.561740
724.000000	67.927846
723.000000	68.252973
722.000000	68.493986
721.000000	68.656570
720.000000	68.775279
719.000000	68.892931
718.000000	69.062513
717.000000	69.332542
716.000000	69.706568
715.000000	70.132689
714.000000	70.544089
713.000000	70.893285
712.000000	71.148056
711.000000	71.293328
710.000000	71.358870
709.000000	71.417275
708.000000	71.534045
707.000000	71.732757
706.000000	72.008020
705.000000	72.340019
704.000000	72.683336
703.000000	72.974112
702.000000	73.176896
701.000000	73.308445
700.000000	73.405329
699.000000	73.497780
698.000000	73.619464
697.000000	73.804328
696.000000	74.048665
695.000000	74.299828
694.000000	74.505303
693.000000	74.651189
692.000000	74.742967
691.000000	74.790989
690.000000	74.833244
689.000000	74.935746
688.000000	75.137035
687.000000	75.410676
686.000000	75.703638
685.000000	75.973522
684.000000	76.171324
683.000000	76.242991
682.000000	76.187378
681.000000	76.079465
680.000000	76.009558
679.000000	76.028619
678.000000	76.165786
677.000000	76.432095
676.000000	76.777244
675.000000	77.103324
674.000000	77.334206
673.000000	77.451900
672.000000	77.480277
671.000000	77.466912
670.000000	77.482882
669.000000	77.599519
668.000000	77.786588
667.000000	77.935906
666.000000	78.042303
665.000000	78.144413
664.000000	78.239382
663.000000	78.303213
662.000000	78.322574
661.000000	78.317699
660.000000	78.327326
659.000000	78.385653
658.000000	78.511542
657.000000	78.691625
656.000000	78.874458
655.000000	79.007084
654.000000	79.062172
653.000000	79.041231
652.000000	78.979511
651.000000	78.943125
650.000000	79.000241
649.000000	79.177427
648.000000	79.445019
647.000000	79.735738
646.000000	79.970937
645.000000	80.086255
644.000000	80.053477
643.000000	79.898391
642.000000	79.702163
641.000000	79.565155
640.000000	79.559552
639.000000	79.708619
638.000000	79.985402
637.000000	80.316440
636.000000	80.599690
635.000000	80.743618
634.000000	80.714805
633.000000	80.552794
632.000000	80.341274
631.000000	80.173710
630.000000	80.127946
629.000000	80.235658
628.000000	80.462998
627.000000	80.727059
626.000000	80.938559
625.000000	81.039607
624.000000	81.016845
623.000000	80.905756
622.000000	80.785882
621.000000	80.744240
620.000000	80.824834
619.000000	81.011641
618.000000	81.248304
617.000000	81.460248
616.000000	81.571377
615.000000	81.539625
614.000000	81.395012
613.000000	81.228545
612.000000	81.135325
611.000000	81.172469
610.000000	81.353240
609.000000	81.642097
608.000000	81.949874
607.000000	82.164483
606.000000	82.214184
605.000000	82.102610
604.000000	81.889429
603.000000	81.661877
602.000000	81.517365
601.000000	81.523509
600.000000	81.669749
599.000000	81.868349
598.000000	82.011261
597.000000	82.019718
596.000000	81.858698
595.000000	81.555783
594.000000	81.218901
593.000000	80.991921
592.000000	80.968767
591.000000	81.155028
590.000000	81.494486
589.000000	81.900415
588.000000	82.263160
587.000000	82.477219
586.000000	82.502301
585.000000	82.391977
584.000000	82.251563
583.000000	82.183333
582.000000	82.262747
581.000000	82.511956
580.000000	82.869926
579.000000	83.214561
578.000000	83.437218
577.000000	83.485865
576.000000	83.357361
575.000000	83.105632
574.000000	82.857226
573.000000	82.753713
572.000000	82.859347
571.000000	83.132694
570.000000	83.471422
569.000000	83.762302
568.000000	83.900889
567.000000	83.827246
566.000000	83.585205
565.000000	83.309628
564.000000	83.130111
563.000000	83.108102
562.000000	83.246962
561.000000	83.504507
560.000000	83.782885
559.000000	83.954103
558.000000	83.941651
557.000000	83.766508
556.000000	83.509776
555.000000	83.269785
554.000000	83.155026
553.000000	83.246661
552.000000	83.531521
551.000000	83.891204
550.000000	84.179947
549.000000	84.302731
548.000000	84.224755
547.000000	83.969395
546.000000	83.645306
545.000000	83.418201
544.000000	83.408885
543.000000	83.628589
542.000000	83.999744
541.000000	84.397729
540.000000	84.676005
539.000000	84.717526
538.000000	84.515299
537.000000	84.184046
536.000000	83.875142
535.000000	83.704365
534.000000	83.743527
533.000000	84.002523
532.000000	84.390946
531.000000	84.740232
530.000000	84.912127
529.000000	84.873726
528.000000	84.666080
527.000000	84.363298
526.000000	84.085373
525.000000	83.970895
524.000000	84.076595
523.000000	84.329471
522.000000	84.597176
521.000000	84.764338
520.000000	84.743966
519.000000	84.492100
518.000000	84.060344
517.000000	83.595757
516.000000	83.245224
515.000000	83.071015
514.000000	83.047367
513.000000	83.074402
512.000000	82.991515
511.000000	82.646265
510.000000	82.006271
509.000000	81.172566
508.000000	80.284279
507.000000	79.465725
506.000000	78.834844
505.000000	78.461870
504.000000	78.296856
503.000000	78.175538
502.000000	77.927573
501.000000	77.493862
500.000000	76.937746
499.000000	76.378935
498.000000	75.971582
497.000000	75.872937
496.000000	76.162666
495.000000	76.797118
494.000000	77.640303
493.000000	78.514169
492.000000	79.232042
491.000000	79.672932
490.000000	79.868603
489.000000	79.981889
488.000000	80.183838
487.000000	80.568551
486.000000	81.147793
485.000000	81.843884
484.000000	82.479651
483.000000	82.849896
482.000000	82.865860
481.000000	82.605172
480.000000	82.223945
479.000000	81.876973
478.000000	81.711042
477.000000	81.834449
476.000000	82.237543
475.000000	82.772845
474.000000	83.240410
473.000000	83.470976
472.000000	83.384274
471.000000	83.069007
470.000000	82.760949
469.000000	82.689171
468.000000	82.955743
467.000000	83.503528
466.000000	84.181171
465.000000	84.824207
464.000000	85.269775
463.000000	85.378432
462.000000	85.149206
461.000000	84.766092
460.000000	84.457042
459.000000	84.370265
458.000000	84.563779
457.000000	84.989182
456.000000	85.483836
455.000000	85.840152
454.000000	85.932933
453.000000	85.771718
452.000000	85.450980
451.000000	85.108926
450.000000	84.917852
449.000000	85.027792
448.000000	85.448864
447.000000	85.998890
446.000000	86.445331
445.000000	86.664851
444.000000	86.618747
443.000000	86.308555
442.000000	85.870932
441.000000	85.578104
440.000000	85.622958
439.000000	85.986705
438.000000	86.536651
437.000000	87.116818
436.000000	87.512584
435.000000	87.504700
434.000000	87.089268
433.000000	86.509093
432.000000	86.030204
431.000000	85.802756
430.000000	85.906552
429.000000	86.368504
428.000000	87.060151
427.000000	87.674168
426.000000	87.935547
425.000000	87.798808
424.000000	87.375329
423.000000	86.815763
422.000000	86.335020
421.000000	86.183277
420.000000	86.480328
419.000000	86.966430
418.000000	87.189351
417.000000	87.141337
416.000000	86.969489
415.000000	86.631663
414.000000	86.179701
413.000000	85.883737
412.000000	85.948451
411.000000	86.300287
410.000000	86.754001
409.000000	87.203992
408.000000	87.531401
407.000000	87.526854
406.000000	87.140536
405.000000	86.636132
404.000000	86.307494
403.000000	86.134763
402.000000	86.216571
401.000000	86.644867
400.000000	87.374056
