PE IR       SUBTECH     SPECTRUM    ASCII       PEDS        4.00        
   -1
23ms265_nitro.asc
24/09/09
16:28:20.00
24/09/09
16:28:20.00
Administrator
Sample 1142 By Administrator Date Monday, September 09 2024
400.000000
#HDR
-1
-1
#GR
cm-1
%T
1.0
0.0
4000.000000
-1.000000
3601
8
80.972828
4.351546
#DATA
4000.000000	40.424032
3999.000000	40.458029
3998.000000	40.492951
3997.000000	40.528381
3996.000000	40.563186
3995.000000	40.596166
3994.000000	40.627052
3993.000000	40.656563
3992.000000	40.685564
3991.000000	40.714627
3990.000000	40.744339
3989.000000	40.775520
3988.000000	40.808558
3987.000000	40.842709
3986.000000	40.876477
3985.000000	40.908493
3984.000000	40.938026
3983.000000	40.964977
3982.000000	40.989945
3981.000000	41.014331
3980.000000	41.039943
3979.000000	41.068060
3978.000000	41.098599
3977.000000	41.130222
3976.000000	41.161266
3975.000000	41.190553
3974.000000	41.217662
3973.000000	41.243045
3972.000000	41.267703
3971.000000	41.292705
3970.000000	41.318651
3969.000000	41.345650
3968.000000	41.373406
3967.000000	41.401219
3966.000000	41.428270
3965.000000	41.454055
3964.000000	41.478630
3963.000000	41.502371
3962.000000	41.525880
3961.000000	41.550057
3960.000000	41.575682
3959.000000	41.602838
3958.000000	41.630680
3957.000000	41.658417
3956.000000	41.685838
3955.000000	41.712702
3954.000000	41.738670
3953.000000	41.763485
3952.000000	41.787489
3951.000000	41.811555
3950.000000	41.836477
3949.000000	41.862186
3948.000000	41.887864
3947.000000	41.913580
3946.000000	41.940635
3945.000000	41.969454
3944.000000	41.998080
3943.000000	42.024207
3942.000000	42.048958
3941.000000	42.076260
3940.000000	42.107718
3939.000000	42.140861
3938.000000	42.171740
3937.000000	42.198989
3936.000000	42.224445
3935.000000	42.249543
3934.000000	42.274123
3933.000000	42.297781
3932.000000	42.321845
3931.000000	42.347876
3930.000000	42.374889
3929.000000	42.401660
3928.000000	42.429011
3927.000000	42.458474
3926.000000	42.487933
3925.000000	42.512653
3924.000000	42.532478
3923.000000	42.552062
3922.000000	42.573571
3921.000000	42.595269
3920.000000	42.616996
3919.000000	42.642400
3918.000000	42.673025
3917.000000	42.705175
3916.000000	42.735261
3915.000000	42.764186
3914.000000	42.794129
3913.000000	42.825318
3912.000000	42.856516
3911.000000	42.887713
3910.000000	42.918285
3909.000000	42.946518
3908.000000	42.971596
3907.000000	42.992912
3906.000000	43.008505
3905.000000	43.014094
3904.000000	43.010343
3903.000000	43.007767
3902.000000	43.017798
3901.000000	43.041922
3900.000000	43.072581
3899.000000	43.104200
3898.000000	43.137802
3897.000000	43.174250
3896.000000	43.209466
3895.000000	43.241526
3894.000000	43.273478
3893.000000	43.308524
3892.000000	43.340777
3891.000000	43.361939
3890.000000	43.375709
3889.000000	43.394010
3888.000000	43.422394
3887.000000	43.452636
3886.000000	43.471576
3885.000000	43.480817
3884.000000	43.495364
3883.000000	43.522179
3882.000000	43.552790
3881.000000	43.576316
3880.000000	43.592844
3879.000000	43.612752
3878.000000	43.643282
3877.000000	43.680498
3876.000000	43.712936
3875.000000	43.730303
3874.000000	43.735101
3873.000000	43.744349
3872.000000	43.770193
3871.000000	43.801617
3870.000000	43.819382
3869.000000	43.828608
3868.000000	43.850403
3867.000000	43.887844
3866.000000	43.922512
3865.000000	43.942772
3864.000000	43.959967
3863.000000	43.989752
3862.000000	44.028826
3861.000000	44.065461
3860.000000	44.094625
3859.000000	44.118716
3858.000000	44.142404
3857.000000	44.170280
3856.000000	44.204529
3855.000000	44.232492
3854.000000	44.233995
3853.000000	44.222136
3852.000000	44.232859
3851.000000	44.271550
3850.000000	44.316608
3849.000000	44.355085
3848.000000	44.390762
3847.000000	44.432274
3846.000000	44.478754
3845.000000	44.521415
3844.000000	44.551425
3843.000000	44.566981
3842.000000	44.575620
3841.000000	44.588160
3840.000000	44.606272
3839.000000	44.625458
3838.000000	44.645303
3837.000000	44.668543
3836.000000	44.695646
3835.000000	44.723887
3834.000000	44.752304
3833.000000	44.782078
3832.000000	44.813658
3831.000000	44.848993
3830.000000	44.891108
3829.000000	44.939483
3828.000000	44.986249
3827.000000	45.019986
3826.000000	45.036801
3825.000000	45.048327
3824.000000	45.068912
3823.000000	45.098421
3822.000000	45.119874
3821.000000	45.122265
3820.000000	45.122889
3819.000000	45.143574
3818.000000	45.182706
3817.000000	45.220101
3816.000000	45.244155
3815.000000	45.269818
3814.000000	45.314256
3813.000000	45.366486
3812.000000	45.404022
3811.000000	45.425291
3810.000000	45.449745
3809.000000	45.490887
3808.000000	45.535444
3807.000000	45.559992
3806.000000	45.565275
3805.000000	45.573542
3804.000000	45.595404
3803.000000	45.621120
3802.000000	45.633176
3801.000000	45.635788
3800.000000	45.654676
3799.000000	45.696601
3798.000000	45.742975
3797.000000	45.777438
3796.000000	45.804131
3795.000000	45.838340
3794.000000	45.885203
3793.000000	45.934126
3792.000000	45.974549
3791.000000	46.007835
3790.000000	46.040522
3789.000000	46.074464
3788.000000	46.107617
3787.000000	46.138654
3786.000000	46.166719
3785.000000	46.189787
3784.000000	46.208117
3783.000000	46.227768
3782.000000	46.254203
3781.000000	46.285541
3780.000000	46.314921
3779.000000	46.340777
3778.000000	46.368934
3777.000000	46.403027
3776.000000	46.437225
3775.000000	46.463768
3774.000000	46.484397
3773.000000	46.508798
3772.000000	46.540736
3771.000000	46.571814
3770.000000	46.594197
3769.000000	46.613724
3768.000000	46.640726
3767.000000	46.674710
3766.000000	46.705882
3765.000000	46.728528
3764.000000	46.749441
3763.000000	46.778517
3762.000000	46.813848
3761.000000	46.845575
3760.000000	46.870613
3759.000000	46.895978
3758.000000	46.923307
3757.000000	46.945454
3756.000000	46.960045
3755.000000	46.971526
3754.000000	46.983211
3753.000000	46.994146
3752.000000	47.005911
3751.000000	47.023042
3750.000000	47.041008
3749.000000	47.052051
3748.000000	47.063631
3747.000000	47.092599
3746.000000	47.140050
3745.000000	47.181153
3744.000000	47.207483
3743.000000	47.247429
3742.000000	47.308118
3741.000000	47.361200
3740.000000	47.389010
3739.000000	47.406665
3738.000000	47.437197
3737.000000	47.479088
3736.000000	47.516321
3735.000000	47.547037
3734.000000	47.583620
3733.000000	47.627963
3732.000000	47.670569
3731.000000	47.710112
3730.000000	47.753737
3729.000000	47.803707
3728.000000	47.852977
3727.000000	47.893302
3726.000000	47.928116
3725.000000	47.967481
3724.000000	48.012029
3723.000000	48.053465
3722.000000	48.088419
3721.000000	48.123009
3720.000000	48.162148
3719.000000	48.204051
3718.000000	48.241627
3717.000000	48.270929
3716.000000	48.296316
3715.000000	48.322484
3714.000000	48.348435
3713.000000	48.370815
3712.000000	48.391689
3711.000000	48.418698
3710.000000	48.455644
3709.000000	48.498872
3708.000000	48.542212
3707.000000	48.582697
3706.000000	48.622929
3705.000000	48.666661
3704.000000	48.714098
3703.000000	48.761236
3702.000000	48.803874
3701.000000	48.841975
3700.000000	48.878914
3699.000000	48.917242
3698.000000	48.954270
3697.000000	48.984811
3696.000000	49.009554
3695.000000	49.034444
3694.000000	49.060581
3693.000000	49.084313
3692.000000	49.105362
3691.000000	49.128672
3690.000000	49.155813
3689.000000	49.182532
3688.000000	49.208789
3687.000000	49.241163
3686.000000	49.282843
3685.000000	49.327276
3684.000000	49.367049
3683.000000	49.404204
3682.000000	49.445309
3681.000000	49.485298
3680.000000	49.511368
3679.000000	49.522607
3678.000000	49.533714
3677.000000	49.549505
3676.000000	49.553950
3675.000000	49.547226
3674.000000	49.553853
3673.000000	49.584920
3672.000000	49.627148
3671.000000	49.664992
3670.000000	49.700137
3669.000000	49.749125
3668.000000	49.815428
3667.000000	49.881950
3666.000000	49.935100
3665.000000	49.978727
3664.000000	50.024441
3663.000000	50.077710
3662.000000	50.132566
3661.000000	50.177860
3660.000000	50.210063
3659.000000	50.232979
3658.000000	50.249903
3657.000000	50.257623
3656.000000	50.255887
3655.000000	50.255726
3654.000000	50.265914
3653.000000	50.281919
3652.000000	50.292445
3651.000000	50.292056
3650.000000	50.289122
3649.000000	50.298510
3648.000000	50.324205
3647.000000	50.359402
3646.000000	50.399223
3645.000000	50.444209
3644.000000	50.494661
3643.000000	50.548459
3642.000000	50.602404
3641.000000	50.654578
3640.000000	50.702725
3639.000000	50.741333
3638.000000	50.767033
3637.000000	50.783423
3636.000000	50.796553
3635.000000	50.806020
3634.000000	50.807768
3633.000000	50.805272
3632.000000	50.807780
3631.000000	50.817801
3630.000000	50.824576
3629.000000	50.822662
3628.000000	50.830933
3627.000000	50.865570
3626.000000	50.912667
3625.000000	50.950563
3624.000000	50.975735
3623.000000	51.000006
3622.000000	51.031938
3621.000000	51.064473
3620.000000	51.083717
3619.000000	51.087235
3618.000000	51.085843
3617.000000	51.088918
3616.000000	51.097450
3615.000000	51.107799
3614.000000	51.117686
3613.000000	51.129971
3612.000000	51.150146
3611.000000	51.178985
3610.000000	51.210773
3609.000000	51.240238
3608.000000	51.268580
3607.000000	51.300791
3606.000000	51.337180
3605.000000	51.372212
3604.000000	51.402796
3603.000000	51.431598
3602.000000	51.462511
3601.000000	51.494539
3600.000000	51.523501
3599.000000	51.545622
3598.000000	51.559004
3597.000000	51.564556
3596.000000	51.567800
3595.000000	51.574827
3594.000000	51.588433
3593.000000	51.607389
3592.000000	51.627565
3591.000000	51.646043
3590.000000	51.663079
3589.000000	51.680527
3588.000000	51.700580
3587.000000	51.726225
3586.000000	51.758838
3585.000000	51.795236
3584.000000	51.830841
3583.000000	51.864943
3582.000000	51.900373
3581.000000	51.938467
3580.000000	51.976868
3579.000000	52.011640
3578.000000	52.039986
3577.000000	52.061860
3576.000000	52.079743
3575.000000	52.097685
3574.000000	52.118305
3573.000000	52.141306
3572.000000	52.163610
3571.000000	52.181944
3570.000000	52.194748
3569.000000	52.202532
3568.000000	52.208747
3567.000000	52.221037
3566.000000	52.246488
3565.000000	52.284680
3564.000000	52.329030
3563.000000	52.374347
3562.000000	52.419643
3561.000000	52.465402
3560.000000	52.510482
3559.000000	52.552454
3558.000000	52.588822
3557.000000	52.618082
3556.000000	52.641082
3555.000000	52.661635
3554.000000	52.684011
3553.000000	52.709975
3552.000000	52.739045
3551.000000	52.770360
3550.000000	52.802818
3549.000000	52.834963
3548.000000	52.866134
3547.000000	52.897852
3546.000000	52.931808
3545.000000	52.967842
3544.000000	53.004770
3543.000000	53.042203
3542.000000	53.080150
3541.000000	53.118440
3540.000000	53.157345
3539.000000	53.197219
3538.000000	53.236706
3537.000000	53.272219
3536.000000	53.301689
3535.000000	53.326968
3534.000000	53.352027
3533.000000	53.379152
3532.000000	53.408432
3531.000000	53.439441
3530.000000	53.471221
3529.000000	53.502055
3528.000000	53.531251
3527.000000	53.560916
3526.000000	53.593638
3525.000000	53.628911
3524.000000	53.663778
3523.000000	53.696835
3522.000000	53.729555
3521.000000	53.763612
3520.000000	53.798587
3519.000000	53.832369
3518.000000	53.863435
3517.000000	53.891874
3516.000000	53.918579
3515.000000	53.943542
3514.000000	53.965981
3513.000000	53.985987
3512.000000	54.005411
3511.000000	54.026828
3510.000000	54.051635
3509.000000	54.079269
3508.000000	54.108203
3507.000000	54.137282
3506.000000	54.165838
3505.000000	54.193639
3504.000000	54.221198
3503.000000	54.249468
3502.000000	54.278642
3501.000000	54.307919
3500.000000	54.336626
3499.000000	54.364243
3498.000000	54.389475
3497.000000	54.410758
3496.000000	54.428184
3495.000000	54.443391
3494.000000	54.457253
3493.000000	54.469127
3492.000000	54.478812
3491.000000	54.487808
3490.000000	54.497817
3489.000000	54.508866
3488.000000	54.519541
3487.000000	54.528345
3486.000000	54.534309
3485.000000	54.537321
3484.000000	54.539137
3483.000000	54.542894
3482.000000	54.550193
3481.000000	54.558829
3480.000000	54.563940
3479.000000	54.561579
3478.000000	54.550993
3477.000000	54.534660
3476.000000	54.516900
3475.000000	54.501646
3474.000000	54.490681
3473.000000	54.483735
3472.000000	54.479692
3471.000000	54.476529
3470.000000	54.470310
3469.000000	54.456146
3468.000000	54.431173
3467.000000	54.396529
3466.000000	54.356332
3465.000000	54.315194
3464.000000	54.276689
3463.000000	54.242426
3462.000000	54.211266
3461.000000	54.179808
3460.000000	54.144617
3459.000000	54.104283
3458.000000	54.059517
3457.000000	54.011837
3456.000000	53.962765
3455.000000	53.913132
3454.000000	53.862696
3453.000000	53.810215
3452.000000	53.754752
3451.000000	53.696506
3450.000000	53.635609
3449.000000	53.571351
3448.000000	53.503803
3447.000000	53.435312
3446.000000	53.368474
3445.000000	53.302759
3444.000000	53.234791
3443.000000	53.162231
3442.000000	53.086098
3441.000000	53.009188
3440.000000	52.933044
3439.000000	52.856639
3438.000000	52.777390
3437.000000	52.692643
3436.000000	52.600843
3435.000000	52.501685
3434.000000	52.395802
3433.000000	52.284404
3432.000000	52.168707
3431.000000	52.048985
3430.000000	51.923779
3429.000000	51.791440
3428.000000	51.652908
3427.000000	51.511572
3426.000000	51.370147
3425.000000	51.228648
3424.000000	51.085350
3423.000000	50.938254
3422.000000	50.785063
3421.000000	50.623754
3420.000000	50.454250
3419.000000	50.278524
3418.000000	50.098936
3417.000000	49.917054
3416.000000	49.733906
3415.000000	49.549479
3414.000000	49.361277
3413.000000	49.165338
3412.000000	48.959033
3411.000000	48.742021
3410.000000	48.514491
3409.000000	48.276303
3408.000000	48.028999
3407.000000	47.776688
3406.000000	47.523964
3405.000000	47.273496
3404.000000	47.024990
3403.000000	46.774736
3402.000000	46.515683
3401.000000	46.240110
3400.000000	45.944255
3399.000000	45.630543
3398.000000	45.305963
3397.000000	44.978494
3396.000000	44.653551
3395.000000	44.331849
3394.000000	44.009343
3393.000000	43.679921
3392.000000	43.338600
3391.000000	42.982746
3390.000000	42.612607
3389.000000	42.231403
3388.000000	41.844192
3387.000000	41.454929
3386.000000	41.064535
3385.000000	40.672489
3384.000000	40.278441
3383.000000	39.881431
3382.000000	39.478912
3381.000000	39.068158
3380.000000	38.648457
3379.000000	38.220875
3378.000000	37.786988
3377.000000	37.348922
3376.000000	36.909251
3375.000000	36.469807
3374.000000	36.030827
3373.000000	35.591599
3372.000000	35.150844
3371.000000	34.705877
3370.000000	34.253606
3369.000000	33.793384
3368.000000	33.327933
3367.000000	32.861008
3366.000000	32.395277
3365.000000	31.932654
3364.000000	31.474333
3363.000000	31.019345
3362.000000	30.564682
3361.000000	30.107958
3360.000000	29.649107
3359.000000	29.189346
3358.000000	28.730236
3357.000000	28.274249
3356.000000	27.824262
3355.000000	27.381332
3354.000000	26.944118
3353.000000	26.510750
3352.000000	26.079732
3351.000000	25.649347
3350.000000	25.218379
3349.000000	24.788082
3348.000000	24.361773
3347.000000	23.941805
3346.000000	23.528703
3345.000000	23.122796
3344.000000	22.724473
3343.000000	22.332703
3342.000000	21.945229
3341.000000	21.560813
3340.000000	21.179484
3339.000000	20.800934
3338.000000	20.425191
3337.000000	20.054446
3336.000000	19.691881
3335.000000	19.338315
3334.000000	18.991979
3333.000000	18.651559
3332.000000	18.316773
3331.000000	17.986502
3330.000000	17.659040
3329.000000	17.334381
3328.000000	17.014431
3327.000000	16.700593
3326.000000	16.393451
3325.000000	16.094238
3324.000000	15.803788
3323.000000	15.520467
3322.000000	15.241339
3321.000000	14.965475
3320.000000	14.694116
3319.000000	14.427808
3318.000000	14.166474
3317.000000	13.911332
3316.000000	13.664176
3315.000000	13.424975
3314.000000	13.192229
3313.000000	12.965523
3312.000000	12.745102
3311.000000	12.529714
3310.000000	12.317988
3309.000000	12.111120
3308.000000	11.912123
3307.000000	11.722723
3306.000000	11.543344
3305.000000	11.375383
3304.000000	11.219678
3303.000000	11.073931
3302.000000	10.934302
3301.000000	10.799233
3300.000000	10.669583
3299.000000	10.545540
3298.000000	10.426741
3297.000000	10.314661
3296.000000	10.211516
3295.000000	10.117546
3294.000000	10.031529
3293.000000	9.953626
3292.000000	9.884891
3291.000000	9.824084
3290.000000	9.768444
3289.000000	9.716655
3288.000000	9.669082
3287.000000	9.625761
3286.000000	9.586411
3285.000000	9.552168
3284.000000	9.524162
3283.000000	9.501188
3282.000000	9.481011
3281.000000	9.463062
3280.000000	9.447809
3279.000000	9.434362
3278.000000	9.421540
3277.000000	9.410421
3276.000000	9.402965
3275.000000	9.398923
3274.000000	9.396516
3273.000000	9.395492
3272.000000	9.397034
3271.000000	9.401212
3270.000000	9.407067
3269.000000	9.414411
3268.000000	9.423292
3267.000000	9.432618
3266.000000	9.441447
3265.000000	9.450844
3264.000000	9.462262
3263.000000	9.475006
3262.000000	9.487573
3261.000000	9.500143
3260.000000	9.513452
3259.000000	9.526517
3258.000000	9.538145
3257.000000	9.549702
3256.000000	9.563672
3255.000000	9.580382
3254.000000	9.598380
3253.000000	9.617019
3252.000000	9.636182
3251.000000	9.654476
3250.000000	9.670421
3249.000000	9.684884
3248.000000	9.700149
3247.000000	9.717249
3246.000000	9.736024
3245.000000	9.756586
3244.000000	9.778602
3243.000000	9.800225
3242.000000	9.819984
3241.000000	9.838701
3240.000000	9.857632
3239.000000	9.875971
3238.000000	9.892335
3237.000000	9.907373
3236.000000	9.922737
3235.000000	9.938770
3234.000000	9.955290
3233.000000	9.973214
3232.000000	9.992990
3231.000000	10.012659
3230.000000	10.029892
3229.000000	10.044839
3228.000000	10.058931
3227.000000	10.072282
3226.000000	10.084450
3225.000000	10.096378
3224.000000	10.109081
3223.000000	10.121607
3222.000000	10.132514
3221.000000	10.142233
3220.000000	10.151771
3219.000000	10.160373
3218.000000	10.166822
3217.000000	10.171796
3216.000000	10.176679
3215.000000	10.181246
3214.000000	10.184587
3213.000000	10.187097
3212.000000	10.189332
3211.000000	10.190184
3210.000000	10.188406
3209.000000	10.184651
3208.000000	10.180075
3207.000000	10.174267
3206.000000	10.166573
3205.000000	10.158062
3204.000000	10.149856
3203.000000	10.140955
3202.000000	10.129891
3201.000000	10.117167
3200.000000	10.103987
3199.000000	10.089897
3198.000000	10.073962
3197.000000	10.056879
3196.000000	10.039723
3195.000000	10.021945
3194.000000	10.002645
3193.000000	9.982501
3192.000000	9.962403
3191.000000	9.941531
3190.000000	9.918911
3189.000000	9.895365
3188.000000	9.871947
3187.000000	9.847964
3186.000000	9.822614
3185.000000	9.797025
3184.000000	9.772474
3183.000000	9.748174
3182.000000	9.722988
3181.000000	9.697792
3180.000000	9.673978
3179.000000	9.651122
3178.000000	9.628238
3177.000000	9.605838
3176.000000	9.584620
3175.000000	9.563655
3174.000000	9.542037
3173.000000	9.520842
3172.000000	9.501356
3171.000000	9.482936
3170.000000	9.464594
3169.000000	9.447140
3168.000000	9.431705
3167.000000	9.417717
3166.000000	9.404447
3165.000000	9.392814
3164.000000	9.383541
3163.000000	9.375253
3162.000000	9.366470
3161.000000	9.357969
3160.000000	9.351107
3159.000000	9.345529
3158.000000	9.340628
3157.000000	9.337395
3156.000000	9.336694
3155.000000	9.337373
3154.000000	9.338294
3153.000000	9.340691
3152.000000	9.346173
3151.000000	9.354091
3150.000000	9.362942
3149.000000	9.372810
3148.000000	9.384404
3147.000000	9.397132
3146.000000	9.410315
3145.000000	9.424713
3144.000000	9.440830
3143.000000	9.457361
3142.000000	9.473262
3141.000000	9.489893
3140.000000	9.509130
3139.000000	9.530828
3138.000000	9.554113
3137.000000	9.579363
3136.000000	9.606932
3135.000000	9.635584
3134.000000	9.664107
3133.000000	9.693100
3132.000000	9.723279
3131.000000	9.753801
3130.000000	9.784165
3129.000000	9.815888
3128.000000	9.850407
3127.000000	9.886881
3126.000000	9.923907
3125.000000	9.961677
3124.000000	10.000571
3123.000000	10.039510
3122.000000	10.077692
3121.000000	10.116362
3120.000000	10.157053
3119.000000	10.199613
3118.000000	10.243759
3117.000000	10.290680
3116.000000	10.341119
3115.000000	10.393518
3114.000000	10.445830
3113.000000	10.497651
3112.000000	10.549049
3111.000000	10.599317
3110.000000	10.648752
3109.000000	10.699717
3108.000000	10.754007
3107.000000	10.810691
3106.000000	10.868127
3105.000000	10.926321
3104.000000	10.985580
3103.000000	11.044824
3102.000000	11.103120
3101.000000	11.161304
3100.000000	11.220453
3099.000000	11.280281
3098.000000	11.340694
3097.000000	11.403069
3096.000000	11.468197
3095.000000	11.534613
3094.000000	11.600571
3093.000000	11.666098
3092.000000	11.731639
3091.000000	11.796559
3090.000000	11.860637
3089.000000	11.925287
3088.000000	11.991614
3087.000000	12.058921
3086.000000	12.126530
3085.000000	12.195282
3084.000000	12.265594
3083.000000	12.335902
3082.000000	12.404829
3081.000000	12.473226
3080.000000	12.542529
3079.000000	12.612730
3078.000000	12.683566
3077.000000	12.755880
3076.000000	12.830086
3075.000000	12.904860
3074.000000	12.978881
3073.000000	13.052286
3072.000000	13.125107
3071.000000	13.196131
3070.000000	13.264989
3069.000000	13.333719
3068.000000	13.404588
3067.000000	13.477770
3066.000000	13.552404
3065.000000	13.628215
3064.000000	13.704560
3063.000000	13.779618
3062.000000	13.852236
3061.000000	13.923288
3060.000000	13.994031
3059.000000	14.064665
3058.000000	14.135650
3057.000000	14.208521
3056.000000	14.283845
3055.000000	14.359919
3054.000000	14.434974
3053.000000	14.509127
3052.000000	14.582923
3051.000000	14.655716
3050.000000	14.726939
3049.000000	14.797472
3048.000000	14.868345
3047.000000	14.939507
3046.000000	15.011046
3045.000000	15.083988
3044.000000	15.158554
3043.000000	15.233212
3042.000000	15.306682
3041.000000	15.379321
3040.000000	15.451467
3039.000000	15.522297
3038.000000	15.591662
3037.000000	15.661285
3036.000000	15.732732
3035.000000	15.805717
3034.000000	15.879524
3033.000000	15.954289
3032.000000	16.029514
3031.000000	16.103218
3030.000000	16.174202
3029.000000	16.243638
3028.000000	16.313157
3027.000000	16.383008
3026.000000	16.453297
3025.000000	16.525099
3024.000000	16.598745
3023.000000	16.672595
3022.000000	16.745013
3021.000000	16.816137
3020.000000	16.886543
3019.000000	16.955787
3018.000000	17.023695
3017.000000	17.091541
3016.000000	17.160531
3015.000000	17.230479
3014.000000	17.301115
3013.000000	17.373171
3012.000000	17.446818
3011.000000	17.520562
3010.000000	17.592985
3009.000000	17.664249
3008.000000	17.734819
3007.000000	17.804294
3006.000000	17.872700
3005.000000	17.941410
3004.000000	18.011467
3003.000000	18.082225
3002.000000	18.152706
3001.000000	18.222870
3000.000000	18.292625
2999.000000	18.361162
2998.000000	18.428439
2997.000000	18.495872
2996.000000	18.564402
2995.000000	18.633354
2994.000000	18.702237
2993.000000	18.772024
2992.000000	18.843373
2991.000000	18.915052
2990.000000	18.985455
2989.000000	19.054379
2988.000000	19.122258
2987.000000	19.189107
2986.000000	19.255387
2985.000000	19.322462
2984.000000	19.390904
2983.000000	19.459605
2982.000000	19.527632
2981.000000	19.595545
2980.000000	19.663825
2979.000000	19.731491
2978.000000	19.797569
2977.000000	19.862658
2976.000000	19.927868
2975.000000	19.993509
2974.000000	20.059895
2973.000000	20.127988
2972.000000	20.197960
2971.000000	20.268254
2970.000000	20.337277
2969.000000	20.404971
2968.000000	20.471801
2967.000000	20.537606
2966.000000	20.602533
2965.000000	20.667819
2964.000000	20.734443
2963.000000	20.802095
2962.000000	20.870332
2961.000000	20.939343
2960.000000	21.008636
2959.000000	21.076504
2958.000000	21.141894
2957.000000	21.205551
2956.000000	21.268461
2955.000000	21.330766
2954.000000	21.393041
2953.000000	21.456817
2952.000000	21.522567
2951.000000	21.588634
2950.000000	21.653276
2949.000000	21.716386
2948.000000	21.778313
2947.000000	21.838687
2946.000000	21.897658
2945.000000	21.956849
2944.000000	22.017748
2943.000000	22.080185
2942.000000	22.143358
2941.000000	22.207070
2940.000000	22.270971
2939.000000	22.333922
2938.000000	22.395228
2937.000000	22.455416
2936.000000	22.514928
2935.000000	22.573307
2934.000000	22.630604
2933.000000	22.688262
2932.000000	22.747597
2931.000000	22.808550
2930.000000	22.870594
2929.000000	22.933408
2928.000000	22.995841
2927.000000	23.055938
2926.000000	23.113171
2925.000000	23.169376
2924.000000	23.226598
2923.000000	23.285315
2922.000000	23.345411
2921.000000	23.407025
2920.000000	23.469392
2919.000000	23.530415
2918.000000	23.588578
2917.000000	23.644160
2916.000000	23.697931
2915.000000	23.750115
2914.000000	23.801385
2913.000000	23.853379
2912.000000	23.907265
2911.000000	23.962854
2910.000000	24.019635
2909.000000	24.077298
2908.000000	24.134613
2907.000000	24.189358
2906.000000	24.240473
2905.000000	24.289255
2904.000000	24.337825
2903.000000	24.387457
2902.000000	24.439187
2901.000000	24.494039
2900.000000	24.551870
2899.000000	24.610819
2898.000000	24.668538
2897.000000	24.723390
2896.000000	24.774332
2895.000000	24.821245
2894.000000	24.866061
2893.000000	24.912172
2892.000000	24.961796
2891.000000	25.014759
2890.000000	25.069948
2889.000000	25.126411
2888.000000	25.182520
2887.000000	25.235845
2886.000000	25.285104
2885.000000	25.331303
2884.000000	25.376325
2883.000000	25.421572
2882.000000	25.468400
2881.000000	25.518296
2880.000000	25.571469
2879.000000	25.626316
2878.000000	25.681179
2877.000000	25.735605
2876.000000	25.789177
2875.000000	25.840368
2874.000000	25.887750
2873.000000	25.931742
2872.000000	25.974461
2871.000000	26.018420
2870.000000	26.065618
2869.000000	26.116569
2868.000000	26.169309
2867.000000	26.220324
2866.000000	26.267385
2865.000000	26.311169
2864.000000	26.354085
2863.000000	26.398417
2862.000000	26.445641
2861.000000	26.496013
2860.000000	26.548037
2859.000000	26.599327
2858.000000	26.648551
2857.000000	26.695831
2856.000000	26.741324
2855.000000	26.784927
2854.000000	26.827781
2853.000000	26.872606
2852.000000	26.921675
2851.000000	26.975203
2850.000000	27.031754
2849.000000	27.088875
2848.000000	27.143234
2847.000000	27.191967
2846.000000	27.234814
2845.000000	27.274216
2844.000000	27.313296
2843.000000	27.354785
2842.000000	27.401400
2841.000000	27.454754
2840.000000	27.512878
2839.000000	27.570511
2838.000000	27.623125
2837.000000	27.669805
2836.000000	27.711871
2835.000000	27.750579
2834.000000	27.787360
2833.000000	27.824845
2832.000000	27.865918
2831.000000	27.912021
2830.000000	27.963037
2829.000000	28.017890
2828.000000	28.074384
2827.000000	28.129340
2826.000000	28.180189
2825.000000	28.226459
2824.000000	28.269504
2823.000000	28.311451
2822.000000	28.354716
2821.000000	28.401405
2820.000000	28.452131
2819.000000	28.505572
2818.000000	28.559449
2817.000000	28.611513
2816.000000	28.659820
2815.000000	28.703431
2814.000000	28.743551
2813.000000	28.783117
2812.000000	28.824573
2811.000000	28.868409
2810.000000	28.913885
2809.000000	28.960080
2808.000000	29.005708
2807.000000	29.048977
2806.000000	29.088525
2805.000000	29.124179
2804.000000	29.156646
2803.000000	29.187327
2802.000000	29.218622
2801.000000	29.253183
2800.000000	29.291842
2799.000000	29.332727
2798.000000	29.372867
2797.000000	29.410193
2796.000000	29.443997
2795.000000	29.474632
2794.000000	29.503604
2793.000000	29.533297
2792.000000	29.565803
2791.000000	29.601981
2790.000000	29.641581
2789.000000	29.683471
2788.000000	29.725576
2787.000000	29.765524
2786.000000	29.801998
2785.000000	29.835218
2784.000000	29.866214
2783.000000	29.896385
2782.000000	29.927667
2781.000000	29.961853
2780.000000	29.999110
2779.000000	30.037744
2778.000000	30.075517
2777.000000	30.110382
2776.000000	30.140154
2775.000000	30.162929
2774.000000	30.178694
2773.000000	30.189766
2772.000000	30.198933
2771.000000	30.207736
2770.000000	30.216532
2769.000000	30.224938
2768.000000	30.231593
2767.000000	30.234265
2766.000000	30.231201
2765.000000	30.222141
2764.000000	30.207909
2763.000000	30.189959
2762.000000	30.170573
2761.000000	30.152489
2760.000000	30.137457
2759.000000	30.125423
2758.000000	30.115361
2757.000000	30.106095
2756.000000	30.096126
2755.000000	30.083799
2754.000000	30.068417
2753.000000	30.050692
2752.000000	30.031580
2751.000000	30.011252
2750.000000	29.989319
2749.000000	29.965056
2748.000000	29.937062
2747.000000	29.903471
2746.000000	29.863198
2745.000000	29.816537
2744.000000	29.764228
2743.000000	29.707038
2742.000000	29.646658
2741.000000	29.586001
2740.000000	29.528050
2739.000000	29.474971
2738.000000	29.428653
2737.000000	29.391389
2736.000000	29.365287
2735.000000	29.351649
2734.000000	29.351674
2733.000000	29.366580
2732.000000	29.396832
2731.000000	29.441848
2730.000000	29.500337
2729.000000	29.570683
2728.000000	29.650417
2727.000000	29.736380
2726.000000	29.826159
2725.000000	29.918403
2724.000000	30.012064
2723.000000	30.106017
2722.000000	30.199419
2721.000000	30.291649
2720.000000	30.381468
2719.000000	30.467055
2718.000000	30.547173
2717.000000	30.621498
2716.000000	30.689647
2715.000000	30.751007
2714.000000	30.805542
2713.000000	30.853947
2712.000000	30.896716
2711.000000	30.933518
2710.000000	30.964150
2709.000000	30.989050
2708.000000	31.008622
2707.000000	31.023045
2706.000000	31.032827
2705.000000	31.039122
2704.000000	31.042882
2703.000000	31.044269
2702.000000	31.043346
2701.000000	31.040441
2700.000000	31.035779
2699.000000	31.029419
2698.000000	31.021870
2697.000000	31.014193
2696.000000	31.007071
2695.000000	31.000419
2694.000000	30.994061
2693.000000	30.987937
2692.000000	30.981439
2691.000000	30.973331
2690.000000	30.962838
2689.000000	30.950291
2688.000000	30.936526
2687.000000	30.922425
2686.000000	30.909231
2685.000000	30.898357
2684.000000	30.890302
2683.000000	30.884191
2682.000000	30.878565
2681.000000	30.872082
2680.000000	30.863552
2679.000000	30.852436
2678.000000	30.839894
2677.000000	30.828615
2676.000000	30.821289
2675.000000	30.819519
2674.000000	30.823917
2673.000000	30.834223
2672.000000	30.848915
2671.000000	30.865756
2670.000000	30.883205
2669.000000	30.900823
2668.000000	30.918663
2667.000000	30.937112
2666.000000	30.957366
2665.000000	30.980825
2664.000000	31.007343
2663.000000	31.034819
2662.000000	31.060625
2661.000000	31.082649
2660.000000	31.099168
2659.000000	31.109198
2658.000000	31.113680
2657.000000	31.115654
2656.000000	31.118735
2655.000000	31.125731
2654.000000	31.138413
2653.000000	31.157130
2652.000000	31.180029
2651.000000	31.203678
2650.000000	31.225408
2649.000000	31.244925
2648.000000	31.264153
2647.000000	31.286402
2646.000000	31.315727
2645.000000	31.355819
2644.000000	31.408061
2643.000000	31.470980
2642.000000	31.541272
2641.000000	31.614659
2640.000000	31.686384
2639.000000	31.752387
2638.000000	31.811226
2637.000000	31.864520
2636.000000	31.915243
2635.000000	31.965900
2634.000000	32.017875
2633.000000	32.070965
2632.000000	32.122848
2631.000000	32.169782
2630.000000	32.208267
2629.000000	32.236478
2628.000000	32.254542
2627.000000	32.264585
2626.000000	32.270852
2625.000000	32.278234
2624.000000	32.289916
2623.000000	32.306134
2622.000000	32.324712
2621.000000	32.342099
2620.000000	32.353893
2619.000000	32.356252
2618.000000	32.347958
2617.000000	32.331017
2616.000000	32.309322
2615.000000	32.286695
2614.000000	32.265814
2613.000000	32.247363
2612.000000	32.229212
2611.000000	32.207357
2610.000000	32.178258
2609.000000	32.140721
2608.000000	32.096356
2607.000000	32.049427
2606.000000	32.006385
2605.000000	31.974168
2604.000000	31.957530
2603.000000	31.957567
2602.000000	31.972511
2601.000000	31.998505
2600.000000	32.030387
2599.000000	32.063515
2598.000000	32.095932
2597.000000	32.129278
2596.000000	32.166963
2595.000000	32.212211
2594.000000	32.267158
2593.000000	32.331701
2592.000000	32.402679
2591.000000	32.474560
2590.000000	32.541855
2589.000000	32.601185
2588.000000	32.651871
2587.000000	32.696169
2586.000000	32.739130
2585.000000	32.786962
2584.000000	32.844276
2583.000000	32.912330
2582.000000	32.989261
2581.000000	33.070901
2580.000000	33.151725
2579.000000	33.226773
2578.000000	33.293908
2577.000000	33.354555
2576.000000	33.412440
2575.000000	33.472006
2574.000000	33.537245
2573.000000	33.610111
2572.000000	33.688871
2571.000000	33.768407
2570.000000	33.842653
2569.000000	33.906897
2568.000000	33.958913
2567.000000	33.999367
2566.000000	34.031896
2565.000000	34.061887
2564.000000	34.093566
2563.000000	34.127947
2562.000000	34.162377
2561.000000	34.191346
2560.000000	34.208088
2559.000000	34.206535
2558.000000	34.184108
2557.000000	34.142936
2556.000000	34.089096
2555.000000	34.031320
2554.000000	33.979459
2553.000000	33.942514
2552.000000	33.926196
2551.000000	33.931747
2550.000000	33.956605
2549.000000	33.996400
2548.000000	34.046337
2547.000000	34.102745
2546.000000	34.164618
2545.000000	34.232836
2544.000000	34.308486
2543.000000	34.391133
2542.000000	34.478250
2541.000000	34.565534
2540.000000	34.647379
2539.000000	34.718587
2538.000000	34.776719
2537.000000	34.823300
2536.000000	34.862789
2535.000000	34.900741
2534.000000	34.942039
2533.000000	34.989393
2532.000000	35.042286
2531.000000	35.097072
2530.000000	35.148842
2529.000000	35.193430
2528.000000	35.228708
2527.000000	35.255250
2526.000000	35.276331
2525.000000	35.297040
2524.000000	35.322361
2523.000000	35.355213
2522.000000	35.395376
2521.000000	35.439406
2520.000000	35.481857
2519.000000	35.517603
2518.000000	35.544102
2517.000000	35.562177
2516.000000	35.575137
2515.000000	35.587554
2514.000000	35.604043
2513.000000	35.627706
2512.000000	35.658675
2511.000000	35.693995
2510.000000	35.729098
2509.000000	35.759614
2508.000000	35.782648
2507.000000	35.797739
2506.000000	35.807264
2505.000000	35.815638
2504.000000	35.827353
2503.000000	35.845144
2502.000000	35.869277
2501.000000	35.897603
2500.000000	35.926196
2499.000000	35.950857
2498.000000	35.969028
2497.000000	35.980802
2496.000000	35.988420
2495.000000	35.995159
2494.000000	36.004364
2493.000000	36.018415
2492.000000	36.037662
2491.000000	36.060129
2490.000000	36.082453
2489.000000	36.101394
2488.000000	36.114988
2487.000000	36.123232
2486.000000	36.128187
2485.000000	36.133183
2484.000000	36.141252
2483.000000	36.153824
2482.000000	36.170435
2481.000000	36.189073
2480.000000	36.206841
2479.000000	36.220990
2478.000000	36.230097
2477.000000	36.234714
2476.000000	36.237115
2475.000000	36.240377
2474.000000	36.247218
2473.000000	36.258862
2472.000000	36.274463
2471.000000	36.291619
2470.000000	36.307552
2469.000000	36.320080
2468.000000	36.328130
2467.000000	36.332143
2466.000000	36.334156
2465.000000	36.337014
2464.000000	36.343077
2463.000000	36.353433
2462.000000	36.367831
2461.000000	36.384645
2460.000000	36.401013
2459.000000	36.413941
2458.000000	36.421954
2457.000000	36.425835
2456.000000	36.427859
2455.000000	36.430626
2454.000000	36.436397
2453.000000	36.446530
2452.000000	36.460801
2451.000000	36.477326
2450.000000	36.493527
2449.000000	36.507326
2448.000000	36.517701
2447.000000	36.524803
2446.000000	36.529922
2445.000000	36.535075
2444.000000	36.542129
2443.000000	36.552075
2442.000000	36.564869
2441.000000	36.579541
2440.000000	36.594369
2439.000000	36.607531
2438.000000	36.618138
2437.000000	36.626715
2436.000000	36.634602
2435.000000	36.643056
2434.000000	36.652845
2433.000000	36.664217
2432.000000	36.676809
2431.000000	36.689711
2430.000000	36.701964
2429.000000	36.713142
2428.000000	36.723534
2427.000000	36.733946
2426.000000	36.745319
2425.000000	36.758280
2424.000000	36.772754
2423.000000	36.787983
2422.000000	36.802891
2421.000000	36.816404
2420.000000	36.827682
2419.000000	36.836549
2418.000000	36.843942
2417.000000	36.851741
2416.000000	36.861883
2415.000000	36.875505
2414.000000	36.892507
2413.000000	36.911438
2412.000000	36.929847
2411.000000	36.945436
2410.000000	36.957378
2409.000000	36.966568
2408.000000	36.974669
2407.000000	36.983253
2406.000000	36.993793
2405.000000	37.007655
2404.000000	37.025337
2403.000000	37.045733
2402.000000	37.066539
2401.000000	37.085452
2400.000000	37.101127
2399.000000	37.113514
2398.000000	37.123844
2397.000000	37.134240
2396.000000	37.146848
2395.000000	37.162920
2394.000000	37.182484
2393.000000	37.204529
2392.000000	37.227328
2391.000000	37.249010
2390.000000	37.268520
2389.000000	37.286220
2388.000000	37.303800
2387.000000	37.323448
2386.000000	37.347120
2385.000000	37.376035
2384.000000	37.409890
2383.000000	37.447015
2382.000000	37.485040
2381.000000	37.521996
2380.000000	37.557042
2379.000000	37.590240
2378.000000	37.622678
2377.000000	37.656428
2376.000000	37.693226
2375.000000	37.733168
2374.000000	37.774632
2373.000000	37.815348
2372.000000	37.853393
2371.000000	37.887426
2370.000000	37.916726
2369.000000	37.942849
2368.000000	37.969471
2367.000000	37.999882
2366.000000	38.035023
2365.000000	38.075231
2364.000000	38.121206
2363.000000	38.168558
2362.000000	38.212005
2361.000000	38.249905
2360.000000	38.281129
2359.000000	38.308793
2358.000000	38.334124
2357.000000	38.359799
2356.000000	38.389650
2355.000000	38.422456
2354.000000	38.458086
2353.000000	38.497727
2352.000000	38.548787
2351.000000	38.609455
2350.000000	38.662830
2349.000000	38.697819
2348.000000	38.716087
2347.000000	38.738076
2346.000000	38.777073
2345.000000	38.829388
2344.000000	38.882272
2343.000000	38.924116
2342.000000	38.960294
2341.000000	38.993774
2340.000000	39.025218
2339.000000	39.053246
2338.000000	39.080220
2337.000000	39.108911
2336.000000	39.142432
2335.000000	39.180429
2334.000000	39.223232
2333.000000	39.266678
2332.000000	39.308965
2331.000000	39.348416
2330.000000	39.383104
2329.000000	39.417381
2328.000000	39.450514
2327.000000	39.486902
2326.000000	39.526016
2325.000000	39.567890
2324.000000	39.612077
2323.000000	39.653818
2322.000000	39.692065
2321.000000	39.723340
2320.000000	39.751079
2319.000000	39.777991
2318.000000	39.808415
2317.000000	39.843415
2316.000000	39.883352
2315.000000	39.927934
2314.000000	39.974936
2313.000000	40.020730
2312.000000	40.060817
2311.000000	40.094187
2310.000000	40.121664
2309.000000	40.146297
2308.000000	40.171168
2307.000000	40.199988
2306.000000	40.235172
2305.000000	40.276537
2304.000000	40.321937
2303.000000	40.367732
2302.000000	40.410119
2301.000000	40.445795
2300.000000	40.473479
2299.000000	40.495484
2298.000000	40.515745
2297.000000	40.538887
2296.000000	40.567498
2295.000000	40.602906
2294.000000	40.643309
2293.000000	40.685248
2292.000000	40.724488
2291.000000	40.758404
2290.000000	40.785955
2289.000000	40.807837
2288.000000	40.826608
2287.000000	40.846143
2286.000000	40.869897
2285.000000	40.899069
2284.000000	40.932892
2283.000000	40.969288
2282.000000	41.005809
2281.000000	41.039998
2280.000000	41.070739
2279.000000	41.098408
2278.000000	41.124423
2277.000000	41.150272
2276.000000	41.177443
2275.000000	41.207019
2274.000000	41.238565
2273.000000	41.270330
2272.000000	41.300562
2271.000000	41.328744
2270.000000	41.355262
2269.000000	41.380949
2268.000000	41.407226
2267.000000	41.435532
2266.000000	41.465890
2265.000000	41.496699
2264.000000	41.525810
2263.000000	41.551781
2262.000000	41.573570
2261.000000	41.590817
2260.000000	41.604978
2259.000000	41.618949
2258.000000	41.635312
2257.000000	41.654575
2256.000000	41.675878
2255.000000	41.697391
2254.000000	41.716070
2253.000000	41.728081
2252.000000	41.730712
2251.000000	41.723962
2250.000000	41.709578
2249.000000	41.690124
2248.000000	41.668610
2247.000000	41.647772
2246.000000	41.628344
2245.000000	41.608040
2244.000000	41.582937
2243.000000	41.549379
2242.000000	41.504698
2241.000000	41.447833
2240.000000	41.380343
2239.000000	41.306622
2238.000000	41.232305
2237.000000	41.162541
2236.000000	41.101501
2235.000000	41.052061
2234.000000	41.015027
2233.000000	40.988777
2232.000000	40.970512
2231.000000	40.957627
2230.000000	40.948180
2229.000000	40.941037
2228.000000	40.936279
2227.000000	40.934895
2226.000000	40.937182
2225.000000	40.941938
2224.000000	40.947481
2223.000000	40.952858
2222.000000	40.957571
2221.000000	40.960940
2220.000000	40.962674
2219.000000	40.963543
2218.000000	40.964697
2217.000000	40.966524
2216.000000	40.968614
2215.000000	40.970354
2214.000000	40.971004
2213.000000	40.969807
2212.000000	40.966843
2211.000000	40.963550
2210.000000	40.961891
2209.000000	40.963210
2208.000000	40.967960
2207.000000	40.975718
2206.000000	40.984775
2205.000000	40.992253
2204.000000	40.995526
2203.000000	40.993667
2202.000000	40.987606
2201.000000	40.979617
2200.000000	40.972886
2199.000000	40.970542
2198.000000	40.974021
2197.000000	40.982248
2196.000000	40.992438
2195.000000	41.001142
2194.000000	41.004592
2193.000000	40.999545
2192.000000	40.985128
2191.000000	40.963729
2190.000000	40.939648
2189.000000	40.917100
2188.000000	40.899313
2187.000000	40.888046
2186.000000	40.882726
2185.000000	40.880363
2184.000000	40.877242
2183.000000	40.870924
2182.000000	40.860828
2181.000000	40.848084
2180.000000	40.835603
2179.000000	40.827567
2178.000000	40.827590
2177.000000	40.837030
2176.000000	40.854969
2175.000000	40.879088
2174.000000	40.906277
2173.000000	40.933402
2172.000000	40.958734
2171.000000	40.982671
2170.000000	41.006791
2169.000000	41.032666
2168.000000	41.061635
2167.000000	41.094581
2166.000000	41.130929
2165.000000	41.168413
2164.000000	41.204685
2163.000000	41.238878
2162.000000	41.271377
2161.000000	41.303009
2160.000000	41.335139
2159.000000	41.369611
2158.000000	41.407445
2157.000000	41.447787
2156.000000	41.488496
2155.000000	41.527229
2154.000000	41.561823
2153.000000	41.590973
2152.000000	41.615605
2151.000000	41.638980
2150.000000	41.664623
2149.000000	41.694432
2148.000000	41.728706
2147.000000	41.766572
2146.000000	41.805457
2145.000000	41.841313
2144.000000	41.870885
2143.000000	41.893785
2142.000000	41.912241
2141.000000	41.929909
2140.000000	41.951373
2139.000000	41.981169
2138.000000	42.021469
2137.000000	42.070554
2136.000000	42.123783
2135.000000	42.175555
2134.000000	42.220648
2133.000000	42.255702
2132.000000	42.281182
2131.000000	42.301463
2130.000000	42.322149
2129.000000	42.347614
2128.000000	42.380440
2127.000000	42.421025
2126.000000	42.466384
2125.000000	42.510542
2124.000000	42.547802
2123.000000	42.575667
2122.000000	42.594901
2121.000000	42.608399
2120.000000	42.620902
2119.000000	42.638068
2118.000000	42.663961
2117.000000	42.699242
2116.000000	42.741718
2115.000000	42.787509
2114.000000	42.831488
2113.000000	42.868763
2112.000000	42.897559
2111.000000	42.920225
2110.000000	42.940991
2109.000000	42.963607
2108.000000	42.990842
2107.000000	43.023814
2106.000000	43.060392
2105.000000	43.095434
2104.000000	43.123892
2103.000000	43.143344
2102.000000	43.153659
2101.000000	43.156280
2100.000000	43.154693
2099.000000	43.153518
2098.000000	43.155496
2097.000000	43.159714
2096.000000	43.163029
2095.000000	43.161950
2094.000000	43.153067
2093.000000	43.134241
2092.000000	43.107150
2091.000000	43.077557
2090.000000	43.052048
2089.000000	43.035071
2088.000000	43.028898
2087.000000	43.034104
2086.000000	43.048476
2085.000000	43.066994
2084.000000	43.084763
2083.000000	43.099638
2082.000000	43.111919
2081.000000	43.123486
2080.000000	43.138242
2079.000000	43.161508
2078.000000	43.196654
2077.000000	43.242620
2076.000000	43.295294
2075.000000	43.349904
2074.000000	43.401661
2073.000000	43.446490
2072.000000	43.483529
2071.000000	43.515984
2070.000000	43.548468
2069.000000	43.584844
2068.000000	43.628997
2067.000000	43.684964
2066.000000	43.753598
2065.000000	43.829837
2064.000000	43.905505
2063.000000	43.974662
2062.000000	44.035558
2061.000000	44.089745
2060.000000	44.141502
2059.000000	44.196646
2058.000000	44.259480
2057.000000	44.330630
2056.000000	44.407977
2055.000000	44.488065
2054.000000	44.565948
2053.000000	44.636210
2052.000000	44.696322
2051.000000	44.748088
2050.000000	44.795203
2049.000000	44.841184
2048.000000	44.889735
2047.000000	44.943910
2046.000000	45.003262
2045.000000	45.063919
2044.000000	45.122735
2043.000000	45.179514
2042.000000	45.234594
2041.000000	45.287074
2040.000000	45.337212
2039.000000	45.388287
2038.000000	45.444097
2037.000000	45.506125
2036.000000	45.574145
2035.000000	45.647249
2034.000000	45.722855
2033.000000	45.796815
2032.000000	45.866396
2031.000000	45.932141
2030.000000	45.995967
2029.000000	46.059466
2028.000000	46.124765
2027.000000	46.194217
2026.000000	46.267678
2025.000000	46.342107
2024.000000	46.414571
2023.000000	46.483188
2022.000000	46.545354
2021.000000	46.598953
2020.000000	46.646804
2019.000000	46.696982
2018.000000	46.756499
2017.000000	46.825917
2016.000000	46.901410
2015.000000	46.979592
2014.000000	47.058114
2013.000000	47.134603
2012.000000	47.207930
2011.000000	47.279186
2010.000000	47.350190
2009.000000	47.422496
2008.000000	47.498471
2007.000000	47.580793
2006.000000	47.669740
2005.000000	47.762871
2004.000000	47.857825
2003.000000	47.953284
2002.000000	48.046897
2001.000000	48.135294
2000.000000	48.218000
1999.000000	48.298148
1998.000000	48.377230
1997.000000	48.453395
1996.000000	48.526859
1995.000000	48.602534
1994.000000	48.685303
1993.000000	48.774943
1992.000000	48.866090
1991.000000	48.952625
1990.000000	49.031965
1989.000000	49.105675
1988.000000	49.177358
1987.000000	49.249179
1986.000000	49.320170
1985.000000	49.389471
1984.000000	49.460001
1983.000000	49.535637
1982.000000	49.615097
1981.000000	49.692305
1980.000000	49.763017
1979.000000	49.826935
1978.000000	49.883438
1977.000000	49.931719
1976.000000	49.975850
1975.000000	50.023524
1974.000000	50.078373
1973.000000	50.137983
1972.000000	50.199356
1971.000000	50.260711
1970.000000	50.318483
1969.000000	50.369860
1968.000000	50.418203
1967.000000	50.468364
1966.000000	50.518360
1965.000000	50.563878
1964.000000	50.608324
1963.000000	50.660513
1962.000000	50.723407
1961.000000	50.791419
1960.000000	50.858283
1959.000000	50.920494
1958.000000	50.973511
1957.000000	51.013507
1956.000000	51.044606
1955.000000	51.076892
1954.000000	51.116197
1953.000000	51.162325
1952.000000	51.215486
1951.000000	51.276477
1950.000000	51.340229
1949.000000	51.396268
1948.000000	51.438449
1947.000000	51.469062
1946.000000	51.492726
1945.000000	51.513547
1944.000000	51.539931
1943.000000	51.581895
1942.000000	51.638311
1941.000000	51.698485
1940.000000	51.757166
1939.000000	51.814758
1938.000000	51.866280
1937.000000	51.902853
1936.000000	51.924477
1935.000000	51.942308
1934.000000	51.967074
1933.000000	52.002776
1932.000000	52.050607
1931.000000	52.110839
1930.000000	52.177962
1929.000000	52.239682
1928.000000	52.284933
1927.000000	52.309394
1926.000000	52.315109
1925.000000	52.310897
1924.000000	52.313587
1923.000000	52.340119
1922.000000	52.395202
1921.000000	52.472972
1920.000000	52.563034
1919.000000	52.648224
1918.000000	52.706116
1917.000000	52.724041
1916.000000	52.713707
1915.000000	52.700968
1914.000000	52.701362
1913.000000	52.715524
1912.000000	52.744102
1911.000000	52.794199
1910.000000	52.866824
1909.000000	52.947416
1908.000000	53.017060
1907.000000	53.065997
1906.000000	53.093606
1905.000000	53.104540
1904.000000	53.109638
1903.000000	53.125311
1902.000000	53.163088
1901.000000	53.220739
1900.000000	53.287528
1899.000000	53.352032
1898.000000	53.403706
1897.000000	53.434935
1896.000000	53.445668
1895.000000	53.443192
1894.000000	53.437061
1893.000000	53.437873
1892.000000	53.457317
1891.000000	53.503828
1890.000000	53.572167
1889.000000	53.639043
1888.000000	53.683279
1887.000000	53.703730
1886.000000	53.707663
1885.000000	53.698471
1884.000000	53.682078
1883.000000	53.672683
1882.000000	53.683861
1881.000000	53.718994
1880.000000	53.774586
1879.000000	53.843168
1878.000000	53.910294
1877.000000	53.958860
1876.000000	53.979456
1875.000000	53.974319
1874.000000	53.955168
1873.000000	53.940426
1872.000000	53.948374
1871.000000	53.983905
1870.000000	54.037480
1869.000000	54.096738
1868.000000	54.148544
1867.000000	54.183940
1866.000000	54.202106
1865.000000	54.202850
1864.000000	54.189947
1863.000000	54.177733
1862.000000	54.182103
1861.000000	54.208840
1860.000000	54.255133
1859.000000	54.314061
1858.000000	54.371562
1857.000000	54.408745
1856.000000	54.415395
1855.000000	54.398218
1854.000000	54.370882
1853.000000	54.343281
1852.000000	54.326379
1851.000000	54.330553
1850.000000	54.353080
1849.000000	54.384499
1848.000000	54.428849
1847.000000	54.499499
1846.000000	54.581593
1845.000000	54.619450
1844.000000	54.578216
1843.000000	54.493011
1842.000000	54.424294
1841.000000	54.401996
1840.000000	54.423103
1839.000000	54.469345
1838.000000	54.519430
1837.000000	54.550991
1836.000000	54.545791
1835.000000	54.504575
1834.000000	54.447367
1833.000000	54.397494
1832.000000	54.368026
1831.000000	54.363206
1830.000000	54.378894
1829.000000	54.399362
1828.000000	54.419349
1827.000000	54.442029
1826.000000	54.449330
1825.000000	54.415498
1824.000000	54.343830
1823.000000	54.266797
1822.000000	54.210042
1821.000000	54.176870
1820.000000	54.164083
1819.000000	54.168582
1818.000000	54.179567
1817.000000	54.177408
1816.000000	54.146351
1815.000000	54.084753
1814.000000	54.001143
1813.000000	53.912246
1812.000000	53.842180
1811.000000	53.807112
1810.000000	53.803839
1809.000000	53.819603
1808.000000	53.844078
1807.000000	53.866481
1806.000000	53.870270
1805.000000	53.841562
1804.000000	53.785275
1803.000000	53.726025
1802.000000	53.688108
1801.000000	53.678642
1800.000000	53.686874
1799.000000	53.695968
1798.000000	53.696971
1797.000000	53.694525
1796.000000	53.705337
1795.000000	53.740886
1794.000000	53.778326
1793.000000	53.778510
1792.000000	53.738464
1791.000000	53.688147
1790.000000	53.654423
1789.000000	53.647947
1788.000000	53.663759
1787.000000	53.682511
1786.000000	53.675893
1785.000000	53.623397
1784.000000	53.532268
1783.000000	53.432414
1782.000000	53.345925
1781.000000	53.278755
1780.000000	53.232897
1779.000000	53.206173
1778.000000	53.180635
1777.000000	53.132353
1776.000000	53.069016
1775.000000	53.028318
1774.000000	53.014197
1773.000000	52.984196
1772.000000	52.917263
1771.000000	52.833409
1770.000000	52.762166
1769.000000	52.718064
1768.000000	52.692263
1767.000000	52.665838
1766.000000	52.627400
1765.000000	52.582187
1764.000000	52.538997
1763.000000	52.488962
1762.000000	52.412575
1761.000000	52.313853
1760.000000	52.232145
1759.000000	52.204943
1758.000000	52.220555
1757.000000	52.221628
1756.000000	52.170329
1755.000000	52.081292
1754.000000	51.981935
1753.000000	51.876250
1752.000000	51.756297
1751.000000	51.639026
1750.000000	51.551724
1749.000000	51.491866
1748.000000	51.445686
1747.000000	51.406063
1746.000000	51.355840
1745.000000	51.278194
1744.000000	51.188749
1743.000000	51.122068
1742.000000	51.080663
1741.000000	51.020237
1740.000000	50.901552
1739.000000	50.745960
1738.000000	50.604617
1737.000000	50.517370
1736.000000	50.478005
1735.000000	50.401745
1734.000000	50.228239
1733.000000	49.996723
1732.000000	49.774470
1731.000000	49.597023
1730.000000	49.459093
1729.000000	49.329331
1728.000000	49.191880
1727.000000	49.054876
1726.000000	48.911520
1725.000000	48.739280
1724.000000	48.534529
1723.000000	48.322376
1722.000000	48.123335
1721.000000	47.930381
1720.000000	47.720977
1719.000000	47.485467
1718.000000	47.254505
1717.000000	47.055868
1716.000000	46.873502
1715.000000	46.678355
1714.000000	46.452604
1713.000000	46.197946
1712.000000	45.933534
1711.000000	45.680414
1710.000000	45.446949
1709.000000	45.230687
1708.000000	45.023733
1707.000000	44.809584
1706.000000	44.564631
1705.000000	44.293718
1704.000000	44.055080
1703.000000	43.929387
1702.000000	43.877217
1701.000000	43.665392
1700.000000	43.216939
1699.000000	42.738662
1698.000000	42.394846
1697.000000	42.196755
1696.000000	42.030360
1695.000000	41.792226
1694.000000	41.502063
1693.000000	41.198087
1692.000000	40.895468
1691.000000	40.598654
1690.000000	40.296304
1689.000000	39.986245
1688.000000	39.701904
1687.000000	39.504581
1686.000000	39.384536
1685.000000	39.237307
1684.000000	38.998115
1683.000000	38.690114
1682.000000	38.367089
1681.000000	38.062839
1680.000000	37.799476
1679.000000	37.600500
1678.000000	37.464267
1677.000000	37.342359
1676.000000	37.157641
1675.000000	36.891360
1674.000000	36.595702
1673.000000	36.319114
1672.000000	36.079304
1671.000000	35.868237
1670.000000	35.652444
1669.000000	35.397117
1668.000000	35.117881
1667.000000	34.868678
1666.000000	34.671575
1665.000000	34.499208
1664.000000	34.308736
1663.000000	34.086868
1662.000000	33.842942
1661.000000	33.581449
1660.000000	33.315578
1659.000000	33.068007
1658.000000	32.840100
1657.000000	32.625532
1656.000000	32.450654
1655.000000	32.340447
1654.000000	32.240203
1653.000000	32.031625
1652.000000	31.724584
1651.000000	31.439559
1650.000000	31.197974
1649.000000	30.973294
1648.000000	30.770271
1647.000000	30.594555
1646.000000	30.416700
1645.000000	30.209510
1644.000000	29.990810
1643.000000	29.783339
1642.000000	29.590952
1641.000000	29.396673
1640.000000	29.195188
1639.000000	29.011131
1638.000000	28.869353
1637.000000	28.761867
1636.000000	28.646023
1635.000000	28.481008
1634.000000	28.274691
1633.000000	28.059303
1632.000000	27.860735
1631.000000	27.695850
1630.000000	27.554314
1629.000000	27.409663
1628.000000	27.255860
1627.000000	27.114773
1626.000000	27.000877
1625.000000	26.898821
1624.000000	26.788285
1623.000000	26.668962
1622.000000	26.543272
1621.000000	26.407317
1620.000000	26.274324
1619.000000	26.175077
1618.000000	26.121466
1617.000000	26.084427
1616.000000	26.030408
1615.000000	25.960550
1614.000000	25.888994
1613.000000	25.818884
1612.000000	25.751386
1611.000000	25.692526
1610.000000	25.644388
1609.000000	25.598531
1608.000000	25.551664
1607.000000	25.514193
1606.000000	25.490189
1605.000000	25.469200
1604.000000	25.448162
1603.000000	25.437926
1602.000000	25.439522
1601.000000	25.436547
1600.000000	25.419694
1599.000000	25.398164
1598.000000	25.380155
1597.000000	25.362975
1596.000000	25.348437
1595.000000	25.347877
1594.000000	25.362810
1593.000000	25.378883
1592.000000	25.387361
1591.000000	25.394796
1590.000000	25.404526
1589.000000	25.407107
1588.000000	25.398176
1587.000000	25.388847
1586.000000	25.388355
1585.000000	25.390739
1584.000000	25.390709
1583.000000	25.394731
1582.000000	25.400355
1581.000000	25.386199
1580.000000	25.341599
1579.000000	25.289445
1578.000000	25.264764
1577.000000	25.273828
1576.000000	25.285600
1575.000000	25.274333
1574.000000	25.242858
1573.000000	25.209276
1572.000000	25.192388
1571.000000	25.192141
1570.000000	25.188946
1569.000000	25.156063
1568.000000	25.092567
1567.000000	25.032764
1566.000000	24.998366
1565.000000	24.973214
1564.000000	24.945975
1563.000000	24.933286
1562.000000	24.987159
1561.000000	25.098285
1560.000000	25.205915
1559.000000	25.338413
1558.000000	25.431962
1557.000000	25.427561
1556.000000	25.409391
1555.000000	25.441078
1554.000000	25.524718
1553.000000	25.617209
1552.000000	25.704747
1551.000000	25.808611
1550.000000	25.943358
1549.000000	26.084397
1548.000000	26.204445
1547.000000	26.308354
1546.000000	26.411958
1545.000000	26.527565
1544.000000	26.663405
1543.000000	26.821692
1542.000000	27.004315
1541.000000	27.242290
1540.000000	27.531290
1539.000000	27.774006
1538.000000	27.926572
1537.000000	28.034253
1536.000000	28.153240
1535.000000	28.327110
1534.000000	28.561990
1533.000000	28.819012
1532.000000	29.046044
1531.000000	29.246524
1530.000000	29.454395
1529.000000	29.678602
1528.000000	29.916375
1527.000000	30.174283
1526.000000	30.447113
1525.000000	30.710650
1524.000000	30.966841
1523.000000	31.268985
1522.000000	31.666923
1521.000000	32.106109
1520.000000	32.477294
1519.000000	32.768429
1518.000000	33.050848
1517.000000	33.372976
1516.000000	33.713203
1515.000000	34.039247
1514.000000	34.361873
1513.000000	34.690418
1512.000000	35.007859
1511.000000	35.291139
1510.000000	35.549221
1509.000000	35.822811
1508.000000	36.226114
1507.000000	36.833479
1506.000000	37.425916
1505.000000	37.807635
1504.000000	38.054779
1503.000000	38.294949
1502.000000	38.604664
1501.000000	38.975345
1500.000000	39.355288
1499.000000	39.715793
1498.000000	40.071358
1497.000000	40.428996
1496.000000	40.758888
1495.000000	41.045089
1494.000000	41.306343
1493.000000	41.562184
1492.000000	41.815471
1491.000000	42.076642
1490.000000	42.370685
1489.000000	42.677490
1488.000000	42.944531
1487.000000	43.158771
1486.000000	43.333890
1485.000000	43.473550
1484.000000	43.588612
1483.000000	43.707608
1482.000000	43.843056
1481.000000	43.973718
1480.000000	44.077727
1479.000000	44.153806
1478.000000	44.188180
1477.000000	44.151928
1476.000000	44.055274
1475.000000	43.953119
1474.000000	43.870388
1473.000000	43.767366
1472.000000	43.598476
1471.000000	43.369568
1470.000000	43.105916
1469.000000	42.809671
1468.000000	42.475008
1467.000000	42.085931
1466.000000	41.586172
1465.000000	40.918998
1464.000000	40.133741
1463.000000	39.365513
1462.000000	38.688457
1461.000000	38.088838
1460.000000	37.547545
1459.000000	37.059758
1458.000000	36.568087
1457.000000	35.960260
1456.000000	35.259209
1455.000000	34.600880
1454.000000	33.987236
1453.000000	33.332639
1452.000000	32.616324
1451.000000	31.869367
1450.000000	31.081488
1449.000000	30.189727
1448.000000	29.188220
1447.000000	28.149607
1446.000000	27.111380
1445.000000	26.045656
1444.000000	24.938331
1443.000000	23.797108
1442.000000	22.609202
1441.000000	21.377511
1440.000000	20.155852
1439.000000	18.951922
1438.000000	17.628880
1437.000000	16.066918
1436.000000	14.449863
1435.000000	13.077849
1434.000000	11.974428
1433.000000	11.003650
1432.000000	10.130537
1431.000000	9.404331
1430.000000	8.832570
1429.000000	8.394117
1428.000000	8.127800
1427.000000	8.073676
1426.000000	8.197294
1425.000000	8.460508
1424.000000	8.879341
1423.000000	9.438043
1422.000000	10.060124
1421.000000	10.725968
1420.000000	11.516463
1419.000000	12.453522
1418.000000	13.384402
1417.000000	14.189445
1416.000000	14.930760
1415.000000	15.693450
1414.000000	16.471383
1413.000000	17.238514
1412.000000	18.020690
1411.000000	18.841576
1410.000000	19.665713
1409.000000	20.456532
1408.000000	21.232309
1407.000000	22.025874
1406.000000	22.839405
1405.000000	23.663530
1404.000000	24.493931
1403.000000	25.311741
1402.000000	26.100565
1401.000000	26.885679
1400.000000	27.713087
1399.000000	28.574933
1398.000000	29.410572
1397.000000	30.212777
1396.000000	31.052144
1395.000000	31.967328
1394.000000	32.900696
1393.000000	33.786965
1392.000000	34.633788
1391.000000	35.474787
1390.000000	36.323225
1389.000000	37.188155
1388.000000	38.076715
1387.000000	38.957000
1386.000000	39.767185
1385.000000	40.489155
1384.000000	41.153776
1383.000000	41.772600
1382.000000	42.319014
1381.000000	42.761558
1380.000000	43.075448
1379.000000	43.225917
1378.000000	43.176828
1377.000000	42.909725
1376.000000	42.408989
1375.000000	41.658892
1374.000000	40.681720
1373.000000	39.561774
1372.000000	38.412844
1371.000000	37.337528
1370.000000	36.439135
1369.000000	35.847058
1368.000000	35.681181
1367.000000	35.981099
1366.000000	36.706334
1365.000000	37.799668
1364.000000	39.218943
1363.000000	40.897664
1362.000000	42.691058
1361.000000	44.420869
1360.000000	45.965986
1359.000000	47.267212
1358.000000	48.285353
1357.000000	48.987319
1356.000000	49.345145
1355.000000	49.339029
1354.000000	48.968271
1353.000000	48.249905
1352.000000	47.206646
1351.000000	45.858024
1350.000000	44.228454
1349.000000	42.358488
1348.000000	40.296093
1347.000000	38.089048
1346.000000	35.785612
1345.000000	33.437737
1344.000000	31.102467
1343.000000	28.826406
1342.000000	26.629070
1341.000000	24.521366
1340.000000	22.549394
1339.000000	20.800471
1338.000000	19.353380
1337.000000	18.230859
1336.000000	17.406148
1335.000000	16.824805
1334.000000	16.401001
1333.000000	16.024893
1332.000000	15.591506
1331.000000	15.022755
1330.000000	14.272746
1329.000000	13.330964
1328.000000	12.230114
1327.000000	11.038476
1326.000000	9.832275
1325.000000	8.678156
1324.000000	7.639441
1323.000000	6.774110
1322.000000	6.109709
1321.000000	5.634398
1320.000000	5.318885
1319.000000	5.126318
1318.000000	5.006553
1317.000000	4.908811
1316.000000	4.808659
1315.000000	4.710459
1314.000000	4.619575
1313.000000	4.533030
1312.000000	4.455005
1311.000000	4.397266
1310.000000	4.363607
1309.000000	4.351546
1308.000000	4.371462
1307.000000	4.444274
1306.000000	4.578427
1305.000000	4.768810
1304.000000	5.014733
1303.000000	5.319282
1302.000000	5.672299
1301.000000	6.052088
1300.000000	6.446216
1299.000000	6.852371
1298.000000	7.262295
1297.000000	7.663873
1296.000000	8.056406
1295.000000	8.447775
1294.000000	8.837731
1293.000000	9.219173
1292.000000	9.592152
1291.000000	9.961008
1290.000000	10.318134
1289.000000	10.645102
1288.000000	10.926277
1287.000000	11.147057
1286.000000	11.286594
1285.000000	11.329578
1284.000000	11.289355
1283.000000	11.209855
1282.000000	11.143793
1281.000000	11.136010
1280.000000	11.218523
1279.000000	11.400773
1278.000000	11.661442
1277.000000	11.964366
1276.000000	12.283908
1275.000000	12.608951
1274.000000	12.930992
1273.000000	13.243247
1272.000000	13.548941
1271.000000	13.854858
1270.000000	14.157697
1269.000000	14.447702
1268.000000	14.722443
1267.000000	14.985605
1266.000000	15.236353
1265.000000	15.472024
1264.000000	15.698599
1263.000000	15.927369
1262.000000	16.162061
1261.000000	16.399541
1260.000000	16.639209
1259.000000	16.880532
1258.000000	17.115543
1257.000000	17.335055
1256.000000	17.540083
1255.000000	17.738159
1254.000000	17.932603
1253.000000	18.124417
1252.000000	18.319976
1251.000000	18.526410
1250.000000	18.741549
1249.000000	18.956546
1248.000000	19.165907
1247.000000	19.367467
1246.000000	19.556897
1245.000000	19.731661
1244.000000	19.897992
1243.000000	20.066025
1242.000000	20.239848
1241.000000	20.418678
1240.000000	20.603385
1239.000000	20.793498
1238.000000	20.981269
1237.000000	21.156842
1236.000000	21.317665
1235.000000	21.467243
1234.000000	21.608268
1233.000000	21.744060
1232.000000	21.882897
1231.000000	22.032691
1230.000000	22.192716
1229.000000	22.356101
1228.000000	22.518044
1227.000000	22.675876
1226.000000	22.825168
1225.000000	22.963548
1224.000000	23.096643
1223.000000	23.234150
1222.000000	23.381773
1221.000000	23.541259
1220.000000	23.714063
1219.000000	23.898466
1218.000000	24.085608
1217.000000	24.264668
1216.000000	24.430909
1215.000000	24.585349
1214.000000	24.730613
1213.000000	24.872340
1212.000000	25.021025
1211.000000	25.185738
1210.000000	25.366696
1209.000000	25.557328
1208.000000	25.750386
1207.000000	25.938232
1206.000000	26.111907
1205.000000	26.266740
1204.000000	26.407718
1203.000000	26.545749
1202.000000	26.690593
1201.000000	26.849235
1200.000000	27.026100
1199.000000	27.218751
1198.000000	27.415032
1197.000000	27.599004
1196.000000	27.758275
1195.000000	27.885343
1194.000000	27.976227
1193.000000	28.031964
1192.000000	28.059343
1191.000000	28.064447
1190.000000	28.048707
1189.000000	28.013511
1188.000000	27.966221
1187.000000	27.919445
1186.000000	27.885898
1185.000000	27.876889
1184.000000	27.902423
1183.000000	27.968132
1182.000000	28.072369
1181.000000	28.211669
1180.000000	28.385702
1179.000000	28.592743
1178.000000	28.823230
1177.000000	29.060266
1176.000000	29.286415
1175.000000	29.488124
1174.000000	29.658561
1173.000000	29.801409
1172.000000	29.930719
1171.000000	30.063841
1170.000000	30.213513
1169.000000	30.385163
1168.000000	30.576565
1167.000000	30.777445
1166.000000	30.972132
1165.000000	31.147066
1164.000000	31.297122
1163.000000	31.426033
1162.000000	31.544161
1161.000000	31.666243
1160.000000	31.806806
1159.000000	31.973289
1158.000000	32.162317
1157.000000	32.362382
1156.000000	32.558480
1155.000000	32.735888
1154.000000	32.885464
1153.000000	33.008726
1152.000000	33.117171
1151.000000	33.226090
1150.000000	33.348992
1149.000000	33.494795
1148.000000	33.664360
1147.000000	33.847730
1146.000000	34.027266
1145.000000	34.186063
1144.000000	34.314945
1143.000000	34.414700
1142.000000	34.496118
1141.000000	34.577453
1140.000000	34.677057
1139.000000	34.804940
1138.000000	34.959309
1137.000000	35.128803
1136.000000	35.296172
1135.000000	35.442848
1134.000000	35.556785
1133.000000	35.638920
1132.000000	35.702266
1131.000000	35.765641
1130.000000	35.847708
1129.000000	35.961854
1128.000000	36.110392
1127.000000	36.281645
1126.000000	36.454695
1125.000000	36.608623
1124.000000	36.729686
1123.000000	36.815375
1122.000000	36.876670
1121.000000	36.935061
1120.000000	37.013074
1119.000000	37.124874
1118.000000	37.272895
1117.000000	37.448338
1116.000000	37.632267
1115.000000	37.800383
1114.000000	37.933899
1113.000000	38.028833
1112.000000	38.095903
1111.000000	38.154758
1110.000000	38.228613
1109.000000	38.337541
1108.000000	38.489403
1107.000000	38.674682
1106.000000	38.871104
1105.000000	39.053000
1104.000000	39.198806
1103.000000	39.297715
1102.000000	39.356125
1101.000000	39.396696
1100.000000	39.447587
1099.000000	39.530976
1098.000000	39.657460
1097.000000	39.823708
1096.000000	40.011173
1095.000000	40.191265
1094.000000	40.339062
1093.000000	40.444988
1092.000000	40.515928
1091.000000	40.570606
1090.000000	40.634974
1089.000000	40.734103
1088.000000	40.880435
1087.000000	41.067822
1086.000000	41.276335
1085.000000	41.480789
1084.000000	41.656741
1083.000000	41.787686
1082.000000	41.874279
1081.000000	41.935803
1080.000000	42.000291
1079.000000	42.092820
1078.000000	42.228913
1077.000000	42.408855
1076.000000	42.613391
1075.000000	42.809283
1074.000000	42.964681
1073.000000	43.061819
1072.000000	43.096967
1071.000000	43.077386
1070.000000	43.018931
1069.000000	42.934750
1068.000000	42.822819
1067.000000	42.660930
1066.000000	42.418610
1065.000000	42.075869
1064.000000	41.636322
1063.000000	41.136983
1062.000000	40.646703
1061.000000	40.246963
1060.000000	40.002630
1059.000000	39.945358
1058.000000	40.069888
1057.000000	40.341998
1056.000000	40.709055
1055.000000	41.110274
1054.000000	41.494513
1053.000000	41.829505
1052.000000	42.103144
1051.000000	42.322699
1050.000000	42.513387
1049.000000	42.708815
1048.000000	42.933094
1047.000000	43.189893
1046.000000	43.465395
1045.000000	43.736852
1044.000000	43.977434
1043.000000	44.165489
1042.000000	44.297701
1041.000000	44.392317
1040.000000	44.478537
1039.000000	44.584726
1038.000000	44.732430
1037.000000	44.929747
1036.000000	45.164090
1035.000000	45.406073
1034.000000	45.624747
1033.000000	45.800254
1032.000000	45.926669
1031.000000	46.013390
1030.000000	46.086517
1029.000000	46.179869
1028.000000	46.317171
1027.000000	46.502016
1026.000000	46.721179
1025.000000	46.950617
1024.000000	47.159354
1023.000000	47.320417
1022.000000	47.426824
1021.000000	47.494981
1020.000000	47.552601
1019.000000	47.627556
1018.000000	47.743121
1017.000000	47.910199
1016.000000	48.117561
1015.000000	48.335188
1014.000000	48.531112
1013.000000	48.684591
1012.000000	48.788110
1011.000000	48.849478
1010.000000	48.894801
1009.000000	48.959468
1008.000000	49.069053
1007.000000	49.229215
1006.000000	49.429404
1005.000000	49.647164
1004.000000	49.850331
1003.000000	50.008453
1002.000000	50.110598
1001.000000	50.170131
1000.000000	50.213406
999.000000	50.269101
998.000000	50.363644
997.000000	50.512287
996.000000	50.707653
995.000000	50.921687
994.000000	51.122172
993.000000	51.285464
992.000000	51.398801
991.000000	51.464401
990.000000	51.505128
989.000000	51.556299
988.000000	51.645908
987.000000	51.784292
986.000000	51.966985
985.000000	52.176828
984.000000	52.383795
983.000000	52.555926
982.000000	52.678032
981.000000	52.757398
980.000000	52.813241
979.000000	52.868684
978.000000	52.949728
977.000000	53.076491
976.000000	53.248239
975.000000	53.442329
974.000000	53.630500
973.000000	53.790916
972.000000	53.909149
971.000000	53.982302
970.000000	54.027155
969.000000	54.074475
968.000000	54.150409
967.000000	54.266226
966.000000	54.421300
965.000000	54.604210
964.000000	54.790201
963.000000	54.949799
962.000000	55.067160
961.000000	55.146606
960.000000	55.203020
959.000000	55.255383
958.000000	55.327338
957.000000	55.438986
956.000000	55.591721
955.000000	55.767068
954.000000	55.941513
953.000000	56.095843
952.000000	56.214610
951.000000	56.291273
950.000000	56.338278
949.000000	56.382478
948.000000	56.447644
947.000000	56.545823
946.000000	56.680891
945.000000	56.846571
944.000000	57.020377
943.000000	57.172018
942.000000	57.283499
941.000000	57.355456
940.000000	57.397057
939.000000	57.422775
938.000000	57.457129
937.000000	57.526242
936.000000	57.638611
935.000000	57.781279
934.000000	57.934085
933.000000	58.078340
932.000000	58.194329
931.000000	58.266721
930.000000	58.297918
929.000000	58.307684
928.000000	58.318037
927.000000	58.345429
926.000000	58.403408
925.000000	58.496540
924.000000	58.609396
923.000000	58.713055
922.000000	58.785709
921.000000	58.819841
920.000000	58.813154
919.000000	58.768307
918.000000	58.702640
917.000000	58.642573
916.000000	58.604565
915.000000	58.587907
914.000000	58.583604
913.000000	58.578665
912.000000	58.551408
911.000000	58.478789
910.000000	58.352051
909.000000	58.178129
908.000000	57.968014
907.000000	57.733668
906.000000	57.494161
905.000000	57.267409
904.000000	57.052396
903.000000	56.830341
902.000000	56.580703
901.000000	56.288459
900.000000	55.939056
899.000000	55.522310
898.000000	55.045828
897.000000	54.530965
896.000000	53.996262
895.000000	53.450703
894.000000	52.897603
893.000000	52.333943
892.000000	51.742342
891.000000	51.097288
890.000000	50.381596
889.000000	49.590814
888.000000	48.728584
887.000000	47.805469
886.000000	46.841800
885.000000	45.859422
884.000000	44.866410
883.000000	43.856820
882.000000	42.819171
881.000000	41.740867
880.000000	40.608853
879.000000	39.415437
878.000000	38.167994
877.000000	36.888173
876.000000	35.602954
875.000000	34.336775
874.000000	33.107560
873.000000	31.923899
872.000000	30.785368
871.000000	29.686612
870.000000	28.620912
869.000000	27.585401
868.000000	26.583486
867.000000	25.624811
866.000000	24.721767
865.000000	23.883930
864.000000	23.117901
863.000000	22.423353
862.000000	21.789939
861.000000	21.201750
860.000000	20.643976
859.000000	20.107538
858.000000	19.587286
857.000000	19.083567
856.000000	18.606150
855.000000	18.168321
854.000000	17.778991
853.000000	17.440692
852.000000	17.153559
851.000000	16.916098
850.000000	16.720258
849.000000	16.556314
848.000000	16.422294
847.000000	16.325051
846.000000	16.274948
845.000000	16.281083
844.000000	16.353873
843.000000	16.502322
842.000000	16.726074
841.000000	17.016500
840.000000	17.362017
839.000000	17.753527
838.000000	18.185028
837.000000	18.654928
836.000000	19.170167
835.000000	19.741816
834.000000	20.371330
833.000000	21.028084
832.000000	21.629071
831.000000	22.012341
830.000000	21.937448
829.000000	21.144482
828.000000	19.510365
827.000000	17.233567
826.000000	14.856479
825.000000	13.030006
824.000000	12.165433
823.000000	12.257731
822.000000	13.004352
821.000000	14.064859
820.000000	15.206243
819.000000	16.294670
818.000000	17.258623
817.000000	18.080245
816.000000	18.792191
815.000000	19.440083
814.000000	20.056276
813.000000	20.662855
812.000000	21.276054
811.000000	21.892663
810.000000	22.487078
809.000000	23.031538
808.000000	23.511651
807.000000	23.925718
806.000000	24.284291
805.000000	24.616551
804.000000	24.961617
803.000000	25.343780
802.000000	25.762354
801.000000	26.203065
800.000000	26.647583
799.000000	27.071533
798.000000	27.449926
797.000000	27.774929
796.000000	28.062644
795.000000	28.341459
794.000000	28.639866
793.000000	28.981403
792.000000	29.376093
791.000000	29.810540
790.000000	30.253027
789.000000	30.671333
788.000000	31.043576
787.000000	31.360339
786.000000	31.630552
785.000000	31.885175
784.000000	32.163333
783.000000	32.490158
782.000000	32.868629
781.000000	33.285253
780.000000	33.713340
779.000000	34.115615
778.000000	34.459155
777.000000	34.734973
776.000000	34.961127
775.000000	35.170274
774.000000	35.398323
773.000000	35.675693
772.000000	36.013840
771.000000	36.395847
770.000000	36.784562
769.000000	37.140962
768.000000	37.435363
767.000000	37.654293
766.000000	37.810538
765.000000	37.944075
764.000000	38.102684
763.000000	38.317956
762.000000	38.597030
761.000000	38.925757
760.000000	39.270170
759.000000	39.583557
758.000000	39.827925
757.000000	39.994509
756.000000	40.103745
755.000000	40.193218
754.000000	40.308447
753.000000	40.490897
752.000000	40.757284
751.000000	41.088112
750.000000	41.439929
749.000000	41.766828
748.000000	42.031646
747.000000	42.214430
746.000000	42.326095
745.000000	42.410212
744.000000	42.520079
743.000000	42.692334
742.000000	42.938943
741.000000	43.248943
740.000000	43.586255
739.000000	43.896392
738.000000	44.132549
737.000000	44.279032
736.000000	44.350587
735.000000	44.380385
734.000000	44.413076
733.000000	44.492873
732.000000	44.639803
731.000000	44.836403
730.000000	45.041027
729.000000	45.209396
728.000000	45.304806
727.000000	45.307643
726.000000	45.231677
725.000000	45.125970
724.000000	45.049486
723.000000	45.043772
722.000000	45.127163
721.000000	45.297339
720.000000	45.525966
719.000000	45.762882
718.000000	45.963162
717.000000	46.111204
716.000000	46.218118
715.000000	46.310386
714.000000	46.427400
713.000000	46.611414
712.000000	46.880986
711.000000	47.216287
710.000000	47.576225
709.000000	47.920465
708.000000	48.213571
707.000000	48.430437
706.000000	48.575869
705.000000	48.690305
704.000000	48.823610
703.000000	49.006682
702.000000	49.249591
701.000000	49.547126
700.000000	49.871496
699.000000	50.175362
698.000000	50.419525
697.000000	50.594762
696.000000	50.713543
695.000000	50.797630
694.000000	50.883256
693.000000	51.015796
692.000000	51.218080
691.000000	51.473347
690.000000	51.747797
689.000000	52.015037
688.000000	52.249732
687.000000	52.423305
686.000000	52.531495
685.000000	52.610109
684.000000	52.705566
683.000000	52.842905
682.000000	53.031411
681.000000	53.274805
680.000000	53.554284
679.000000	53.823633
678.000000	54.045041
677.000000	54.212617
676.000000	54.337032
675.000000	54.435525
674.000000	54.540436
673.000000	54.694477
672.000000	54.920301
671.000000	55.206657
670.000000	55.530211
669.000000	55.858528
668.000000	56.117747
667.000000	56.253526
666.000000	56.314444
665.000000	56.370991
664.000000	56.462575
663.000000	56.605999
662.000000	56.802671
661.000000	57.041979
660.000000	57.301489
659.000000	57.552669
658.000000	57.775232
657.000000	57.962717
656.000000	58.117580
655.000000	58.253498
654.000000	58.394268
653.000000	58.562177
652.000000	58.766247
651.000000	58.999092
650.000000	59.243434
649.000000	59.479906
648.000000	59.690968
647.000000	59.866274
646.000000	60.011682
645.000000	60.149669
644.000000	60.302929
643.000000	60.480961
642.000000	60.683929
641.000000	60.908349
640.000000	61.143098
639.000000	61.369153
638.000000	61.571700
637.000000	61.750290
636.000000	61.914743
635.000000	62.078116
634.000000	62.256599
633.000000	62.463846
632.000000	62.698164
631.000000	62.943400
630.000000	63.185787
629.000000	63.420357
628.000000	63.641188
627.000000	63.841349
626.000000	64.027847
625.000000	64.221256
624.000000	64.432145
623.000000	64.653496
622.000000	64.881375
621.000000	65.123781
620.000000	65.381113
619.000000	65.637653
618.000000	65.882370
617.000000	66.122213
616.000000	66.365002
615.000000	66.606995
614.000000	66.844835
613.000000	67.080750
612.000000	67.305517
611.000000	67.496238
610.000000	67.636946
609.000000	67.718789
608.000000	67.714081
607.000000	67.560872
606.000000	67.182476
605.000000	66.484214
604.000000	65.312356
603.000000	63.454550
602.000000	60.681389
601.000000	56.841850
600.000000	51.996808
599.000000	46.550973
598.000000	41.226791
597.000000	36.812609
596.000000	33.877649
595.000000	32.617557
594.000000	32.849714
593.000000	34.141532
592.000000	36.039030
591.000000	38.189883
590.000000	40.354504
589.000000	42.416398
588.000000	44.351554
587.000000	46.174262
586.000000	47.888984
585.000000	49.485242
584.000000	50.948199
583.000000	52.269108
582.000000	53.452927
581.000000	54.519983
580.000000	55.490833
579.000000	56.370713
578.000000	57.171166
577.000000	57.923341
576.000000	58.651605
575.000000	59.347320
574.000000	59.983240
573.000000	60.547919
572.000000	61.042256
571.000000	61.465965
570.000000	61.833605
569.000000	62.181927
568.000000	62.541541
567.000000	62.914841
566.000000	63.293230
565.000000	63.676428
564.000000	64.055553
563.000000	64.403606
562.000000	64.702511
561.000000	64.962731
560.000000	65.202029
559.000000	65.427216
558.000000	65.652283
557.000000	65.905125
556.000000	66.196090
555.000000	66.501585
554.000000	66.794468
553.000000	67.067124
552.000000	67.312441
551.000000	67.514340
550.000000	67.678983
549.000000	67.844600
548.000000	68.040503
547.000000	68.264081
546.000000	68.508460
545.000000	68.778439
544.000000	69.060850
543.000000	69.316824
542.000000	69.524555
541.000000	69.701410
540.000000	69.866489
539.000000	70.018341
538.000000	70.166949
537.000000	70.348019
536.000000	70.579862
535.000000	70.837620
534.000000	71.090859
533.000000	71.336469
532.000000	71.569957
531.000000	71.766030
530.000000	71.917622
529.000000	72.056506
528.000000	72.209987
527.000000	72.375068
526.000000	72.552252
525.000000	72.753566
524.000000	72.952473
523.000000	73.069832
522.000000	73.035523
521.000000	72.823643
520.000000	72.419785
519.000000	71.803864
518.000000	71.002439
517.000000	70.131483
516.000000	69.347209
515.000000	68.778077
514.000000	68.503436
513.000000	68.543003
512.000000	68.823310
511.000000	69.189183
510.000000	69.483853
509.000000	69.604962
508.000000	69.462319
507.000000	68.948951
506.000000	67.988828
505.000000	66.565852
504.000000	64.701653
503.000000	62.505751
502.000000	60.299150
501.000000	58.538377
500.000000	57.537962
499.000000	57.337459
498.000000	57.806537
497.000000	58.737721
496.000000	59.871945
495.000000	60.956156
494.000000	61.830118
493.000000	62.475795
492.000000	62.970101
491.000000	63.424576
490.000000	63.953975
489.000000	64.639172
488.000000	65.475583
487.000000	66.387385
486.000000	67.308058
485.000000	68.223163
484.000000	69.124577
483.000000	69.970390
482.000000	70.726104
481.000000	71.397077
480.000000	71.985747
479.000000	72.471961
478.000000	72.863052
477.000000	73.217480
476.000000	73.580305
475.000000	73.934727
474.000000	74.256959
473.000000	74.568734
472.000000	74.881784
471.000000	75.139447
470.000000	75.300557
469.000000	75.414601
468.000000	75.549151
467.000000	75.718616
466.000000	75.907368
465.000000	76.119251
464.000000	76.344081
463.000000	76.532798
462.000000	76.662635
461.000000	76.771912
460.000000	76.878401
459.000000	76.930946
458.000000	76.914688
457.000000	76.922359
456.000000	77.014003
455.000000	77.135134
454.000000	77.222838
453.000000	77.273557
452.000000	77.282540
451.000000	77.182428
450.000000	76.910196
449.000000	76.483686
448.000000	75.950380
447.000000	75.312525
446.000000	74.541534
445.000000	73.596541
444.000000	72.371665
443.000000	70.708096
442.000000	68.527195
441.000000	65.920057
440.000000	63.060238
439.000000	60.124644
438.000000	57.322027
437.000000	54.947160
436.000000	53.309705
435.000000	52.571882
434.000000	52.671210
433.000000	53.429976
432.000000	54.693859
431.000000	56.286492
430.000000	58.011110
429.000000	59.770510
428.000000	61.565227
427.000000	63.375204
426.000000	65.149264
425.000000	66.891628
424.000000	68.592424
423.000000	70.115233
422.000000	71.317316
421.000000	72.239408
420.000000	73.005598
419.000000	73.714999
418.000000	74.460118
417.000000	75.263111
416.000000	76.105293
415.000000	76.895063
414.000000	77.529200
413.000000	78.033044
412.000000	78.453299
411.000000	78.716466
410.000000	78.804782
409.000000	78.911769
408.000000	79.198938
407.000000	79.574223
406.000000	79.914388
405.000000	80.287297
404.000000	80.717889
403.000000	80.972828
402.000000	80.850750
401.000000	80.493072
400.000000	80.121268
