PE IR       SUBTECH     SPECTRUM    ASCII       PEDS        4.00        
   -1
23MS131-nitro.asc
24/09/06
15:36:25.00
24/09/06
15:36:25.00
Administrator
Sample 1121 By Administrator Date Friday, September 06 2024
400.000000
#HDR
-1
-1
#GR
cm-1
%T
1.0
0.0
4000.000000
-1.000000
3601
8
88.433045
3.873770
#DATA
4000.000000	51.291813
3999.000000	51.329486
3998.000000	51.367119
3997.000000	51.405055
3996.000000	51.443357
3995.000000	51.481783
3994.000000	51.520111
3993.000000	51.558236
3992.000000	51.596027
3991.000000	51.633363
3990.000000	51.670462
3989.000000	51.707908
3988.000000	51.746052
3987.000000	51.784530
3986.000000	51.822681
3985.000000	51.860258
3984.000000	51.897468
3983.000000	51.934446
3982.000000	51.970955
3981.000000	52.006559
3980.000000	52.040943
3979.000000	52.074054
3978.000000	52.106016
3977.000000	52.137082
3976.000000	52.167755
3975.000000	52.198610
3974.000000	52.229967
3973.000000	52.261901
3972.000000	52.294688
3971.000000	52.328804
3970.000000	52.364391
3969.000000	52.400952
3968.000000	52.437429
3967.000000	52.472600
3966.000000	52.505556
3965.000000	52.536312
3964.000000	52.565877
3963.000000	52.595665
3962.000000	52.626614
3961.000000	52.658767
3960.000000	52.691724
3959.000000	52.725015
3958.000000	52.758186
3957.000000	52.791223
3956.000000	52.824453
3955.000000	52.857890
3954.000000	52.890814
3953.000000	52.922530
3952.000000	52.953039
3951.000000	52.983121
3950.000000	53.013799
3949.000000	53.045293
3948.000000	53.076507
3947.000000	53.106177
3946.000000	53.134920
3945.000000	53.164984
3944.000000	53.198196
3943.000000	53.234971
3942.000000	53.275098
3941.000000	53.318059
3940.000000	53.361971
3939.000000	53.403447
3938.000000	53.439980
3937.000000	53.472250
3936.000000	53.502836
3935.000000	53.533156
3934.000000	53.562344
3933.000000	53.590044
3932.000000	53.618408
3931.000000	53.649888
3930.000000	53.683928
3929.000000	53.717522
3928.000000	53.749514
3927.000000	53.782079
3926.000000	53.816942
3925.000000	53.852609
3924.000000	53.887436
3923.000000	53.922266
3922.000000	53.956884
3921.000000	53.988453
3920.000000	54.016416
3919.000000	54.044997
3918.000000	54.078173
3917.000000	54.115219
3916.000000	54.153504
3915.000000	54.193211
3914.000000	54.235641
3913.000000	54.279438
3912.000000	54.322029
3911.000000	54.362325
3910.000000	54.399359
3909.000000	54.431677
3908.000000	54.458797
3907.000000	54.482721
3906.000000	54.504582
3905.000000	54.522703
3904.000000	54.535277
3903.000000	54.546413
3902.000000	54.563943
3901.000000	54.590954
3900.000000	54.623952
3899.000000	54.659298
3898.000000	54.697584
3897.000000	54.739210
3896.000000	54.780740
3895.000000	54.820500
3894.000000	54.862675
3893.000000	54.910427
3892.000000	54.957913
3891.000000	54.995372
3890.000000	55.022351
3889.000000	55.049832
3888.000000	55.083356
3887.000000	55.116393
3886.000000	55.139168
3885.000000	55.151881
3884.000000	55.167210
3883.000000	55.194173
3882.000000	55.227518
3881.000000	55.260574
3880.000000	55.293198
3879.000000	55.328209
3878.000000	55.366836
3877.000000	55.404882
3876.000000	55.436886
3875.000000	55.463073
3874.000000	55.488972
3873.000000	55.523103
3872.000000	55.567554
3871.000000	55.609195
3870.000000	55.632003
3869.000000	55.639578
3868.000000	55.654004
3867.000000	55.684915
3866.000000	55.717777
3865.000000	55.742500
3864.000000	55.769828
3863.000000	55.813164
3862.000000	55.866683
3861.000000	55.912951
3860.000000	55.946897
3859.000000	55.981269
3858.000000	56.032189
3857.000000	56.107803
3856.000000	56.197851
3855.000000	56.271081
3854.000000	56.293146
3853.000000	56.269037
3852.000000	56.244905
3851.000000	56.249843
3850.000000	56.269657
3849.000000	56.289769
3848.000000	56.318258
3847.000000	56.364530
3846.000000	56.424040
3845.000000	56.482610
3844.000000	56.529042
3843.000000	56.561447
3842.000000	56.586902
3841.000000	56.615636
3840.000000	56.649622
3839.000000	56.681684
3838.000000	56.706059
3837.000000	56.726544
3836.000000	56.751040
3835.000000	56.784367
3834.000000	56.826007
3833.000000	56.873057
3832.000000	56.920549
3831.000000	56.965079
3830.000000	57.007813
3829.000000	57.050470
3828.000000	57.091432
3827.000000	57.127150
3826.000000	57.156926
3825.000000	57.187985
3824.000000	57.227927
3823.000000	57.272009
3822.000000	57.306551
3821.000000	57.325984
3820.000000	57.343958
3819.000000	57.381383
3818.000000	57.435475
3817.000000	57.484131
3816.000000	57.515950
3815.000000	57.541782
3814.000000	57.581773
3813.000000	57.633904
3812.000000	57.677534
3811.000000	57.710465
3810.000000	57.751707
3809.000000	57.810233
3808.000000	57.869395
3807.000000	57.905155
3806.000000	57.917638
3805.000000	57.931529
3804.000000	57.961764
3803.000000	57.997757
3802.000000	58.022025
3801.000000	58.030824
3800.000000	58.043240
3799.000000	58.077624
3798.000000	58.124873
3797.000000	58.171101
3796.000000	58.217784
3795.000000	58.272324
3794.000000	58.335289
3793.000000	58.396700
3792.000000	58.448178
3791.000000	58.492227
3790.000000	58.534944
3789.000000	58.575902
3788.000000	58.611784
3787.000000	58.643286
3786.000000	58.674277
3785.000000	58.705951
3784.000000	58.737306
3783.000000	58.769815
3782.000000	58.806686
3781.000000	58.847844
3780.000000	58.890732
3779.000000	58.934257
3778.000000	58.979474
3777.000000	59.025944
3776.000000	59.068205
3775.000000	59.101520
3774.000000	59.129581
3773.000000	59.162291
3772.000000	59.203629
3771.000000	59.246180
3770.000000	59.280858
3769.000000	59.310116
3768.000000	59.343939
3767.000000	59.385286
3766.000000	59.427392
3765.000000	59.464489
3764.000000	59.499052
3763.000000	59.536834
3762.000000	59.575685
3761.000000	59.608053
3760.000000	59.634347
3759.000000	59.663622
3758.000000	59.699564
3757.000000	59.736508
3756.000000	59.772228
3755.000000	59.812814
3754.000000	59.859644
3753.000000	59.905070
3752.000000	59.941685
3751.000000	59.969451
3750.000000	59.989367
3749.000000	60.000945
3748.000000	60.015683
3747.000000	60.054240
3746.000000	60.118404
3745.000000	60.181408
3744.000000	60.219265
3743.000000	60.248297
3742.000000	60.294248
3741.000000	60.341992
3740.000000	60.373225
3739.000000	60.401066
3738.000000	60.440094
3737.000000	60.484219
3736.000000	60.522387
3735.000000	60.563695
3734.000000	60.625703
3733.000000	60.704312
3732.000000	60.776085
3731.000000	60.830344
3730.000000	60.878374
3729.000000	60.930704
3728.000000	60.984553
3727.000000	61.033397
3726.000000	61.078577
3725.000000	61.127499
3724.000000	61.181642
3723.000000	61.234046
3722.000000	61.282363
3721.000000	61.331736
3720.000000	61.385746
3719.000000	61.441768
3718.000000	61.494023
3717.000000	61.539779
3716.000000	61.583227
3715.000000	61.629508
3714.000000	61.675015
3713.000000	61.711881
3712.000000	61.740305
3711.000000	61.771901
3710.000000	61.816747
3709.000000	61.871745
3708.000000	61.926541
3707.000000	61.975859
3706.000000	62.022864
3705.000000	62.073557
3704.000000	62.130417
3703.000000	62.192470
3702.000000	62.257328
3701.000000	62.321786
3700.000000	62.383170
3699.000000	62.440407
3698.000000	62.492214
3697.000000	62.536323
3696.000000	62.573613
3695.000000	62.608852
3694.000000	62.643477
3693.000000	62.675040
3692.000000	62.707042
3691.000000	62.749622
3690.000000	62.806419
3689.000000	62.867583
3688.000000	62.921616
3687.000000	62.969606
3686.000000	63.018724
3685.000000	63.068419
3684.000000	63.113121
3683.000000	63.153148
3682.000000	63.193310
3681.000000	63.233377
3680.000000	63.268010
3679.000000	63.298722
3678.000000	63.334859
3677.000000	63.376986
3676.000000	63.414281
3675.000000	63.443844
3674.000000	63.480424
3673.000000	63.530660
3672.000000	63.578243
3671.000000	63.615768
3670.000000	63.658446
3669.000000	63.723161
3668.000000	63.810060
3667.000000	63.897566
3666.000000	63.967496
3665.000000	64.025779
3664.000000	64.087318
3663.000000	64.157808
3662.000000	64.231039
3661.000000	64.297340
3660.000000	64.353018
3659.000000	64.401257
3658.000000	64.444328
3657.000000	64.479068
3656.000000	64.501620
3655.000000	64.515698
3654.000000	64.529463
3653.000000	64.542903
3652.000000	64.550795
3651.000000	64.553389
3650.000000	64.560257
3649.000000	64.587466
3648.000000	64.645707
3647.000000	64.726087
3646.000000	64.809988
3645.000000	64.886620
3644.000000	64.954547
3643.000000	65.016606
3642.000000	65.076227
3641.000000	65.135527
3640.000000	65.193901
3639.000000	65.248152
3638.000000	65.295531
3637.000000	65.338157
3636.000000	65.379844
3635.000000	65.419780
3634.000000	65.454119
3633.000000	65.483815
3632.000000	65.513917
3631.000000	65.543132
3630.000000	65.565946
3629.000000	65.585910
3628.000000	65.618380
3627.000000	65.673247
3626.000000	65.735188
3625.000000	65.781156
3624.000000	65.811341
3623.000000	65.841333
3622.000000	65.879282
3621.000000	65.919483
3620.000000	65.953990
3619.000000	65.984688
3618.000000	66.017055
3617.000000	66.049306
3616.000000	66.075920
3615.000000	66.097797
3614.000000	66.122635
3613.000000	66.157211
3612.000000	66.202105
3611.000000	66.251800
3610.000000	66.300140
3609.000000	66.347697
3608.000000	66.402291
3607.000000	66.469447
3606.000000	66.543174
3605.000000	66.609236
3604.000000	66.658849
3603.000000	66.695946
3602.000000	66.729976
3601.000000	66.765590
3600.000000	66.801427
3599.000000	66.835769
3598.000000	66.868096
3597.000000	66.899451
3596.000000	66.935237
3595.000000	66.981422
3594.000000	67.037117
3593.000000	67.093283
3592.000000	67.138966
3591.000000	67.168281
3590.000000	67.184576
3589.000000	67.199166
3588.000000	67.227611
3587.000000	67.280228
3586.000000	67.352607
3585.000000	67.428079
3584.000000	67.492118
3583.000000	67.543736
3582.000000	67.591434
3581.000000	67.641630
3580.000000	67.694570
3579.000000	67.747689
3578.000000	67.798532
3577.000000	67.845108
3576.000000	67.887391
3575.000000	67.927539
3574.000000	67.967040
3573.000000	68.003874
3572.000000	68.033422
3571.000000	68.051561
3570.000000	68.057581
3569.000000	68.056763
3568.000000	68.062796
3567.000000	68.093609
3566.000000	68.156314
3565.000000	68.239324
3564.000000	68.323217
3563.000000	68.396857
3562.000000	68.460776
3561.000000	68.519470
3560.000000	68.575584
3559.000000	68.629534
3558.000000	68.680396
3557.000000	68.726442
3556.000000	68.767829
3555.000000	68.808945
3554.000000	68.855388
3553.000000	68.908476
3552.000000	68.963754
3551.000000	69.014572
3550.000000	69.055951
3549.000000	69.087220
3548.000000	69.113900
3547.000000	69.146390
3546.000000	69.192467
3545.000000	69.251025
3544.000000	69.315009
3543.000000	69.378209
3542.000000	69.437475
3541.000000	69.491603
3540.000000	69.541483
3539.000000	69.590289
3538.000000	69.640456
3537.000000	69.690752
3536.000000	69.737809
3535.000000	69.779622
3534.000000	69.815783
3533.000000	69.846117
3532.000000	69.871630
3531.000000	69.896023
3530.000000	69.923983
3529.000000	69.958336
3528.000000	70.000189
3527.000000	70.049913
3526.000000	70.105929
3525.000000	70.163155
3524.000000	70.215827
3523.000000	70.261618
3522.000000	70.301592
3521.000000	70.337481
3520.000000	70.371099
3519.000000	70.405300
3518.000000	70.443049
3517.000000	70.485406
3516.000000	70.530807
3515.000000	70.575219
3514.000000	70.613002
3513.000000	70.639987
3512.000000	70.657299
3511.000000	70.671408
3510.000000	70.688974
3509.000000	70.711330
3508.000000	70.734803
3507.000000	70.755568
3506.000000	70.772895
3505.000000	70.789207
3504.000000	70.808888
3503.000000	70.835454
3502.000000	70.868252
3501.000000	70.902597
3500.000000	70.933890
3499.000000	70.960078
3498.000000	70.979976
3497.000000	70.992028
3496.000000	70.996230
3495.000000	70.994933
3494.000000	70.990085
3493.000000	70.981788
3492.000000	70.971021
3491.000000	70.961480
3490.000000	70.956888
3489.000000	70.957659
3488.000000	70.960932
3487.000000	70.962427
3486.000000	70.957606
3485.000000	70.943626
3484.000000	70.922667
3483.000000	70.901445
3482.000000	70.884771
3481.000000	70.870308
3480.000000	70.851127
3479.000000	70.822500
3478.000000	70.785169
3477.000000	70.743940
3476.000000	70.704954
3475.000000	70.672682
3474.000000	70.647560
3473.000000	70.626622
3472.000000	70.606462
3471.000000	70.583894
3470.000000	70.553859
3469.000000	70.510032
3468.000000	70.449250
3467.000000	70.374154
3466.000000	70.290847
3465.000000	70.205628
3464.000000	70.124383
3463.000000	70.051724
3462.000000	69.987780
3461.000000	69.927098
3460.000000	69.862697
3459.000000	69.790849
3458.000000	69.711431
3457.000000	69.625605
3456.000000	69.534484
3455.000000	69.438555
3454.000000	69.337286
3453.000000	69.229936
3452.000000	69.117605
3451.000000	69.003504
3450.000000	68.890283
3449.000000	68.778680
3448.000000	68.669374
3447.000000	68.563348
3446.000000	68.458859
3445.000000	68.349965
3444.000000	68.230492
3443.000000	68.099089
3442.000000	67.959484
3441.000000	67.817162
3440.000000	67.676441
3439.000000	67.538722
3438.000000	67.401545
3437.000000	67.259683
3436.000000	67.108529
3435.000000	66.946643
3434.000000	66.775615
3433.000000	66.598670
3432.000000	66.418734
3431.000000	66.235990
3430.000000	66.046380
3429.000000	65.844379
3428.000000	65.628505
3427.000000	65.402184
3426.000000	65.169744
3425.000000	64.933684
3424.000000	64.695827
3423.000000	64.458440
3422.000000	64.222580
3421.000000	63.987261
3420.000000	63.750629
3419.000000	63.510060
3418.000000	63.261482
3417.000000	63.000880
3416.000000	62.727309
3415.000000	62.442534
3414.000000	62.147615
3413.000000	61.842672
3412.000000	61.529549
3411.000000	61.211726
3410.000000	60.890478
3409.000000	60.563213
3408.000000	60.227194
3407.000000	59.882764
3406.000000	59.532500
3405.000000	59.179082
3404.000000	58.823631
3403.000000	58.463733
3402.000000	58.092080
3401.000000	57.699709
3400.000000	57.282664
3399.000000	56.845108
3398.000000	56.396717
3397.000000	55.947619
3396.000000	55.504019
3395.000000	55.065931
3394.000000	54.627594
3393.000000	54.181243
3392.000000	53.720820
3391.000000	53.242458
3390.000000	52.744589
3389.000000	52.229123
3388.000000	51.701558
3387.000000	51.167500
3386.000000	50.629391
3385.000000	50.088263
3384.000000	49.545917
3383.000000	49.003316
3382.000000	48.458213
3381.000000	47.906773
3380.000000	47.347130
3379.000000	46.779202
3378.000000	46.202521
3377.000000	45.616497
3376.000000	45.021801
3375.000000	44.420160
3374.000000	43.813346
3373.000000	43.203427
3372.000000	42.592549
3371.000000	41.980617
3370.000000	41.365149
3369.000000	40.744441
3368.000000	40.119432
3367.000000	39.491718
3366.000000	38.861610
3365.000000	38.229481
3364.000000	37.596482
3363.000000	36.962603
3362.000000	36.326358
3361.000000	35.687721
3360.000000	35.049422
3359.000000	34.414115
3358.000000	33.782417
3357.000000	33.154876
3356.000000	32.533240
3355.000000	31.918272
3354.000000	31.308558
3353.000000	30.702682
3352.000000	30.100453
3351.000000	29.501440
3350.000000	28.904689
3349.000000	28.310901
3348.000000	27.722593
3347.000000	27.141021
3346.000000	26.565597
3345.000000	25.996621
3344.000000	25.435981
3343.000000	24.884796
3342.000000	24.342599
3341.000000	23.809566
3340.000000	23.286538
3339.000000	22.772474
3338.000000	22.265093
3337.000000	21.764021
3336.000000	21.270987
3335.000000	20.786659
3334.000000	20.310183
3333.000000	19.842237
3332.000000	19.384768
3331.000000	18.938005
3330.000000	18.500540
3329.000000	18.072081
3328.000000	17.653710
3327.000000	17.245127
3326.000000	16.845250
3325.000000	16.455096
3324.000000	16.076319
3323.000000	15.707966
3322.000000	15.347454
3321.000000	14.994697
3320.000000	14.651934
3319.000000	14.319530
3318.000000	13.996319
3317.000000	13.682835
3316.000000	13.380708
3315.000000	13.089471
3314.000000	12.806941
3313.000000	12.532881
3312.000000	12.268321
3311.000000	12.012086
3310.000000	11.762313
3309.000000	11.520208
3308.000000	11.289436
3307.000000	11.071994
3306.000000	10.868061
3305.000000	10.679112
3304.000000	10.506023
3303.000000	10.345696
3302.000000	10.193218
3301.000000	10.046776
3300.000000	9.907507
3299.000000	9.775129
3298.000000	9.648402
3297.000000	9.528793
3296.000000	9.418971
3295.000000	9.318726
3294.000000	9.225799
3293.000000	9.140554
3292.000000	9.065762
3291.000000	9.001630
3290.000000	8.945544
3289.000000	8.895583
3288.000000	8.851185
3287.000000	8.811041
3286.000000	8.773626
3285.000000	8.739863
3284.000000	8.711398
3283.000000	8.687279
3282.000000	8.665415
3281.000000	8.646014
3280.000000	8.630510
3279.000000	8.617948
3278.000000	8.606231
3277.000000	8.595897
3276.000000	8.588941
3275.000000	8.584932
3274.000000	8.581730
3273.000000	8.579452
3272.000000	8.580402
3271.000000	8.585602
3270.000000	8.594412
3269.000000	8.606372
3268.000000	8.620412
3267.000000	8.633733
3266.000000	8.644542
3265.000000	8.654811
3264.000000	8.667407
3263.000000	8.681828
3262.000000	8.695981
3261.000000	8.710190
3260.000000	8.725980
3259.000000	8.742475
3258.000000	8.757723
3257.000000	8.772462
3256.000000	8.788929
3255.000000	8.807149
3254.000000	8.825616
3253.000000	8.844381
3252.000000	8.864146
3251.000000	8.883574
3250.000000	8.900968
3249.000000	8.917574
3248.000000	8.936091
3247.000000	8.957000
3246.000000	8.979160
3245.000000	9.002522
3244.000000	9.027141
3243.000000	9.051000
3242.000000	9.072134
3241.000000	9.091670
3240.000000	9.111773
3239.000000	9.131920
3238.000000	9.150170
3237.000000	9.166633
3236.000000	9.182817
3235.000000	9.199130
3234.000000	9.215855
3233.000000	9.234824
3232.000000	9.256930
3231.000000	9.279528
3230.000000	9.299414
3229.000000	9.316816
3228.000000	9.333614
3227.000000	9.349573
3226.000000	9.363478
3225.000000	9.376181
3224.000000	9.389136
3223.000000	9.401515
3222.000000	9.411909
3221.000000	9.421349
3220.000000	9.431548
3219.000000	9.441590
3218.000000	9.449506
3217.000000	9.455488
3216.000000	9.460642
3215.000000	9.464343
3214.000000	9.465748
3213.000000	9.466240
3212.000000	9.467259
3211.000000	9.467404
3210.000000	9.464732
3209.000000	9.460042
3208.000000	9.455057
3207.000000	9.449193
3206.000000	9.441118
3205.000000	9.431722
3204.000000	9.422316
3203.000000	9.411775
3202.000000	9.398539
3201.000000	9.383607
3200.000000	9.368583
3199.000000	9.352489
3198.000000	9.333713
3197.000000	9.313278
3196.000000	9.293018
3195.000000	9.272363
3194.000000	9.249920
3193.000000	9.226514
3192.000000	9.203596
3191.000000	9.180361
3190.000000	9.155488
3189.000000	9.129875
3188.000000	9.104730
3187.000000	9.078838
3186.000000	9.050738
3185.000000	9.021824
3184.000000	8.994215
3183.000000	8.967412
3182.000000	8.939997
3181.000000	8.912741
3180.000000	8.887018
3179.000000	8.862010
3178.000000	8.836437
3177.000000	8.811281
3176.000000	8.787892
3175.000000	8.765287
3174.000000	8.742194
3173.000000	8.719840
3172.000000	8.699796
3171.000000	8.681057
3170.000000	8.662048
3169.000000	8.643619
3168.000000	8.627314
3167.000000	8.612565
3166.000000	8.598453
3165.000000	8.586111
3164.000000	8.576588
3163.000000	8.568431
3162.000000	8.560051
3161.000000	8.552508
3160.000000	8.547241
3159.000000	8.543270
3158.000000	8.539336
3157.000000	8.536434
3156.000000	8.535610
3155.000000	8.535675
3154.000000	8.535994
3153.000000	8.539149
3152.000000	8.547572
3151.000000	8.559769
3150.000000	8.572749
3149.000000	8.586004
3148.000000	8.600351
3147.000000	8.615132
3146.000000	8.629745
3145.000000	8.645777
3144.000000	8.664508
3143.000000	8.684378
3142.000000	8.703659
3141.000000	8.723769
3140.000000	8.747151
3139.000000	8.773815
3138.000000	8.802655
3137.000000	8.833891
3136.000000	8.867535
3135.000000	8.901607
3134.000000	8.934564
3133.000000	8.967705
3132.000000	9.002683
3131.000000	9.038971
3130.000000	9.076177
3129.000000	9.116167
3128.000000	9.160231
3127.000000	9.206378
3126.000000	9.252130
3125.000000	9.297719
3124.000000	9.344009
3123.000000	9.389993
3122.000000	9.435091
3121.000000	9.481491
3120.000000	9.531368
3119.000000	9.583929
3118.000000	9.637986
3117.000000	9.694975
3116.000000	9.756518
3115.000000	9.821296
3114.000000	9.886998
3113.000000	9.953337
3112.000000	10.020581
3111.000000	10.087546
3110.000000	10.153840
3109.000000	10.221719
3108.000000	10.293016
3107.000000	10.366229
3106.000000	10.439153
3105.000000	10.512240
3104.000000	10.586790
3103.000000	10.662262
3102.000000	10.738026
3101.000000	10.815621
3100.000000	10.896666
3099.000000	10.980213
3098.000000	11.064598
3097.000000	11.149881
3096.000000	11.236165
3095.000000	11.321827
3094.000000	11.405808
3093.000000	11.489731
3092.000000	11.575585
3091.000000	11.663232
3090.000000	11.752103
3089.000000	11.842914
3088.000000	11.935618
3087.000000	12.028131
3086.000000	12.119341
3085.000000	12.211177
3084.000000	12.305419
3083.000000	12.400786
3082.000000	12.495486
3081.000000	12.590278
3080.000000	12.686755
3079.000000	12.784779
3078.000000	12.883876
3077.000000	12.984925
3076.000000	13.088102
3075.000000	13.191388
3074.000000	13.293346
3073.000000	13.395234
3072.000000	13.498294
3071.000000	13.601191
3070.000000	13.702408
3069.000000	13.803004
3068.000000	13.904714
3067.000000	14.007343
3066.000000	14.110154
3065.000000	14.213797
3064.000000	14.318694
3063.000000	14.423589
3062.000000	14.527719
3061.000000	14.632386
3060.000000	14.738460
3059.000000	14.844489
3058.000000	14.949237
3057.000000	15.053877
3056.000000	15.159563
3055.000000	15.264959
3054.000000	15.368431
3053.000000	15.470794
3052.000000	15.573808
3051.000000	15.677764
3050.000000	15.782341
3049.000000	15.887906
3048.000000	15.994130
3047.000000	16.099254
3046.000000	16.202600
3045.000000	16.305979
3044.000000	16.411017
3043.000000	16.517098
3042.000000	16.623380
3041.000000	16.730490
3040.000000	16.838327
3039.000000	16.944550
3038.000000	17.047407
3037.000000	17.148207
3036.000000	17.249339
3035.000000	17.351758
3034.000000	17.455953
3033.000000	17.563041
3032.000000	17.672787
3031.000000	17.782544
3030.000000	17.890113
3029.000000	17.995852
3028.000000	18.100576
3027.000000	18.203655
3026.000000	18.304977
3025.000000	18.406490
3024.000000	18.509685
3023.000000	18.613468
3022.000000	18.716325
3021.000000	18.818672
3020.000000	18.921278
3019.000000	19.023352
3018.000000	19.124109
3017.000000	19.224430
3016.000000	19.325234
3015.000000	19.425934
3014.000000	19.526145
3013.000000	19.627172
3012.000000	19.730140
3011.000000	19.834356
3010.000000	19.938883
3009.000000	20.043902
3008.000000	20.149218
3007.000000	20.253494
3006.000000	20.356390
3005.000000	20.459460
3004.000000	20.563470
3003.000000	20.666749
3002.000000	20.767627
3001.000000	20.866530
3000.000000	20.964446
2999.000000	21.061444
2998.000000	21.158091
2997.000000	21.256035
2996.000000	21.355559
2995.000000	21.454736
2994.000000	21.552646
2993.000000	21.651276
2992.000000	21.752474
2991.000000	21.855149
2990.000000	21.957262
2989.000000	22.058546
2988.000000	22.159322
2987.000000	22.258647
2986.000000	22.355642
2985.000000	22.451126
2984.000000	22.546148
2983.000000	22.640545
2982.000000	22.734599
2981.000000	22.830333
2980.000000	22.929242
2979.000000	23.030101
2978.000000	23.130649
2977.000000	23.230083
2976.000000	23.328575
2975.000000	23.425977
2974.000000	23.522576
2973.000000	23.619524
2972.000000	23.717058
2971.000000	23.813751
2970.000000	23.908852
2969.000000	24.003680
2968.000000	24.099369
2967.000000	24.195135
2966.000000	24.290222
2965.000000	24.385673
2964.000000	24.482431
2963.000000	24.579412
2962.000000	24.675215
2961.000000	24.769992
2960.000000	24.864044
2959.000000	24.956382
2958.000000	25.046340
2957.000000	25.134960
2956.000000	25.223226
2955.000000	25.310848
2954.000000	25.398294
2953.000000	25.487880
2952.000000	25.580837
2951.000000	25.674988
2950.000000	25.767229
2949.000000	25.856800
2948.000000	25.944602
2947.000000	26.031147
2946.000000	26.117135
2945.000000	26.204520
2944.000000	26.294859
2943.000000	26.387412
2942.000000	26.480239
2941.000000	26.572159
2940.000000	26.662528
2939.000000	26.750676
2938.000000	26.836994
2937.000000	26.923204
2936.000000	27.010112
2935.000000	27.096275
2934.000000	27.180159
2933.000000	27.262144
2932.000000	27.343169
2931.000000	27.423044
2930.000000	27.501553
2929.000000	27.579757
2928.000000	27.658627
2927.000000	27.737753
2926.000000	27.816681
2925.000000	27.895998
2924.000000	27.975836
2923.000000	28.054915
2922.000000	28.132504
2921.000000	28.209760
2920.000000	28.287925
2919.000000	28.366797
2918.000000	28.446071
2917.000000	28.526404
2916.000000	28.607792
2915.000000	28.688576
2914.000000	28.767410
2913.000000	28.844864
2912.000000	28.922008
2911.000000	28.998929
2910.000000	29.075709
2909.000000	29.153199
2908.000000	29.231569
2907.000000	29.309361
2906.000000	29.385179
2905.000000	29.459087
2904.000000	29.531432
2903.000000	29.601872
2902.000000	29.670746
2901.000000	29.739964
2900.000000	29.811321
2899.000000	29.884748
2898.000000	29.959079
2897.000000	30.033088
2896.000000	30.104953
2895.000000	30.172515
2894.000000	30.235432
2893.000000	30.295948
2892.000000	30.356459
2891.000000	30.417508
2890.000000	30.478847
2889.000000	30.540889
2888.000000	30.603900
2887.000000	30.667230
2886.000000	30.730701
2885.000000	30.795602
2884.000000	30.863212
2883.000000	30.933380
2882.000000	31.005449
2881.000000	31.079299
2880.000000	31.154440
2879.000000	31.229527
2878.000000	31.304132
2877.000000	31.379803
2876.000000	31.457832
2875.000000	31.536744
2874.000000	31.613320
2873.000000	31.685706
2872.000000	31.754696
2871.000000	31.822651
2870.000000	31.891917
2869.000000	31.963440
2868.000000	32.035922
2867.000000	32.106923
2866.000000	32.175401
2865.000000	32.242636
2864.000000	32.310474
2863.000000	32.379590
2862.000000	32.449674
2861.000000	32.519887
2860.000000	32.588601
2859.000000	32.654185
2858.000000	32.716898
2857.000000	32.779033
2856.000000	32.842618
2855.000000	32.908045
2854.000000	32.975149
2853.000000	33.044019
2852.000000	33.114096
2851.000000	33.183952
2850.000000	33.252652
2849.000000	33.320133
2848.000000	33.385996
2847.000000	33.449631
2846.000000	33.512110
2845.000000	33.576251
2844.000000	33.644048
2843.000000	33.715413
2842.000000	33.789643
2841.000000	33.865910
2840.000000	33.941506
2839.000000	34.012041
2838.000000	34.075375
2837.000000	34.134041
2836.000000	34.192348
2835.000000	34.252341
2834.000000	34.313705
2833.000000	34.376039
2832.000000	34.439372
2831.000000	34.503356
2830.000000	34.567719
2829.000000	34.633127
2828.000000	34.700417
2827.000000	34.769404
2826.000000	34.839328
2825.000000	34.909736
2824.000000	34.980010
2823.000000	35.048875
2822.000000	35.115532
2821.000000	35.180684
2820.000000	35.245544
2819.000000	35.310532
2818.000000	35.375711
2817.000000	35.441658
2816.000000	35.508777
2815.000000	35.576442
2814.000000	35.643824
2813.000000	35.710923
2812.000000	35.777788
2811.000000	35.843380
2810.000000	35.906355
2809.000000	35.966651
2808.000000	36.025346
2807.000000	36.083316
2806.000000	36.140752
2805.000000	36.197576
2804.000000	36.253607
2803.000000	36.308709
2802.000000	36.363365
2801.000000	36.418627
2800.000000	36.474853
2799.000000	36.531034
2798.000000	36.585972
2797.000000	36.639541
2796.000000	36.692214
2795.000000	36.744105
2794.000000	36.795295
2793.000000	36.846509
2792.000000	36.898552
2791.000000	36.951419
2790.000000	37.004634
2789.000000	37.058059
2788.000000	37.111839
2787.000000	37.166069
2786.000000	37.221051
2785.000000	37.277309
2784.000000	37.334722
2783.000000	37.392159
2782.000000	37.448530
2781.000000	37.503593
2780.000000	37.557197
2779.000000	37.608560
2778.000000	37.657137
2777.000000	37.703518
2776.000000	37.748619
2775.000000	37.792343
2774.000000	37.833817
2773.000000	37.872561
2772.000000	37.908544
2771.000000	37.941508
2770.000000	37.970900
2769.000000	37.996165
2768.000000	38.016665
2767.000000	38.031691
2766.000000	38.041327
2765.000000	38.046870
2764.000000	38.049697
2763.000000	38.050218
2762.000000	38.048407
2761.000000	38.044902
2760.000000	38.040851
2759.000000	38.037010
2758.000000	38.033756
2757.000000	38.031397
2756.000000	38.029656
2755.000000	38.027139
2754.000000	38.022048
2753.000000	38.013354
2752.000000	38.000773
2751.000000	37.984126
2750.000000	37.963376
2749.000000	37.938807
2748.000000	37.910629
2747.000000	37.878545
2746.000000	37.842174
2745.000000	37.801496
2744.000000	37.756276
2743.000000	37.705896
2742.000000	37.650534
2741.000000	37.592081
2740.000000	37.533516
2739.000000	37.477835
2738.000000	37.428073
2737.000000	37.387799
2736.000000	37.360520
2735.000000	37.348732
2734.000000	37.354215
2733.000000	37.378063
2732.000000	37.420210
2731.000000	37.479528
2730.000000	37.554457
2729.000000	37.643409
2728.000000	37.743587
2727.000000	37.850543
2726.000000	37.960100
2725.000000	38.069914
2724.000000	38.179226
2723.000000	38.287806
2722.000000	38.395743
2721.000000	38.503633
2720.000000	38.611687
2719.000000	38.718858
2718.000000	38.823413
2717.000000	38.923859
2716.000000	39.018708
2715.000000	39.106125
2714.000000	39.184564
2713.000000	39.253760
2712.000000	39.314588
2711.000000	39.367931
2710.000000	39.414581
2709.000000	39.455573
2708.000000	39.491862
2707.000000	39.523909
2706.000000	39.551788
2705.000000	39.575874
2704.000000	39.596707
2703.000000	39.614370
2702.000000	39.628712
2701.000000	39.639638
2700.000000	39.646888
2699.000000	39.649704
2698.000000	39.647434
2697.000000	39.640610
2696.000000	39.630855
2695.000000	39.620093
2694.000000	39.610181
2693.000000	39.602733
2692.000000	39.598452
2691.000000	39.596551
2690.000000	39.595309
2689.000000	39.593056
2688.000000	39.588332
2687.000000	39.579822
2686.000000	39.567065
2685.000000	39.551224
2684.000000	39.534502
2683.000000	39.518738
2682.000000	39.504837
2681.000000	39.493056
2680.000000	39.483141
2679.000000	39.474403
2678.000000	39.466414
2677.000000	39.459638
2676.000000	39.455072
2675.000000	39.453352
2674.000000	39.454546
2673.000000	39.458646
2672.000000	39.465667
2671.000000	39.475627
2670.000000	39.488853
2669.000000	39.506081
2668.000000	39.528111
2667.000000	39.555274
2666.000000	39.587391
2665.000000	39.623728
2664.000000	39.662418
2663.000000	39.700494
2662.000000	39.734917
2661.000000	39.763529
2660.000000	39.785151
2659.000000	39.799561
2658.000000	39.807945
2657.000000	39.813031
2656.000000	39.818080
2655.000000	39.825573
2654.000000	39.836905
2653.000000	39.852675
2652.000000	39.872809
2651.000000	39.896903
2650.000000	39.924995
2649.000000	39.957758
2648.000000	39.996020
2647.000000	40.040367
2646.000000	40.091277
2645.000000	40.149142
2644.000000	40.213432
2643.000000	40.282900
2642.000000	40.356847
2641.000000	40.435486
2640.000000	40.518837
2639.000000	40.605539
2638.000000	40.693538
2637.000000	40.781176
2636.000000	40.866813
2635.000000	40.947951
2634.000000	41.021783
2633.000000	41.086656
2632.000000	41.142615
2631.000000	41.190887
2630.000000	41.233179
2629.000000	41.271577
2628.000000	41.308017
2627.000000	41.343496
2626.000000	41.378205
2625.000000	41.411904
2624.000000	41.444043
2623.000000	41.473617
2622.000000	41.499515
2621.000000	41.521297
2620.000000	41.538984
2619.000000	41.552378
2618.000000	41.560889
2617.000000	41.563908
2616.000000	41.561213
2615.000000	41.552891
2614.000000	41.539603
2613.000000	41.522722
2612.000000	41.503417
2611.000000	41.481813
2610.000000	41.457129
2609.000000	41.428698
2608.000000	41.396485
2607.000000	41.360812
2606.000000	41.322656
2605.000000	41.284269
2604.000000	41.248964
2603.000000	41.220094
2602.000000	41.200517
2601.000000	41.192396
2600.000000	41.196985
2599.000000	41.214296
2598.000000	41.243079
2597.000000	41.281679
2596.000000	41.328117
2595.000000	41.380166
2594.000000	41.435970
2593.000000	41.494312
2592.000000	41.554607
2591.000000	41.616290
2590.000000	41.678894
2589.000000	41.742716
2588.000000	41.808747
2587.000000	41.878221
2586.000000	41.952171
2585.000000	42.031335
2584.000000	42.115940
2583.000000	42.205104
2582.000000	42.296876
2581.000000	42.388915
2580.000000	42.479299
2579.000000	42.567020
2578.000000	42.652029
2577.000000	42.735078
2576.000000	42.817251
2575.000000	42.899477
2574.000000	42.982385
2573.000000	43.066388
2572.000000	43.151479
2571.000000	43.236902
2570.000000	43.321320
2569.000000	43.403324
2568.000000	43.481777
2567.000000	43.555476
2566.000000	43.622887
2565.000000	43.682511
2564.000000	43.733022
2563.000000	43.773506
2562.000000	43.803494
2561.000000	43.823129
2560.000000	43.833285
2559.000000	43.834855
2558.000000	43.828920
2557.000000	43.817190
2556.000000	43.802005
2555.000000	43.785977
2554.000000	43.771840
2553.000000	43.763018
2552.000000	43.763622
2551.000000	43.777427
2550.000000	43.806706
2549.000000	43.852518
2548.000000	43.914774
2547.000000	43.991841
2546.000000	44.080576
2545.000000	44.176734
2544.000000	44.276313
2543.000000	44.375905
2542.000000	44.472516
2541.000000	44.563852
2540.000000	44.648545
2539.000000	44.725793
2538.000000	44.794844
2537.000000	44.855196
2536.000000	44.907004
2535.000000	44.951318
2534.000000	44.989732
2533.000000	45.024502
2532.000000	45.058712
2531.000000	45.095318
2530.000000	45.136019
2529.000000	45.180956
2528.000000	45.229298
2527.000000	45.279664
2526.000000	45.330174
2525.000000	45.378906
2524.000000	45.424770
2523.000000	45.467948
2522.000000	45.509673
2521.000000	45.551848
2520.000000	45.596431
2519.000000	45.644445
2518.000000	45.695358
2517.000000	45.747573
2516.000000	45.799423
2515.000000	45.849522
2514.000000	45.896719
2513.000000	45.940397
2512.000000	45.980852
2511.000000	46.018727
2510.000000	46.054257
2509.000000	46.087420
2508.000000	46.118639
2507.000000	46.148955
2506.000000	46.179515
2505.000000	46.211458
2504.000000	46.245972
2503.000000	46.283697
2502.000000	46.323970
2501.000000	46.364957
2500.000000	46.404463
2499.000000	46.440394
2498.000000	46.470949
2497.000000	46.495404
2496.000000	46.514779
2495.000000	46.531405
2494.000000	46.547858
2493.000000	46.566408
2492.000000	46.588917
2491.000000	46.616157
2490.000000	46.647156
2489.000000	46.679696
2488.000000	46.711504
2487.000000	46.740790
2486.000000	46.766223
2485.000000	46.787253
2484.000000	46.804474
2483.000000	46.819033
2482.000000	46.831858
2481.000000	46.843796
2480.000000	46.856136
2479.000000	46.870333
2478.000000	46.887306
2477.000000	46.907505
2476.000000	46.931163
2475.000000	46.957728
2474.000000	46.985266
2473.000000	47.011268
2472.000000	47.033907
2471.000000	47.052168
2470.000000	47.065315
2469.000000	47.073451
2468.000000	47.078448
2467.000000	47.083450
2466.000000	47.091267
2465.000000	47.103611
2464.000000	47.121341
2463.000000	47.144263
2462.000000	47.170592
2461.000000	47.197432
2460.000000	47.222120
2459.000000	47.242896
2458.000000	47.258765
2457.000000	47.269680
2456.000000	47.276924
2455.000000	47.282599
2454.000000	47.288724
2453.000000	47.297028
2452.000000	47.309089
2451.000000	47.325718
2450.000000	47.346377
2449.000000	47.369782
2448.000000	47.394881
2447.000000	47.420599
2446.000000	47.445006
2445.000000	47.465815
2444.000000	47.481733
2443.000000	47.492863
2442.000000	47.500159
2441.000000	47.505368
2440.000000	47.511114
2439.000000	47.520005
2438.000000	47.533483
2437.000000	47.551940
2436.000000	47.575328
2435.000000	47.602726
2434.000000	47.631592
2433.000000	47.658620
2432.000000	47.681501
2431.000000	47.699317
2430.000000	47.711810
2429.000000	47.719587
2428.000000	47.724916
2427.000000	47.731093
2426.000000	47.740727
2425.000000	47.755091
2424.000000	47.774681
2423.000000	47.799173
2422.000000	47.826867
2421.000000	47.855165
2420.000000	47.881926
2419.000000	47.905787
2418.000000	47.925596
2417.000000	47.940657
2416.000000	47.951659
2415.000000	47.960449
2414.000000	47.968830
2413.000000	47.978312
2412.000000	47.990692
2411.000000	48.007683
2410.000000	48.029713
2409.000000	48.055818
2408.000000	48.084566
2407.000000	48.114394
2406.000000	48.143147
2405.000000	48.168501
2404.000000	48.189121
2403.000000	48.204939
2402.000000	48.216549
2401.000000	48.225335
2400.000000	48.234002
2399.000000	48.245882
2398.000000	48.263327
2397.000000	48.287124
2396.000000	48.316898
2395.000000	48.351043
2394.000000	48.386595
2393.000000	48.420290
2392.000000	48.450179
2391.000000	48.475733
2390.000000	48.497040
2389.000000	48.515037
2388.000000	48.532241
2387.000000	48.551848
2386.000000	48.575908
2385.000000	48.605072
2384.000000	48.639834
2383.000000	48.680832
2382.000000	48.727999
2381.000000	48.780462
2380.000000	48.837237
2379.000000	48.896962
2378.000000	48.957013
2377.000000	49.014072
2376.000000	49.065845
2375.000000	49.111638
2374.000000	49.151586
2373.000000	49.187057
2372.000000	49.221645
2371.000000	49.260153
2370.000000	49.305874
2369.000000	49.359555
2368.000000	49.420419
2367.000000	49.486442
2366.000000	49.553783
2365.000000	49.618087
2364.000000	49.677128
2363.000000	49.731135
2362.000000	49.780846
2361.000000	49.827222
2360.000000	49.872714
2359.000000	49.920116
2358.000000	49.969847
2357.000000	50.019908
2356.000000	50.069068
2355.000000	50.117754
2354.000000	50.166231
2353.000000	50.214607
2352.000000	50.264843
2351.000000	50.319202
2350.000000	50.376242
2349.000000	50.432062
2348.000000	50.484410
2347.000000	50.533074
2346.000000	50.579172
2345.000000	50.626740
2344.000000	50.680729
2343.000000	50.740256
2342.000000	50.798594
2341.000000	50.852213
2340.000000	50.903884
2339.000000	50.956226
2338.000000	51.007819
2337.000000	51.055890
2336.000000	51.100256
2335.000000	51.142890
2334.000000	51.185185
2333.000000	51.228331
2332.000000	51.275450
2331.000000	51.329927
2330.000000	51.390971
2329.000000	51.453629
2328.000000	51.513769
2327.000000	51.570555
2326.000000	51.624520
2325.000000	51.676485
2324.000000	51.728545
2323.000000	51.783142
2322.000000	51.839706
2321.000000	51.894889
2320.000000	51.946187
2319.000000	51.993749
2318.000000	52.038739
2317.000000	52.082484
2316.000000	52.127682
2315.000000	52.177776
2314.000000	52.234236
2313.000000	52.295508
2312.000000	52.358645
2311.000000	52.420351
2310.000000	52.477117
2309.000000	52.526820
2308.000000	52.570807
2307.000000	52.612472
2306.000000	52.653854
2305.000000	52.695045
2304.000000	52.736418
2303.000000	52.779036
2302.000000	52.822870
2301.000000	52.866797
2300.000000	52.910484
2299.000000	52.954447
2298.000000	52.998256
2297.000000	53.040745
2296.000000	53.081843
2295.000000	53.122325
2294.000000	53.161821
2293.000000	53.199163
2292.000000	53.234711
2291.000000	53.270329
2290.000000	53.307165
2289.000000	53.345339
2288.000000	53.385440
2287.000000	53.427918
2286.000000	53.471129
2285.000000	53.512321
2284.000000	53.550741
2283.000000	53.587792
2282.000000	53.624493
2281.000000	53.661099
2280.000000	53.698885
2279.000000	53.739578
2278.000000	53.782719
2277.000000	53.825917
2276.000000	53.867805
2275.000000	53.908667
2274.000000	53.948433
2273.000000	53.986629
2272.000000	54.024325
2271.000000	54.063528
2270.000000	54.104373
2269.000000	54.145141
2268.000000	54.184955
2267.000000	54.224045
2266.000000	54.261606
2265.000000	54.296171
2264.000000	54.328275
2263.000000	54.360161
2262.000000	54.392650
2261.000000	54.424722
2260.000000	54.455935
2259.000000	54.486583
2258.000000	54.515371
2257.000000	54.539839
2256.000000	54.559510
2255.000000	54.576119
2254.000000	54.590689
2253.000000	54.602807
2252.000000	54.612558
2251.000000	54.620377
2250.000000	54.624539
2249.000000	54.621629
2248.000000	54.609931
2247.000000	54.589920
2246.000000	54.562319
2245.000000	54.527468
2244.000000	54.487033
2243.000000	54.443178
2242.000000	54.395692
2241.000000	54.342503
2240.000000	54.282808
2239.000000	54.217834
2238.000000	54.148948
2237.000000	54.078086
2236.000000	54.009846
2235.000000	53.950099
2234.000000	53.902010
2233.000000	53.865213
2232.000000	53.838580
2231.000000	53.821060
2230.000000	53.810222
2229.000000	53.803000
2228.000000	53.798364
2227.000000	53.797167
2226.000000	53.799095
2225.000000	53.802335
2224.000000	53.805901
2223.000000	53.809710
2222.000000	53.812312
2221.000000	53.811288
2220.000000	53.806344
2219.000000	53.799690
2218.000000	53.793361
2217.000000	53.788448
2216.000000	53.786643
2215.000000	53.789522
2214.000000	53.795947
2213.000000	53.802727
2212.000000	53.808057
2211.000000	53.812149
2210.000000	53.814824
2209.000000	53.815463
2208.000000	53.815364
2207.000000	53.817239
2206.000000	53.821868
2205.000000	53.827676
2204.000000	53.833643
2203.000000	53.840028
2202.000000	53.846255
2201.000000	53.851047
2200.000000	53.854999
2199.000000	53.860324
2198.000000	53.867628
2197.000000	53.875266
2196.000000	53.881892
2195.000000	53.887040
2194.000000	53.889202
2193.000000	53.886344
2192.000000	53.878856
2191.000000	53.869446
2190.000000	53.859910
2189.000000	53.850321
2188.000000	53.841231
2187.000000	53.833713
2186.000000	53.826981
2185.000000	53.818813
2184.000000	53.808751
2183.000000	53.798593
2182.000000	53.789654
2181.000000	53.782267
2180.000000	53.777893
2179.000000	53.778796
2178.000000	53.785192
2177.000000	53.795232
2176.000000	53.808064
2175.000000	53.824306
2174.000000	53.843620
2173.000000	53.864651
2172.000000	53.887715
2171.000000	53.914607
2170.000000	53.945386
2169.000000	53.977936
2168.000000	54.010931
2167.000000	54.044627
2166.000000	54.078678
2165.000000	54.112128
2164.000000	54.145926
2163.000000	54.182441
2162.000000	54.222003
2161.000000	54.262506
2160.000000	54.302592
2159.000000	54.342380
2158.000000	54.380914
2157.000000	54.416195
2156.000000	54.448340
2155.000000	54.479915
2154.000000	54.512629
2153.000000	54.546277
2152.000000	54.580959
2151.000000	54.617191
2150.000000	54.653654
2149.000000	54.687850
2148.000000	54.719567
2147.000000	54.750946
2146.000000	54.783088
2145.000000	54.815341
2144.000000	54.848006
2143.000000	54.882221
2142.000000	54.917029
2141.000000	54.950021
2140.000000	54.981271
2139.000000	55.013554
2138.000000	55.048640
2137.000000	55.086537
2136.000000	55.128168
2135.000000	55.174892
2134.000000	55.224741
2133.000000	55.272709
2132.000000	55.315496
2131.000000	55.353257
2130.000000	55.386754
2129.000000	55.416565
2128.000000	55.445359
2127.000000	55.477123
2126.000000	55.513107
2125.000000	55.551310
2124.000000	55.590189
2123.000000	55.629589
2122.000000	55.668212
2121.000000	55.704067
2120.000000	55.738029
2119.000000	55.773251
2118.000000	55.810615
2117.000000	55.848027
2116.000000	55.884272
2115.000000	55.919738
2114.000000	55.953279
2113.000000	55.982593
2112.000000	56.008587
2111.000000	56.035736
2110.000000	56.067345
2109.000000	56.103584
2108.000000	56.143778
2107.000000	56.186514
2106.000000	56.227059
2105.000000	56.258985
2104.000000	56.279542
2103.000000	56.290784
2102.000000	56.295619
2101.000000	56.296436
2100.000000	56.297513
2099.000000	56.303526
2098.000000	56.314821
2097.000000	56.327389
2096.000000	56.337793
2095.000000	56.345401
2094.000000	56.349544
2093.000000	56.349217
2092.000000	56.346362
2091.000000	56.345397
2090.000000	56.348388
2089.000000	56.353803
2088.000000	56.360184
2087.000000	56.367687
2086.000000	56.375957
2085.000000	56.384800
2084.000000	56.397587
2083.000000	56.420039
2082.000000	56.454797
2081.000000	56.499912
2080.000000	56.552167
2079.000000	56.607952
2078.000000	56.661150
2077.000000	56.705176
2076.000000	56.738390
2075.000000	56.765209
2074.000000	56.790899
2073.000000	56.819485
2072.000000	56.855742
2071.000000	56.903432
2070.000000	56.961461
2069.000000	57.024505
2068.000000	57.088364
2067.000000	57.151576
2066.000000	57.213075
2065.000000	57.272590
2064.000000	57.332928
2063.000000	57.397095
2062.000000	57.463256
2061.000000	57.526939
2060.000000	57.587489
2059.000000	57.648019
2058.000000	57.709734
2057.000000	57.771995
2056.000000	57.837565
2055.000000	57.911909
2054.000000	57.996230
2053.000000	58.086227
2052.000000	58.177556
2051.000000	58.266817
2050.000000	58.348459
2049.000000	58.417067
2048.000000	58.473774
2047.000000	58.525811
2046.000000	58.579840
2045.000000	58.639263
2044.000000	58.707572
2043.000000	58.788061
2042.000000	58.879259
2041.000000	58.975503
2040.000000	59.072818
2039.000000	59.170051
2038.000000	59.264939
2037.000000	59.354776
2036.000000	59.441141
2035.000000	59.528256
2034.000000	59.616279
2033.000000	59.701567
2032.000000	59.783683
2031.000000	59.866527
2030.000000	59.952177
2029.000000	60.040636
2028.000000	60.134796
2027.000000	60.239119
2026.000000	60.352252
2025.000000	60.466409
2024.000000	60.575629
2023.000000	60.677230
2022.000000	60.768474
2021.000000	60.846943
2020.000000	60.916102
2019.000000	60.984504
2018.000000	61.058957
2017.000000	61.142752
2016.000000	61.238816
2015.000000	61.347682
2014.000000	61.463122
2013.000000	61.576870
2012.000000	61.687277
2011.000000	61.797733
2010.000000	61.907651
2009.000000	62.012299
2008.000000	62.110953
2007.000000	62.207496
2006.000000	62.302366
2005.000000	62.392278
2004.000000	62.479435
2003.000000	62.570735
2002.000000	62.670065
2001.000000	62.775635
2000.000000	62.887229
1999.000000	63.006814
1998.000000	63.128454
1997.000000	63.242132
1996.000000	63.343621
1995.000000	63.434166
1994.000000	63.512205
1993.000000	63.576835
1992.000000	63.637369
1991.000000	63.707280
1990.000000	63.787454
1989.000000	63.868905
1988.000000	63.950119
1987.000000	64.037676
1986.000000	64.131396
1985.000000	64.222057
1984.000000	64.305343
1983.000000	64.385329
1982.000000	64.463002
1981.000000	64.531777
1980.000000	64.588767
1979.000000	64.639383
1978.000000	64.686016
1977.000000	64.728003
1976.000000	64.770411
1975.000000	64.824037
1974.000000	64.892492
1973.000000	64.970310
1972.000000	65.053166
1971.000000	65.139056
1970.000000	65.218819
1969.000000	65.278931
1968.000000	65.317276
1967.000000	65.346385
1966.000000	65.377715
1965.000000	65.412030
1964.000000	65.448911
1963.000000	65.493582
1962.000000	65.548793
1961.000000	65.609902
1960.000000	65.672767
1959.000000	65.736865
1958.000000	65.799478
1957.000000	65.856086
1956.000000	65.908226
1955.000000	65.962162
1954.000000	66.016565
1953.000000	66.062458
1952.000000	66.095617
1951.000000	66.120699
1950.000000	66.144065
1949.000000	66.167142
1948.000000	66.195636
1947.000000	66.241561
1946.000000	66.308766
1945.000000	66.386023
1944.000000	66.458780
1943.000000	66.520472
1942.000000	66.568706
1941.000000	66.598411
1940.000000	66.607101
1939.000000	66.602555
1938.000000	66.598833
1937.000000	66.607656
1936.000000	66.636236
1935.000000	66.684728
1934.000000	66.743230
1933.000000	66.799593
1932.000000	66.849009
1931.000000	66.893540
1930.000000	66.935259
1929.000000	66.970190
1928.000000	67.001285
1927.000000	67.035607
1926.000000	67.070197
1925.000000	67.092973
1924.000000	67.095688
1923.000000	67.093552
1922.000000	67.108894
1921.000000	67.148386
1920.000000	67.204359
1919.000000	67.269344
1918.000000	67.337474
1917.000000	67.399637
1916.000000	67.441807
1915.000000	67.455215
1914.000000	67.441698
1913.000000	67.412005
1912.000000	67.380463
1911.000000	67.360565
1910.000000	67.360691
1909.000000	67.383561
1908.000000	67.431884
1907.000000	67.499144
1906.000000	67.566644
1905.000000	67.618548
1904.000000	67.650536
1903.000000	67.672932
1902.000000	67.691710
1901.000000	67.704940
1900.000000	67.717411
1899.000000	67.736871
1898.000000	67.759340
1897.000000	67.773929
1896.000000	67.777323
1895.000000	67.782549
1894.000000	67.801957
1893.000000	67.835358
1892.000000	67.878088
1891.000000	67.928009
1890.000000	67.979770
1889.000000	68.023861
1888.000000	68.050689
1887.000000	68.050663
1886.000000	68.018860
1885.000000	67.965766
1884.000000	67.918088
1883.000000	67.901060
1882.000000	67.918260
1881.000000	67.956263
1880.000000	68.007673
1879.000000	68.068541
1878.000000	68.123658
1877.000000	68.156741
1876.000000	68.166140
1875.000000	68.162811
1874.000000	68.157762
1873.000000	68.158296
1872.000000	68.172713
1871.000000	68.201128
1870.000000	68.224395
1869.000000	68.225261
1868.000000	68.216497
1867.000000	68.218500
1866.000000	68.227385
1865.000000	68.232799
1864.000000	68.240446
1863.000000	68.259734
1862.000000	68.282208
1861.000000	68.287490
1860.000000	68.268392
1859.000000	68.234161
1858.000000	68.191829
1857.000000	68.145283
1856.000000	68.108583
1855.000000	68.098952
1854.000000	68.117290
1853.000000	68.147260
1852.000000	68.179548
1851.000000	68.211088
1850.000000	68.224092
1849.000000	68.210640
1848.000000	68.193261
1847.000000	68.206159
1846.000000	68.245772
1845.000000	68.271938
1844.000000	68.263045
1843.000000	68.232004
1842.000000	68.178634
1841.000000	68.096850
1840.000000	68.012976
1839.000000	67.958310
1838.000000	67.936937
1837.000000	67.929813
1836.000000	67.918384
1835.000000	67.902785
1834.000000	67.884771
1833.000000	67.857123
1832.000000	67.812960
1831.000000	67.747400
1830.000000	67.667351
1829.000000	67.603874
1828.000000	67.573558
1827.000000	67.561472
1826.000000	67.546603
1825.000000	67.522185
1824.000000	67.495979
1823.000000	67.465776
1822.000000	67.411022
1821.000000	67.323787
1820.000000	67.224309
1819.000000	67.133922
1818.000000	67.052524
1817.000000	66.970628
1816.000000	66.891402
1815.000000	66.829134
1814.000000	66.779402
1813.000000	66.728198
1812.000000	66.678203
1811.000000	66.642465
1810.000000	66.623312
1809.000000	66.600143
1808.000000	66.557863
1807.000000	66.501774
1806.000000	66.436238
1805.000000	66.359446
1804.000000	66.280122
1803.000000	66.217408
1802.000000	66.174714
1801.000000	66.143919
1800.000000	66.127684
1799.000000	66.122998
1798.000000	66.114023
1797.000000	66.087969
1796.000000	66.064911
1795.000000	66.072906
1794.000000	66.095857
1793.000000	66.083638
1792.000000	66.023952
1791.000000	65.947281
1790.000000	65.862307
1789.000000	65.757683
1788.000000	65.652943
1787.000000	65.577797
1786.000000	65.532448
1785.000000	65.493744
1784.000000	65.450265
1783.000000	65.404905
1782.000000	65.340289
1781.000000	65.238412
1780.000000	65.119035
1779.000000	65.004974
1778.000000	64.892772
1777.000000	64.770775
1776.000000	64.674644
1775.000000	64.650027
1774.000000	64.674528
1773.000000	64.672529
1772.000000	64.621864
1771.000000	64.561510
1770.000000	64.489090
1769.000000	64.373073
1768.000000	64.219965
1767.000000	64.071052
1766.000000	63.948314
1765.000000	63.843262
1764.000000	63.751639
1763.000000	63.673952
1762.000000	63.599523
1761.000000	63.516695
1760.000000	63.425978
1759.000000	63.336639
1758.000000	63.256293
1757.000000	63.174416
1756.000000	63.103530
1755.000000	63.060113
1754.000000	63.027934
1753.000000	62.972435
1752.000000	62.869088
1751.000000	62.721814
1750.000000	62.549171
1749.000000	62.357149
1748.000000	62.168177
1747.000000	62.027785
1746.000000	61.929223
1745.000000	61.830142
1744.000000	61.719831
1743.000000	61.624936
1742.000000	61.551329
1741.000000	61.448803
1740.000000	61.278877
1739.000000	61.087486
1738.000000	60.949765
1737.000000	60.881238
1736.000000	60.847383
1735.000000	60.768429
1734.000000	60.588409
1733.000000	60.337355
1732.000000	60.034674
1731.000000	59.698637
1730.000000	59.390110
1729.000000	59.131074
1728.000000	58.910782
1727.000000	58.708124
1726.000000	58.489090
1725.000000	58.227708
1724.000000	57.932887
1723.000000	57.650181
1722.000000	57.424748
1721.000000	57.260900
1720.000000	57.138353
1719.000000	57.012753
1718.000000	56.829817
1717.000000	56.575210
1716.000000	56.265478
1715.000000	55.912825
1714.000000	55.536165
1713.000000	55.153985
1712.000000	54.782523
1711.000000	54.442080
1710.000000	54.135959
1709.000000	53.851599
1708.000000	53.579800
1707.000000	53.301918
1706.000000	52.993228
1705.000000	52.682477
1704.000000	52.452160
1703.000000	52.344335
1702.000000	52.283309
1701.000000	52.093189
1700.000000	51.730871
1699.000000	51.359339
1698.000000	51.019089
1697.000000	50.630704
1696.000000	50.175156
1695.000000	49.721977
1694.000000	49.314273
1693.000000	48.913891
1692.000000	48.522999
1691.000000	48.166252
1690.000000	47.841503
1689.000000	47.546643
1688.000000	47.317116
1687.000000	47.172760
1686.000000	47.038008
1685.000000	46.751472
1684.000000	46.293009
1683.000000	45.857100
1682.000000	45.476239
1681.000000	45.072626
1680.000000	44.684728
1679.000000	44.380885
1678.000000	44.169777
1677.000000	43.980223
1676.000000	43.731974
1675.000000	43.423917
1674.000000	43.112534
1673.000000	42.812838
1672.000000	42.513334
1671.000000	42.207726
1670.000000	41.884812
1669.000000	41.543237
1668.000000	41.212011
1667.000000	40.915546
1666.000000	40.657541
1665.000000	40.419292
1664.000000	40.167671
1663.000000	39.894597
1662.000000	39.619008
1661.000000	39.340556
1660.000000	39.050807
1659.000000	38.764068
1658.000000	38.510478
1657.000000	38.324283
1656.000000	38.230581
1655.000000	38.195954
1654.000000	38.070733
1653.000000	37.770494
1652.000000	37.434578
1651.000000	37.108700
1650.000000	36.772717
1649.000000	36.473606
1648.000000	36.196586
1647.000000	35.922577
1646.000000	35.667127
1645.000000	35.413353
1644.000000	35.124134
1643.000000	34.827155
1642.000000	34.557322
1641.000000	34.314464
1640.000000	34.104327
1639.000000	33.946870
1638.000000	33.836041
1637.000000	33.707120
1636.000000	33.503776
1635.000000	33.266151
1634.000000	33.033700
1633.000000	32.781177
1632.000000	32.515505
1631.000000	32.278051
1630.000000	32.073060
1629.000000	31.872629
1628.000000	31.670542
1627.000000	31.498522
1626.000000	31.368286
1625.000000	31.246803
1624.000000	31.101824
1623.000000	30.944531
1622.000000	30.804842
1621.000000	30.684670
1620.000000	30.583995
1619.000000	30.512382
1618.000000	30.450149
1617.000000	30.350286
1616.000000	30.209552
1615.000000	30.067684
1614.000000	29.940734
1613.000000	29.829715
1612.000000	29.740526
1611.000000	29.681081
1610.000000	29.646327
1609.000000	29.614882
1608.000000	29.575461
1607.000000	29.538567
1606.000000	29.510275
1605.000000	29.478948
1604.000000	29.440226
1603.000000	29.406554
1602.000000	29.388967
1601.000000	29.380497
1600.000000	29.373428
1599.000000	29.374143
1598.000000	29.387233
1597.000000	29.403772
1596.000000	29.416340
1595.000000	29.431726
1594.000000	29.454287
1593.000000	29.472096
1592.000000	29.474964
1591.000000	29.469839
1590.000000	29.466336
1589.000000	29.462485
1588.000000	29.457012
1587.000000	29.460123
1586.000000	29.479722
1585.000000	29.507032
1584.000000	29.532542
1583.000000	29.557352
1582.000000	29.579560
1581.000000	29.592437
1580.000000	29.601226
1579.000000	29.626188
1578.000000	29.671106
1577.000000	29.702543
1576.000000	29.688428
1575.000000	29.642610
1574.000000	29.584144
1573.000000	29.527260
1572.000000	29.494360
1571.000000	29.486749
1570.000000	29.487599
1569.000000	29.483284
1568.000000	29.470324
1567.000000	29.451272
1566.000000	29.435923
1565.000000	29.430969
1564.000000	29.445756
1563.000000	29.510539
1562.000000	29.649019
1561.000000	29.843890
1560.000000	30.013512
1559.000000	30.127428
1558.000000	30.261604
1557.000000	30.368612
1556.000000	30.388855
1555.000000	30.414176
1554.000000	30.491565
1553.000000	30.595115
1552.000000	30.691731
1551.000000	30.791659
1550.000000	30.926117
1549.000000	31.097009
1548.000000	31.282102
1547.000000	31.476660
1546.000000	31.694343
1545.000000	31.940545
1544.000000	32.208871
1543.000000	32.499263
1542.000000	32.817055
1541.000000	33.153235
1540.000000	33.488660
1539.000000	33.792482
1538.000000	33.998896
1537.000000	34.104930
1536.000000	34.207617
1535.000000	34.393426
1534.000000	34.679568
1533.000000	35.023958
1532.000000	35.360667
1531.000000	35.659853
1530.000000	35.955770
1529.000000	36.288020
1528.000000	36.667316
1527.000000	37.090990
1526.000000	37.539143
1525.000000	37.975486
1524.000000	38.391240
1523.000000	38.830763
1522.000000	39.342949
1521.000000	39.894804
1520.000000	40.382244
1519.000000	40.770268
1518.000000	41.140802
1517.000000	41.573584
1516.000000	42.059824
1515.000000	42.546647
1514.000000	43.007643
1513.000000	43.453841
1512.000000	43.893918
1511.000000	44.332488
1510.000000	44.789357
1509.000000	45.293684
1508.000000	45.880810
1507.000000	46.599041
1506.000000	47.386791
1505.000000	47.980720
1504.000000	48.277222
1503.000000	48.475924
1502.000000	48.762517
1501.000000	49.172533
1500.000000	49.660881
1499.000000	50.195337
1498.000000	50.767174
1497.000000	51.343318
1496.000000	51.858438
1495.000000	52.276148
1494.000000	52.616141
1493.000000	52.929437
1492.000000	53.271072
1491.000000	53.677787
1490.000000	54.147792
1489.000000	54.626304
1488.000000	55.054313
1487.000000	55.429042
1486.000000	55.768306
1485.000000	56.056715
1484.000000	56.299481
1483.000000	56.536526
1482.000000	56.788048
1481.000000	57.033496
1480.000000	57.250399
1479.000000	57.447926
1478.000000	57.623578
1477.000000	57.750968
1476.000000	57.828019
1475.000000	57.885280
1474.000000	57.886648
1473.000000	57.721238
1472.000000	57.354466
1471.000000	56.828947
1470.000000	56.133751
1469.000000	55.235132
1468.000000	54.129080
1467.000000	52.762347
1466.000000	50.963173
1465.000000	48.627413
1464.000000	46.024110
1463.000000	43.599091
1462.000000	41.556747
1461.000000	39.897084
1460.000000	38.644311
1459.000000	37.872627
1458.000000	37.616982
1457.000000	37.818555
1456.000000	38.282163
1455.000000	38.742816
1454.000000	39.064257
1453.000000	39.246321
1452.000000	39.300101
1451.000000	39.204432
1450.000000	38.877996
1449.000000	38.217884
1448.000000	37.219614
1447.000000	36.005209
1446.000000	34.660914
1445.000000	33.171638
1444.000000	31.531266
1443.000000	29.772631
1442.000000	27.919648
1441.000000	26.015244
1440.000000	24.157547
1439.000000	22.363638
1438.000000	20.435052
1437.000000	18.186909
1436.000000	15.893454
1435.000000	14.019617
1434.000000	12.588980
1433.000000	11.366543
1432.000000	10.271433
1431.000000	9.359135
1430.000000	8.635392
1429.000000	8.061067
1428.000000	7.681053
1427.000000	7.547612
1426.000000	7.605495
1425.000000	7.788357
1424.000000	8.126189
1423.000000	8.638952
1422.000000	9.250215
1421.000000	9.922843
1420.000000	10.760737
1419.000000	11.823680
1418.000000	12.937735
1417.000000	13.940280
1416.000000	14.903963
1415.000000	15.945738
1414.000000	17.060639
1413.000000	18.208655
1412.000000	19.415967
1411.000000	20.707938
1410.000000	22.029464
1409.000000	23.324150
1408.000000	24.617231
1407.000000	25.961370
1406.000000	27.364218
1405.000000	28.805994
1404.000000	30.258034
1403.000000	31.661579
1402.000000	32.981867
1401.000000	34.277375
1400.000000	35.641629
1399.000000	37.062520
1398.000000	38.428780
1397.000000	39.710868
1396.000000	41.011013
1395.000000	42.402054
1394.000000	43.812277
1393.000000	45.128718
1392.000000	46.330019
1391.000000	47.463845
1390.000000	48.580812
1389.000000	49.716179
1388.000000	50.868226
1387.000000	51.966097
1386.000000	52.915965
1385.000000	53.696443
1384.000000	54.352093
1383.000000	54.908260
1382.000000	55.350660
1381.000000	55.657835
1380.000000	55.811649
1379.000000	55.789617
1378.000000	55.576716
1377.000000	55.165805
1376.000000	54.514763
1375.000000	53.547813
1374.000000	52.243643
1373.000000	50.687205
1372.000000	48.992523
1371.000000	47.242090
1370.000000	45.534974
1369.000000	44.040609
1368.000000	42.962935
1367.000000	42.434400
1366.000000	42.477559
1365.000000	43.057740
1364.000000	44.128516
1363.000000	45.609594
1362.000000	47.342746
1361.000000	49.130450
1360.000000	50.827862
1359.000000	52.367766
1358.000000	53.719167
1357.000000	54.848745
1356.000000	55.705228
1355.000000	56.229165
1354.000000	56.379865
1353.000000	56.142761
1352.000000	55.516516
1351.000000	54.502345
1350.000000	53.109542
1349.000000	51.364615
1348.000000	49.296063
1347.000000	46.926520
1346.000000	44.287971
1345.000000	41.439524
1344.000000	38.477691
1343.000000	35.507484
1342.000000	32.602830
1341.000000	29.817021
1340.000000	27.246725
1339.000000	25.049816
1338.000000	23.353792
1337.000000	22.159190
1336.000000	21.357356
1335.000000	20.795708
1334.000000	20.303083
1333.000000	19.711220
1332.000000	18.894317
1331.000000	17.798054
1330.000000	16.436255
1329.000000	14.869454
1328.000000	13.192278
1327.000000	11.518899
1326.000000	9.950039
1325.000000	8.551261
1324.000000	7.365776
1323.000000	6.425174
1322.000000	5.729050
1321.000000	5.237887
1320.000000	4.904991
1319.000000	4.691990
1318.000000	4.555618
1317.000000	4.448925
1316.000000	4.346159
1315.000000	4.249464
1314.000000	4.160750
1313.000000	4.072065
1312.000000	3.986360
1311.000000	3.920494
1310.000000	3.883681
1309.000000	3.873770
1308.000000	3.899937
1307.000000	3.984673
1306.000000	4.137533
1305.000000	4.350844
1304.000000	4.621497
1303.000000	4.954267
1302.000000	5.341884
1301.000000	5.763136
1300.000000	6.206287
1299.000000	6.672046
1298.000000	7.154038
1297.000000	7.638308
1296.000000	8.121628
1295.000000	8.611710
1294.000000	9.107703
1293.000000	9.598757
1292.000000	10.080876
1291.000000	10.556939
1290.000000	11.018485
1289.000000	11.444423
1288.000000	11.816834
1287.000000	12.122672
1286.000000	12.346047
1285.000000	12.477617
1284.000000	12.537049
1283.000000	12.574612
1282.000000	12.647073
1281.000000	12.798997
1280.000000	13.060101
1279.000000	13.438124
1278.000000	13.909865
1277.000000	14.436304
1276.000000	14.988644
1275.000000	15.553630
1274.000000	16.121132
1273.000000	16.681609
1272.000000	17.234492
1271.000000	17.783621
1270.000000	18.324806
1269.000000	18.848678
1268.000000	19.353155
1267.000000	19.842006
1266.000000	20.314791
1265.000000	20.768519
1264.000000	21.206875
1263.000000	21.639057
1262.000000	22.069697
1261.000000	22.498699
1260.000000	22.928033
1259.000000	23.359700
1258.000000	23.790366
1257.000000	24.215334
1256.000000	24.635252
1255.000000	25.052522
1254.000000	25.464447
1253.000000	25.866187
1252.000000	26.256940
1251.000000	26.638181
1250.000000	27.009344
1249.000000	27.370484
1248.000000	27.726648
1247.000000	28.084791
1246.000000	28.448708
1245.000000	28.819966
1244.000000	29.199679
1243.000000	29.585388
1242.000000	29.968756
1241.000000	30.340179
1240.000000	30.693998
1239.000000	31.027958
1238.000000	31.342282
1237.000000	31.641656
1236.000000	31.935254
1235.000000	32.232347
1234.000000	32.538462
1233.000000	32.856048
1232.000000	33.185317
1231.000000	33.522960
1230.000000	33.862982
1229.000000	34.199906
1228.000000	34.529763
1227.000000	34.848918
1226.000000	35.155200
1225.000000	35.450042
1224.000000	35.736692
1223.000000	36.017724
1222.000000	36.296793
1221.000000	36.580686
1220.000000	36.876319
1219.000000	37.186528
1218.000000	37.510971
1217.000000	37.848364
1216.000000	38.194015
1215.000000	38.537678
1214.000000	38.867991
1213.000000	39.178251
1212.000000	39.466029
1211.000000	39.731344
1210.000000	39.979674
1209.000000	40.222892
1208.000000	40.473288
1207.000000	40.738464
1206.000000	41.022791
1205.000000	41.328922
1204.000000	41.653954
1203.000000	41.987615
1202.000000	42.317958
1201.000000	42.635814
1200.000000	42.932633
1199.000000	43.199632
1198.000000	43.433431
1197.000000	43.638834
1196.000000	43.821562
1195.000000	43.984375
1194.000000	44.129692
1193.000000	44.258139
1192.000000	44.362405
1191.000000	44.426302
1190.000000	44.437056
1189.000000	44.395246
1188.000000	44.313869
1187.000000	44.216668
1186.000000	44.137235
1185.000000	44.109940
1184.000000	44.155070
1183.000000	44.274608
1182.000000	44.460268
1181.000000	44.703290
1180.000000	44.994200
1179.000000	45.321538
1178.000000	45.677390
1177.000000	46.056126
1176.000000	46.446911
1175.000000	46.832041
1174.000000	47.195225
1173.000000	47.526434
1172.000000	47.817851
1171.000000	48.064384
1170.000000	48.272585
1169.000000	48.461923
1168.000000	48.653050
1167.000000	48.861368
1166.000000	49.100249
1165.000000	49.378808
1164.000000	49.691847
1163.000000	50.019254
1162.000000	50.339410
1161.000000	50.637181
1160.000000	50.900303
1159.000000	51.121418
1158.000000	51.307727
1157.000000	51.478962
1156.000000	51.651359
1155.000000	51.831251
1154.000000	52.024046
1153.000000	52.236253
1152.000000	52.466335
1151.000000	52.704983
1150.000000	52.947966
1149.000000	53.198528
1148.000000	53.453897
1147.000000	53.700661
1146.000000	53.926216
1145.000000	54.123899
1144.000000	54.286643
1143.000000	54.409467
1142.000000	54.503616
1141.000000	54.596949
1140.000000	54.715856
1139.000000	54.875139
1138.000000	55.082476
1137.000000	55.336683
1136.000000	55.616914
1135.000000	55.886727
1134.000000	56.116192
1133.000000	56.293636
1132.000000	56.419005
1131.000000	56.502313
1130.000000	56.570477
1129.000000	56.658611
1128.000000	56.786654
1127.000000	56.952639
1126.000000	57.148067
1125.000000	57.366197
1124.000000	57.594969
1123.000000	57.818844
1122.000000	58.033326
1121.000000	58.244915
1120.000000	58.453382
1119.000000	58.647001
1118.000000	58.816994
1117.000000	58.963002
1116.000000	59.084028
1115.000000	59.180944
1114.000000	59.272032
1113.000000	59.390606
1112.000000	59.561546
1111.000000	59.789662
1110.000000	60.068109
1109.000000	60.380286
1108.000000	60.690821
1107.000000	60.954816
1106.000000	61.146912
1105.000000	61.272054
1104.000000	61.350078
1103.000000	61.406483
1102.000000	61.476659
1101.000000	61.595275
1100.000000	61.772792
1099.000000	61.993033
1098.000000	62.235571
1097.000000	62.487056
1096.000000	62.731740
1095.000000	62.953503
1094.000000	63.152053
1093.000000	63.339751
1092.000000	63.517688
1091.000000	63.671899
1090.000000	63.793653
1089.000000	63.885920
1088.000000	63.950918
1087.000000	63.990032
1086.000000	64.019925
1085.000000	64.066144
1084.000000	64.132413
1083.000000	64.192255
1082.000000	64.203244
1081.000000	64.117437
1080.000000	63.877094
1079.000000	63.423966
1078.000000	62.733385
1077.000000	61.809068
1076.000000	60.658709
1075.000000	59.285002
1074.000000	57.686729
1073.000000	55.865666
1072.000000	53.813600
1071.000000	51.527445
1070.000000	49.035714
1069.000000	46.395596
1068.000000	43.683167
1067.000000	40.987955
1066.000000	38.410822
1065.000000	36.051369
1064.000000	34.003208
1063.000000	32.340539
1062.000000	31.114906
1061.000000	30.352541
1060.000000	30.046056
1059.000000	30.169409
1058.000000	30.668788
1057.000000	31.474956
1056.000000	32.518584
1055.000000	33.723254
1054.000000	35.016421
1053.000000	36.332425
1052.000000	37.618168
1051.000000	38.835762
1050.000000	39.964783
1049.000000	41.006557
1048.000000	41.976182
1047.000000	42.891664
1046.000000	43.769722
1045.000000	44.625898
1044.000000	45.465451
1043.000000	46.281576
1042.000000	47.066012
1041.000000	47.815482
1040.000000	48.528419
1039.000000	49.201167
1038.000000	49.836078
1037.000000	50.444994
1036.000000	51.039152
1035.000000	51.625383
1034.000000	52.212773
1033.000000	52.813668
1032.000000	53.432613
1031.000000	54.061311
1030.000000	54.688722
1029.000000	55.303710
1028.000000	55.886485
1027.000000	56.411571
1026.000000	56.864614
1025.000000	57.250101
1024.000000	57.579476
1023.000000	57.866755
1022.000000	58.137939
1021.000000	58.425527
1020.000000	58.749263
1019.000000	59.110057
1018.000000	59.502597
1017.000000	59.919605
1016.000000	60.340684
1015.000000	60.735203
1014.000000	61.082131
1013.000000	61.376254
1012.000000	61.615324
1011.000000	61.797686
1010.000000	61.937195
1009.000000	62.063507
1008.000000	62.203165
1007.000000	62.373382
1006.000000	62.591716
1005.000000	62.872616
1004.000000	63.208977
1003.000000	63.570374
1002.000000	63.922905
1001.000000	64.238912
1000.000000	64.491172
999.000000	64.659958
998.000000	64.753234
997.000000	64.805854
996.000000	64.854522
995.000000	64.925613
994.000000	65.042725
993.000000	65.223446
992.000000	65.462997
991.000000	65.735955
990.000000	66.018346
989.000000	66.296123
988.000000	66.552577
987.000000	66.767058
986.000000	66.930424
985.000000	67.046666
984.000000	67.117699
983.000000	67.144020
982.000000	67.144069
981.000000	67.155211
980.000000	67.211666
979.000000	67.333872
978.000000	67.535294
977.000000	67.816393
976.000000	68.146042
975.000000	68.466263
974.000000	68.724034
973.000000	68.889660
972.000000	68.952016
971.000000	68.921405
970.000000	68.841240
969.000000	68.774715
968.000000	68.769211
967.000000	68.841635
966.000000	68.991010
965.000000	69.204111
964.000000	69.448019
963.000000	69.680550
962.000000	69.877623
961.000000	70.038489
960.000000	70.163675
959.000000	70.246898
958.000000	70.288651
957.000000	70.297675
956.000000	70.276786
955.000000	70.227429
954.000000	70.172561
953.000000	70.155881
952.000000	70.213488
951.000000	70.357793
950.000000	70.583861
949.000000	70.866833
948.000000	71.149906
947.000000	71.359927
946.000000	71.449606
945.000000	71.416032
944.000000	71.285885
943.000000	71.105629
942.000000	70.942301
941.000000	70.862101
940.000000	70.893200
939.000000	71.018333
938.000000	71.200376
937.000000	71.399896
936.000000	71.573897
935.000000	71.687367
934.000000	71.736769
933.000000	71.744975
932.000000	71.727852
931.000000	71.683030
930.000000	71.608648
929.000000	71.511680
928.000000	71.397458
927.000000	71.273996
926.000000	71.170810
925.000000	71.131170
924.000000	71.177875
923.000000	71.297183
922.000000	71.452691
921.000000	71.595083
920.000000	71.660681
919.000000	71.592823
918.000000	71.380986
917.000000	71.066194
916.000000	70.710484
915.000000	70.374658
914.000000	70.113697
913.000000	69.959470
912.000000	69.895517
911.000000	69.865982
910.000000	69.814009
909.000000	69.703386
908.000000	69.512378
907.000000	69.233112
906.000000	68.882903
905.000000	68.491037
904.000000	68.067477
903.000000	67.602280
902.000000	67.092009
901.000000	66.550319
900.000000	65.993595
899.000000	65.436055
898.000000	64.899277
897.000000	64.400348
896.000000	63.925911
895.000000	63.430337
894.000000	62.861115
893.000000	62.177962
892.000000	61.352752
891.000000	60.381594
890.000000	59.301180
889.000000	58.172274
888.000000	57.044633
887.000000	55.940176
886.000000	54.860972
885.000000	53.792769
884.000000	52.700583
883.000000	51.543270
882.000000	50.296773
881.000000	48.959415
880.000000	47.538816
879.000000	46.045143
878.000000	44.497044
877.000000	42.918110
876.000000	41.327661
875.000000	39.741899
874.000000	38.181194
873.000000	36.668202
872.000000	35.220269
871.000000	33.846484
870.000000	32.546834
869.000000	31.313774
868.000000	30.133697
867.000000	28.993350
866.000000	27.886267
865.000000	26.812526
864.000000	25.780453
863.000000	24.803606
862.000000	23.896075
861.000000	23.070424
860.000000	22.335587
859.000000	21.697577
858.000000	21.153994
857.000000	20.692497
856.000000	20.297371
855.000000	19.951503
854.000000	19.639020
853.000000	19.348466
852.000000	19.078052
851.000000	18.836492
850.000000	18.633722
849.000000	18.477939
848.000000	18.377840
847.000000	18.342323
846.000000	18.377377
845.000000	18.482561
844.000000	18.655730
843.000000	18.895076
842.000000	19.194940
841.000000	19.546898
840.000000	19.943768
839.000000	20.385670
838.000000	20.877583
837.000000	21.423996
836.000000	22.030223
835.000000	22.705111
834.000000	23.456223
833.000000	24.276120
832.000000	25.124427
831.000000	25.883976
830.000000	26.303162
829.000000	25.991395
828.000000	24.596101
827.000000	22.140565
826.000000	19.213194
825.000000	16.733261
824.000000	15.418667
823.000000	15.420063
822.000000	16.411178
821.000000	17.948395
820.000000	19.702196
819.000000	21.471127
818.000000	23.140762
817.000000	24.667553
816.000000	26.063244
815.000000	27.345965
814.000000	28.518421
813.000000	29.585439
812.000000	30.561371
811.000000	31.455539
810.000000	32.273242
809.000000	33.034126
808.000000	33.767411
807.000000	34.493602
806.000000	35.222439
805.000000	35.964744
804.000000	36.725500
803.000000	37.487401
802.000000	38.221737
801.000000	38.912118
800.000000	39.555359
799.000000	40.148725
798.000000	40.695003
797.000000	41.214344
796.000000	41.732233
795.000000	42.261230
794.000000	42.807113
793.000000	43.381858
792.000000	43.994155
791.000000	44.634300
790.000000	45.282499
789.000000	45.923772
788.000000	46.542086
787.000000	47.112428
786.000000	47.615753
785.000000	48.055098
784.000000	48.447222
783.000000	48.810110
782.000000	49.169687
781.000000	49.562668
780.000000	50.015757
779.000000	50.528463
778.000000	51.083237
777.000000	51.658826
776.000000	52.224108
775.000000	52.737245
774.000000	53.170684
773.000000	53.528990
772.000000	53.833003
771.000000	54.100480
770.000000	54.351128
769.000000	54.612188
768.000000	54.902058
767.000000	55.219980
766.000000	55.562002
765.000000	55.932850
764.000000	56.331042
763.000000	56.736815
762.000000	57.126975
761.000000	57.487650
760.000000	57.802176
759.000000	58.046019
758.000000	58.210079
757.000000	58.317070
756.000000	58.405146
755.000000	58.509888
754.000000	58.668342
753.000000	58.916187
752.000000	59.261474
751.000000	59.671528
750.000000	60.096386
749.000000	60.493629
748.000000	60.827336
747.000000	61.069840
746.000000	61.223843
745.000000	61.327511
744.000000	61.423419
743.000000	61.534149
742.000000	61.672166
741.000000	61.849574
740.000000	62.063860
739.000000	62.293676
738.000000	62.523542
737.000000	62.757061
736.000000	62.994952
735.000000	63.217778
734.000000	63.401961
733.000000	63.534206
732.000000	63.600189
731.000000	63.583471
730.000000	63.493117
729.000000	63.376002
728.000000	63.288533
727.000000	63.270568
726.000000	63.349370
725.000000	63.539829
724.000000	63.822472
723.000000	64.140468
722.000000	64.436336
721.000000	64.680840
720.000000	64.863524
719.000000	64.984753
718.000000	65.072697
717.000000	65.181874
716.000000	65.353784
715.000000	65.592210
714.000000	65.883762
713.000000	66.219048
712.000000	66.582240
711.000000	66.945856
710.000000	67.294740
709.000000	67.635884
708.000000	67.970914
707.000000	68.279241
706.000000	68.541025
705.000000	68.754107
704.000000	68.918117
703.000000	69.029552
702.000000	69.108417
701.000000	69.205807
700.000000	69.367424
699.000000	69.606030
698.000000	69.914941
697.000000	70.278525
696.000000	70.654448
695.000000	70.976374
694.000000	71.198477
693.000000	71.323693
692.000000	71.380437
691.000000	71.398460
690.000000	71.418615
689.000000	71.492174
688.000000	71.644219
687.000000	71.855644
686.000000	72.097176
685.000000	72.356302
684.000000	72.619148
683.000000	72.860053
682.000000	73.069011
681.000000	73.260699
680.000000	73.440846
679.000000	73.589903
678.000000	73.696352
677.000000	73.776076
676.000000	73.847587
675.000000	73.918663
674.000000	74.008015
673.000000	74.153505
672.000000	74.371128
671.000000	74.635176
670.000000	74.919092
669.000000	75.226739
668.000000	75.529475
667.000000	75.704101
666.000000	75.739622
665.000000	75.759237
664.000000	75.800053
663.000000	75.850285
662.000000	75.929412
661.000000	76.069351
660.000000	76.275324
659.000000	76.518163
658.000000	76.774620
657.000000	77.037768
656.000000	77.289552
655.000000	77.495927
654.000000	77.642714
653.000000	77.749086
652.000000	77.832105
651.000000	77.890687
650.000000	77.937756
649.000000	78.009726
648.000000	78.126290
647.000000	78.274852
646.000000	78.446818
645.000000	78.653203
644.000000	78.887833
643.000000	79.111866
642.000000	79.295614
641.000000	79.444446
640.000000	79.565782
639.000000	79.648994
638.000000	79.697314
637.000000	79.741251
636.000000	79.801697
635.000000	79.874136
634.000000	79.964451
633.000000	80.101959
632.000000	80.298813
631.000000	80.529653
630.000000	80.766848
629.000000	80.999212
628.000000	81.201396
627.000000	81.328432
626.000000	81.367516
625.000000	81.360335
624.000000	81.355186
623.000000	81.374825
622.000000	81.442506
621.000000	81.590080
620.000000	81.815173
619.000000	82.068310
618.000000	82.302566
617.000000	82.504500
616.000000	82.664462
615.000000	82.764553
614.000000	82.816594
613.000000	82.865739
612.000000	82.930601
611.000000	82.978689
610.000000	82.973114
609.000000	82.898870
608.000000	82.733607
607.000000	82.432440
606.000000	81.962124
605.000000	81.283039
604.000000	80.262418
603.000000	78.640914
602.000000	76.079302
601.000000	72.277603
600.000000	67.162100
599.000000	61.116231
598.000000	55.020242
597.000000	49.930412
596.000000	46.645272
595.000000	45.467715
594.000000	46.213016
593.000000	48.381459
592.000000	51.395078
591.000000	54.718066
590.000000	57.929408
589.000000	60.814987
588.000000	63.335603
587.000000	65.524952
586.000000	67.438313
585.000000	69.146280
584.000000	70.693851
583.000000	72.076632
582.000000	73.282017
581.000000	74.327998
580.000000	75.238954
579.000000	76.020395
578.000000	76.706942
577.000000	77.374801
576.000000	78.062948
575.000000	78.723531
574.000000	79.285023
573.000000	79.725388
572.000000	80.041942
571.000000	80.223067
570.000000	80.306102
569.000000	80.400524
568.000000	80.601821
567.000000	80.921647
566.000000	81.323116
565.000000	81.766521
564.000000	82.183044
563.000000	82.474742
562.000000	82.601708
561.000000	82.628092
560.000000	82.643163
559.000000	82.688763
558.000000	82.789612
557.000000	82.975070
556.000000	83.223907
555.000000	83.449875
554.000000	83.593978
553.000000	83.683446
552.000000	83.769534
551.000000	83.871534
550.000000	84.012971
549.000000	84.234998
548.000000	84.523789
547.000000	84.785130
546.000000	84.937276
545.000000	84.980419
544.000000	84.944567
543.000000	84.850745
542.000000	84.762410
541.000000	84.790672
540.000000	84.988151
539.000000	85.292828
538.000000	85.608804
537.000000	85.883128
536.000000	86.074143
535.000000	86.131986
534.000000	86.070578
533.000000	85.992127
532.000000	85.982829
531.000000	86.039362
530.000000	86.132295
529.000000	86.260906
528.000000	86.402033
527.000000	86.483809
526.000000	86.474275
525.000000	86.432333
524.000000	86.415018
523.000000	86.405241
522.000000	86.370020
521.000000	86.295167
520.000000	86.120423
519.000000	85.725719
518.000000	85.054156
517.000000	84.204317
516.000000	83.343690
515.000000	82.602238
514.000000	82.079155
513.000000	81.850899
512.000000	81.895689
511.000000	82.065348
510.000000	82.189817
509.000000	82.167679
508.000000	81.914886
507.000000	81.325747
506.000000	80.356353
505.000000	79.057208
504.000000	77.480845
503.000000	75.680529
502.000000	73.868783
501.000000	72.416956
500.000000	71.598115
499.000000	71.441173
498.000000	71.840944
497.000000	72.645575
496.000000	73.642092
495.000000	74.591330
494.000000	75.343421
493.000000	75.900492
492.000000	76.334922
491.000000	76.713540
490.000000	77.114940
489.000000	77.631337
488.000000	78.288102
487.000000	79.018426
486.000000	79.758622
485.000000	80.512022
484.000000	81.281247
483.000000	82.010928
482.000000	82.660558
481.000000	83.255149
480.000000	83.802138
479.000000	84.240229
478.000000	84.522174
477.000000	84.682287
476.000000	84.768022
475.000000	84.774856
474.000000	84.711054
473.000000	84.649014
472.000000	84.642342
471.000000	84.657639
470.000000	84.669695
469.000000	84.733123
468.000000	84.874129
467.000000	85.020758
466.000000	85.109583
465.000000	85.184537
464.000000	85.296417
463.000000	85.401235
462.000000	85.452515
461.000000	85.497463
460.000000	85.585890
459.000000	85.670515
458.000000	85.706000
457.000000	85.764917
456.000000	85.908808
455.000000	86.079157
454.000000	86.213336
453.000000	86.300911
452.000000	86.291879
451.000000	86.081034
450.000000	85.652941
449.000000	85.136267
448.000000	84.641362
447.000000	84.139935
446.000000	83.551867
445.000000	82.820075
444.000000	81.806875
443.000000	80.270214
442.000000	78.105242
441.000000	75.507165
440.000000	72.766574
439.000000	70.074010
438.000000	67.599115
437.000000	65.619146
436.000000	64.418709
435.000000	64.082323
434.000000	64.486973
433.000000	65.487583
432.000000	66.987846
431.000000	68.814596
430.000000	70.764144
429.000000	72.768880
428.000000	74.807106
427.000000	76.715955
426.000000	78.311617
425.000000	79.602036
424.000000	80.651030
423.000000	81.412724
422.000000	81.935495
421.000000	82.528605
420.000000	83.471576
419.000000	84.635547
418.000000	85.587340
417.000000	86.139878
416.000000	86.413627
415.000000	86.446008
414.000000	86.262110
413.000000	86.116131
412.000000	86.228929
411.000000	86.474283
410.000000	86.670672
409.000000	86.914277
408.000000	87.281507
407.000000	87.523863
406.000000	87.458519
405.000000	87.348723
404.000000	87.481413
403.000000	87.716056
402.000000	87.845799
401.000000	88.039883
400.000000	88.433045
