PE IR       SUBTECH     SPECTRUM    ASCII       PEDS        4.00        
   -1
23MS006_NITRO.asc
24/09/10
16:31:13.00
24/09/10
16:31:13.00
Administrator
Sample 1160 By Administrator Date Tuesday, September 10 2024
400.000000
#HDR
-1
-1
#GR
cm-1
%T
1.0
0.0
4000.000000
-1.000000
3601
8
56.912191
4.568985
#DATA
4000.000000	16.667069
3999.000000	16.680107
3998.000000	16.692417
3997.000000	16.704169
3996.000000	16.715743
3995.000000	16.727354
3994.000000	16.738964
3993.000000	16.750606
3992.000000	16.762568
3991.000000	16.775109
3990.000000	16.788116
3989.000000	16.801268
3988.000000	16.814460
3987.000000	16.827723
3986.000000	16.840790
3985.000000	16.853147
3984.000000	16.864647
3983.000000	16.875811
3982.000000	16.887327
3981.000000	16.899347
3980.000000	16.911377
3979.000000	16.922918
3978.000000	16.934100
3977.000000	16.945480
3976.000000	16.957339
3975.000000	16.969447
3974.000000	16.981426
3973.000000	16.993138
3972.000000	17.004692
3971.000000	17.016274
3970.000000	17.027966
3969.000000	17.039673
3968.000000	17.051458
3967.000000	17.063526
3966.000000	17.075862
3965.000000	17.088035
3964.000000	17.099579
3963.000000	17.110487
3962.000000	17.121126
3961.000000	17.131665
3960.000000	17.141964
3959.000000	17.152223
3958.000000	17.163046
3957.000000	17.174629
3956.000000	17.186821
3955.000000	17.199417
3954.000000	17.212233
3953.000000	17.224752
3952.000000	17.236112
3951.000000	17.245702
3950.000000	17.253704
3949.000000	17.261402
3948.000000	17.270311
3947.000000	17.280514
3946.000000	17.290837
3945.000000	17.300880
3944.000000	17.311469
3943.000000	17.323352
3942.000000	17.336103
3941.000000	17.348788
3940.000000	17.361716
3939.000000	17.376594
3938.000000	17.393989
3937.000000	17.411609
3936.000000	17.426454
3935.000000	17.437206
3934.000000	17.444657
3933.000000	17.450502
3932.000000	17.456601
3931.000000	17.464972
3930.000000	17.476826
3929.000000	17.491600
3928.000000	17.506789
3927.000000	17.520194
3926.000000	17.532704
3925.000000	17.546412
3924.000000	17.560721
3923.000000	17.573458
3922.000000	17.585184
3921.000000	17.598066
3920.000000	17.611212
3919.000000	17.621736
3918.000000	17.630157
3917.000000	17.640078
3916.000000	17.652820
3915.000000	17.666346
3914.000000	17.679480
3913.000000	17.693333
3912.000000	17.708284
3911.000000	17.723345
3910.000000	17.739336
3909.000000	17.757589
3908.000000	17.778505
3907.000000	17.800221
3906.000000	17.820252
3905.000000	17.837274
3904.000000	17.851130
3903.000000	17.860914
3902.000000	17.865463
3901.000000	17.866758
3900.000000	17.869617
3899.000000	17.875881
3898.000000	17.883038
3897.000000	17.890832
3896.000000	17.902432
3895.000000	17.918858
3894.000000	17.936338
3893.000000	17.950795
3892.000000	17.965352
3891.000000	17.986954
3890.000000	18.014349
3889.000000	18.037053
3888.000000	18.050800
3887.000000	18.058230
3886.000000	18.063512
3885.000000	18.070839
3884.000000	18.077875
3883.000000	18.079389
3882.000000	18.078137
3881.000000	18.079980
3880.000000	18.088864
3879.000000	18.104585
3878.000000	18.121253
3877.000000	18.135569
3876.000000	18.150236
3875.000000	18.168970
3874.000000	18.193488
3873.000000	18.218341
3872.000000	18.235021
3871.000000	18.244932
3870.000000	18.257994
3869.000000	18.276584
3868.000000	18.290805
3867.000000	18.296641
3866.000000	18.302305
3865.000000	18.308961
3864.000000	18.311684
3863.000000	18.312738
3862.000000	18.316963
3861.000000	18.324716
3860.000000	18.337635
3859.000000	18.363069
3858.000000	18.411318
3857.000000	18.482443
3856.000000	18.557940
3855.000000	18.606912
3854.000000	18.618809
3853.000000	18.622040
3852.000000	18.629413
3851.000000	18.611795
3850.000000	18.567843
3849.000000	18.526057
3848.000000	18.497724
3847.000000	18.484219
3846.000000	18.486898
3845.000000	18.502055
3844.000000	18.524569
3843.000000	18.552690
3842.000000	18.584300
3841.000000	18.615244
3840.000000	18.643362
3839.000000	18.665465
3838.000000	18.680429
3837.000000	18.691676
3836.000000	18.701174
3835.000000	18.705846
3834.000000	18.703867
3833.000000	18.698647
3832.000000	18.696249
3831.000000	18.698911
3830.000000	18.703754
3829.000000	18.707778
3828.000000	18.712553
3827.000000	18.723930
3826.000000	18.745902
3825.000000	18.774249
3824.000000	18.801307
3823.000000	18.821353
3822.000000	18.835737
3821.000000	18.856961
3820.000000	18.889350
3819.000000	18.914823
3818.000000	18.924465
3817.000000	18.926567
3816.000000	18.926296
3815.000000	18.925185
3814.000000	18.920306
3813.000000	18.914124
3812.000000	18.916740
3811.000000	18.929106
3810.000000	18.945056
3809.000000	18.961411
3808.000000	18.978518
3807.000000	19.001478
3806.000000	19.031481
3805.000000	19.058042
3804.000000	19.074044
3803.000000	19.081116
3802.000000	19.083001
3801.000000	19.087160
3800.000000	19.093075
3799.000000	19.090359
3798.000000	19.081600
3797.000000	19.074715
3796.000000	19.070353
3795.000000	19.069184
3794.000000	19.072073
3793.000000	19.079425
3792.000000	19.089092
3791.000000	19.097878
3790.000000	19.106266
3789.000000	19.116915
3788.000000	19.129131
3787.000000	19.139976
3786.000000	19.149043
3785.000000	19.159841
3784.000000	19.174290
3783.000000	19.189236
3782.000000	19.201137
3781.000000	19.210490
3780.000000	19.220157
3779.000000	19.232051
3778.000000	19.244610
3777.000000	19.254533
3776.000000	19.263565
3775.000000	19.275641
3774.000000	19.290517
3773.000000	19.305143
3772.000000	19.318598
3771.000000	19.332285
3770.000000	19.347274
3769.000000	19.361376
3768.000000	19.369906
3767.000000	19.371770
3766.000000	19.372585
3765.000000	19.377842
3764.000000	19.386898
3763.000000	19.396179
3762.000000	19.405465
3761.000000	19.415705
3760.000000	19.424862
3759.000000	19.432328
3758.000000	19.443471
3757.000000	19.462848
3756.000000	19.490697
3755.000000	19.526435
3754.000000	19.568609
3753.000000	19.609448
3752.000000	19.638030
3751.000000	19.654634
3750.000000	19.673430
3749.000000	19.699973
3748.000000	19.721804
3747.000000	19.730024
3746.000000	19.725304
3745.000000	19.710312
3744.000000	19.699494
3743.000000	19.695582
3742.000000	19.678011
3741.000000	19.652408
3740.000000	19.637322
3739.000000	19.628921
3738.000000	19.622882
3737.000000	19.621840
3736.000000	19.628539
3735.000000	19.641151
3734.000000	19.652158
3733.000000	19.659699
3732.000000	19.668878
3731.000000	19.678084
3730.000000	19.679778
3729.000000	19.672606
3728.000000	19.662171
3727.000000	19.653782
3726.000000	19.649177
3725.000000	19.647642
3724.000000	19.648260
3723.000000	19.651384
3722.000000	19.655379
3721.000000	19.658303
3720.000000	19.660185
3719.000000	19.662411
3718.000000	19.668519
3717.000000	19.680322
3716.000000	19.696444
3715.000000	19.714991
3714.000000	19.731993
3713.000000	19.741071
3712.000000	19.741228
3711.000000	19.738965
3710.000000	19.736739
3709.000000	19.729405
3708.000000	19.715887
3707.000000	19.700535
3706.000000	19.686440
3705.000000	19.674303
3704.000000	19.663860
3703.000000	19.655016
3702.000000	19.648877
3701.000000	19.645962
3700.000000	19.642206
3699.000000	19.631827
3698.000000	19.615984
3697.000000	19.600630
3696.000000	19.588448
3695.000000	19.579912
3694.000000	19.576647
3693.000000	19.579552
3692.000000	19.585231
3691.000000	19.586775
3690.000000	19.578554
3689.000000	19.561650
3688.000000	19.540774
3687.000000	19.512600
3686.000000	19.471264
3685.000000	19.421953
3684.000000	19.373608
3683.000000	19.328682
3682.000000	19.289421
3681.000000	19.262648
3680.000000	19.253705
3679.000000	19.255750
3678.000000	19.249276
3677.000000	19.219590
3676.000000	19.175358
3675.000000	19.142487
3674.000000	19.120565
3673.000000	19.083518
3672.000000	19.025210
3671.000000	18.952052
3670.000000	18.872258
3669.000000	18.799812
3668.000000	18.734935
3667.000000	18.668998
3666.000000	18.599978
3665.000000	18.528103
3664.000000	18.454183
3663.000000	18.380655
3662.000000	18.311376
3661.000000	18.248546
3660.000000	18.189518
3659.000000	18.127372
3658.000000	18.056034
3657.000000	17.978101
3656.000000	17.903988
3655.000000	17.838788
3654.000000	17.776525
3653.000000	17.711635
3652.000000	17.638075
3651.000000	17.545812
3650.000000	17.434335
3649.000000	17.317963
3648.000000	17.209151
3647.000000	17.107019
3646.000000	17.004885
3645.000000	16.900412
3644.000000	16.795922
3643.000000	16.693578
3642.000000	16.594271
3641.000000	16.497224
3640.000000	16.401297
3639.000000	16.306360
3638.000000	16.212039
3637.000000	16.115646
3636.000000	16.015339
3635.000000	15.915773
3634.000000	15.825240
3633.000000	15.746022
3632.000000	15.669559
3631.000000	15.580857
3630.000000	15.470847
3629.000000	15.352708
3628.000000	15.247541
3627.000000	15.149987
3626.000000	15.045443
3625.000000	14.936797
3624.000000	14.829872
3623.000000	14.725848
3622.000000	14.624202
3621.000000	14.522561
3620.000000	14.420390
3619.000000	14.321918
3618.000000	14.229937
3617.000000	14.139684
3616.000000	14.045421
3615.000000	13.947311
3614.000000	13.849214
3613.000000	13.755323
3612.000000	13.666532
3611.000000	13.578706
3610.000000	13.487071
3609.000000	13.391846
3608.000000	13.297824
3607.000000	13.208252
3606.000000	13.121830
3605.000000	13.036181
3604.000000	12.950198
3603.000000	12.863130
3602.000000	12.775170
3601.000000	12.688331
3600.000000	12.604397
3599.000000	12.522882
3598.000000	12.442022
3597.000000	12.360359
3596.000000	12.277859
3595.000000	12.197064
3594.000000	12.120595
3593.000000	12.048902
3592.000000	11.979790
3591.000000	11.908980
3590.000000	11.831686
3589.000000	11.746774
3588.000000	11.659887
3587.000000	11.578989
3586.000000	11.505644
3585.000000	11.436010
3584.000000	11.367664
3583.000000	11.299471
3582.000000	11.230472
3581.000000	11.161444
3580.000000	11.093895
3579.000000	11.027707
3578.000000	10.961231
3577.000000	10.893596
3576.000000	10.825425
3575.000000	10.757923
3574.000000	10.691852
3573.000000	10.627446
3572.000000	10.564213
3571.000000	10.499934
3570.000000	10.431667
3569.000000	10.359193
3568.000000	10.287026
3567.000000	10.221055
3566.000000	10.162304
3565.000000	10.106637
3564.000000	10.050603
3563.000000	9.993326
3562.000000	9.934724
3561.000000	9.875841
3560.000000	9.818440
3559.000000	9.763009
3558.000000	9.708693
3557.000000	9.654711
3556.000000	9.600555
3555.000000	9.545385
3554.000000	9.489004
3553.000000	9.432995
3552.000000	9.379477
3551.000000	9.328274
3550.000000	9.276726
3549.000000	9.222426
3548.000000	9.165070
3547.000000	9.106595
3546.000000	9.050636
3545.000000	9.000529
3544.000000	8.956875
3543.000000	8.917314
3542.000000	8.878742
3541.000000	8.839167
3540.000000	8.797494
3539.000000	8.752790
3538.000000	8.705410
3537.000000	8.658077
3536.000000	8.614148
3535.000000	8.574502
3534.000000	8.537147
3533.000000	8.499766
3532.000000	8.461114
3531.000000	8.420683
3530.000000	8.378584
3529.000000	8.335891
3528.000000	8.293607
3527.000000	8.251262
3526.000000	8.207948
3525.000000	8.164792
3524.000000	8.124765
3523.000000	8.089698
3522.000000	8.058477
3521.000000	8.028324
3520.000000	7.996978
3519.000000	7.963408
3518.000000	7.927585
3517.000000	7.890100
3516.000000	7.851757
3515.000000	7.813475
3514.000000	7.776441
3513.000000	7.741862
3512.000000	7.709938
3511.000000	7.679457
3510.000000	7.649065
3509.000000	7.618514
3508.000000	7.587718
3507.000000	7.555433
3506.000000	7.520208
3505.000000	7.482415
3504.000000	7.444555
3503.000000	7.409621
3502.000000	7.379284
3501.000000	7.353125
3500.000000	7.328922
3499.000000	7.304046
3498.000000	7.277560
3497.000000	7.250752
3496.000000	7.225153
3495.000000	7.200799
3494.000000	7.177011
3493.000000	7.153739
3492.000000	7.130987
3491.000000	7.107816
3490.000000	7.083343
3489.000000	7.058297
3488.000000	7.034436
3487.000000	7.012777
3486.000000	6.993256
3485.000000	6.975270
3484.000000	6.957372
3483.000000	6.937412
3482.000000	6.914589
3481.000000	6.891039
3480.000000	6.870116
3479.000000	6.853338
3478.000000	6.839875
3477.000000	6.828220
3476.000000	6.817114
3475.000000	6.805414
3474.000000	6.792263
3473.000000	6.777269
3472.000000	6.760036
3471.000000	6.740341
3470.000000	6.719575
3469.000000	6.701147
3468.000000	6.688211
3467.000000	6.681152
3466.000000	6.677954
3465.000000	6.676120
3464.000000	6.673484
3463.000000	6.668472
3462.000000	6.661191
3461.000000	6.653736
3460.000000	6.648121
3459.000000	6.644292
3458.000000	6.640971
3457.000000	6.637557
3456.000000	6.634174
3455.000000	6.630726
3454.000000	6.627249
3453.000000	6.624557
3452.000000	6.623090
3451.000000	6.621792
3450.000000	6.619446
3449.000000	6.616575
3448.000000	6.614827
3447.000000	6.614921
3446.000000	6.616261
3445.000000	6.618123
3444.000000	6.620059
3443.000000	6.621477
3442.000000	6.621939
3441.000000	6.621518
3440.000000	6.620181
3439.000000	6.617570
3438.000000	6.614240
3437.000000	6.612319
3436.000000	6.613868
3435.000000	6.619013
3434.000000	6.626284
3433.000000	6.634066
3432.000000	6.641158
3431.000000	6.647150
3430.000000	6.653155
3429.000000	6.661158
3428.000000	6.671679
3427.000000	6.683038
3426.000000	6.693461
3425.000000	6.702734
3424.000000	6.711222
3423.000000	6.718827
3422.000000	6.725961
3421.000000	6.734169
3420.000000	6.744518
3419.000000	6.756280
3418.000000	6.768125
3417.000000	6.779580
3416.000000	6.790595
3415.000000	6.801052
3414.000000	6.811600
3413.000000	6.823625
3412.000000	6.837462
3411.000000	6.851884
3410.000000	6.866232
3409.000000	6.881657
3408.000000	6.899099
3407.000000	6.917363
3406.000000	6.934361
3405.000000	6.949109
3404.000000	6.961669
3403.000000	6.972572
3402.000000	6.983539
3401.000000	6.997472
3400.000000	7.016169
3399.000000	7.038535
3398.000000	7.061781
3397.000000	7.083534
3396.000000	7.102204
3395.000000	7.116904
3394.000000	7.128556
3393.000000	7.140306
3392.000000	7.155442
3391.000000	7.174930
3390.000000	7.197317
3389.000000	7.220071
3388.000000	7.240597
3387.000000	7.257358
3386.000000	7.271035
3385.000000	7.283779
3384.000000	7.296706
3383.000000	7.309132
3382.000000	7.320523
3381.000000	7.331705
3380.000000	7.343420
3379.000000	7.355074
3378.000000	7.365894
3377.000000	7.376136
3376.000000	7.386128
3375.000000	7.395121
3374.000000	7.402008
3373.000000	7.406380
3372.000000	7.408323
3371.000000	7.408172
3370.000000	7.407271
3369.000000	7.407797
3368.000000	7.410909
3367.000000	7.415785
3366.000000	7.420904
3365.000000	7.425245
3364.000000	7.427792
3363.000000	7.427318
3362.000000	7.423606
3361.000000	7.417849
3360.000000	7.411178
3359.000000	7.403690
3358.000000	7.395364
3357.000000	7.386669
3356.000000	7.377403
3355.000000	7.366288
3354.000000	7.352467
3353.000000	7.336421
3352.000000	7.318994
3351.000000	7.300546
3350.000000	7.281548
3349.000000	7.262637
3348.000000	7.243334
3347.000000	7.222079
3346.000000	7.198196
3345.000000	7.172697
3344.000000	7.146559
3343.000000	7.119444
3342.000000	7.090766
3341.000000	7.060617
3340.000000	7.029056
3339.000000	6.995819
3338.000000	6.961348
3337.000000	6.926854
3336.000000	6.892532
3335.000000	6.857082
3334.000000	6.819718
3333.000000	6.781200
3332.000000	6.742285
3331.000000	6.702475
3330.000000	6.661054
3329.000000	6.618080
3328.000000	6.573554
3327.000000	6.527087
3326.000000	6.479119
3325.000000	6.431065
3324.000000	6.383506
3323.000000	6.335541
3322.000000	6.286595
3321.000000	6.237432
3320.000000	6.188628
3319.000000	6.139504
3318.000000	6.089414
3317.000000	6.038673
3316.000000	5.987434
3315.000000	5.935034
3314.000000	5.881216
3313.000000	5.826622
3312.000000	5.771387
3311.000000	5.714744
3310.000000	5.656839
3309.000000	5.599445
3308.000000	5.544103
3307.000000	5.490932
3306.000000	5.439858
3305.000000	5.391312
3304.000000	5.344762
3303.000000	5.298349
3302.000000	5.250992
3301.000000	5.203427
3300.000000	5.156476
3299.000000	5.109838
3298.000000	5.063550
3297.000000	5.018962
3296.000000	4.977060
3295.000000	4.937419
3294.000000	4.899658
3293.000000	4.864553
3292.000000	4.832695
3291.000000	4.803313
3290.000000	4.775597
3289.000000	4.749624
3288.000000	4.725361
3287.000000	4.702275
3286.000000	4.680635
3285.000000	4.661835
3284.000000	4.646353
3283.000000	4.633007
3282.000000	4.620915
3281.000000	4.610526
3280.000000	4.602072
3279.000000	4.594547
3278.000000	4.587270
3277.000000	4.580937
3276.000000	4.576182
3275.000000	4.572605
3274.000000	4.569979
3273.000000	4.568985
3272.000000	4.570056
3271.000000	4.572848
3270.000000	4.577438
3269.000000	4.584356
3268.000000	4.592814
3267.000000	4.600774
3266.000000	4.607400
3265.000000	4.613808
3264.000000	4.620834
3263.000000	4.627914
3262.000000	4.634955
3261.000000	4.643192
3260.000000	4.653254
3259.000000	4.664104
3258.000000	4.674911
3257.000000	4.686382
3256.000000	4.699223
3255.000000	4.712885
3254.000000	4.726721
3253.000000	4.740828
3252.000000	4.755004
3251.000000	4.768426
3250.000000	4.781181
3249.000000	4.794658
3248.000000	4.809672
3247.000000	4.825661
3246.000000	4.842171
3245.000000	4.859501
3244.000000	4.877377
3243.000000	4.894722
3242.000000	4.911389
3241.000000	4.928449
3240.000000	4.946241
3239.000000	4.963876
3238.000000	4.981087
3237.000000	4.998771
3236.000000	5.017201
3235.000000	5.035586
3234.000000	5.054016
3233.000000	5.073788
3232.000000	5.095141
3231.000000	5.116589
3230.000000	5.137218
3229.000000	5.157761
3228.000000	5.178692
3227.000000	5.199246
3226.000000	5.219139
3225.000000	5.239368
3224.000000	5.260420
3223.000000	5.281442
3222.000000	5.301940
3221.000000	5.322540
3220.000000	5.343348
3219.000000	5.363309
3218.000000	5.381958
3217.000000	5.400172
3216.000000	5.418541
3215.000000	5.436710
3214.000000	5.454842
3213.000000	5.473886
3212.000000	5.493728
3211.000000	5.512869
3210.000000	5.530616
3209.000000	5.547772
3208.000000	5.564647
3207.000000	5.580306
3206.000000	5.594457
3205.000000	5.608169
3204.000000	5.621930
3203.000000	5.634868
3202.000000	5.646642
3201.000000	5.658275
3200.000000	5.670401
3199.000000	5.682365
3198.000000	5.693736
3197.000000	5.704917
3196.000000	5.715590
3195.000000	5.724466
3194.000000	5.731253
3193.000000	5.737181
3192.000000	5.742993
3191.000000	5.748173
3190.000000	5.752768
3189.000000	5.757975
3188.000000	5.764185
3187.000000	5.770296
3186.000000	5.775627
3185.000000	5.780794
3184.000000	5.785992
3183.000000	5.790282
3182.000000	5.793321
3181.000000	5.796075
3180.000000	5.799156
3179.000000	5.802203
3178.000000	5.805459
3177.000000	5.810112
3176.000000	5.816391
3175.000000	5.823099
3174.000000	5.829668
3173.000000	5.836875
3172.000000	5.844974
3171.000000	5.853067
3170.000000	5.860924
3169.000000	5.869620
3168.000000	5.879724
3167.000000	5.890619
3166.000000	5.902252
3165.000000	5.915661
3164.000000	5.931177
3163.000000	5.947887
3162.000000	5.965349
3161.000000	5.984094
3160.000000	6.003876
3159.000000	6.023408
3158.000000	6.042381
3157.000000	6.061771
3156.000000	6.081761
3155.000000	6.101488
3154.000000	6.121470
3153.000000	6.144115
3152.000000	6.170793
3151.000000	6.200282
3150.000000	6.230785
3149.000000	6.261648
3148.000000	6.292467
3147.000000	6.322463
3146.000000	6.351710
3145.000000	6.381273
3144.000000	6.411414
3143.000000	6.441316
3142.000000	6.471074
3141.000000	6.502174
3140.000000	6.535427
3139.000000	6.570121
3138.000000	6.605703
3137.000000	6.642420
3136.000000	6.679845
3135.000000	6.716647
3134.000000	6.752461
3133.000000	6.788321
3132.000000	6.824781
3131.000000	6.861388
3130.000000	6.898395
3129.000000	6.936993
3128.000000	6.977280
3127.000000	7.017769
3126.000000	7.057460
3125.000000	7.096634
3124.000000	7.135201
3123.000000	7.172309
3122.000000	7.208262
3121.000000	7.244866
3120.000000	7.283205
3119.000000	7.322819
3118.000000	7.363599
3117.000000	7.406565
3116.000000	7.452058
3115.000000	7.498866
3114.000000	7.545735
3113.000000	7.592175
3112.000000	7.637397
3111.000000	7.680374
3110.000000	7.721634
3109.000000	7.763314
3108.000000	7.806798
3107.000000	7.851703
3106.000000	7.897492
3105.000000	7.944352
3104.000000	7.991986
3103.000000	8.039351
3102.000000	8.086204
3101.000000	8.133317
3100.000000	8.180829
3099.000000	8.227941
3098.000000	8.274485
3097.000000	8.321156
3096.000000	8.368002
3095.000000	8.414418
3094.000000	8.460814
3093.000000	8.508520
3092.000000	8.557806
3091.000000	8.607679
3090.000000	8.657686
3089.000000	8.708100
3088.000000	8.758239
3087.000000	8.806694
3086.000000	8.853514
3085.000000	8.900306
3084.000000	8.947870
3083.000000	8.995596
3082.000000	9.043484
3081.000000	9.092747
3080.000000	9.144034
3079.000000	9.196799
3078.000000	9.250681
3077.000000	9.305627
3076.000000	9.360373
3075.000000	9.412801
3074.000000	9.462354
3073.000000	9.510517
3072.000000	9.558628
3071.000000	9.606894
3070.000000	9.655736
3069.000000	9.706145
3068.000000	9.758204
3067.000000	9.810896
3066.000000	9.863688
3065.000000	9.916750
3064.000000	9.969468
3063.000000	10.020578
3062.000000	10.069995
3061.000000	10.118855
3060.000000	10.167661
3059.000000	10.216117
3058.000000	10.264840
3057.000000	10.315307
3056.000000	10.367804
3055.000000	10.421060
3054.000000	10.474052
3053.000000	10.526575
3052.000000	10.578025
3051.000000	10.627501
3050.000000	10.675300
3049.000000	10.722587
3048.000000	10.769622
3047.000000	10.815987
3046.000000	10.862474
3045.000000	10.910796
3044.000000	10.961303
3043.000000	11.012783
3042.000000	11.064476
3041.000000	11.116402
3040.000000	11.167675
3039.000000	11.216517
3038.000000	11.262386
3037.000000	11.306409
3036.000000	11.349640
3035.000000	11.392591
3034.000000	11.436395
3033.000000	11.482492
3032.000000	11.530808
3031.000000	11.579903
3030.000000	11.628979
3029.000000	11.678087
3028.000000	11.726490
3027.000000	11.772845
3026.000000	11.817279
3025.000000	11.861475
3024.000000	11.906449
3023.000000	11.951947
3022.000000	11.998104
3021.000000	12.045805
3020.000000	12.095060
3019.000000	12.144695
3018.000000	12.193914
3017.000000	12.242606
3016.000000	12.290141
3015.000000	12.335620
3014.000000	12.379524
3013.000000	12.423499
3012.000000	12.468418
3011.000000	12.514164
3010.000000	12.561104
3009.000000	12.609944
3008.000000	12.660083
3007.000000	12.709868
3006.000000	12.758573
3005.000000	12.806586
3004.000000	12.853711
3003.000000	12.899008
3002.000000	12.942363
3001.000000	12.984629
3000.000000	13.026331
2999.000000	13.067835
2998.000000	13.110540
2997.000000	13.155961
2996.000000	13.203633
2995.000000	13.251618
2994.000000	13.299049
2993.000000	13.346416
2992.000000	13.393475
2991.000000	13.438868
2990.000000	13.482046
2989.000000	13.523880
2988.000000	13.565197
2987.000000	13.606350
2986.000000	13.648198
2985.000000	13.691794
2984.000000	13.736923
2983.000000	13.782403
2982.000000	13.827826
2981.000000	13.873479
2980.000000	13.918691
2979.000000	13.961994
2978.000000	14.002987
2977.000000	14.042573
2976.000000	14.081458
2975.000000	14.120043
2974.000000	14.159571
2973.000000	14.201499
2972.000000	14.245648
2971.000000	14.290537
2970.000000	14.335450
2969.000000	14.380561
2968.000000	14.425220
2967.000000	14.468011
2966.000000	14.508577
2965.000000	14.547744
2964.000000	14.585978
2963.000000	14.623463
2962.000000	14.661536
2961.000000	14.702022
2960.000000	14.745042
2959.000000	14.789132
2958.000000	14.833326
2957.000000	14.877304
2956.000000	14.919811
2955.000000	14.959193
2954.000000	14.995657
2953.000000	15.031084
2952.000000	15.066588
2951.000000	15.102028
2950.000000	15.137835
2949.000000	15.175252
2948.000000	15.214566
2947.000000	15.254915
2946.000000	15.295951
2945.000000	15.337984
2944.000000	15.380358
2943.000000	15.421412
2942.000000	15.460241
2941.000000	15.497150
2940.000000	15.532466
2939.000000	15.566549
2938.000000	15.600820
2937.000000	15.637004
2936.000000	15.675199
2935.000000	15.714080
2934.000000	15.752797
2933.000000	15.791103
2932.000000	15.828078
2931.000000	15.862732
2930.000000	15.895766
2929.000000	15.928853
2928.000000	15.962235
2927.000000	15.994923
2926.000000	16.027145
2925.000000	16.060598
2924.000000	16.096248
2923.000000	16.133654
2922.000000	16.172325
2921.000000	16.211865
2920.000000	16.250910
2919.000000	16.287744
2918.000000	16.321995
2917.000000	16.354295
2916.000000	16.384828
2915.000000	16.413918
2914.000000	16.443478
2913.000000	16.475849
2912.000000	16.511349
2911.000000	16.548566
2910.000000	16.586616
2909.000000	16.625281
2908.000000	16.663431
2907.000000	16.699440
2906.000000	16.733098
2905.000000	16.765440
2904.000000	16.796900
2903.000000	16.827388
2902.000000	16.857951
2901.000000	16.890341
2900.000000	16.925018
2899.000000	16.960994
2898.000000	16.997628
2897.000000	17.034861
2896.000000	17.071796
2895.000000	17.106960
2894.000000	17.140022
2893.000000	17.171813
2892.000000	17.202762
2891.000000	17.232858
2890.000000	17.262918
2889.000000	17.294217
2888.000000	17.326867
2887.000000	17.360026
2886.000000	17.393486
2885.000000	17.427529
2884.000000	17.461467
2883.000000	17.493987
2882.000000	17.524921
2881.000000	17.555176
2880.000000	17.585133
2879.000000	17.614670
2878.000000	17.644601
2877.000000	17.676370
2876.000000	17.710140
2875.000000	17.744531
2874.000000	17.778247
2873.000000	17.810708
2872.000000	17.841374
2871.000000	17.869983
2870.000000	17.897407
2869.000000	17.924913
2868.000000	17.952694
2867.000000	17.980348
2866.000000	18.008406
2865.000000	18.037908
2864.000000	18.068778
2863.000000	18.100089
2862.000000	18.131519
2861.000000	18.162990
2860.000000	18.193292
2859.000000	18.220891
2858.000000	18.246007
2857.000000	18.270365
2856.000000	18.295138
2855.000000	18.320666
2854.000000	18.347790
2853.000000	18.377620
2852.000000	18.409976
2851.000000	18.443540
2850.000000	18.477354
2849.000000	18.510829
2848.000000	18.542758
2847.000000	18.572018
2846.000000	18.599114
2845.000000	18.625665
2844.000000	18.652731
2843.000000	18.680948
2842.000000	18.711571
2841.000000	18.745491
2840.000000	18.781398
2839.000000	18.816578
2838.000000	18.849547
2837.000000	18.880546
2836.000000	18.909866
2835.000000	18.937372
2834.000000	18.963544
2833.000000	18.989399
2832.000000	19.015339
2831.000000	19.041413
2830.000000	19.068538
2829.000000	19.098077
2828.000000	19.130174
2827.000000	19.163707
2826.000000	19.197678
2825.000000	19.231436
2824.000000	19.263916
2823.000000	19.294166
2822.000000	19.322576
2821.000000	19.350332
2820.000000	19.377846
2819.000000	19.404929
2818.000000	19.432206
2817.000000	19.460941
2816.000000	19.491551
2815.000000	19.523440
2814.000000	19.556042
2813.000000	19.588765
2812.000000	19.620231
2811.000000	19.648933
2810.000000	19.674676
2809.000000	19.698368
2808.000000	19.720783
2807.000000	19.742627
2806.000000	19.765309
2805.000000	19.790204
2804.000000	19.817285
2803.000000	19.845568
2802.000000	19.874484
2801.000000	19.903632
2800.000000	19.931755
2799.000000	19.957442
2798.000000	19.980633
2797.000000	20.002276
2796.000000	20.022934
2795.000000	20.043004
2794.000000	20.063800
2793.000000	20.086855
2792.000000	20.112288
2791.000000	20.139028
2790.000000	20.166315
2789.000000	20.193712
2788.000000	20.220165
2787.000000	20.244601
2786.000000	20.267271
2785.000000	20.289250
2784.000000	20.310913
2783.000000	20.332157
2782.000000	20.353708
2781.000000	20.376766
2780.000000	20.401552
2779.000000	20.427460
2778.000000	20.454249
2777.000000	20.481734
2776.000000	20.508613
2775.000000	20.533090
2774.000000	20.554609
2773.000000	20.573843
2772.000000	20.591248
2771.000000	20.606945
2770.000000	20.621693
2769.000000	20.636580
2768.000000	20.651886
2767.000000	20.667249
2766.000000	20.682646
2765.000000	20.697967
2764.000000	20.711984
2763.000000	20.723174
2762.000000	20.731371
2761.000000	20.737533
2760.000000	20.742225
2759.000000	20.745564
2758.000000	20.748302
2757.000000	20.751539
2756.000000	20.755473
2755.000000	20.759629
2754.000000	20.764033
2753.000000	20.769024
2752.000000	20.774147
2751.000000	20.778423
2750.000000	20.781468
2749.000000	20.783276
2748.000000	20.783378
2747.000000	20.781417
2746.000000	20.778155
2745.000000	20.774648
2744.000000	20.770740
2743.000000	20.765609
2742.000000	20.759303
2741.000000	20.752401
2740.000000	20.744621
2739.000000	20.735193
2738.000000	20.724414
2737.000000	20.713511
2736.000000	20.703237
2735.000000	20.693928
2734.000000	20.686736
2733.000000	20.683341
2732.000000	20.684628
2731.000000	20.690763
2730.000000	20.702208
2729.000000	20.719568
2728.000000	20.742559
2727.000000	20.770397
2726.000000	20.802901
2725.000000	20.839891
2724.000000	20.880279
2723.000000	20.922976
2722.000000	20.968183
2721.000000	21.016446
2720.000000	21.066676
2719.000000	21.116652
2718.000000	21.165078
2717.000000	21.211703
2716.000000	21.255950
2715.000000	21.297012
2714.000000	21.335106
2713.000000	21.371222
2712.000000	21.405755
2711.000000	21.438546
2710.000000	21.470027
2709.000000	21.500858
2708.000000	21.530629
2707.000000	21.558302
2706.000000	21.583643
2705.000000	21.607073
2704.000000	21.628322
2703.000000	21.646634
2702.000000	21.662271
2701.000000	21.676421
2700.000000	21.689776
2699.000000	21.702267
2698.000000	21.714044
2697.000000	21.725576
2696.000000	21.736760
2695.000000	21.747082
2694.000000	21.756502
2693.000000	21.765199
2692.000000	21.772709
2691.000000	21.778335
2690.000000	21.782257
2689.000000	21.785315
2688.000000	21.788010
2687.000000	21.790707
2686.000000	21.794282
2685.000000	21.799413
2684.000000	21.805503
2683.000000	21.811384
2682.000000	21.816708
2681.000000	21.821624
2680.000000	21.825604
2679.000000	21.827941
2678.000000	21.829096
2677.000000	21.830342
2676.000000	21.832334
2675.000000	21.835115
2674.000000	21.839146
2673.000000	21.845109
2672.000000	21.852895
2671.000000	21.861957
2670.000000	21.872405
2669.000000	21.884640
2668.000000	21.898325
2667.000000	21.912712
2666.000000	21.927732
2665.000000	21.943725
2664.000000	21.960472
2663.000000	21.977670
2662.000000	21.995848
2661.000000	22.015667
2660.000000	22.036659
2659.000000	22.057653
2658.000000	22.078064
2657.000000	22.097749
2656.000000	22.116155
2655.000000	22.132785
2654.000000	22.148062
2653.000000	22.162606
2652.000000	22.176203
2651.000000	22.188596
2650.000000	22.200674
2649.000000	22.213689
2648.000000	22.227775
2647.000000	22.242431
2646.000000	22.257937
2645.000000	22.274998
2644.000000	22.293468
2643.000000	22.312769
2642.000000	22.333095
2641.000000	22.354946
2640.000000	22.377940
2639.000000	22.401285
2638.000000	22.425067
2637.000000	22.449823
2636.000000	22.475300
2635.000000	22.500947
2634.000000	22.527124
2633.000000	22.554568
2632.000000	22.583027
2631.000000	22.611624
2630.000000	22.640164
2629.000000	22.668817
2628.000000	22.696996
2627.000000	22.723837
2626.000000	22.749451
2625.000000	22.774412
2624.000000	22.798468
2623.000000	22.820935
2622.000000	22.841959
2621.000000	22.862159
2620.000000	22.881262
2619.000000	22.898402
2618.000000	22.913434
2617.000000	22.926836
2616.000000	22.938762
2615.000000	22.949249
2614.000000	22.958943
2613.000000	22.968355
2612.000000	22.976657
2611.000000	22.982531
2610.000000	22.985811
2609.000000	22.987331
2608.000000	22.987571
2607.000000	22.986578
2606.000000	22.984887
2605.000000	22.983211
2604.000000	22.981567
2603.000000	22.979858
2602.000000	22.978943
2601.000000	22.979951
2600.000000	22.983003
2599.000000	22.987762
2598.000000	22.994820
2597.000000	23.005384
2596.000000	23.019771
2595.000000	23.037508
2594.000000	23.058550
2593.000000	23.083079
2592.000000	23.110642
2591.000000	23.140452
2590.000000	23.172319
2589.000000	23.206203
2588.000000	23.241157
2587.000000	23.276079
2586.000000	23.311003
2585.000000	23.346563
2584.000000	23.382663
2583.000000	23.418789
2582.000000	23.455314
2581.000000	23.493182
2580.000000	23.532588
2579.000000	23.572998
2578.000000	23.614072
2577.000000	23.655526
2576.000000	23.696483
2575.000000	23.736023
2574.000000	23.774035
2573.000000	23.810617
2572.000000	23.845112
2571.000000	23.876795
2570.000000	23.905962
2569.000000	23.933090
2568.000000	23.957586
2567.000000	23.978283
2566.000000	23.994836
2565.000000	24.007655
2564.000000	24.016804
2563.000000	24.022411
2562.000000	24.025661
2561.000000	24.028330
2560.000000	24.031676
2559.000000	24.036542
2558.000000	24.044046
2557.000000	24.054996
2556.000000	24.069076
2555.000000	24.085664
2554.000000	24.105177
2553.000000	24.128440
2552.000000	24.155338
2551.000000	24.185234
2550.000000	24.218016
2549.000000	24.253797
2548.000000	24.291791
2547.000000	24.330762
2546.000000	24.370233
2545.000000	24.410097
2544.000000	24.449637
2543.000000	24.487940
2542.000000	24.524896
2541.000000	24.560713
2540.000000	24.594880
2539.000000	24.626650
2538.000000	24.656189
2537.000000	24.684273
2536.000000	24.711162
2535.000000	24.736899
2534.000000	24.762145
2533.000000	24.787696
2532.000000	24.813479
2531.000000	24.838838
2530.000000	24.863480
2529.000000	24.887180
2528.000000	24.909179
2527.000000	24.928961
2526.000000	24.947189
2525.000000	24.965026
2524.000000	24.982873
2523.000000	25.000663
2522.000000	25.018820
2521.000000	25.037858
2520.000000	25.057485
2519.000000	25.077010
2518.000000	25.096188
2517.000000	25.114812
2516.000000	25.132066
2515.000000	25.147353
2514.000000	25.161347
2513.000000	25.175263
2512.000000	25.189624
2511.000000	25.204586
2510.000000	25.220831
2509.000000	25.238978
2508.000000	25.258521
2507.000000	25.278356
2506.000000	25.297901
2505.000000	25.316759
2504.000000	25.333927
2503.000000	25.348567
2502.000000	25.361260
2501.000000	25.373456
2500.000000	25.386017
2499.000000	25.399184
2498.000000	25.413467
2497.000000	25.429422
2496.000000	25.446779
2495.000000	25.464652
2494.000000	25.482351
2493.000000	25.499219
2492.000000	25.514247
2491.000000	25.526865
2490.000000	25.537808
2489.000000	25.548395
2488.000000	25.559323
2487.000000	25.570890
2486.000000	25.583750
2485.000000	25.598440
2484.000000	25.614547
2483.000000	25.631161
2482.000000	25.647690
2481.000000	25.663474
2480.000000	25.677313
2479.000000	25.688439
2478.000000	25.697519
2477.000000	25.705859
2476.000000	25.714175
2475.000000	25.722974
2474.000000	25.733430
2473.000000	25.746630
2472.000000	25.762255
2471.000000	25.778905
2470.000000	25.795312
2469.000000	25.810476
2468.000000	25.823271
2467.000000	25.833125
2466.000000	25.840771
2465.000000	25.847520
2464.000000	25.854225
2463.000000	25.861667
2462.000000	25.871180
2461.000000	25.883715
2460.000000	25.898676
2459.000000	25.914620
2458.000000	25.930621
2457.000000	25.946046
2456.000000	25.959678
2455.000000	25.970397
2454.000000	25.978482
2453.000000	25.985302
2452.000000	25.992020
2451.000000	25.999430
2450.000000	26.008541
2449.000000	26.020186
2448.000000	26.034182
2447.000000	26.049648
2446.000000	26.065774
2445.000000	26.081577
2444.000000	26.095513
2443.000000	26.106421
2442.000000	26.114610
2441.000000	26.121324
2440.000000	26.127634
2439.000000	26.134588
2438.000000	26.143727
2437.000000	26.156245
2436.000000	26.171798
2435.000000	26.188956
2434.000000	26.206378
2433.000000	26.222856
2432.000000	26.236884
2431.000000	26.247386
2430.000000	26.254708
2429.000000	26.260250
2428.000000	26.265499
2427.000000	26.272067
2426.000000	26.281864
2425.000000	26.296029
2424.000000	26.313875
2423.000000	26.333604
2422.000000	26.353684
2421.000000	26.372813
2420.000000	26.389415
2419.000000	26.402340
2418.000000	26.411905
2417.000000	26.419460
2416.000000	26.426317
2415.000000	26.433807
2414.000000	26.443676
2413.000000	26.457262
2412.000000	26.474410
2411.000000	26.493858
2410.000000	26.514256
2409.000000	26.534147
2408.000000	26.551679
2407.000000	26.565502
2406.000000	26.575835
2405.000000	26.584009
2404.000000	26.591399
2403.000000	26.599418
2402.000000	26.609812
2401.000000	26.623834
2400.000000	26.641260
2399.000000	26.660910
2398.000000	26.681645
2397.000000	26.702225
2396.000000	26.720843
2395.000000	26.736016
2394.000000	26.747769
2393.000000	26.757350
2392.000000	26.766184
2391.000000	26.775739
2390.000000	26.787749
2389.000000	26.803411
2388.000000	26.822516
2387.000000	26.843819
2386.000000	26.865889
2385.000000	26.887165
2384.000000	26.905690
2383.000000	26.920299
2382.000000	26.931584
2381.000000	26.941395
2380.000000	26.951748
2379.000000	26.964418
2378.000000	26.981431
2377.000000	27.004198
2376.000000	27.032389
2375.000000	27.064068
2374.000000	27.096861
2373.000000	27.128532
2372.000000	27.156781
2371.000000	27.180104
2370.000000	27.198654
2369.000000	27.213900
2368.000000	27.227198
2367.000000	27.240001
2366.000000	27.254947
2365.000000	27.274696
2364.000000	27.300035
2363.000000	27.329419
2362.000000	27.360089
2361.000000	27.389782
2360.000000	27.416462
2359.000000	27.438113
2358.000000	27.454708
2357.000000	27.467790
2356.000000	27.479904
2355.000000	27.494072
2354.000000	27.513935
2353.000000	27.542666
2352.000000	27.577445
2351.000000	27.610683
2350.000000	27.636106
2349.000000	27.652569
2348.000000	27.664733
2347.000000	27.680183
2346.000000	27.706418
2345.000000	27.742114
2344.000000	27.776114
2343.000000	27.800552
2342.000000	27.818097
2341.000000	27.837480
2340.000000	27.861958
2339.000000	27.890168
2338.000000	27.920258
2337.000000	27.950391
2336.000000	27.977633
2335.000000	27.999098
2334.000000	28.015443
2333.000000	28.030105
2332.000000	28.046356
2331.000000	28.065534
2330.000000	28.088778
2329.000000	28.114807
2328.000000	28.142461
2327.000000	28.169235
2326.000000	28.196382
2325.000000	28.225001
2324.000000	28.255038
2323.000000	28.284742
2322.000000	28.311789
2321.000000	28.335262
2320.000000	28.354693
2319.000000	28.371601
2318.000000	28.388732
2317.000000	28.408357
2316.000000	28.431938
2315.000000	28.460010
2314.000000	28.493294
2313.000000	28.529515
2312.000000	28.564729
2311.000000	28.594526
2310.000000	28.618295
2309.000000	28.636908
2308.000000	28.652511
2307.000000	28.666952
2306.000000	28.683233
2305.000000	28.703267
2304.000000	28.727694
2303.000000	28.755689
2302.000000	28.786422
2301.000000	28.817860
2300.000000	28.847242
2299.000000	28.871991
2298.000000	28.891833
2297.000000	28.907531
2296.000000	28.920683
2295.000000	28.933068
2294.000000	28.947402
2293.000000	28.965457
2292.000000	28.987675
2291.000000	29.013361
2290.000000	29.041623
2289.000000	29.070649
2288.000000	29.097694
2287.000000	29.120606
2286.000000	29.139057
2285.000000	29.153883
2284.000000	29.166017
2283.000000	29.176961
2282.000000	29.189147
2281.000000	29.204973
2280.000000	29.225330
2279.000000	29.249755
2278.000000	29.276965
2277.000000	29.304877
2276.000000	29.330794
2275.000000	29.352690
2274.000000	29.370221
2273.000000	29.384172
2272.000000	29.395782
2271.000000	29.406845
2270.000000	29.419676
2269.000000	29.435907
2268.000000	29.455651
2267.000000	29.478078
2266.000000	29.502116
2265.000000	29.526193
2264.000000	29.548269
2263.000000	29.566918
2262.000000	29.582129
2261.000000	29.594680
2260.000000	29.605491
2259.000000	29.615953
2258.000000	29.627867
2257.000000	29.642411
2256.000000	29.659410
2255.000000	29.678041
2254.000000	29.697343
2253.000000	29.715745
2252.000000	29.731099
2251.000000	29.742013
2250.000000	29.748737
2249.000000	29.752338
2248.000000	29.753818
2247.000000	29.754519
2246.000000	29.756076
2245.000000	29.759399
2244.000000	29.763858
2243.000000	29.767960
2242.000000	29.770244
2241.000000	29.769180
2240.000000	29.763087
2239.000000	29.751116
2238.000000	29.734022
2237.000000	29.713669
2236.000000	29.692386
2235.000000	29.672992
2234.000000	29.658525
2233.000000	29.650884
2232.000000	29.650026
2231.000000	29.654661
2230.000000	29.663081
2229.000000	29.672985
2228.000000	29.681608
2227.000000	29.687098
2226.000000	29.689461
2225.000000	29.689928
2224.000000	29.690010
2223.000000	29.691483
2222.000000	29.696240
2221.000000	29.705131
2220.000000	29.717247
2219.000000	29.730694
2218.000000	29.743550
2217.000000	29.753813
2216.000000	29.759481
2215.000000	29.759612
2214.000000	29.755033
2213.000000	29.747723
2212.000000	29.740037
2211.000000	29.734720
2210.000000	29.734492
2209.000000	29.740652
2208.000000	29.752281
2207.000000	29.767107
2206.000000	29.782594
2205.000000	29.796108
2204.000000	29.805213
2203.000000	29.808800
2202.000000	29.807673
2201.000000	29.803799
2200.000000	29.799586
2199.000000	29.797903
2198.000000	29.801549
2197.000000	29.811780
2196.000000	29.827666
2195.000000	29.847063
2194.000000	29.867399
2193.000000	29.885437
2192.000000	29.897757
2191.000000	29.902559
2190.000000	29.900674
2189.000000	29.894586
2188.000000	29.887309
2187.000000	29.882315
2186.000000	29.883060
2185.000000	29.891258
2184.000000	29.905939
2183.000000	29.924548
2182.000000	29.944253
2181.000000	29.961941
2180.000000	29.974424
2179.000000	29.979958
2178.000000	29.979254
2177.000000	29.974505
2176.000000	29.968130
2175.000000	29.962900
2174.000000	29.962195
2173.000000	29.968800
2172.000000	29.983326
2171.000000	30.004049
2170.000000	30.027668
2169.000000	30.050064
2168.000000	30.067412
2167.000000	30.077714
2166.000000	30.081283
2165.000000	30.079881
2164.000000	30.076056
2163.000000	30.073337
2162.000000	30.075651
2161.000000	30.085542
2160.000000	30.103126
2159.000000	30.126852
2158.000000	30.154359
2157.000000	30.182375
2156.000000	30.207133
2155.000000	30.226036
2154.000000	30.238681
2153.000000	30.246143
2152.000000	30.250217
2151.000000	30.253635
2150.000000	30.259840
2149.000000	30.271447
2148.000000	30.289099
2147.000000	30.311859
2146.000000	30.337895
2145.000000	30.364485
2144.000000	30.388462
2143.000000	30.407598
2142.000000	30.421343
2141.000000	30.430287
2140.000000	30.435823
2139.000000	30.440588
2138.000000	30.448090
2137.000000	30.460998
2136.000000	30.479979
2135.000000	30.504150
2134.000000	30.531725
2133.000000	30.559992
2132.000000	30.585855
2131.000000	30.607283
2130.000000	30.623968
2129.000000	30.636663
2128.000000	30.646789
2127.000000	30.656833
2126.000000	30.669933
2125.000000	30.688257
2124.000000	30.712039
2123.000000	30.740125
2122.000000	30.770544
2121.000000	30.800478
2120.000000	30.826864
2119.000000	30.847844
2118.000000	30.863379
2117.000000	30.874714
2116.000000	30.884100
2115.000000	30.894795
2114.000000	30.909900
2113.000000	30.930536
2112.000000	30.955657
2111.000000	30.983530
2110.000000	31.012426
2109.000000	31.040028
2108.000000	31.063752
2107.000000	31.082280
2106.000000	31.096022
2105.000000	31.106112
2104.000000	31.114054
2103.000000	31.122356
2102.000000	31.134053
2101.000000	31.150833
2100.000000	31.172288
2099.000000	31.196926
2098.000000	31.222784
2097.000000	31.247112
2096.000000	31.266867
2095.000000	31.280309
2094.000000	31.287471
2093.000000	31.289313
2092.000000	31.287733
2091.000000	31.286481
2090.000000	31.290299
2089.000000	31.302040
2088.000000	31.321122
2087.000000	31.344984
2086.000000	31.370815
2085.000000	31.395692
2084.000000	31.416745
2083.000000	31.432418
2082.000000	31.443102
2081.000000	31.450352
2080.000000	31.456300
2079.000000	31.463922
2078.000000	31.476379
2077.000000	31.495311
2076.000000	31.520209
2075.000000	31.549666
2074.000000	31.582180
2073.000000	31.615411
2072.000000	31.646322
2071.000000	31.672690
2070.000000	31.693878
2069.000000	31.710036
2068.000000	31.722053
2067.000000	31.732926
2066.000000	31.747805
2065.000000	31.771311
2064.000000	31.804695
2063.000000	31.845605
2062.000000	31.889650
2061.000000	31.932072
2060.000000	31.969289
2059.000000	32.000078
2058.000000	32.025334
2057.000000	32.046736
2056.000000	32.066142
2055.000000	32.086004
2054.000000	32.109097
2053.000000	32.137153
2052.000000	32.170318
2051.000000	32.207644
2050.000000	32.247274
2049.000000	32.286409
2048.000000	32.322400
2047.000000	32.354056
2046.000000	32.381441
2045.000000	32.404849
2044.000000	32.425243
2043.000000	32.445647
2042.000000	32.470682
2041.000000	32.503909
2040.000000	32.545710
2039.000000	32.593554
2038.000000	32.643528
2037.000000	32.691749
2036.000000	32.735649
2035.000000	32.774638
2034.000000	32.809557
2033.000000	32.841836
2032.000000	32.873432
2031.000000	32.906962
2030.000000	32.944652
2029.000000	32.987158
2028.000000	33.033892
2027.000000	33.083841
2026.000000	33.135547
2025.000000	33.186587
2024.000000	33.234708
2023.000000	33.278916
2022.000000	33.319027
2021.000000	33.354867
2020.000000	33.387115
2019.000000	33.418679
2018.000000	33.454233
2017.000000	33.498013
2016.000000	33.551829
2015.000000	33.613974
2014.000000	33.679357
2013.000000	33.741904
2012.000000	33.797951
2011.000000	33.847422
2010.000000	33.892201
2009.000000	33.934583
2008.000000	33.977347
2007.000000	34.023524
2006.000000	34.075006
2005.000000	34.131614
2004.000000	34.192324
2003.000000	34.255923
2002.000000	34.320228
2001.000000	34.382062
2000.000000	34.438754
1999.000000	34.490055
1998.000000	34.536853
1997.000000	34.579615
1996.000000	34.618758
1995.000000	34.655603
1994.000000	34.692497
1993.000000	34.733012
1992.000000	34.781652
1991.000000	34.841393
1990.000000	34.909676
1989.000000	34.978539
1988.000000	35.041053
1987.000000	35.095526
1986.000000	35.143040
1985.000000	35.184424
1984.000000	35.221609
1983.000000	35.258916
1982.000000	35.300277
1981.000000	35.346588
1980.000000	35.396859
1979.000000	35.450633
1978.000000	35.506267
1977.000000	35.559735
1976.000000	35.607414
1975.000000	35.648905
1974.000000	35.685425
1973.000000	35.717578
1972.000000	35.746559
1971.000000	35.775217
1970.000000	35.805653
1969.000000	35.838112
1968.000000	35.873784
1967.000000	35.915819
1966.000000	35.965497
1965.000000	36.018985
1964.000000	36.070136
1963.000000	36.115535
1962.000000	36.154887
1961.000000	36.188653
1960.000000	36.218648
1959.000000	36.248891
1958.000000	36.282791
1957.000000	36.320744
1956.000000	36.361983
1955.000000	36.406509
1954.000000	36.453097
1953.000000	36.497794
1952.000000	36.537171
1951.000000	36.570948
1950.000000	36.601286
1949.000000	36.630382
1948.000000	36.659703
1947.000000	36.689724
1946.000000	36.718680
1945.000000	36.743813
1944.000000	36.766061
1943.000000	36.791507
1942.000000	36.826895
1941.000000	36.874163
1940.000000	36.927902
1939.000000	36.978480
1938.000000	37.018805
1937.000000	37.048021
1936.000000	37.071230
1935.000000	37.095872
1934.000000	37.126498
1933.000000	37.163326
1932.000000	37.205127
1931.000000	37.250046
1930.000000	37.295309
1929.000000	37.336879
1928.000000	37.371524
1927.000000	37.398587
1926.000000	37.417444
1925.000000	37.428589
1924.000000	37.435580
1923.000000	37.445463
1922.000000	37.465079
1921.000000	37.495104
1920.000000	37.528704
1919.000000	37.560133
1918.000000	37.590659
1917.000000	37.627743
1916.000000	37.676520
1915.000000	37.730938
1914.000000	37.778659
1913.000000	37.813206
1912.000000	37.837805
1911.000000	37.859293
1910.000000	37.882207
1909.000000	37.908562
1908.000000	37.940965
1907.000000	37.981359
1906.000000	38.025609
1905.000000	38.066770
1904.000000	38.100436
1903.000000	38.127141
1902.000000	38.150214
1901.000000	38.172249
1900.000000	38.194929
1899.000000	38.220111
1898.000000	38.248128
1897.000000	38.278172
1896.000000	38.308728
1895.000000	38.338154
1894.000000	38.365536
1893.000000	38.390100
1892.000000	38.409676
1891.000000	38.422220
1890.000000	38.428133
1889.000000	38.433849
1888.000000	38.451621
1887.000000	38.486772
1886.000000	38.531096
1885.000000	38.573459
1884.000000	38.609681
1883.000000	38.640994
1882.000000	38.668350
1881.000000	38.690873
1880.000000	38.709538
1879.000000	38.727866
1878.000000	38.747223
1877.000000	38.767018
1876.000000	38.788724
1875.000000	38.814205
1874.000000	38.840783
1873.000000	38.862367
1872.000000	38.875929
1871.000000	38.885015
1870.000000	38.894988
1869.000000	38.905258
1868.000000	38.914778
1867.000000	38.930866
1866.000000	38.957364
1865.000000	38.987709
1864.000000	39.016535
1863.000000	39.044816
1862.000000	39.074247
1861.000000	39.105056
1860.000000	39.137824
1859.000000	39.172022
1858.000000	39.203054
1857.000000	39.225763
1856.000000	39.239940
1855.000000	39.249145
1854.000000	39.255714
1853.000000	39.260330
1852.000000	39.264046
1851.000000	39.269304
1850.000000	39.275475
1849.000000	39.281044
1848.000000	39.287074
1847.000000	39.293127
1846.000000	39.290672
1845.000000	39.268501
1844.000000	39.232777
1843.000000	39.217832
1842.000000	39.249577
1841.000000	39.310792
1840.000000	39.369510
1839.000000	39.412005
1838.000000	39.440407
1837.000000	39.459867
1836.000000	39.473270
1835.000000	39.482847
1834.000000	39.490298
1833.000000	39.494796
1832.000000	39.496358
1831.000000	39.494787
1830.000000	39.478386
1829.000000	39.441413
1828.000000	39.403970
1827.000000	39.383205
1826.000000	39.378651
1825.000000	39.387406
1824.000000	39.413518
1823.000000	39.458765
1822.000000	39.505914
1821.000000	39.529247
1820.000000	39.520016
1819.000000	39.490361
1818.000000	39.457728
1817.000000	39.435539
1816.000000	39.430127
1815.000000	39.438431
1814.000000	39.450613
1813.000000	39.459829
1812.000000	39.467679
1811.000000	39.472412
1810.000000	39.465834
1809.000000	39.447778
1808.000000	39.429241
1807.000000	39.417200
1806.000000	39.401868
1805.000000	39.366224
1804.000000	39.308997
1803.000000	39.253125
1802.000000	39.228254
1801.000000	39.243643
1800.000000	39.283564
1799.000000	39.321063
1798.000000	39.338063
1797.000000	39.334960
1796.000000	39.322825
1795.000000	39.304473
1794.000000	39.267906
1793.000000	39.203108
1792.000000	39.129720
1791.000000	39.096466
1790.000000	39.131747
1789.000000	39.205524
1788.000000	39.263887
1787.000000	39.277411
1786.000000	39.252810
1785.000000	39.218894
1784.000000	39.202302
1783.000000	39.206406
1782.000000	39.211244
1781.000000	39.195475
1780.000000	39.165130
1779.000000	39.145804
1778.000000	39.148924
1777.000000	39.162885
1776.000000	39.178599
1775.000000	39.198432
1774.000000	39.215778
1773.000000	39.195371
1772.000000	39.101008
1771.000000	38.958832
1770.000000	38.828867
1769.000000	38.737675
1768.000000	38.696588
1767.000000	38.715370
1766.000000	38.774088
1765.000000	38.824053
1764.000000	38.831133
1763.000000	38.799019
1762.000000	38.748235
1761.000000	38.695484
1760.000000	38.653884
1759.000000	38.619668
1758.000000	38.579996
1757.000000	38.531877
1756.000000	38.493424
1755.000000	38.480543
1754.000000	38.469578
1753.000000	38.422017
1752.000000	38.341777
1751.000000	38.279468
1750.000000	38.267976
1749.000000	38.282178
1748.000000	38.279776
1747.000000	38.252575
1746.000000	38.211767
1745.000000	38.161675
1744.000000	38.113124
1743.000000	38.086913
1742.000000	38.086602
1741.000000	38.084378
1740.000000	38.051219
1739.000000	37.992651
1738.000000	37.933538
1737.000000	37.865974
1736.000000	37.758445
1735.000000	37.600652
1734.000000	37.415759
1733.000000	37.270403
1732.000000	37.219481
1731.000000	37.227702
1730.000000	37.239188
1729.000000	37.228533
1728.000000	37.199282
1727.000000	37.160018
1726.000000	37.101196
1725.000000	37.006804
1724.000000	36.882919
1723.000000	36.754129
1722.000000	36.633845
1721.000000	36.512576
1720.000000	36.382498
1719.000000	36.248562
1718.000000	36.097439
1717.000000	35.916464
1716.000000	35.747771
1715.000000	35.627776
1714.000000	35.542158
1713.000000	35.461635
1712.000000	35.367625
1711.000000	35.254964
1710.000000	35.124456
1709.000000	34.981210
1708.000000	34.835349
1707.000000	34.689816
1706.000000	34.526764
1705.000000	34.337361
1704.000000	34.148356
1703.000000	33.970171
1702.000000	33.766294
1701.000000	33.501647
1700.000000	33.209990
1699.000000	32.992554
1698.000000	32.864314
1697.000000	32.718686
1696.000000	32.485042
1695.000000	32.223858
1694.000000	32.038393
1693.000000	31.917069
1692.000000	31.787304
1691.000000	31.607075
1690.000000	31.376661
1689.000000	31.124569
1688.000000	30.886149
1687.000000	30.668729
1686.000000	30.435425
1685.000000	30.126955
1684.000000	29.721142
1683.000000	29.343596
1682.000000	29.109196
1681.000000	28.948237
1680.000000	28.777940
1679.000000	28.583329
1678.000000	28.367370
1677.000000	28.107742
1676.000000	27.788308
1675.000000	27.449033
1674.000000	27.159746
1673.000000	26.930814
1672.000000	26.717318
1671.000000	26.483867
1670.000000	26.217008
1669.000000	25.924162
1668.000000	25.648712
1667.000000	25.425398
1666.000000	25.233505
1665.000000	25.024592
1664.000000	24.768248
1663.000000	24.472004
1662.000000	24.172146
1661.000000	23.900412
1660.000000	23.661248
1659.000000	23.447481
1658.000000	23.249270
1657.000000	23.052198
1656.000000	22.845394
1655.000000	22.634452
1654.000000	22.400303
1653.000000	22.074341
1652.000000	21.746246
1651.000000	21.553664
1650.000000	21.431155
1649.000000	21.297382
1648.000000	21.117935
1647.000000	20.892112
1646.000000	20.658632
1645.000000	20.470410
1644.000000	20.328118
1643.000000	20.203361
1642.000000	20.077759
1641.000000	19.940892
1640.000000	19.796598
1639.000000	19.662788
1638.000000	19.550645
1637.000000	19.448903
1636.000000	19.332419
1635.000000	19.215276
1634.000000	19.148158
1633.000000	19.129863
1632.000000	19.123385
1631.000000	19.115014
1630.000000	19.108486
1629.000000	19.100401
1628.000000	19.081886
1627.000000	19.059205
1626.000000	19.049053
1625.000000	19.057322
1624.000000	19.081057
1623.000000	19.119646
1622.000000	19.177119
1621.000000	19.250651
1620.000000	19.332133
1619.000000	19.425402
1618.000000	19.540487
1617.000000	19.662220
1616.000000	19.759966
1615.000000	19.843506
1614.000000	19.940657
1613.000000	20.056169
1612.000000	20.184554
1611.000000	20.326669
1610.000000	20.485528
1609.000000	20.653096
1608.000000	20.815373
1607.000000	20.967957
1606.000000	21.114656
1605.000000	21.253393
1604.000000	21.379150
1603.000000	21.495885
1602.000000	21.613649
1601.000000	21.736746
1600.000000	21.864219
1599.000000	21.999543
1598.000000	22.147884
1597.000000	22.305464
1596.000000	22.460425
1595.000000	22.603762
1594.000000	22.733531
1593.000000	22.848540
1592.000000	22.947157
1591.000000	23.034188
1590.000000	23.120019
1589.000000	23.210523
1588.000000	23.305572
1587.000000	23.406912
1586.000000	23.518796
1585.000000	23.638251
1584.000000	23.754585
1583.000000	23.861872
1582.000000	23.959850
1581.000000	24.045137
1580.000000	24.114012
1579.000000	24.174796
1578.000000	24.243750
1577.000000	24.319087
1576.000000	24.371437
1575.000000	24.403589
1574.000000	24.455441
1573.000000	24.533124
1572.000000	24.619054
1571.000000	24.702254
1570.000000	24.771167
1569.000000	24.811408
1568.000000	24.835305
1567.000000	24.867195
1566.000000	24.912786
1565.000000	24.962872
1564.000000	25.003742
1563.000000	25.028255
1562.000000	25.041150
1561.000000	25.061800
1560.000000	25.142970
1559.000000	25.235893
1558.000000	25.256804
1557.000000	25.299065
1556.000000	25.369861
1555.000000	25.430939
1554.000000	25.486887
1553.000000	25.547092
1552.000000	25.611199
1551.000000	25.684985
1550.000000	25.786591
1549.000000	25.916086
1548.000000	26.042902
1547.000000	26.136758
1546.000000	26.203193
1545.000000	26.273137
1544.000000	26.363504
1543.000000	26.474204
1542.000000	26.612298
1541.000000	26.779092
1540.000000	26.917196
1539.000000	27.004716
1538.000000	27.111735
1537.000000	27.251650
1536.000000	27.394788
1535.000000	27.536442
1534.000000	27.681371
1533.000000	27.818221
1532.000000	27.947627
1531.000000	28.080429
1530.000000	28.209977
1529.000000	28.329150
1528.000000	28.445449
1527.000000	28.581309
1526.000000	28.758619
1525.000000	28.972600
1524.000000	29.191488
1523.000000	29.390152
1522.000000	29.561483
1521.000000	29.708993
1520.000000	29.859220
1519.000000	30.030241
1518.000000	30.211639
1517.000000	30.390378
1516.000000	30.567034
1515.000000	30.760321
1514.000000	30.974996
1513.000000	31.193951
1512.000000	31.401079
1511.000000	31.584240
1510.000000	31.745257
1509.000000	31.911063
1508.000000	32.134340
1507.000000	32.394674
1506.000000	32.633202
1505.000000	32.891502
1504.000000	33.167625
1503.000000	33.424656
1502.000000	33.666611
1501.000000	33.904173
1500.000000	34.135900
1499.000000	34.354675
1498.000000	34.555687
1497.000000	34.734113
1496.000000	34.895157
1495.000000	35.057101
1494.000000	35.221946
1493.000000	35.369953
1492.000000	35.499342
1491.000000	35.648530
1490.000000	35.856929
1489.000000	36.121429
1488.000000	36.410056
1487.000000	36.687710
1486.000000	36.935410
1485.000000	37.146364
1484.000000	37.317383
1483.000000	37.458141
1482.000000	37.587320
1481.000000	37.717242
1480.000000	37.846273
1479.000000	37.967814
1478.000000	38.081176
1477.000000	38.192044
1476.000000	38.301631
1475.000000	38.402971
1474.000000	38.484625
1473.000000	38.523011
1472.000000	38.513996
1471.000000	38.497245
1470.000000	38.482959
1469.000000	38.430591
1468.000000	38.320688
1467.000000	38.179311
1466.000000	38.044414
1465.000000	37.929917
1464.000000	37.838599
1463.000000	37.774739
1462.000000	37.710521
1461.000000	37.597837
1460.000000	37.413053
1459.000000	37.164606
1458.000000	36.853560
1457.000000	36.486971
1456.000000	36.177555
1455.000000	36.009907
1454.000000	35.885357
1453.000000	35.677989
1452.000000	35.351002
1451.000000	34.927067
1450.000000	34.409465
1449.000000	33.768101
1448.000000	33.012777
1447.000000	32.212594
1446.000000	31.409625
1445.000000	30.574949
1444.000000	29.674508
1443.000000	28.706637
1442.000000	27.672585
1441.000000	26.573376
1440.000000	25.422691
1439.000000	24.194572
1438.000000	22.776496
1437.000000	21.102648
1436.000000	19.376223
1435.000000	17.894181
1434.000000	16.671244
1433.000000	15.552413
1432.000000	14.494155
1431.000000	13.565426
1430.000000	12.813595
1429.000000	12.247353
1428.000000	11.907255
1427.000000	11.820319
1426.000000	11.943582
1425.000000	12.232514
1424.000000	12.688426
1423.000000	13.279604
1422.000000	13.918941
1421.000000	14.579994
1420.000000	15.347042
1419.000000	16.261989
1418.000000	17.203653
1417.000000	18.059971
1416.000000	18.856143
1415.000000	19.638303
1414.000000	20.390708
1413.000000	21.088286
1412.000000	21.750432
1411.000000	22.404365
1410.000000	23.039877
1409.000000	23.640895
1408.000000	24.222425
1407.000000	24.808644
1406.000000	25.407940
1405.000000	26.022271
1404.000000	26.649553
1403.000000	27.262787
1402.000000	27.824536
1401.000000	28.336885
1400.000000	28.843686
1399.000000	29.368548
1398.000000	29.891035
1397.000000	30.404031
1396.000000	30.944242
1395.000000	31.546089
1394.000000	32.196068
1393.000000	32.851469
1392.000000	33.473498
1391.000000	34.028934
1390.000000	34.496189
1389.000000	34.882584
1388.000000	35.219559
1387.000000	35.538697
1386.000000	35.868752
1385.000000	36.244484
1384.000000	36.694218
1383.000000	37.217022
1382.000000	37.773363
1381.000000	38.303744
1380.000000	38.757654
1379.000000	39.104366
1378.000000	39.330860
1377.000000	39.433618
1376.000000	39.405280
1375.000000	39.239003
1374.000000	38.954273
1373.000000	38.603297
1372.000000	38.227241
1371.000000	37.826840
1370.000000	37.401671
1369.000000	36.984443
1368.000000	36.619256
1367.000000	36.324120
1366.000000	36.091400
1365.000000	35.924446
1364.000000	35.866908
1363.000000	35.992468
1362.000000	36.356921
1361.000000	36.954585
1360.000000	37.716662
1359.000000	38.548267
1358.000000	39.368106
1357.000000	40.119421
1356.000000	40.758141
1355.000000	41.244801
1354.000000	41.551434
1353.000000	41.667909
1352.000000	41.595969
1351.000000	41.340165
1350.000000	40.913195
1349.000000	40.339771
1348.000000	39.641985
1347.000000	38.830934
1346.000000	37.911577
1345.000000	36.888538
1344.000000	35.766437
1343.000000	34.543507
1342.000000	33.215111
1341.000000	31.790166
1340.000000	30.310657
1339.000000	28.851575
1338.000000	27.479901
1337.000000	26.213123
1336.000000	25.030689
1335.000000	23.914609
1334.000000	22.870505
1333.000000	21.930224
1332.000000	21.143934
1331.000000	20.553326
1330.000000	20.150512
1329.000000	19.858938
1328.000000	19.566080
1327.000000	19.174634
1326.000000	18.632064
1325.000000	17.936775
1324.000000	17.128845
1323.000000	16.264107
1322.000000	15.381016
1321.000000	14.488012
1320.000000	13.581977
1319.000000	12.672093
1318.000000	11.783341
1317.000000	10.950376
1316.000000	10.217063
1315.000000	9.628657
1314.000000	9.205681
1313.000000	8.932216
1312.000000	8.771854
1311.000000	8.684291
1310.000000	8.634729
1309.000000	8.603540
1308.000000	8.598750
1307.000000	8.648662
1306.000000	8.775190
1305.000000	8.986995
1304.000000	9.290387
1303.000000	9.689902
1302.000000	10.176467
1301.000000	10.727320
1300.000000	11.323014
1299.000000	11.950682
1298.000000	12.594190
1297.000000	13.235469
1296.000000	13.863527
1295.000000	14.472999
1294.000000	15.054871
1293.000000	15.597757
1292.000000	16.095951
1291.000000	16.548115
1290.000000	16.947203
1289.000000	17.281409
1288.000000	17.545653
1287.000000	17.746973
1286.000000	17.904404
1285.000000	18.047296
1284.000000	18.210460
1283.000000	18.420411
1282.000000	18.681862
1281.000000	18.982362
1280.000000	19.308599
1279.000000	19.652835
1278.000000	20.008469
1277.000000	20.369892
1276.000000	20.735889
1275.000000	21.107050
1274.000000	21.479837
1273.000000	21.846966
1272.000000	22.201993
1271.000000	22.539602
1270.000000	22.853327
1269.000000	23.138350
1268.000000	23.396948
1267.000000	23.637420
1266.000000	23.869265
1265.000000	24.101085
1264.000000	24.340593
1263.000000	24.592825
1262.000000	24.857171
1261.000000	25.128284
1260.000000	25.398575
1259.000000	25.658749
1258.000000	25.899385
1257.000000	26.115148
1256.000000	26.307939
1255.000000	26.485310
1254.000000	26.656772
1253.000000	26.831874
1252.000000	27.018754
1251.000000	27.221604
1250.000000	27.438877
1249.000000	27.664105
1248.000000	27.888228
1247.000000	28.101702
1246.000000	28.297013
1245.000000	28.471272
1244.000000	28.626707
1243.000000	28.769453
1242.000000	28.908177
1241.000000	29.052458
1240.000000	29.210012
1239.000000	29.383838
1238.000000	29.571756
1237.000000	29.767581
1236.000000	29.962189
1235.000000	30.145434
1234.000000	30.309761
1233.000000	30.453008
1232.000000	30.578024
1231.000000	30.691520
1230.000000	30.803651
1229.000000	30.925465
1228.000000	31.064382
1227.000000	31.221948
1226.000000	31.395336
1225.000000	31.578758
1224.000000	31.762856
1223.000000	31.936179
1222.000000	32.090367
1221.000000	32.223678
1220.000000	32.339742
1219.000000	32.445607
1218.000000	32.551656
1217.000000	32.669377
1216.000000	32.805958
1215.000000	32.961690
1214.000000	33.132484
1213.000000	33.312030
1212.000000	33.490689
1211.000000	33.656353
1210.000000	33.800144
1209.000000	33.920358
1208.000000	34.021010
1207.000000	34.110055
1206.000000	34.199403
1205.000000	34.302160
1204.000000	34.426594
1203.000000	34.573482
1202.000000	34.738663
1201.000000	34.914758
1200.000000	35.090311
1199.000000	35.252040
1198.000000	35.391057
1197.000000	35.505587
1196.000000	35.597699
1195.000000	35.672112
1194.000000	35.737979
1193.000000	35.806063
1192.000000	35.881619
1191.000000	35.960873
1190.000000	36.035367
1189.000000	36.095932
1188.000000	36.132886
1187.000000	36.139268
1186.000000	36.115750
1185.000000	36.070513
1184.000000	36.013881
1183.000000	35.956532
1182.000000	35.912565
1181.000000	35.899433
1180.000000	35.931683
1179.000000	36.015387
1178.000000	36.147495
1177.000000	36.315219
1176.000000	36.497721
1175.000000	36.673397
1174.000000	36.828979
1173.000000	36.961569
1172.000000	37.073041
1171.000000	37.168463
1170.000000	37.258966
1169.000000	37.358829
1168.000000	37.476800
1167.000000	37.613149
1166.000000	37.763898
1165.000000	37.922358
1164.000000	38.076936
1163.000000	38.214326
1162.000000	38.328043
1161.000000	38.420205
1160.000000	38.495954
1159.000000	38.562382
1158.000000	38.631952
1157.000000	38.719206
1156.000000	38.831475
1155.000000	38.966552
1154.000000	39.118478
1153.000000	39.279325
1152.000000	39.435842
1151.000000	39.572639
1150.000000	39.682091
1149.000000	39.766998
1148.000000	39.833720
1147.000000	39.889784
1146.000000	39.947668
1145.000000	40.021762
1144.000000	40.118829
1143.000000	40.235767
1142.000000	40.366289
1141.000000	40.503218
1140.000000	40.634505
1139.000000	40.746019
1138.000000	40.831067
1137.000000	40.892431
1136.000000	40.935655
1135.000000	40.967421
1134.000000	41.000277
1133.000000	41.049602
1132.000000	41.123013
1131.000000	41.217668
1130.000000	41.327212
1129.000000	41.444610
1128.000000	41.558440
1127.000000	41.655273
1126.000000	41.728919
1125.000000	41.782307
1124.000000	41.821021
1123.000000	41.851960
1122.000000	41.887362
1121.000000	41.940876
1120.000000	42.017394
1119.000000	42.112339
1118.000000	42.220110
1117.000000	42.335818
1116.000000	42.449417
1115.000000	42.547946
1114.000000	42.626045
1113.000000	42.688098
1112.000000	42.740295
1111.000000	42.788666
1110.000000	42.844058
1109.000000	42.918880
1108.000000	43.016868
1107.000000	43.132247
1106.000000	43.258534
1105.000000	43.390333
1104.000000	43.517259
1103.000000	43.626317
1102.000000	43.712843
1101.000000	43.781873
1100.000000	43.839586
1099.000000	43.891651
1098.000000	43.949237
1097.000000	44.025800
1096.000000	44.125423
1095.000000	44.241645
1094.000000	44.366858
1093.000000	44.494527
1092.000000	44.613368
1091.000000	44.710778
1090.000000	44.784294
1089.000000	44.841987
1088.000000	44.892174
1087.000000	44.941778
1086.000000	45.002897
1085.000000	45.089065
1084.000000	45.202838
1083.000000	45.334904
1082.000000	45.474909
1081.000000	45.614408
1080.000000	45.741197
1079.000000	45.843096
1078.000000	45.919546
1077.000000	45.980249
1076.000000	46.033286
1075.000000	46.084037
1074.000000	46.142690
1073.000000	46.220212
1072.000000	46.314638
1071.000000	46.411171
1070.000000	46.494833
1069.000000	46.552051
1068.000000	46.563813
1067.000000	46.509539
1066.000000	46.382765
1065.000000	46.195348
1064.000000	45.967684
1063.000000	45.727639
1062.000000	45.514523
1061.000000	45.368313
1060.000000	45.309228
1059.000000	45.333772
1058.000000	45.425724
1057.000000	45.562961
1056.000000	45.716246
1055.000000	45.855693
1054.000000	45.966219
1053.000000	46.048392
1052.000000	46.105898
1051.000000	46.141901
1050.000000	46.166109
1049.000000	46.190289
1048.000000	46.214597
1047.000000	46.227338
1046.000000	46.218360
1045.000000	46.184188
1044.000000	46.121897
1043.000000	46.032758
1042.000000	45.933663
1041.000000	45.854788
1040.000000	45.823009
1039.000000	45.855690
1038.000000	45.964551
1037.000000	46.152685
1036.000000	46.406523
1035.000000	46.697884
1034.000000	46.999447
1033.000000	47.290718
1032.000000	47.552124
1031.000000	47.767822
1030.000000	47.936956
1029.000000	48.072972
1028.000000	48.190673
1027.000000	48.302936
1026.000000	48.426630
1025.000000	48.577989
1024.000000	48.758308
1023.000000	48.953413
1022.000000	49.148032
1021.000000	49.330435
1020.000000	49.486184
1019.000000	49.601709
1018.000000	49.677849
1017.000000	49.729914
1016.000000	49.773668
1015.000000	49.821973
1014.000000	49.891676
1013.000000	49.998676
1012.000000	50.143455
1011.000000	50.311268
1010.000000	50.486203
1009.000000	50.655329
1008.000000	50.801834
1007.000000	50.909416
1006.000000	50.976609
1005.000000	51.017190
1004.000000	51.046670
1003.000000	51.078434
1002.000000	51.130169
1001.000000	51.218729
1000.000000	51.345762
999.000000	51.497718
998.000000	51.659936
997.000000	51.820419
996.000000	51.962417
995.000000	52.068524
994.000000	52.135757
993.000000	52.176526
992.000000	52.205113
991.000000	52.233632
990.000000	52.278424
989.000000	52.355379
988.000000	52.465893
987.000000	52.597325
986.000000	52.736791
985.000000	52.874472
984.000000	52.995759
983.000000	53.085431
982.000000	53.142613
981.000000	53.181181
980.000000	53.215258
979.000000	53.254860
978.000000	53.313028
977.000000	53.402011
976.000000	53.520035
975.000000	53.652373
974.000000	53.785973
973.000000	53.912169
972.000000	54.017791
971.000000	54.088929
970.000000	54.126262
969.000000	54.145338
968.000000	54.161499
967.000000	54.185732
966.000000	54.232085
965.000000	54.313319
964.000000	54.426868
963.000000	54.556126
962.000000	54.685712
961.000000	54.805100
960.000000	54.900025
959.000000	54.956889
958.000000	54.978124
957.000000	54.981572
956.000000	54.984032
955.000000	54.996378
954.000000	55.031735
953.000000	55.101725
952.000000	55.202378
951.000000	55.315844
950.000000	55.426714
949.000000	55.525571
948.000000	55.599632
947.000000	55.636566
946.000000	55.640084
945.000000	55.628646
944.000000	55.618849
943.000000	55.621270
942.000000	55.648710
941.000000	55.711746
940.000000	55.804275
939.000000	55.906289
938.000000	56.001355
937.000000	56.080231
936.000000	56.130569
935.000000	56.140454
934.000000	56.114639
933.000000	56.073948
932.000000	56.037589
931.000000	56.017912
930.000000	56.028257
929.000000	56.078509
928.000000	56.160913
927.000000	56.253246
926.000000	56.336693
925.000000	56.398936
924.000000	56.424442
923.000000	56.400043
922.000000	56.332161
921.000000	56.244680
920.000000	56.159026
919.000000	56.088238
918.000000	56.045911
917.000000	56.042303
916.000000	56.070139
915.000000	56.107255
914.000000	56.134196
913.000000	56.138032
912.000000	56.102241
911.000000	56.012170
910.000000	55.872338
909.000000	55.704782
908.000000	55.530024
907.000000	55.361174
906.000000	55.212855
905.000000	55.096624
904.000000	55.005715
903.000000	54.918347
902.000000	54.815686
901.000000	54.685714
900.000000	54.513627
899.000000	54.285549
898.000000	54.005257
897.000000	53.691911
896.000000	53.362840
895.000000	53.029703
894.000000	52.705581
893.000000	52.400363
892.000000	52.106758
891.000000	51.804342
890.000000	51.476363
889.000000	51.111489
888.000000	50.695555
887.000000	50.216476
886.000000	49.678990
885.000000	49.101959
884.000000	48.500940
883.000000	47.885787
882.000000	47.267833
881.000000	46.655410
880.000000	46.043039
879.000000	45.415133
878.000000	44.760315
877.000000	44.071583
876.000000	43.339037
875.000000	42.556506
874.000000	41.733093
873.000000	40.889077
872.000000	40.042044
871.000000	39.204860
870.000000	38.390877
869.000000	37.609295
868.000000	36.857113
867.000000	36.123120
866.000000	35.398202
865.000000	34.676368
864.000000	33.951547
863.000000	33.220974
862.000000	32.490491
861.000000	31.771178
860.000000	31.071828
859.000000	30.399824
858.000000	29.763284
857.000000	29.167281
856.000000	28.610678
855.000000	28.088441
854.000000	27.596995
853.000000	27.133396
852.000000	26.693994
851.000000	26.278645
850.000000	25.891176
849.000000	25.536410
848.000000	25.217868
847.000000	24.939899
846.000000	24.708899
845.000000	24.526797
844.000000	24.389888
843.000000	24.294161
842.000000	24.237702
841.000000	24.218876
840.000000	24.234683
839.000000	24.287625
838.000000	24.387556
837.000000	24.543195
836.000000	24.759037
835.000000	25.039645
834.000000	25.391204
833.000000	25.810681
832.000000	26.276813
831.000000	26.744557
830.000000	27.131968
829.000000	27.302464
828.000000	27.090872
827.000000	26.389710
826.000000	25.211496
825.000000	23.679894
824.000000	22.003564
823.000000	20.495741
822.000000	19.546941
821.000000	19.457025
820.000000	20.227252
819.000000	21.538344
818.000000	22.972695
817.000000	24.256755
816.000000	25.322034
815.000000	26.204549
814.000000	26.953210
813.000000	27.611397
812.000000	28.216332
811.000000	28.787960
810.000000	29.330706
809.000000	29.849493
808.000000	30.348197
807.000000	30.819710
806.000000	31.252346
805.000000	31.646539
804.000000	32.011897
803.000000	32.352053
802.000000	32.668637
801.000000	32.973099
800.000000	33.280600
799.000000	33.595567
798.000000	33.914611
797.000000	34.238533
796.000000	34.568463
795.000000	34.896007
794.000000	35.209369
793.000000	35.504539
792.000000	35.781782
791.000000	36.038649
790.000000	36.277160
789.000000	36.510726
788.000000	36.753380
787.000000	37.008078
786.000000	37.272780
785.000000	37.549151
784.000000	37.835581
783.000000	38.119337
782.000000	38.385950
781.000000	38.630488
780.000000	38.852453
779.000000	39.049032
778.000000	39.222694
777.000000	39.387696
776.000000	39.559239
775.000000	39.741854
774.000000	39.934841
773.000000	40.139900
772.000000	40.354943
771.000000	40.568270
770.000000	40.767641
769.000000	40.949140
768.000000	41.111042
767.000000	41.248657
766.000000	41.363322
765.000000	41.467932
764.000000	41.575896
763.000000	41.691510
762.000000	41.816407
761.000000	41.955038
760.000000	42.105930
759.000000	42.256695
758.000000	42.395681
757.000000	42.520873
756.000000	42.632021
755.000000	42.724876
754.000000	42.801151
753.000000	42.873960
752.000000	42.954959
751.000000	43.044723
750.000000	43.141638
749.000000	43.249519
748.000000	43.368466
747.000000	43.488216
746.000000	43.598799
745.000000	43.699106
744.000000	43.788799
743.000000	43.863048
742.000000	43.923250
741.000000	43.982441
740.000000	44.051596
739.000000	44.129584
738.000000	44.212840
737.000000	44.303386
736.000000	44.399424
735.000000	44.488861
734.000000	44.561313
733.000000	44.617381
732.000000	44.659391
731.000000	44.684445
730.000000	44.694583
729.000000	44.702204
728.000000	44.716999
727.000000	44.737216
726.000000	44.759356
725.000000	44.785675
724.000000	44.815598
723.000000	44.840965
722.000000	44.857286
721.000000	44.869504
720.000000	44.880320
719.000000	44.885046
718.000000	44.885227
717.000000	44.894729
716.000000	44.924157
715.000000	44.970789
714.000000	45.030760
713.000000	45.107691
712.000000	45.200435
711.000000	45.294536
710.000000	45.375870
709.000000	45.442007
708.000000	45.493225
707.000000	45.526586
706.000000	45.547154
705.000000	45.571610
704.000000	45.611408
703.000000	45.661995
702.000000	45.716264
701.000000	45.776340
700.000000	45.842994
699.000000	45.908537
698.000000	45.969913
697.000000	46.035910
696.000000	46.112624
695.000000	46.193756
694.000000	46.274242
693.000000	46.359348
692.000000	46.449921
691.000000	46.535952
690.000000	46.614313
689.000000	46.696411
688.000000	46.787212
687.000000	46.871915
686.000000	46.937080
685.000000	46.987228
684.000000	47.027798
683.000000	47.052378
682.000000	47.061223
681.000000	47.072791
680.000000	47.101212
679.000000	47.139329
678.000000	47.178992
677.000000	47.227039
676.000000	47.285061
675.000000	47.342654
674.000000	47.392595
673.000000	47.431852
672.000000	47.450333
671.000000	47.442634
670.000000	47.434534
669.000000	47.489211
668.000000	47.633153
667.000000	47.750187
666.000000	47.756891
665.000000	47.715320
664.000000	47.695579
663.000000	47.715010
662.000000	47.756892
661.000000	47.799764
660.000000	47.834634
659.000000	47.859828
658.000000	47.877727
657.000000	47.894915
656.000000	47.914116
655.000000	47.935617
654.000000	47.962673
653.000000	47.998623
652.000000	48.043835
651.000000	48.095268
650.000000	48.148484
649.000000	48.197486
648.000000	48.234113
647.000000	48.253070
646.000000	48.258577
645.000000	48.261858
644.000000	48.269465
643.000000	48.279189
642.000000	48.290688
641.000000	48.311926
640.000000	48.349050
639.000000	48.396894
638.000000	48.444406
637.000000	48.484539
636.000000	48.515604
635.000000	48.537786
634.000000	48.553788
633.000000	48.568243
632.000000	48.582102
631.000000	48.593203
630.000000	48.604425
629.000000	48.623668
628.000000	48.654201
627.000000	48.693107
626.000000	48.740021
625.000000	48.797743
624.000000	48.860709
623.000000	48.913833
622.000000	48.949237
621.000000	48.974710
620.000000	48.999834
619.000000	49.025212
618.000000	49.051120
617.000000	49.084838
616.000000	49.131435
615.000000	49.187286
614.000000	49.248195
613.000000	49.313827
612.000000	49.378741
611.000000	49.430384
610.000000	49.461801
609.000000	49.474873
608.000000	49.466531
607.000000	49.421978
606.000000	49.327875
605.000000	49.172928
604.000000	48.924262
603.000000	48.515751
602.000000	47.856560
601.000000	46.852927
600.000000	45.435470
599.000000	43.605533
598.000000	41.475091
597.000000	39.245377
596.000000	37.158532
595.000000	35.465706
594.000000	34.386339
593.000000	34.041221
592.000000	34.412176
591.000000	35.334368
590.000000	36.544569
589.000000	37.801208
588.000000	38.965164
587.000000	39.991917
586.000000	40.882969
585.000000	41.654684
584.000000	42.323176
583.000000	42.898139
582.000000	43.393320
581.000000	43.835061
580.000000	44.246515
579.000000	44.626142
578.000000	44.963793
577.000000	45.266877
576.000000	45.551630
575.000000	45.816298
574.000000	46.041398
573.000000	46.216770
572.000000	46.350062
571.000000	46.455621
570.000000	46.550245
569.000000	46.651217
568.000000	46.766055
567.000000	46.887797
566.000000	47.007856
565.000000	47.126588
564.000000	47.242269
563.000000	47.341847
562.000000	47.415328
561.000000	47.469432
560.000000	47.516829
559.000000	47.562905
558.000000	47.612647
557.000000	47.677137
556.000000	47.761755
555.000000	47.856932
554.000000	47.950065
553.000000	48.036060
552.000000	48.108997
551.000000	48.158170
550.000000	48.183462
549.000000	48.199980
548.000000	48.218751
547.000000	48.238760
546.000000	48.265530
545.000000	48.317540
544.000000	48.402313
543.000000	48.503539
542.000000	48.601424
541.000000	48.690646
540.000000	48.767702
539.000000	48.819698
538.000000	48.839977
537.000000	48.840540
536.000000	48.838077
535.000000	48.842270
534.000000	48.865028
533.000000	48.921881
532.000000	49.014358
531.000000	49.122797
530.000000	49.224071
529.000000	49.303985
528.000000	49.351381
527.000000	49.361321
526.000000	49.352865
525.000000	49.358641
524.000000	49.382390
523.000000	49.393374
522.000000	49.373761
521.000000	49.341887
520.000000	49.317118
519.000000	49.289830
518.000000	49.241609
517.000000	49.173407
516.000000	49.092111
515.000000	48.992025
514.000000	48.871861
513.000000	48.749780
512.000000	48.645179
511.000000	48.560965
510.000000	48.495289
509.000000	48.451677
508.000000	48.424001
507.000000	48.381714
506.000000	48.281221
505.000000	48.082850
504.000000	47.756127
503.000000	47.302405
502.000000	46.787174
501.000000	46.308978
500.000000	45.916385
499.000000	45.586536
498.000000	45.286239
497.000000	45.012181
496.000000	44.773491
495.000000	44.581450
494.000000	44.469330
493.000000	44.490369
492.000000	44.667684
491.000000	44.967739
490.000000	45.333213
489.000000	45.719438
488.000000	46.097115
487.000000	46.444941
486.000000	46.756166
485.000000	47.033207
484.000000	47.265618
483.000000	47.441205
482.000000	47.587550
481.000000	47.761659
480.000000	47.986074
479.000000	48.230861
478.000000	48.470294
477.000000	48.719653
476.000000	48.994018
475.000000	49.273624
474.000000	49.547984
473.000000	49.845126
472.000000	50.173503
471.000000	50.478651
470.000000	50.697879
469.000000	50.831711
468.000000	50.923070
467.000000	50.996222
466.000000	51.050299
465.000000	51.087490
464.000000	51.124326
463.000000	51.185060
462.000000	51.293764
461.000000	51.450294
460.000000	51.610387
459.000000	51.727438
458.000000	51.815477
457.000000	51.926858
456.000000	52.047871
455.000000	52.083700
454.000000	51.996446
453.000000	51.885456
452.000000	51.878335
451.000000	51.984195
450.000000	52.121348
449.000000	52.242401
448.000000	52.341028
447.000000	52.382258
446.000000	52.317343
445.000000	52.139395
444.000000	51.860034
443.000000	51.463232
442.000000	50.936699
441.000000	50.312711
440.000000	49.613932
439.000000	48.819271
438.000000	47.939218
437.000000	47.077598
436.000000	46.360098
435.000000	45.816069
434.000000	45.377863
433.000000	44.985669
432.000000	44.654321
431.000000	44.443349
430.000000	44.415907
429.000000	44.631411
428.000000	45.108574
427.000000	45.785985
426.000000	46.565529
425.000000	47.419730
424.000000	48.361873
423.000000	49.289694
422.000000	50.006080
421.000000	50.429018
420.000000	50.676881
419.000000	50.952942
418.000000	51.411632
417.000000	52.087750
416.000000	52.866337
415.000000	53.587472
414.000000	54.188380
413.000000	54.718805
412.000000	55.196919
411.000000	55.525071
410.000000	55.639412
409.000000	55.646360
408.000000	55.674388
407.000000	55.714997
406.000000	55.767113
405.000000	55.922088
404.000000	56.269786
403.000000	56.640395
402.000000	56.835165
401.000000	56.888110
400.000000	56.912191
