PE IR       SUBTECH     SPECTRUM    ASCII       PEDS        4.00        
   -1
23MS266, 217, 238_nitrito.asc
24/09/02
17:06:48.00
24/09/02
17:06:48.00
Administrator
Sample 1085 By Administrator Date Monday, September 02 2024
400.000000
#HDR
-1
-1
#GR
cm-1
%T
1.0
0.0
4000.000000
-1.000000
3601
8
90.312501
18.375593
#DATA
4000.000000	77.977283
3999.000000	78.021434
3998.000000	78.060528
3997.000000	78.095288
3996.000000	78.127940
3995.000000	78.161149
3994.000000	78.197362
3993.000000	78.238196
3992.000000	78.283520
3991.000000	78.331050
3990.000000	78.377545
3989.000000	78.420711
3988.000000	78.460204
3987.000000	78.497130
3986.000000	78.533110
3985.000000	78.569753
3984.000000	78.608361
3983.000000	78.649579
3982.000000	78.692976
3981.000000	78.736919
3980.000000	78.779141
3979.000000	78.817857
3978.000000	78.852699
3977.000000	78.884927
3976.000000	78.916947
3975.000000	78.951008
3974.000000	78.988190
3973.000000	79.028353
3972.000000	79.070656
3971.000000	79.113656
3970.000000	79.155202
3969.000000	79.193143
3968.000000	79.226487
3967.000000	79.256183
3966.000000	79.284869
3965.000000	79.315964
3964.000000	79.352146
3963.000000	79.393631
3962.000000	79.437563
3961.000000	79.479707
3960.000000	79.517187
3959.000000	79.549532
3958.000000	79.578040
3957.000000	79.605035
3956.000000	79.633074
3955.000000	79.664018
3954.000000	79.698080
3953.000000	79.734416
3952.000000	79.772113
3951.000000	79.810744
3950.000000	79.849810
3949.000000	79.887418
3948.000000	79.921080
3947.000000	79.951172
3946.000000	79.982683
3945.000000	80.021455
3944.000000	80.068761
3943.000000	80.119464
3942.000000	80.166819
3941.000000	80.208977
3940.000000	80.248183
3939.000000	80.284603
3938.000000	80.315735
3937.000000	80.341625
3936.000000	80.367749
3935.000000	80.402142
3934.000000	80.448902
3933.000000	80.505000
3932.000000	80.561659
3931.000000	80.609543
3930.000000	80.644220
3929.000000	80.668115
3928.000000	80.689931
3927.000000	80.719309
3926.000000	80.758619
3925.000000	80.801256
3924.000000	80.840563
3923.000000	80.877929
3922.000000	80.916676
3921.000000	80.954692
3920.000000	80.989982
3919.000000	81.026726
3918.000000	81.069247
3917.000000	81.114721
3916.000000	81.157559
3915.000000	81.197785
3914.000000	81.239231
3913.000000	81.281889
3912.000000	81.321844
3911.000000	81.355359
3910.000000	81.380293
3909.000000	81.397697
3908.000000	81.412144
3907.000000	81.432018
3906.000000	81.463456
3905.000000	81.504943
3904.000000	81.548901
3903.000000	81.593352
3902.000000	81.645233
3901.000000	81.705408
3900.000000	81.760147
3899.000000	81.796406
3898.000000	81.818488
3897.000000	81.840732
3896.000000	81.870715
3895.000000	81.907651
3894.000000	81.953094
3893.000000	82.008624
3892.000000	82.061393
3891.000000	82.089275
3890.000000	82.092935
3889.000000	82.103284
3888.000000	82.142045
3887.000000	82.203909
3886.000000	82.264086
3885.000000	82.299538
3884.000000	82.320744
3883.000000	82.358695
3882.000000	82.417838
3881.000000	82.474782
3880.000000	82.506885
3879.000000	82.517601
3878.000000	82.535823
3877.000000	82.578517
3876.000000	82.633018
3875.000000	82.675443
3874.000000	82.692632
3873.000000	82.700598
3872.000000	82.730900
3871.000000	82.787336
3870.000000	82.835507
3869.000000	82.851478
3868.000000	82.864198
3867.000000	82.910408
3866.000000	82.978923
3865.000000	83.039073
3864.000000	83.079297
3863.000000	83.108779
3862.000000	83.140906
3861.000000	83.176212
3860.000000	83.204622
3859.000000	83.216631
3858.000000	83.206028
3857.000000	83.181073
3856.000000	83.173211
3855.000000	83.224485
3854.000000	83.324067
3853.000000	83.386076
3852.000000	83.389103
3851.000000	83.420419
3850.000000	83.505655
3849.000000	83.594014
3848.000000	83.659737
3847.000000	83.710657
3846.000000	83.758421
3845.000000	83.805428
3844.000000	83.846496
3843.000000	83.875964
3842.000000	83.897630
3841.000000	83.923183
3840.000000	83.959281
3839.000000	84.002772
3838.000000	84.043423
3837.000000	84.076847
3836.000000	84.111865
3835.000000	84.160446
3834.000000	84.221120
3833.000000	84.280696
3832.000000	84.326248
3831.000000	84.357242
3830.000000	84.388203
3829.000000	84.433644
3828.000000	84.489832
3827.000000	84.536317
3826.000000	84.558479
3825.000000	84.569190
3824.000000	84.598106
3823.000000	84.660824
3822.000000	84.736445
3821.000000	84.774856
3820.000000	84.764885
3819.000000	84.768724
3818.000000	84.825610
3817.000000	84.904352
3816.000000	84.957970
3815.000000	84.974587
3814.000000	84.993732
3813.000000	85.044942
3812.000000	85.104270
3811.000000	85.144396
3810.000000	85.174300
3809.000000	85.217994
3808.000000	85.277166
3807.000000	85.321604
3806.000000	85.334050
3805.000000	85.346538
3804.000000	85.392893
3803.000000	85.464170
3802.000000	85.524267
3801.000000	85.542136
3800.000000	85.541952
3799.000000	85.584358
3798.000000	85.670649
3797.000000	85.752139
3796.000000	85.800866
3795.000000	85.827908
3794.000000	85.860498
3793.000000	85.907077
3792.000000	85.956337
3791.000000	85.999017
3790.000000	86.037023
3789.000000	86.075610
3788.000000	86.118182
3787.000000	86.165135
3786.000000	86.212208
3785.000000	86.251156
3784.000000	86.280469
3783.000000	86.312464
3782.000000	86.361011
3781.000000	86.423374
3780.000000	86.480825
3779.000000	86.517938
3778.000000	86.541605
3777.000000	86.572753
3776.000000	86.616270
3775.000000	86.658573
3774.000000	86.691651
3773.000000	86.724893
3772.000000	86.770183
3771.000000	86.823928
3770.000000	86.869756
3769.000000	86.902623
3768.000000	86.939846
3767.000000	86.994625
3766.000000	87.053808
3765.000000	87.096984
3764.000000	87.124610
3763.000000	87.156902
3762.000000	87.205152
3761.000000	87.259904
3760.000000	87.308547
3759.000000	87.347811
3758.000000	87.379620
3757.000000	87.404541
3756.000000	87.420813
3755.000000	87.430719
3754.000000	87.441717
3753.000000	87.466204
3752.000000	87.513340
3751.000000	87.570698
3750.000000	87.609296
3749.000000	87.622902
3748.000000	87.637949
3747.000000	87.677446
3746.000000	87.747777
3745.000000	87.838523
3744.000000	87.904740
3743.000000	87.941743
3742.000000	88.011787
3741.000000	88.110347
3740.000000	88.176592
3739.000000	88.199156
3738.000000	88.211109
3737.000000	88.243777
3736.000000	88.300046
3735.000000	88.367616
3734.000000	88.439393
3733.000000	88.506604
3732.000000	88.552985
3731.000000	88.577220
3730.000000	88.600065
3729.000000	88.636825
3728.000000	88.683769
3727.000000	88.731075
3726.000000	88.775626
3725.000000	88.823737
3724.000000	88.881102
3723.000000	88.940728
3722.000000	88.992221
3721.000000	89.034507
3720.000000	89.075047
3719.000000	89.116956
3718.000000	89.152815
3717.000000	89.176430
3716.000000	89.193050
3715.000000	89.215458
3714.000000	89.252700
3713.000000	89.304993
3712.000000	89.361321
3711.000000	89.406368
3710.000000	89.442388
3709.000000	89.485875
3708.000000	89.540289
3707.000000	89.594586
3706.000000	89.640202
3705.000000	89.679180
3704.000000	89.717952
3703.000000	89.758470
3702.000000	89.794805
3701.000000	89.821957
3700.000000	89.848046
3699.000000	89.886020
3698.000000	89.932000
3697.000000	89.969728
3696.000000	89.991862
3695.000000	90.005819
3694.000000	90.020801
3693.000000	90.037369
3692.000000	90.055552
3691.000000	90.080364
3690.000000	90.112092
3689.000000	90.137008
3688.000000	90.147247
3687.000000	90.163490
3686.000000	90.205815
3685.000000	90.259715
3684.000000	90.297556
3683.000000	90.312244
3682.000000	90.312501
3681.000000	90.301678
3680.000000	90.271872
3679.000000	90.226010
3678.000000	90.190846
3677.000000	90.192079
3676.000000	90.213294
3675.000000	90.203857
3674.000000	90.172394
3673.000000	90.176516
3672.000000	90.209821
3671.000000	90.227278
3670.000000	90.208915
3669.000000	90.163686
3668.000000	90.131807
3667.000000	90.135079
3666.000000	90.145417
3665.000000	90.133071
3664.000000	90.096923
3663.000000	90.049717
3662.000000	89.996723
3661.000000	89.933583
3660.000000	89.858632
3659.000000	89.779693
3658.000000	89.705016
3657.000000	89.631734
3656.000000	89.549778
3655.000000	89.462954
3654.000000	89.387562
3653.000000	89.317807
3652.000000	89.232947
3651.000000	89.130447
3650.000000	89.019629
3649.000000	88.902468
3648.000000	88.787093
3647.000000	88.691160
3646.000000	88.617236
3645.000000	88.548107
3644.000000	88.464606
3643.000000	88.358865
3642.000000	88.234154
3641.000000	88.099681
3640.000000	87.964165
3639.000000	87.830764
3638.000000	87.696503
3637.000000	87.560243
3636.000000	87.423918
3635.000000	87.284274
3634.000000	87.131911
3633.000000	86.963456
3632.000000	86.788207
3631.000000	86.618859
3630.000000	86.464014
3629.000000	86.316412
3628.000000	86.167235
3627.000000	86.043169
3626.000000	85.957047
3625.000000	85.866755
3624.000000	85.738348
3623.000000	85.577827
3622.000000	85.404649
3621.000000	85.230123
3620.000000	85.057175
3619.000000	84.887420
3618.000000	84.726877
3617.000000	84.583974
3616.000000	84.453941
3615.000000	84.317849
3614.000000	84.162081
3613.000000	83.990357
3612.000000	83.820286
3611.000000	83.667325
3610.000000	83.530807
3609.000000	83.399281
3608.000000	83.265451
3607.000000	83.131379
3606.000000	83.001131
3605.000000	82.871246
3604.000000	82.733870
3603.000000	82.586428
3602.000000	82.431299
3601.000000	82.271873
3600.000000	82.112649
3599.000000	81.958505
3598.000000	81.810015
3597.000000	81.664551
3596.000000	81.522045
3595.000000	81.383364
3594.000000	81.247099
3593.000000	81.111003
3592.000000	80.974779
3591.000000	80.836886
3590.000000	80.696813
3589.000000	80.559629
3588.000000	80.432059
3587.000000	80.313510
3586.000000	80.200854
3585.000000	80.092364
3584.000000	79.980941
3583.000000	79.858314
3582.000000	79.723589
3581.000000	79.582962
3580.000000	79.443966
3579.000000	79.309972
3578.000000	79.178909
3577.000000	79.047530
3576.000000	78.916343
3575.000000	78.787315
3574.000000	78.660330
3573.000000	78.533259
3572.000000	78.404293
3571.000000	78.271651
3570.000000	78.134370
3569.000000	77.996083
3568.000000	77.864824
3567.000000	77.745149
3566.000000	77.635748
3565.000000	77.534729
3564.000000	77.436907
3563.000000	77.332661
3562.000000	77.216378
3561.000000	77.090779
3560.000000	76.962865
3559.000000	76.836718
3558.000000	76.710843
3557.000000	76.582633
3556.000000	76.453367
3555.000000	76.326602
3554.000000	76.203102
3553.000000	76.080671
3552.000000	75.958053
3551.000000	75.836104
3550.000000	75.714556
3549.000000	75.591374
3548.000000	75.466685
3547.000000	75.344065
3546.000000	75.225828
3545.000000	75.111240
3544.000000	74.998943
3543.000000	74.887018
3542.000000	74.772001
3541.000000	74.651630
3540.000000	74.527660
3539.000000	74.403460
3538.000000	74.280074
3537.000000	74.157551
3536.000000	74.038106
3535.000000	73.924805
3534.000000	73.817480
3533.000000	73.712825
3532.000000	73.607934
3531.000000	73.501185
3530.000000	73.391074
3529.000000	73.277301
3528.000000	73.163428
3527.000000	73.055055
3526.000000	72.955051
3525.000000	72.861631
3524.000000	72.770790
3523.000000	72.678731
3522.000000	72.583187
3521.000000	72.484414
3520.000000	72.384099
3519.000000	72.282680
3518.000000	72.179368
3517.000000	72.075597
3516.000000	71.975221
3515.000000	71.879353
3514.000000	71.784048
3513.000000	71.685231
3512.000000	71.583054
3511.000000	71.479389
3510.000000	71.374445
3509.000000	71.268439
3508.000000	71.164098
3507.000000	71.063626
3506.000000	70.965122
3505.000000	70.865249
3504.000000	70.763728
3503.000000	70.662271
3502.000000	70.561352
3501.000000	70.460362
3500.000000	70.358780
3499.000000	70.255212
3498.000000	70.147598
3497.000000	70.036503
3496.000000	69.926489
3495.000000	69.821493
3494.000000	69.720266
3493.000000	69.618716
3492.000000	69.514528
3491.000000	69.407270
3490.000000	69.296490
3489.000000	69.182851
3488.000000	69.069500
3487.000000	68.959425
3486.000000	68.852500
3485.000000	68.746880
3484.000000	68.641545
3483.000000	68.535622
3482.000000	68.427257
3481.000000	68.315674
3480.000000	68.202744
3479.000000	68.090265
3478.000000	67.977743
3477.000000	67.864773
3476.000000	67.753290
3475.000000	67.645052
3474.000000	67.539040
3473.000000	67.433272
3472.000000	67.326923
3471.000000	67.218923
3470.000000	67.107214
3469.000000	66.991692
3468.000000	66.875599
3467.000000	66.761989
3466.000000	66.650839
3465.000000	66.540935
3464.000000	66.431697
3463.000000	66.321547
3462.000000	66.207535
3461.000000	66.088989
3460.000000	65.969225
3459.000000	65.851698
3458.000000	65.736903
3457.000000	65.624507
3456.000000	65.515177
3455.000000	65.408201
3454.000000	65.299996
3453.000000	65.187462
3452.000000	65.071139
3451.000000	64.953221
3450.000000	64.834577
3449.000000	64.715428
3448.000000	64.597204
3447.000000	64.481429
3446.000000	64.368244
3445.000000	64.256816
3444.000000	64.145328
3443.000000	64.030482
3442.000000	63.909767
3441.000000	63.785215
3440.000000	63.662341
3439.000000	63.544134
3438.000000	63.428398
3437.000000	63.311741
3436.000000	63.193024
3435.000000	63.071813
3434.000000	62.946675
3433.000000	62.817056
3432.000000	62.684417
3431.000000	62.549887
3430.000000	62.413153
3429.000000	62.274874
3428.000000	62.137616
3427.000000	62.002348
3426.000000	61.866704
3425.000000	61.728267
3424.000000	61.586884
3423.000000	61.442225
3422.000000	61.292266
3421.000000	61.136861
3420.000000	60.980064
3419.000000	60.826124
3418.000000	60.675261
3417.000000	60.525025
3416.000000	60.373197
3415.000000	60.217271
3414.000000	60.053962
3413.000000	59.882290
3412.000000	59.705108
3411.000000	59.525627
3410.000000	59.344317
3409.000000	59.160613
3408.000000	58.975244
3407.000000	58.788513
3406.000000	58.598632
3405.000000	58.403856
3404.000000	58.204058
3403.000000	57.998866
3402.000000	57.786695
3401.000000	57.567476
3400.000000	57.343830
3399.000000	57.117600
3398.000000	56.887996
3397.000000	56.654409
3396.000000	56.417778
3395.000000	56.177325
3394.000000	55.929002
3393.000000	55.669910
3392.000000	55.401848
3391.000000	55.128399
3390.000000	54.851295
3389.000000	54.570742
3388.000000	54.286569
3387.000000	53.997000
3386.000000	53.698863
3385.000000	53.391382
3384.000000	53.076853
3383.000000	52.756727
3382.000000	52.429923
3381.000000	52.096104
3380.000000	51.757529
3379.000000	51.415486
3378.000000	51.068171
3377.000000	50.713734
3376.000000	50.352276
3375.000000	49.983755
3374.000000	49.606786
3373.000000	49.221165
3372.000000	48.828868
3371.000000	48.430897
3370.000000	48.026542
3369.000000	47.616149
3368.000000	47.201240
3367.000000	46.781249
3366.000000	46.353436
3365.000000	45.917418
3364.000000	45.475856
3363.000000	45.029972
3362.000000	44.578526
3361.000000	44.121815
3360.000000	43.662880
3359.000000	43.203127
3358.000000	42.740441
3357.000000	42.273199
3356.000000	41.802123
3355.000000	41.327416
3354.000000	40.847809
3353.000000	40.363612
3352.000000	39.877534
3351.000000	39.391352
3350.000000	38.905070
3349.000000	38.419598
3348.000000	37.936308
3347.000000	37.453676
3346.000000	36.968293
3345.000000	36.479883
3344.000000	35.991616
3343.000000	35.505374
3342.000000	35.020802
3341.000000	34.538948
3340.000000	34.062238
3339.000000	33.590446
3338.000000	33.121053
3337.000000	32.653888
3336.000000	32.191276
3335.000000	31.733493
3334.000000	31.278671
3333.000000	30.827497
3332.000000	30.383137
3331.000000	29.946482
3330.000000	29.515603
3329.000000	29.089835
3328.000000	28.670455
3327.000000	28.257177
3326.000000	27.848857
3325.000000	27.447450
3324.000000	27.056444
3323.000000	26.676032
3322.000000	26.303711
3321.000000	25.939376
3320.000000	25.585250
3319.000000	25.240889
3318.000000	24.903870
3317.000000	24.574347
3316.000000	24.254373
3315.000000	23.943477
3314.000000	23.639231
3313.000000	23.342138
3312.000000	23.054640
3311.000000	22.775979
3310.000000	22.503557
3309.000000	22.238248
3308.000000	21.984140
3307.000000	21.743219
3306.000000	21.514957
3305.000000	21.300487
3304.000000	21.100984
3303.000000	20.913440
3302.000000	20.732873
3301.000000	20.558067
3300.000000	20.390984
3299.000000	20.231132
3298.000000	20.076269
3297.000000	19.927540
3296.000000	19.788126
3295.000000	19.658064
3294.000000	19.535099
3293.000000	19.420267
3292.000000	19.317188
3291.000000	19.225677
3290.000000	19.141899
3289.000000	19.063639
3288.000000	18.991061
3287.000000	18.923143
3286.000000	18.858014
3285.000000	18.797026
3284.000000	18.743138
3283.000000	18.696181
3282.000000	18.653912
3281.000000	18.616433
3280.000000	18.585335
3279.000000	18.559139
3278.000000	18.534606
3277.000000	18.511656
3276.000000	18.492263
3275.000000	18.475810
3274.000000	18.460164
3273.000000	18.446624
3272.000000	18.439184
3271.000000	18.439303
3270.000000	18.445531
3269.000000	18.456836
3268.000000	18.471990
3267.000000	18.487409
3266.000000	18.500053
3265.000000	18.511638
3264.000000	18.525885
3263.000000	18.542872
3262.000000	18.560527
3261.000000	18.579453
3260.000000	18.601501
3259.000000	18.625175
3258.000000	18.647435
3257.000000	18.669041
3256.000000	18.693154
3255.000000	18.719981
3254.000000	18.747319
3253.000000	18.775132
3252.000000	18.804869
3251.000000	18.835302
3250.000000	18.863819
3249.000000	18.890975
3248.000000	18.919419
3247.000000	18.949310
3246.000000	18.978939
3245.000000	19.008741
3244.000000	19.040497
3243.000000	19.073602
3242.000000	19.106238
3241.000000	19.138957
3240.000000	19.173079
3239.000000	19.206834
3238.000000	19.237188
3237.000000	19.264275
3236.000000	19.290401
3235.000000	19.316363
3234.000000	19.342436
3233.000000	19.371021
3232.000000	19.403851
3231.000000	19.438106
3230.000000	19.469449
3229.000000	19.497341
3228.000000	19.523616
3227.000000	19.547931
3226.000000	19.569030
3225.000000	19.588717
3224.000000	19.609897
3223.000000	19.631991
3222.000000	19.652280
3221.000000	19.670379
3220.000000	19.687439
3219.000000	19.702564
3218.000000	19.714278
3217.000000	19.723897
3216.000000	19.733473
3215.000000	19.742075
3214.000000	19.747849
3213.000000	19.751978
3212.000000	19.756378
3211.000000	19.759393
3210.000000	19.758084
3209.000000	19.752869
3208.000000	19.746032
3207.000000	19.737420
3206.000000	19.725732
3205.000000	19.712378
3204.000000	19.699585
3203.000000	19.686379
3202.000000	19.670432
3201.000000	19.652126
3200.000000	19.632903
3199.000000	19.611348
3198.000000	19.585273
3197.000000	19.556024
3196.000000	19.526570
3195.000000	19.497039
3194.000000	19.465907
3193.000000	19.433799
3192.000000	19.402074
3191.000000	19.369342
3190.000000	19.333551
3189.000000	19.295782
3188.000000	19.258213
3187.000000	19.220116
3186.000000	19.179751
3185.000000	19.138445
3184.000000	19.098846
3183.000000	19.060865
3182.000000	19.023002
3181.000000	18.985658
3180.000000	18.949462
3179.000000	18.912493
3178.000000	18.873095
3177.000000	18.833459
3176.000000	18.796655
3175.000000	18.762177
3174.000000	18.728111
3173.000000	18.695289
3172.000000	18.665258
3171.000000	18.636484
3170.000000	18.606633
3169.000000	18.576690
3168.000000	18.549050
3167.000000	18.523490
3166.000000	18.498956
3165.000000	18.476977
3164.000000	18.459384
3163.000000	18.444783
3162.000000	18.430897
3161.000000	18.418389
3160.000000	18.408659
3159.000000	18.400325
3158.000000	18.391696
3157.000000	18.384190
3156.000000	18.379728
3155.000000	18.377227
3154.000000	18.375593
3153.000000	18.377673
3152.000000	18.386803
3151.000000	18.401779
3150.000000	18.419029
3149.000000	18.437535
3148.000000	18.457951
3147.000000	18.479244
3146.000000	18.500512
3145.000000	18.523868
3144.000000	18.551434
3143.000000	18.581658
3142.000000	18.612187
3141.000000	18.644402
3140.000000	18.681312
3139.000000	18.722966
3138.000000	18.767796
3137.000000	18.816013
3136.000000	18.868014
3135.000000	18.921625
3134.000000	18.974636
3133.000000	19.028394
3132.000000	19.085319
3131.000000	19.145050
3130.000000	19.206329
3129.000000	19.270076
3128.000000	19.337354
3127.000000	19.406604
3126.000000	19.476274
3125.000000	19.547650
3124.000000	19.621649
3123.000000	19.695886
3122.000000	19.768487
3121.000000	19.842128
3120.000000	19.920502
3119.000000	20.003126
3118.000000	20.087632
3117.000000	20.174542
3116.000000	20.265756
3115.000000	20.360541
3114.000000	20.456721
3113.000000	20.553937
3112.000000	20.652238
3111.000000	20.749800
3110.000000	20.845678
3109.000000	20.942549
3108.000000	21.043360
3107.000000	21.147302
3106.000000	21.252241
3105.000000	21.358624
3104.000000	21.467459
3103.000000	21.576953
3102.000000	21.684907
3101.000000	21.792474
3100.000000	21.902224
3099.000000	22.014173
3098.000000	22.126958
3097.000000	22.240937
3096.000000	22.356839
3095.000000	22.473398
3094.000000	22.589345
3093.000000	22.705878
3092.000000	22.824328
3091.000000	22.943431
3090.000000	23.061697
3089.000000	23.180175
3088.000000	23.300118
3087.000000	23.420359
3086.000000	23.539958
3085.000000	23.661060
3084.000000	23.785831
3083.000000	23.912689
3082.000000	24.038687
3081.000000	24.163558
3080.000000	24.288657
3079.000000	24.414113
3078.000000	24.540035
3077.000000	24.668280
3076.000000	24.799844
3075.000000	24.932517
3074.000000	25.063908
3073.000000	25.194644
3072.000000	25.325865
3071.000000	25.455966
3070.000000	25.583079
3069.000000	25.708732
3068.000000	25.835911
3067.000000	25.965248
3066.000000	26.095906
3065.000000	26.228306
3064.000000	26.362968
3063.000000	26.498312
3062.000000	26.632406
3061.000000	26.765375
3060.000000	26.897795
3059.000000	27.028672
3058.000000	27.157455
3057.000000	27.286154
3056.000000	27.416875
3055.000000	27.549026
3054.000000	27.681226
3053.000000	27.813885
3052.000000	27.947463
3051.000000	28.080263
3050.000000	28.210557
3049.000000	28.339086
3048.000000	28.467221
3047.000000	28.594610
3046.000000	28.720987
3045.000000	28.848165
3044.000000	28.977705
3043.000000	29.108535
3042.000000	29.239088
3041.000000	29.369682
3040.000000	29.500474
3039.000000	29.629391
3038.000000	29.754852
3037.000000	29.878583
3036.000000	30.003319
3035.000000	30.129510
3034.000000	30.256384
3033.000000	30.383994
3032.000000	30.511752
3031.000000	30.637267
3030.000000	30.759378
3029.000000	30.880259
3028.000000	31.002177
3027.000000	31.124407
3026.000000	31.245829
3025.000000	31.368019
3024.000000	31.492657
3023.000000	31.617946
3022.000000	31.740686
3021.000000	31.860260
3020.000000	31.977965
3019.000000	32.094104
3018.000000	32.208634
3017.000000	32.323146
3016.000000	32.439472
3015.000000	32.557491
3014.000000	32.676405
3013.000000	32.796595
3012.000000	32.917988
3011.000000	33.038453
3010.000000	33.156253
3009.000000	33.272564
3008.000000	33.389390
3007.000000	33.506727
3006.000000	33.623889
3005.000000	33.741685
3004.000000	33.860814
3003.000000	33.979655
3002.000000	34.096008
3001.000000	34.209665
3000.000000	34.321467
2999.000000	34.431658
2998.000000	34.541210
2997.000000	34.652721
2996.000000	34.767438
2995.000000	34.883078
2994.000000	34.996944
2993.000000	35.109463
2992.000000	35.222345
2991.000000	35.335138
2990.000000	35.446340
2989.000000	35.556458
2988.000000	35.667297
2987.000000	35.779369
2986.000000	35.892175
2985.000000	36.005623
2984.000000	36.118961
2983.000000	36.229845
2982.000000	36.336979
2981.000000	36.442469
2980.000000	36.549376
2979.000000	36.658204
2978.000000	36.767861
2977.000000	36.878494
2976.000000	36.990870
2975.000000	37.104171
2974.000000	37.216741
2973.000000	37.327968
2972.000000	37.437545
2971.000000	37.544297
2970.000000	37.648026
2969.000000	37.751258
2968.000000	37.856851
2967.000000	37.964962
2966.000000	38.074133
2965.000000	38.183805
2964.000000	38.293532
2963.000000	38.401356
2962.000000	38.505669
2961.000000	38.607536
2960.000000	38.709009
2959.000000	38.810462
2958.000000	38.911551
2957.000000	39.013119
2956.000000	39.115639
2955.000000	39.217349
2954.000000	39.316401
2953.000000	39.413462
2952.000000	39.509892
2951.000000	39.604897
2950.000000	39.697265
2949.000000	39.788582
2948.000000	39.882016
2947.000000	39.978755
2946.000000	40.077820
2945.000000	40.178328
2944.000000	40.279527
2943.000000	40.379552
2942.000000	40.476612
2941.000000	40.571054
2940.000000	40.664484
2939.000000	40.757680
2938.000000	40.850980
2937.000000	40.945448
2936.000000	41.041547
2935.000000	41.137587
2934.000000	41.231437
2933.000000	41.322805
2932.000000	41.412206
2931.000000	41.499293
2930.000000	41.584424
2929.000000	41.670515
2928.000000	41.760676
2927.000000	41.854739
2926.000000	41.950044
2925.000000	42.044424
2924.000000	42.136543
2923.000000	42.224893
2922.000000	42.309218
2921.000000	42.391948
2920.000000	42.475949
2919.000000	42.561687
2918.000000	42.648279
2917.000000	42.735757
2916.000000	42.823870
2915.000000	42.909839
2914.000000	42.989969
2913.000000	43.063205
2912.000000	43.131489
2911.000000	43.197507
2910.000000	43.263990
2909.000000	43.334086
2908.000000	43.409911
2907.000000	43.490577
2906.000000	43.573012
2905.000000	43.654385
2904.000000	43.732632
2903.000000	43.806116
2902.000000	43.874855
2901.000000	43.941733
2900.000000	44.010646
2899.000000	44.083614
2898.000000	44.160280
2897.000000	44.238857
2896.000000	44.316352
2895.000000	44.389139
2894.000000	44.455521
2893.000000	44.517352
2892.000000	44.577907
2891.000000	44.639004
2890.000000	44.701243
2889.000000	44.765543
2888.000000	44.832362
2887.000000	44.900114
2886.000000	44.966119
2885.000000	45.028615
2884.000000	45.086606
2883.000000	45.139024
2882.000000	45.185902
2881.000000	45.229607
2880.000000	45.273105
2879.000000	45.317500
2878.000000	45.362619
2877.000000	45.408764
2876.000000	45.455751
2875.000000	45.500967
2874.000000	45.540886
2873.000000	45.574784
2872.000000	45.605799
2871.000000	45.638778
2870.000000	45.678301
2869.000000	45.727793
2868.000000	45.788137
2867.000000	45.856963
2866.000000	45.930705
2865.000000	46.007349
2864.000000	46.086537
2863.000000	46.168047
2862.000000	46.251745
2861.000000	46.338419
2860.000000	46.429025
2859.000000	46.523243
2858.000000	46.619855
2857.000000	46.717841
2856.000000	46.815916
2855.000000	46.911895
2854.000000	47.004138
2853.000000	47.093278
2852.000000	47.181408
2851.000000	47.269974
2850.000000	47.359383
2849.000000	47.449640
2848.000000	47.539932
2847.000000	47.628227
2846.000000	47.712609
2845.000000	47.792746
2844.000000	47.869435
2843.000000	47.943636
2842.000000	48.016858
2841.000000	48.091295
2840.000000	48.168109
2839.000000	48.246217
2838.000000	48.323815
2837.000000	48.400139
2836.000000	48.474620
2835.000000	48.545659
2834.000000	48.612123
2833.000000	48.675482
2832.000000	48.738840
2831.000000	48.804318
2830.000000	48.872586
2829.000000	48.943932
2828.000000	49.017868
2827.000000	49.092072
2826.000000	49.163510
2825.000000	49.230730
2824.000000	49.294196
2823.000000	49.355045
2822.000000	49.414867
2821.000000	49.476025
2820.000000	49.540363
2819.000000	49.607545
2818.000000	49.675614
2817.000000	49.742756
2816.000000	49.807559
2815.000000	49.868583
2814.000000	49.925568
2813.000000	49.980810
2812.000000	50.037746
2811.000000	50.098210
2810.000000	50.162032
2809.000000	50.228538
2808.000000	50.296722
2807.000000	50.364370
2806.000000	50.428908
2805.000000	50.489439
2804.000000	50.546957
2803.000000	50.603010
2802.000000	50.659384
2801.000000	50.718421
2800.000000	50.781658
2799.000000	50.847940
2798.000000	50.914084
2797.000000	50.977402
2796.000000	51.036688
2795.000000	51.091564
2794.000000	51.142777
2793.000000	51.193075
2792.000000	51.245945
2791.000000	51.302949
2790.000000	51.363215
2789.000000	51.425203
2788.000000	51.487482
2787.000000	51.547993
2786.000000	51.604462
2785.000000	51.656195
2784.000000	51.704557
2783.000000	51.751710
2782.000000	51.799807
2781.000000	51.850983
2780.000000	51.906247
2779.000000	51.963956
2778.000000	52.020604
2777.000000	52.073442
2776.000000	52.121695
2775.000000	52.165703
2774.000000	52.206581
2773.000000	52.246908
2772.000000	52.290054
2771.000000	52.337972
2770.000000	52.390180
2769.000000	52.444732
2768.000000	52.499093
2767.000000	52.550341
2766.000000	52.596327
2765.000000	52.637451
2764.000000	52.676549
2763.000000	52.716721
2762.000000	52.759828
2761.000000	52.806592
2760.000000	52.856488
2759.000000	52.907163
2758.000000	52.955267
2757.000000	52.998568
2756.000000	53.036943
2755.000000	53.071701
2754.000000	53.105088
2753.000000	53.140242
2752.000000	53.179922
2751.000000	53.224526
2750.000000	53.271922
2749.000000	53.319268
2748.000000	53.364242
2747.000000	53.404987
2746.000000	53.440613
2745.000000	53.472412
2744.000000	53.503519
2743.000000	53.536815
2742.000000	53.573553
2741.000000	53.613660
2740.000000	53.655981
2739.000000	53.697999
2738.000000	53.736687
2737.000000	53.770416
2736.000000	53.799700
2735.000000	53.826353
2734.000000	53.852838
2733.000000	53.882113
2732.000000	53.916463
2731.000000	53.955718
2730.000000	53.997195
2729.000000	54.037529
2728.000000	54.074042
2727.000000	54.105021
2726.000000	54.130406
2725.000000	54.152686
2724.000000	54.175884
2723.000000	54.202986
2722.000000	54.234630
2721.000000	54.269746
2720.000000	54.306129
2719.000000	54.340494
2718.000000	54.369723
2717.000000	54.393037
2716.000000	54.412466
2715.000000	54.431214
2714.000000	54.452301
2713.000000	54.478194
2712.000000	54.509801
2711.000000	54.545087
2710.000000	54.579829
2709.000000	54.610284
2708.000000	54.634755
2707.000000	54.653160
2706.000000	54.666786
2705.000000	54.678789
2704.000000	54.693188
2703.000000	54.712203
2702.000000	54.734932
2701.000000	54.758481
2700.000000	54.779516
2699.000000	54.794905
2698.000000	54.802765
2697.000000	54.804046
2696.000000	54.802328
2695.000000	54.801583
2694.000000	54.804481
2693.000000	54.812240
2692.000000	54.824342
2691.000000	54.837793
2690.000000	54.848098
2689.000000	54.851999
2688.000000	54.848991
2687.000000	54.840623
2686.000000	54.829615
2685.000000	54.819723
2684.000000	54.814557
2683.000000	54.815165
2682.000000	54.819193
2681.000000	54.822603
2680.000000	54.821754
2679.000000	54.814383
2678.000000	54.800434
2677.000000	54.782861
2676.000000	54.766549
2675.000000	54.755570
2674.000000	54.751618
2673.000000	54.754634
2672.000000	54.763359
2671.000000	54.775063
2670.000000	54.786281
2669.000000	54.795037
2668.000000	54.802380
2667.000000	54.811600
2666.000000	54.826770
2665.000000	54.851658
2664.000000	54.888070
2663.000000	54.934492
2662.000000	54.986637
2661.000000	55.039836
2660.000000	55.090835
2659.000000	55.137938
2658.000000	55.181416
2657.000000	55.224115
2656.000000	55.270390
2655.000000	55.323458
2654.000000	55.383604
2653.000000	55.448589
2652.000000	55.514587
2651.000000	55.576870
2650.000000	55.631448
2649.000000	55.677344
2648.000000	55.717104
2647.000000	55.754895
2646.000000	55.794514
2645.000000	55.838447
2644.000000	55.887037
2643.000000	55.937647
2642.000000	55.985700
2641.000000	56.027320
2640.000000	56.060724
2639.000000	56.085926
2638.000000	56.104792
2637.000000	56.121697
2636.000000	56.142272
2635.000000	56.169871
2634.000000	56.203547
2633.000000	56.239358
2632.000000	56.272717
2631.000000	56.299717
2630.000000	56.318215
2629.000000	56.329257
2628.000000	56.336872
2627.000000	56.345632
2626.000000	56.358562
2625.000000	56.376793
2624.000000	56.399530
2623.000000	56.423541
2622.000000	56.444014
2621.000000	56.457373
2620.000000	56.463205
2619.000000	56.463730
2618.000000	56.462514
2617.000000	56.463798
2616.000000	56.471261
2615.000000	56.485795
2614.000000	56.504680
2613.000000	56.523236
2612.000000	56.536904
2611.000000	56.542389
2610.000000	56.538668
2609.000000	56.528064
2608.000000	56.515454
2607.000000	56.505288
2606.000000	56.499429
2605.000000	56.497083
2604.000000	56.495272
2603.000000	56.489180
2602.000000	56.473762
2601.000000	56.446920
2600.000000	56.410956
2599.000000	56.370931
2598.000000	56.332447
2597.000000	56.300510
2596.000000	56.278382
2595.000000	56.266021
2594.000000	56.260279
2593.000000	56.257324
2592.000000	56.254979
2591.000000	56.253094
2590.000000	56.253685
2589.000000	56.261395
2588.000000	56.281850
2587.000000	56.318668
2586.000000	56.371416
2585.000000	56.436374
2584.000000	56.508305
2583.000000	56.581257
2582.000000	56.650347
2581.000000	56.714204
2580.000000	56.775648
2579.000000	56.839618
2578.000000	56.910312
2577.000000	56.990061
2576.000000	57.078675
2575.000000	57.172683
2574.000000	57.266259
2573.000000	57.354175
2572.000000	57.434199
2571.000000	57.507057
2570.000000	57.575588
2569.000000	57.644470
2568.000000	57.718889
2567.000000	57.801548
2566.000000	57.890798
2565.000000	57.982037
2564.000000	58.070236
2563.000000	58.151276
2562.000000	58.222838
2561.000000	58.285891
2560.000000	58.345017
2559.000000	58.405957
2558.000000	58.472664
2557.000000	58.546299
2556.000000	58.625323
2555.000000	58.705485
2554.000000	58.780746
2553.000000	58.846328
2552.000000	58.901463
2551.000000	58.949227
2550.000000	58.994695
2549.000000	59.043259
2548.000000	59.098879
2547.000000	59.161812
2546.000000	59.227981
2545.000000	59.291560
2544.000000	59.347837
2543.000000	59.394185
2542.000000	59.430179
2541.000000	59.458389
2540.000000	59.484319
2539.000000	59.513465
2538.000000	59.548139
2537.000000	59.586841
2536.000000	59.625185
2535.000000	59.656989
2534.000000	59.675732
2533.000000	59.677620
2532.000000	59.663801
2531.000000	59.639023
2530.000000	59.609085
2529.000000	59.579123
2528.000000	59.552417
2527.000000	59.528971
2526.000000	59.505326
2525.000000	59.477520
2524.000000	59.444148
2523.000000	59.407019
2522.000000	59.370432
2521.000000	59.340995
2520.000000	59.326240
2519.000000	59.331398
2518.000000	59.356929
2517.000000	59.398775
2516.000000	59.450857
2515.000000	59.506569
2514.000000	59.560514
2513.000000	59.611001
2512.000000	59.660490
2511.000000	59.713460
2510.000000	59.773423
2509.000000	59.841903
2508.000000	59.918284
2507.000000	59.998848
2506.000000	60.077166
2505.000000	60.147110
2504.000000	60.206021
2503.000000	60.255030
2502.000000	60.297792
2501.000000	60.339627
2500.000000	60.386162
2499.000000	60.440380
2498.000000	60.500536
2497.000000	60.561623
2496.000000	60.618238
2495.000000	60.666070
2494.000000	60.702856
2493.000000	60.729938
2492.000000	60.752618
2491.000000	60.777247
2490.000000	60.807876
2489.000000	60.845524
2488.000000	60.888658
2487.000000	60.933047
2486.000000	60.972439
2485.000000	61.001886
2484.000000	61.020958
2483.000000	61.033226
2482.000000	61.043630
2481.000000	61.057095
2480.000000	61.077687
2479.000000	61.106682
2478.000000	61.141127
2477.000000	61.175482
2476.000000	61.204552
2475.000000	61.225033
2474.000000	61.236251
2473.000000	61.241206
2472.000000	61.246121
2471.000000	61.256944
2470.000000	61.276017
2469.000000	61.302142
2468.000000	61.332124
2467.000000	61.361244
2466.000000	61.384020
2465.000000	61.397172
2464.000000	61.402096
2463.000000	61.403643
2462.000000	61.407110
2461.000000	61.416748
2460.000000	61.435037
2459.000000	61.461010
2458.000000	61.489741
2457.000000	61.515154
2456.000000	61.533534
2455.000000	61.544201
2454.000000	61.548598
2453.000000	61.550443
2452.000000	61.555358
2451.000000	61.567894
2450.000000	61.588625
2449.000000	61.614639
2448.000000	61.641746
2447.000000	61.665455
2446.000000	61.681756
2445.000000	61.689508
2444.000000	61.691938
2443.000000	61.694472
2442.000000	61.701459
2441.000000	61.715307
2440.000000	61.736759
2439.000000	61.763848
2438.000000	61.791424
2437.000000	61.813968
2436.000000	61.829060
2435.000000	61.837619
2434.000000	61.842252
2433.000000	61.846789
2432.000000	61.855832
2431.000000	61.872230
2430.000000	61.894888
2429.000000	61.920037
2428.000000	61.944044
2427.000000	61.964273
2426.000000	61.978981
2425.000000	61.988673
2424.000000	61.996924
2423.000000	62.008132
2422.000000	62.024745
2421.000000	62.047227
2420.000000	62.075017
2419.000000	62.105668
2418.000000	62.134339
2417.000000	62.156545
2416.000000	62.171431
2415.000000	62.181436
2414.000000	62.189910
2413.000000	62.200389
2412.000000	62.216541
2411.000000	62.240070
2410.000000	62.268760
2409.000000	62.298040
2408.000000	62.324189
2407.000000	62.345219
2406.000000	62.360336
2405.000000	62.370789
2404.000000	62.380571
2403.000000	62.394185
2402.000000	62.413778
2401.000000	62.439114
2400.000000	62.468921
2399.000000	62.500631
2398.000000	62.530108
2397.000000	62.554026
2396.000000	62.572504
2395.000000	62.588335
2394.000000	62.604583
2393.000000	62.624038
2392.000000	62.649348
2391.000000	62.681322
2390.000000	62.717562
2389.000000	62.754150
2388.000000	62.788435
2387.000000	62.819047
2386.000000	62.845179
2385.000000	62.868130
2384.000000	62.891864
2383.000000	62.920805
2382.000000	62.956515
2381.000000	62.998153
2380.000000	63.044883
2379.000000	63.094999
2378.000000	63.145255
2377.000000	63.192776
2376.000000	63.237443
2375.000000	63.280968
2374.000000	63.324881
2373.000000	63.370859
2372.000000	63.421453
2371.000000	63.477569
2370.000000	63.535863
2369.000000	63.592348
2368.000000	63.645834
2367.000000	63.696019
2366.000000	63.741181
2365.000000	63.781841
2364.000000	63.824462
2363.000000	63.871472
2362.000000	63.920959
2361.000000	63.972721
2360.000000	64.025508
2359.000000	64.079754
2358.000000	64.130302
2357.000000	64.172528
2356.000000	64.209415
2355.000000	64.241351
2354.000000	64.271936
2353.000000	64.305698
2352.000000	64.355751
2351.000000	64.425717
2350.000000	64.498868
2349.000000	64.560941
2348.000000	64.608745
2347.000000	64.657276
2346.000000	64.714755
2345.000000	64.773546
2344.000000	64.825643
2343.000000	64.865034
2342.000000	64.902585
2341.000000	64.942380
2340.000000	64.984633
2339.000000	65.027024
2338.000000	65.068792
2337.000000	65.112210
2336.000000	65.160567
2335.000000	65.216414
2334.000000	65.277563
2333.000000	65.340378
2332.000000	65.402243
2331.000000	65.466887
2330.000000	65.529161
2329.000000	65.592249
2328.000000	65.649478
2327.000000	65.704064
2326.000000	65.752176
2325.000000	65.794552
2324.000000	65.836332
2323.000000	65.880800
2322.000000	65.931308
2321.000000	65.984297
2320.000000	66.039918
2319.000000	66.098112
2318.000000	66.155808
2317.000000	66.209547
2316.000000	66.255526
2315.000000	66.298303
2314.000000	66.339048
2313.000000	66.383097
2312.000000	66.430529
2311.000000	66.485800
2310.000000	66.545157
2309.000000	66.606711
2308.000000	66.665372
2307.000000	66.721374
2306.000000	66.772024
2305.000000	66.817870
2304.000000	66.860742
2303.000000	66.906695
2302.000000	66.957825
2301.000000	67.015099
2300.000000	67.075990
2299.000000	67.139338
2298.000000	67.199399
2297.000000	67.252656
2296.000000	67.297454
2295.000000	67.338073
2294.000000	67.377433
2293.000000	67.418865
2292.000000	67.465402
2291.000000	67.519725
2290.000000	67.579521
2289.000000	67.638825
2288.000000	67.692889
2287.000000	67.739957
2286.000000	67.779899
2285.000000	67.813724
2284.000000	67.846255
2283.000000	67.883707
2282.000000	67.929537
2281.000000	67.982450
2280.000000	68.039438
2279.000000	68.096426
2278.000000	68.147871
2277.000000	68.189027
2276.000000	68.220096
2275.000000	68.246135
2274.000000	68.272442
2273.000000	68.303191
2272.000000	68.341952
2271.000000	68.390220
2270.000000	68.444041
2269.000000	68.495800
2268.000000	68.539579
2267.000000	68.573315
2266.000000	68.597077
2265.000000	68.613691
2264.000000	68.630012
2263.000000	68.653992
2262.000000	68.688627
2261.000000	68.730955
2260.000000	68.776077
2259.000000	68.818518
2258.000000	68.851973
2257.000000	68.871746
2256.000000	68.879586
2255.000000	68.882782
2254.000000	68.888645
2253.000000	68.902038
2252.000000	68.925771
2251.000000	68.959325
2250.000000	68.995886
2249.000000	69.025519
2248.000000	69.041724
2247.000000	69.043925
2246.000000	69.035039
2245.000000	69.020504
2244.000000	69.008749
2243.000000	69.007605
2242.000000	69.018420
2241.000000	69.035824
2240.000000	69.052542
2239.000000	69.061985
2238.000000	69.058073
2237.000000	69.037913
2236.000000	69.005851
2235.000000	68.971646
2234.000000	68.944026
2233.000000	68.927547
2232.000000	68.923239
2231.000000	68.927745
2230.000000	68.932001
2229.000000	68.925494
2228.000000	68.903286
2227.000000	68.867487
2226.000000	68.823544
2225.000000	68.778707
2224.000000	68.742243
2223.000000	68.721435
2222.000000	68.715614
2221.000000	68.716579
2220.000000	68.714803
2219.000000	68.703268
2218.000000	68.677603
2217.000000	68.638094
2216.000000	68.592267
2215.000000	68.551639
2214.000000	68.524564
2213.000000	68.513467
2212.000000	68.516621
2211.000000	68.528292
2210.000000	68.538062
2209.000000	68.535414
2208.000000	68.516909
2207.000000	68.487356
2206.000000	68.454997
2205.000000	68.428523
2204.000000	68.416474
2203.000000	68.423502
2202.000000	68.445630
2201.000000	68.472061
2200.000000	68.492343
2199.000000	68.500280
2198.000000	68.493514
2197.000000	68.474733
2196.000000	68.453571
2195.000000	68.442538
2194.000000	68.449126
2193.000000	68.472919
2192.000000	68.508477
2191.000000	68.547101
2190.000000	68.577350
2189.000000	68.589848
2188.000000	68.584000
2187.000000	68.567888
2186.000000	68.551973
2185.000000	68.545210
2184.000000	68.554385
2183.000000	68.581017
2182.000000	68.617590
2181.000000	68.650735
2180.000000	68.669654
2179.000000	68.670359
2178.000000	68.654304
2177.000000	68.627951
2176.000000	68.603163
2175.000000	68.592271
2174.000000	68.600203
2173.000000	68.622805
2172.000000	68.651607
2171.000000	68.677023
2170.000000	68.689155
2169.000000	68.681906
2168.000000	68.658561
2167.000000	68.630264
2166.000000	68.608457
2165.000000	68.600530
2164.000000	68.610054
2163.000000	68.635254
2162.000000	68.666571
2161.000000	68.690438
2160.000000	68.697739
2159.000000	68.687542
2158.000000	68.664678
2157.000000	68.637901
2156.000000	68.619155
2155.000000	68.618435
2154.000000	68.636983
2153.000000	68.667181
2152.000000	68.698597
2151.000000	68.721638
2150.000000	68.728237
2149.000000	68.715314
2148.000000	68.689171
2147.000000	68.662630
2146.000000	68.646749
2145.000000	68.646642
2144.000000	68.662712
2143.000000	68.690025
2142.000000	68.717162
2141.000000	68.731136
2140.000000	68.725926
2139.000000	68.704456
2138.000000	68.674177
2137.000000	68.644573
2136.000000	68.626796
2135.000000	68.628794
2134.000000	68.648733
2133.000000	68.676188
2132.000000	68.699809
2131.000000	68.711736
2130.000000	68.707235
2129.000000	68.686611
2128.000000	68.658526
2127.000000	68.636463
2126.000000	68.629975
2125.000000	68.640896
2124.000000	68.666068
2123.000000	68.698504
2122.000000	68.726951
2121.000000	68.740622
2120.000000	68.736863
2119.000000	68.721861
2118.000000	68.704751
2117.000000	68.694392
2116.000000	68.699547
2115.000000	68.725145
2114.000000	68.766706
2113.000000	68.812194
2112.000000	68.850673
2111.000000	68.876824
2110.000000	68.889534
2109.000000	68.892224
2108.000000	68.894899
2107.000000	68.910031
2106.000000	68.944209
2105.000000	68.995783
2104.000000	69.059242
2103.000000	69.127310
2102.000000	69.189979
2101.000000	69.238380
2100.000000	69.272192
2099.000000	69.299820
2098.000000	69.331431
2097.000000	69.374183
2096.000000	69.433104
2095.000000	69.509144
2094.000000	69.595115
2093.000000	69.678356
2092.000000	69.749611
2091.000000	69.806511
2090.000000	69.850234
2089.000000	69.884468
2088.000000	69.917743
2087.000000	69.960140
2086.000000	70.015425
2085.000000	70.079205
2084.000000	70.144142
2083.000000	70.203079
2082.000000	70.248155
2081.000000	70.273859
2080.000000	70.283054
2079.000000	70.285622
2078.000000	70.290530
2077.000000	70.301904
2076.000000	70.321741
2075.000000	70.349504
2074.000000	70.378271
2073.000000	70.397737
2072.000000	70.401953
2071.000000	70.392215
2070.000000	70.373090
2069.000000	70.350270
2068.000000	70.331680
2067.000000	70.324723
2066.000000	70.330589
2065.000000	70.344044
2064.000000	70.358839
2063.000000	70.370018
2062.000000	70.372824
2061.000000	70.365529
2060.000000	70.353826
2059.000000	70.347580
2058.000000	70.352918
2057.000000	70.370915
2056.000000	70.401737
2055.000000	70.443978
2054.000000	70.490813
2053.000000	70.533620
2052.000000	70.569472
2051.000000	70.601845
2050.000000	70.634763
2049.000000	70.671333
2048.000000	70.716671
2047.000000	70.776192
2046.000000	70.849495
2045.000000	70.930203
2044.000000	71.012693
2043.000000	71.094690
2042.000000	71.173955
2041.000000	71.248649
2040.000000	71.321866
2039.000000	71.400433
2038.000000	71.488381
2037.000000	71.585561
2036.000000	71.691726
2035.000000	71.806222
2034.000000	71.923860
2033.000000	72.037423
2032.000000	72.145231
2031.000000	72.251240
2030.000000	72.358081
2029.000000	72.465933
2028.000000	72.576777
2027.000000	72.694095
2026.000000	72.816161
2025.000000	72.937716
2024.000000	73.056107
2023.000000	73.172611
2022.000000	73.287260
2021.000000	73.398199
2020.000000	73.506732
2019.000000	73.616910
2018.000000	73.729333
2017.000000	73.840581
2016.000000	73.949290
2015.000000	74.056544
2014.000000	74.160564
2013.000000	74.258344
2012.000000	74.352060
2011.000000	74.446672
2010.000000	74.541677
2009.000000	74.632568
2008.000000	74.719179
2007.000000	74.805838
2006.000000	74.892633
2005.000000	74.976398
2004.000000	75.057510
2003.000000	75.139686
2002.000000	75.222451
2001.000000	75.300608
2000.000000	75.374352
1999.000000	75.446456
1998.000000	75.516803
1997.000000	75.585061
1996.000000	75.655254
1995.000000	75.730121
1994.000000	75.805913
1993.000000	75.878637
1992.000000	75.950845
1991.000000	76.024897
1990.000000	76.093238
1989.000000	76.145787
1988.000000	76.185323
1987.000000	76.224375
1986.000000	76.268400
1985.000000	76.314174
1984.000000	76.362450
1983.000000	76.418471
1982.000000	76.480030
1981.000000	76.537145
1980.000000	76.587009
1979.000000	76.632831
1978.000000	76.674753
1977.000000	76.710741
1976.000000	76.746071
1975.000000	76.789598
1974.000000	76.841876
1973.000000	76.896871
1972.000000	76.952995
1971.000000	77.011345
1970.000000	77.065805
1969.000000	77.107542
1968.000000	77.137874
1967.000000	77.165908
1966.000000	77.195345
1965.000000	77.224317
1964.000000	77.255603
1963.000000	77.295899
1962.000000	77.343261
1961.000000	77.386426
1960.000000	77.418519
1959.000000	77.442180
1958.000000	77.461138
1957.000000	77.477555
1956.000000	77.498788
1955.000000	77.534077
1954.000000	77.581982
1953.000000	77.631965
1952.000000	77.676288
1951.000000	77.715563
1950.000000	77.747226
1949.000000	77.765521
1948.000000	77.776992
1947.000000	77.797654
1946.000000	77.831707
1945.000000	77.868533
1944.000000	77.903455
1943.000000	77.943626
1942.000000	77.987477
1941.000000	78.019218
1940.000000	78.027224
1939.000000	78.016029
1938.000000	78.000369
1937.000000	77.993834
1936.000000	78.004796
1935.000000	78.035768
1934.000000	78.080400
1933.000000	78.125599
1932.000000	78.159662
1931.000000	78.180519
1930.000000	78.185996
1929.000000	78.174469
1928.000000	78.158727
1927.000000	78.157759
1926.000000	78.181131
1925.000000	78.218208
1924.000000	78.261364
1923.000000	78.311892
1922.000000	78.358812
1921.000000	78.375475
1920.000000	78.346923
1919.000000	78.293582
1918.000000	78.256550
1917.000000	78.253633
1916.000000	78.272029
1915.000000	78.294277
1914.000000	78.315336
1913.000000	78.336422
1912.000000	78.354232
1911.000000	78.361826
1910.000000	78.350456
1909.000000	78.318060
1908.000000	78.277424
1907.000000	78.245993
1906.000000	78.236209
1905.000000	78.243634
1904.000000	78.259733
1903.000000	78.278606
1902.000000	78.288172
1901.000000	78.276621
1900.000000	78.249179
1899.000000	78.223599
1898.000000	78.214783
1897.000000	78.223573
1896.000000	78.248590
1895.000000	78.292022
1894.000000	78.345763
1893.000000	78.387056
1892.000000	78.397672
1891.000000	78.382179
1890.000000	78.358852
1889.000000	78.340477
1888.000000	78.334418
1887.000000	78.344547
1886.000000	78.367104
1885.000000	78.395892
1884.000000	78.426702
1883.000000	78.453708
1882.000000	78.463497
1881.000000	78.447491
1880.000000	78.416762
1879.000000	78.391289
1878.000000	78.384007
1877.000000	78.395504
1876.000000	78.421204
1875.000000	78.460651
1874.000000	78.509526
1873.000000	78.550757
1872.000000	78.567237
1871.000000	78.560572
1870.000000	78.552695
1869.000000	78.561600
1868.000000	78.579469
1867.000000	78.589095
1866.000000	78.580464
1865.000000	78.553510
1864.000000	78.520522
1863.000000	78.493286
1862.000000	78.466833
1861.000000	78.429579
1860.000000	78.386183
1859.000000	78.353953
1858.000000	78.341429
1857.000000	78.344532
1856.000000	78.358362
1855.000000	78.378501
1854.000000	78.391522
1853.000000	78.381484
1852.000000	78.352039
1851.000000	78.311960
1850.000000	78.273916
1849.000000	78.257534
1848.000000	78.277567
1847.000000	78.320576
1846.000000	78.348322
1845.000000	78.342151
1844.000000	78.326010
1843.000000	78.316742
1842.000000	78.283772
1841.000000	78.202139
1840.000000	78.101148
1839.000000	78.031633
1838.000000	78.011906
1837.000000	78.011856
1836.000000	78.005160
1835.000000	77.997271
1834.000000	77.991183
1833.000000	77.969459
1832.000000	77.922875
1831.000000	77.871374
1830.000000	77.844248
1829.000000	77.834299
1828.000000	77.811254
1827.000000	77.755247
1826.000000	77.677678
1825.000000	77.612798
1824.000000	77.573920
1823.000000	77.537771
1822.000000	77.474063
1821.000000	77.383382
1820.000000	77.295027
1819.000000	77.233750
1818.000000	77.202344
1817.000000	77.185682
1816.000000	77.174312
1815.000000	77.164006
1814.000000	77.141229
1813.000000	77.096811
1812.000000	77.035078
1811.000000	76.972840
1810.000000	76.917991
1809.000000	76.863773
1808.000000	76.812097
1807.000000	76.773679
1806.000000	76.744404
1805.000000	76.702645
1804.000000	76.638794
1803.000000	76.569213
1802.000000	76.511936
1801.000000	76.475085
1800.000000	76.452778
1799.000000	76.441806
1798.000000	76.437478
1797.000000	76.432528
1796.000000	76.426234
1795.000000	76.411939
1794.000000	76.366552
1793.000000	76.283847
1792.000000	76.187556
1791.000000	76.105960
1790.000000	76.043010
1789.000000	75.982221
1788.000000	75.913017
1787.000000	75.840527
1786.000000	75.774221
1785.000000	75.721216
1784.000000	75.689518
1783.000000	75.673308
1782.000000	75.644937
1781.000000	75.601224
1780.000000	75.559763
1779.000000	75.535601
1778.000000	75.519476
1777.000000	75.507233
1776.000000	75.526526
1775.000000	75.583053
1774.000000	75.629843
1773.000000	75.623241
1772.000000	75.559610
1771.000000	75.445510
1770.000000	75.291221
1769.000000	75.115218
1768.000000	74.963184
1767.000000	74.882334
1766.000000	74.853359
1765.000000	74.811793
1764.000000	74.725580
1763.000000	74.625137
1762.000000	74.558261
1761.000000	74.536040
1760.000000	74.522818
1759.000000	74.482543
1758.000000	74.397234
1757.000000	74.292010
1756.000000	74.222087
1755.000000	74.202336
1754.000000	74.191398
1753.000000	74.152049
1752.000000	74.104154
1751.000000	74.094578
1750.000000	74.109837
1749.000000	74.075296
1748.000000	73.975192
1747.000000	73.849771
1746.000000	73.716606
1745.000000	73.574413
1744.000000	73.439029
1743.000000	73.339026
1742.000000	73.262149
1741.000000	73.162393
1740.000000	73.039987
1739.000000	72.958186
1738.000000	72.933962
1737.000000	72.911795
1736.000000	72.833369
1735.000000	72.710650
1734.000000	72.618337
1733.000000	72.531081
1732.000000	72.345677
1731.000000	72.060281
1730.000000	71.757049
1729.000000	71.489974
1728.000000	71.269464
1727.000000	71.078212
1726.000000	70.890189
1725.000000	70.694490
1724.000000	70.502214
1723.000000	70.347717
1722.000000	70.242163
1721.000000	70.163182
1720.000000	70.099274
1719.000000	70.064692
1718.000000	70.039192
1717.000000	69.902192
1716.000000	69.577849
1715.000000	69.151272
1714.000000	68.748499
1713.000000	68.421290
1712.000000	68.153109
1711.000000	67.916906
1710.000000	67.698110
1709.000000	67.486029
1708.000000	67.263285
1707.000000	67.014514
1706.000000	66.750670
1705.000000	66.509326
1704.000000	66.328510
1703.000000	66.180661
1702.000000	65.953706
1701.000000	65.615698
1700.000000	65.371642
1699.000000	65.325450
1698.000000	65.275652
1697.000000	65.013380
1696.000000	64.519150
1695.000000	63.981987
1694.000000	63.544296
1693.000000	63.163354
1692.000000	62.804472
1691.000000	62.477171
1690.000000	62.177902
1689.000000	61.918514
1688.000000	61.743235
1687.000000	61.649338
1686.000000	61.520130
1685.000000	61.214141
1684.000000	60.735967
1683.000000	60.225239
1682.000000	59.774974
1681.000000	59.350693
1680.000000	58.939897
1679.000000	58.573370
1678.000000	58.236487
1677.000000	57.863441
1676.000000	57.438831
1675.000000	57.059324
1674.000000	56.791909
1673.000000	56.572526
1672.000000	56.311958
1671.000000	55.986003
1670.000000	55.590292
1669.000000	55.135491
1668.000000	54.690250
1667.000000	54.318541
1666.000000	54.008155
1665.000000	53.702466
1664.000000	53.368995
1663.000000	53.028924
1662.000000	52.695528
1661.000000	52.354251
1660.000000	52.001394
1659.000000	51.662730
1658.000000	51.375339
1657.000000	51.173437
1656.000000	51.066516
1655.000000	50.996707
1654.000000	50.838317
1653.000000	50.489845
1652.000000	50.069292
1651.000000	49.698837
1650.000000	49.331644
1649.000000	48.979547
1648.000000	48.645879
1647.000000	48.291399
1646.000000	47.913859
1645.000000	47.553146
1644.000000	47.223659
1643.000000	46.921962
1642.000000	46.644324
1641.000000	46.380814
1640.000000	46.144436
1639.000000	45.965586
1638.000000	45.831321
1637.000000	45.660797
1636.000000	45.386812
1635.000000	45.055012
1634.000000	44.769005
1633.000000	44.527508
1632.000000	44.296812
1631.000000	44.082834
1630.000000	43.882458
1629.000000	43.681332
1628.000000	43.489377
1627.000000	43.338726
1626.000000	43.231927
1625.000000	43.131929
1624.000000	43.011989
1623.000000	42.884281
1622.000000	42.767017
1621.000000	42.668784
1620.000000	42.603699
1619.000000	42.585380
1618.000000	42.590739
1617.000000	42.560885
1616.000000	42.469877
1615.000000	42.352481
1614.000000	42.245758
1613.000000	42.159946
1612.000000	42.098916
1611.000000	42.066844
1610.000000	42.054438
1609.000000	42.042473
1608.000000	42.031378
1607.000000	42.044346
1606.000000	42.089096
1605.000000	42.150433
1604.000000	42.213251
1603.000000	42.272647
1602.000000	42.321244
1601.000000	42.347794
1600.000000	42.360125
1599.000000	42.385023
1598.000000	42.439848
1597.000000	42.519426
1596.000000	42.613173
1595.000000	42.716018
1594.000000	42.815123
1593.000000	42.890389
1592.000000	42.936947
1591.000000	42.970170
1590.000000	43.003813
1589.000000	43.041240
1588.000000	43.089390
1587.000000	43.161766
1586.000000	43.257125
1585.000000	43.354942
1584.000000	43.440675
1583.000000	43.510922
1582.000000	43.566588
1581.000000	43.617753
1580.000000	43.695716
1579.000000	43.834328
1578.000000	44.030779
1577.000000	44.224437
1576.000000	44.338261
1575.000000	44.355659
1574.000000	44.320157
1573.000000	44.280995
1572.000000	44.263821
1571.000000	44.273264
1570.000000	44.306085
1569.000000	44.350095
1568.000000	44.403947
1567.000000	44.472363
1566.000000	44.553230
1565.000000	44.646464
1564.000000	44.767329
1563.000000	44.926471
1562.000000	45.116216
1561.000000	45.280871
1560.000000	45.435416
1559.000000	45.605312
1558.000000	45.671514
1557.000000	45.676240
1556.000000	45.677567
1555.000000	45.684250
1554.000000	45.720694
1553.000000	45.774189
1552.000000	45.821701
1551.000000	45.869541
1550.000000	45.956647
1549.000000	46.096194
1548.000000	46.274848
1547.000000	46.478790
1546.000000	46.719196
1545.000000	47.016221
1544.000000	47.356713
1543.000000	47.713964
1542.000000	48.091930
1541.000000	48.482326
1540.000000	48.791501
1539.000000	48.962294
1538.000000	49.068705
1537.000000	49.155745
1536.000000	49.263743
1535.000000	49.450099
1534.000000	49.726096
1533.000000	50.040450
1532.000000	50.326328
1531.000000	50.588965
1530.000000	50.865188
1529.000000	51.179682
1528.000000	51.551001
1527.000000	51.981537
1526.000000	52.446373
1525.000000	52.907421
1524.000000	53.342335
1523.000000	53.759255
1522.000000	54.162053
1521.000000	54.511616
1520.000000	54.782700
1519.000000	55.006944
1518.000000	55.241096
1517.000000	55.507959
1516.000000	55.771376
1515.000000	55.995300
1514.000000	56.168052
1513.000000	56.297800
1512.000000	56.423450
1511.000000	56.596558
1510.000000	56.849439
1509.000000	57.185731
1508.000000	57.602573
1507.000000	57.997247
1506.000000	58.225603
1505.000000	58.353398
1504.000000	58.449296
1503.000000	58.555151
1502.000000	58.758081
1501.000000	59.088557
1500.000000	59.547723
1499.000000	60.133397
1498.000000	60.821964
1497.000000	61.528626
1496.000000	62.151385
1495.000000	62.652823
1494.000000	63.043841
1493.000000	63.358729
1492.000000	63.666850
1491.000000	64.060879
1490.000000	64.555127
1489.000000	65.033717
1488.000000	65.413600
1487.000000	65.731609
1486.000000	66.015235
1485.000000	66.238810
1484.000000	66.398197
1483.000000	66.518430
1482.000000	66.616892
1481.000000	66.682059
1480.000000	66.712235
1479.000000	66.721471
1478.000000	66.702021
1477.000000	66.630675
1476.000000	66.505316
1475.000000	66.307946
1474.000000	65.918098
1473.000000	65.188642
1472.000000	64.169126
1471.000000	63.089130
1470.000000	62.042592
1469.000000	60.952817
1468.000000	59.753549
1467.000000	58.383609
1466.000000	56.696913
1465.000000	54.591636
1464.000000	52.244468
1463.000000	49.957480
1462.000000	47.815105
1461.000000	45.744694
1460.000000	43.703696
1459.000000	41.607217
1458.000000	39.211061
1457.000000	36.491608
1456.000000	34.058583
1455.000000	32.372899
1454.000000	31.231629
1453.000000	30.377837
1452.000000	29.795394
1451.000000	29.543586
1450.000000	29.608738
1449.000000	29.947809
1448.000000	30.559410
1447.000000	31.391175
1446.000000	32.312151
1445.000000	33.246037
1444.000000	34.211249
1443.000000	35.226863
1442.000000	36.260367
1441.000000	37.272569
1440.000000	38.259608
1439.000000	39.245759
1438.000000	40.284827
1437.000000	41.433947
1436.000000	42.636508
1435.000000	43.726425
1434.000000	44.637315
1433.000000	45.450398
1432.000000	46.259844
1431.000000	47.082368
1430.000000	47.870354
1429.000000	48.572604
1428.000000	49.164117
1427.000000	49.638118
1426.000000	50.002362
1425.000000	50.294354
1424.000000	50.551597
1423.000000	50.787733
1422.000000	51.016598
1421.000000	51.267482
1420.000000	51.588978
1419.000000	52.000576
1418.000000	52.441857
1417.000000	52.855838
1416.000000	53.253641
1415.000000	53.664128
1414.000000	54.106623
1413.000000	54.601011
1412.000000	55.159810
1411.000000	55.774911
1410.000000	56.429945
1409.000000	57.108404
1408.000000	57.785934
1407.000000	58.436147
1406.000000	59.046736
1405.000000	59.625297
1404.000000	60.168863
1403.000000	60.662098
1402.000000	61.115731
1401.000000	61.577188
1400.000000	62.092847
1399.000000	62.647893
1398.000000	63.177834
1397.000000	63.636893
1396.000000	64.016212
1395.000000	64.320410
1394.000000	64.572061
1393.000000	64.808830
1392.000000	65.040343
1391.000000	65.255517
1390.000000	65.454500
1389.000000	65.626301
1388.000000	65.716903
1387.000000	65.670178
1386.000000	65.518513
1385.000000	65.381116
1384.000000	65.361987
1383.000000	65.497732
1382.000000	65.764010
1381.000000	66.086566
1380.000000	66.378353
1379.000000	66.586145
1378.000000	66.707044
1377.000000	66.758339
1376.000000	66.745411
1375.000000	66.672047
1374.000000	66.569399
1373.000000	66.491882
1372.000000	66.471155
1371.000000	66.496172
1370.000000	66.542177
1369.000000	66.586007
1368.000000	66.587440
1367.000000	66.504059
1366.000000	66.325936
1365.000000	66.070287
1364.000000	65.758357
1363.000000	65.410384
1362.000000	65.057893
1361.000000	64.733485
1360.000000	64.438350
1359.000000	64.150385
1358.000000	63.864505
1357.000000	63.600635
1356.000000	63.386951
1355.000000	63.255880
1354.000000	63.243902
1353.000000	63.366118
1352.000000	63.593010
1351.000000	63.860521
1350.000000	64.087380
1349.000000	64.187946
1348.000000	64.081158
1347.000000	63.716479
1346.000000	63.092423
1345.000000	62.245031
1344.000000	61.226258
1343.000000	60.081264
1342.000000	58.832647
1341.000000	57.469589
1340.000000	55.961058
1339.000000	54.297150
1338.000000	52.499511
1337.000000	50.586723
1336.000000	48.560570
1335.000000	46.434034
1334.000000	44.242678
1333.000000	42.021607
1332.000000	39.802172
1331.000000	37.629664
1330.000000	35.555316
1329.000000	33.611428
1328.000000	31.815713
1327.000000	30.186063
1326.000000	28.727909
1325.000000	27.424409
1324.000000	26.255608
1323.000000	25.218920
1322.000000	24.310219
1321.000000	23.506171
1320.000000	22.794643
1319.000000	22.200422
1318.000000	21.768828
1317.000000	21.535043
1316.000000	21.520955
1315.000000	21.743971
1314.000000	22.196297
1313.000000	22.836603
1312.000000	23.614918
1311.000000	24.489419
1310.000000	25.421137
1309.000000	26.366712
1308.000000	27.292192
1307.000000	28.183271
1306.000000	29.034309
1305.000000	29.842318
1304.000000	30.614390
1303.000000	31.368240
1302.000000	32.118121
1301.000000	32.867399
1300.000000	33.615596
1299.000000	34.362054
1298.000000	35.099346
1297.000000	35.814266
1296.000000	36.503614
1295.000000	37.183405
1294.000000	37.879064
1293.000000	38.611175
1292.000000	39.390048
1291.000000	40.214164
1290.000000	41.069348
1289.000000	41.933784
1288.000000	42.789448
1287.000000	43.631478
1286.000000	44.468317
1285.000000	45.315338
1284.000000	46.186760
1283.000000	47.087986
1282.000000	48.009257
1281.000000	48.924051
1280.000000	49.794677
1279.000000	50.586543
1278.000000	51.284944
1277.000000	51.900483
1276.000000	52.463645
1275.000000	53.016086
1274.000000	53.600416
1273.000000	54.244785
1272.000000	54.947781
1271.000000	55.681102
1270.000000	56.407482
1269.000000	57.095617
1268.000000	57.726486
1267.000000	58.300245
1266.000000	58.842570
1265.000000	59.393430
1264.000000	59.982836
1263.000000	60.618269
1262.000000	61.286522
1261.000000	61.955684
1260.000000	62.577280
1259.000000	63.105967
1258.000000	63.529882
1257.000000	63.873810
1256.000000	64.177314
1255.000000	64.480346
1254.000000	64.818268
1253.000000	65.208047
1252.000000	65.630158
1251.000000	66.035925
1250.000000	66.376889
1249.000000	66.623268
1248.000000	66.766869
1247.000000	66.824885
1246.000000	66.843136
1245.000000	66.876943
1244.000000	66.957778
1243.000000	67.082434
1242.000000	67.224263
1241.000000	67.342404
1240.000000	67.388457
1239.000000	67.327375
1238.000000	67.164465
1237.000000	66.943352
1236.000000	66.719150
1235.000000	66.540477
1234.000000	66.442449
1233.000000	66.433761
1232.000000	66.485874
1231.000000	66.547289
1230.000000	66.575014
1229.000000	66.553263
1228.000000	66.491068
1227.000000	66.420285
1226.000000	66.393673
1225.000000	66.462368
1224.000000	66.646644
1223.000000	66.928102
1222.000000	67.264604
1221.000000	67.604449
1220.000000	67.894725
1219.000000	68.102206
1218.000000	68.235680
1217.000000	68.340283
1216.000000	68.468186
1215.000000	68.656988
1214.000000	68.923340
1213.000000	69.254808
1212.000000	69.603593
1211.000000	69.904535
1210.000000	70.112104
1209.000000	70.218821
1208.000000	70.247583
1207.000000	70.244072
1206.000000	70.270392
1205.000000	70.380669
1204.000000	70.589944
1203.000000	70.869653
1202.000000	71.169543
1201.000000	71.437343
1200.000000	71.629706
1199.000000	71.731258
1198.000000	71.772801
1197.000000	71.818420
1196.000000	71.929126
1195.000000	72.139482
1194.000000	72.455020
1193.000000	72.849081
1192.000000	73.260610
1191.000000	73.617695
1190.000000	73.877598
1189.000000	74.043627
1188.000000	74.151687
1187.000000	74.256123
1186.000000	74.420096
1185.000000	74.690154
1184.000000	75.064921
1183.000000	75.492186
1182.000000	75.897665
1181.000000	76.214279
1180.000000	76.401345
1179.000000	76.465442
1178.000000	76.467611
1177.000000	76.492131
1176.000000	76.599371
1175.000000	76.807924
1174.000000	77.102523
1173.000000	77.436644
1172.000000	77.736168
1171.000000	77.929191
1170.000000	77.988598
1169.000000	77.942681
1168.000000	77.850279
1167.000000	77.779305
1166.000000	77.794047
1165.000000	77.929350
1164.000000	78.163518
1163.000000	78.426226
1162.000000	78.639741
1161.000000	78.750490
1160.000000	78.737886
1159.000000	78.624065
1158.000000	78.478512
1157.000000	78.388722
1156.000000	78.412529
1155.000000	78.557513
1154.000000	78.790788
1153.000000	79.048478
1152.000000	79.246077
1151.000000	79.314470
1150.000000	79.244463
1149.000000	79.090264
1148.000000	78.931449
1147.000000	78.841060
1146.000000	78.871242
1145.000000	79.032355
1144.000000	79.274764
1143.000000	79.507575
1142.000000	79.648273
1141.000000	79.656568
1140.000000	79.537225
1139.000000	79.338343
1138.000000	79.144605
1137.000000	79.042206
1136.000000	79.071829
1135.000000	79.212807
1134.000000	79.403350
1133.000000	79.563221
1132.000000	79.612396
1131.000000	79.505258
1130.000000	79.262811
1129.000000	78.962249
1128.000000	78.691035
1127.000000	78.513242
1126.000000	78.457733
1125.000000	78.503485
1124.000000	78.573912
1123.000000	78.568025
1122.000000	78.414357
1121.000000	78.099816
1120.000000	77.659795
1119.000000	77.163756
1118.000000	76.698997
1117.000000	76.332903
1116.000000	76.074338
1115.000000	75.869434
1114.000000	75.634536
1113.000000	75.289076
1112.000000	74.775091
1111.000000	74.082828
1110.000000	73.263066
1109.000000	72.401769
1108.000000	71.572516
1107.000000	70.806283
1106.000000	70.090522
1105.000000	69.369931
1104.000000	68.558992
1103.000000	67.580317
1102.000000	66.402113
1101.000000	65.047963
1100.000000	63.574447
1099.000000	62.047309
1098.000000	60.521828
1097.000000	59.015921
1096.000000	57.502755
1095.000000	55.927263
1094.000000	54.234394
1093.000000	52.392774
1092.000000	50.404666
1091.000000	48.310419
1090.000000	46.174089
1089.000000	44.058239
1088.000000	42.008823
1087.000000	40.051667
1086.000000	38.188834
1085.000000	36.404269
1084.000000	34.685558
1083.000000	33.034903
1082.000000	31.467312
1081.000000	30.002344
1080.000000	28.666462
1079.000000	27.489169
1078.000000	26.475853
1077.000000	25.606641
1076.000000	24.853862
1075.000000	24.190269
1074.000000	23.585816
1073.000000	23.009801
1072.000000	22.454995
1071.000000	21.938315
1070.000000	21.475682
1069.000000	21.075115
1068.000000	20.745602
1067.000000	20.497248
1066.000000	20.323411
1065.000000	20.200627
1064.000000	20.115135
1063.000000	20.068082
1062.000000	20.061882
1061.000000	20.098677
1060.000000	20.192197
1059.000000	20.365131
1058.000000	20.623922
1057.000000	20.955270
1056.000000	21.344491
1055.000000	21.778090
1054.000000	22.234937
1053.000000	22.691700
1052.000000	23.145337
1051.000000	23.615298
1050.000000	24.120571
1049.000000	24.672726
1048.000000	25.282786
1047.000000	25.954882
1046.000000	26.671344
1045.000000	27.398535
1044.000000	28.111670
1043.000000	28.802766
1042.000000	29.473013
1041.000000	30.134091
1040.000000	30.813269
1039.000000	31.542580
1038.000000	32.336181
1037.000000	33.183796
1036.000000	34.061942
1035.000000	34.939808
1034.000000	35.782027
1033.000000	36.563858
1032.000000	37.290531
1031.000000	37.996066
1030.000000	38.722012
1029.000000	39.499179
1028.000000	40.339842
1027.000000	41.232133
1026.000000	42.138604
1025.000000	43.010268
1024.000000	43.808966
1023.000000	44.522466
1022.000000	45.167730
1021.000000	45.784795
1020.000000	46.423892
1019.000000	47.124783
1018.000000	47.897689
1017.000000	48.718576
1016.000000	49.538174
1015.000000	50.300262
1014.000000	50.964005
1013.000000	51.522497
1012.000000	52.007487
1011.000000	52.476357
1010.000000	52.989535
1009.000000	53.586039
1008.000000	54.266496
1007.000000	54.992535
1006.000000	55.701579
1005.000000	56.331468
1004.000000	56.844796
1003.000000	57.245223
1002.000000	57.579314
1001.000000	57.917812
1000.000000	58.325587
999.000000	58.836016
998.000000	59.438998
997.000000	60.084049
996.000000	60.695856
995.000000	61.204454
994.000000	61.579452
993.000000	61.843545
992.000000	62.059540
991.000000	62.305259
990.000000	62.646606
989.000000	63.110766
988.000000	63.670406
987.000000	64.254252
986.000000	64.778635
985.000000	65.180919
984.000000	65.441781
983.000000	65.594787
982.000000	65.718876
981.000000	65.905377
980.000000	66.215027
979.000000	66.654518
978.000000	67.179148
977.000000	67.709020
976.000000	68.153295
975.000000	68.447836
974.000000	68.591011
973.000000	68.644738
972.000000	68.701584
971.000000	68.846749
970.000000	69.130667
969.000000	69.550007
968.000000	70.041757
967.000000	70.506316
966.000000	70.854022
965.000000	71.042992
964.000000	71.090233
963.000000	71.065277
962.000000	71.069527
961.000000	71.194104
960.000000	71.475246
959.000000	71.881037
958.000000	72.330252
957.000000	72.722933
956.000000	72.973883
955.000000	73.049781
954.000000	72.992257
953.000000	72.899558
952.000000	72.876983
951.000000	72.994733
950.000000	73.269094
949.000000	73.656717
948.000000	74.061923
947.000000	74.373713
946.000000	74.521301
945.000000	74.504221
944.000000	74.383420
943.000000	74.256465
942.000000	74.226060
941.000000	74.357540
940.000000	74.644701
939.000000	75.013219
938.000000	75.357707
937.000000	75.583198
936.000000	75.635871
935.000000	75.526632
934.000000	75.336386
933.000000	75.180520
932.000000	75.150434
931.000000	75.278914
930.000000	75.538321
929.000000	75.850420
928.000000	76.105963
927.000000	76.208900
926.000000	76.127973
925.000000	75.910016
924.000000	75.649424
923.000000	75.447727
922.000000	75.381273
921.000000	75.472450
920.000000	75.672170
919.000000	75.878027
918.000000	75.984586
917.000000	75.926934
916.000000	75.698416
915.000000	75.353394
914.000000	74.993014
913.000000	74.720902
912.000000	74.591121
911.000000	74.590098
910.000000	74.651546
909.000000	74.681046
908.000000	74.585255
907.000000	74.310672
906.000000	73.875714
905.000000	73.360895
904.000000	72.862960
903.000000	72.455293
902.000000	72.168589
901.000000	71.980608
900.000000	71.816434
899.000000	71.577343
898.000000	71.190309
897.000000	70.636541
896.000000	69.949970
895.000000	69.202554
894.000000	68.479520
893.000000	67.843256
892.000000	67.301659
891.000000	66.808385
890.000000	66.289675
889.000000	65.672622
888.000000	64.907900
887.000000	63.988425
886.000000	62.957138
885.000000	61.886948
884.000000	60.843196
883.000000	59.860462
882.000000	58.935470
881.000000	58.029472
880.000000	57.082082
879.000000	56.036847
878.000000	54.868029
877.000000	53.589060
876.000000	52.243801
875.000000	50.889744
874.000000	49.576332
873.000000	48.327031
872.000000	47.133583
871.000000	45.963849
870.000000	44.776298
869.000000	43.536350
868.000000	42.232171
867.000000	40.881047
866.000000	39.520365
865.000000	38.190944
864.000000	36.925353
863.000000	35.738290
862.000000	34.619396
861.000000	33.540568
860.000000	32.474143
859.000000	31.407475
858.000000	30.344221
857.000000	29.307553
856.000000	28.346789
855.000000	27.521979
854.000000	26.878426
853.000000	26.430163
852.000000	26.161634
851.000000	26.033459
850.000000	25.982789
849.000000	25.945197
848.000000	25.882921
847.000000	25.792347
846.000000	25.691572
845.000000	25.606694
844.000000	25.567943
843.000000	25.596853
842.000000	25.690493
841.000000	25.827220
840.000000	25.985701
839.000000	26.154349
838.000000	26.328463
837.000000	26.512958
836.000000	26.729486
835.000000	27.005302
834.000000	27.352850
833.000000	27.764217
832.000000	28.221268
831.000000	28.704238
830.000000	29.193032
829.000000	29.675725
828.000000	30.159023
827.000000	30.664160
826.000000	31.215623
825.000000	31.834902
824.000000	32.536174
823.000000	33.313809
822.000000	34.134388
821.000000	34.950883
820.000000	35.724334
819.000000	36.434131
818.000000	37.079864
817.000000	37.683107
816.000000	38.282319
815.000000	38.914550
814.000000	39.595928
813.000000	40.315693
812.000000	41.042945
811.000000	41.736725
810.000000	42.360962
809.000000	42.902469
808.000000	43.378867
807.000000	43.831308
806.000000	44.308325
805.000000	44.848502
804.000000	45.464485
803.000000	46.134524
802.000000	46.811245
801.000000	47.443123
800.000000	47.994715
799.000000	48.458850
798.000000	48.861182
797.000000	49.252954
796.000000	49.688766
795.000000	50.201094
794.000000	50.787819
793.000000	51.414836
792.000000	52.027611
791.000000	52.570374
790.000000	53.011291
789.000000	53.357960
788.000000	53.651470
787.000000	53.948421
786.000000	54.301916
785.000000	54.741727
784.000000	55.257991
783.000000	55.801863
782.000000	56.308699
781.000000	56.726953
780.000000	57.035441
779.000000	57.250381
778.000000	57.424069
777.000000	57.626335
776.000000	57.911209
775.000000	58.292220
774.000000	58.742304
773.000000	59.207990
772.000000	59.625871
771.000000	59.944640
770.000000	60.150782
769.000000	60.277882
768.000000	60.389158
767.000000	60.549719
766.000000	60.804488
765.000000	61.161524
764.000000	61.583420
763.000000	61.999731
762.000000	62.340837
761.000000	62.568772
760.000000	62.687132
759.000000	62.738030
758.000000	62.791118
757.000000	62.916429
756.000000	63.149386
755.000000	63.474705
754.000000	63.839363
753.000000	64.175589
752.000000	64.420661
751.000000	64.540392
750.000000	64.551212
749.000000	64.515833
748.000000	64.508955
747.000000	64.583582
746.000000	64.757935
745.000000	65.011730
744.000000	65.286423
743.000000	65.504857
742.000000	65.609944
741.000000	65.591438
740.000000	65.483335
739.000000	65.348542
738.000000	65.261639
737.000000	65.280867
736.000000	65.416498
735.000000	65.625305
734.000000	65.838970
733.000000	65.995658
732.000000	66.055004
731.000000	66.011159
730.000000	65.907176
729.000000	65.823143
728.000000	65.834091
727.000000	65.974427
726.000000	66.232788
725.000000	66.562129
724.000000	66.889914
723.000000	67.141257
722.000000	67.276659
721.000000	67.312864
720.000000	67.308750
719.000000	67.337192
718.000000	67.462434
717.000000	67.716540
716.000000	68.076873
715.000000	68.471002
714.000000	68.815283
713.000000	69.051966
712.000000	69.161724
711.000000	69.168309
710.000000	69.141560
709.000000	69.173238
708.000000	69.326822
707.000000	69.605669
706.000000	69.963010
705.000000	70.327073
704.000000	70.618837
703.000000	70.777832
702.000000	70.799236
701.000000	70.742145
700.000000	70.693082
699.000000	70.725756
698.000000	70.883633
697.000000	71.168272
696.000000	71.524875
695.000000	71.856420
694.000000	72.077757
693.000000	72.158332
692.000000	72.119384
691.000000	72.017785
690.000000	71.938845
689.000000	71.972456
688.000000	72.159649
687.000000	72.461172
686.000000	72.790951
685.000000	73.065094
684.000000	73.219116
683.000000	73.222459
682.000000	73.108236
681.000000	72.971580
680.000000	72.914471
679.000000	72.991423
678.000000	73.206475
677.000000	73.518529
676.000000	73.836116
675.000000	74.055842
674.000000	74.123220
673.000000	74.058220
672.000000	73.934701
671.000000	73.844166
670.000000	73.872582
669.000000	74.084746
668.000000	74.447116
667.000000	74.798596
666.000000	75.005666
665.000000	75.053570
664.000000	74.974737
663.000000	74.807208
662.000000	74.615317
661.000000	74.489803
660.000000	74.504441
659.000000	74.680984
658.000000	74.981177
657.000000	75.313694
656.000000	75.566632
655.000000	75.663365
654.000000	75.594052
653.000000	75.411747
652.000000	75.214322
651.000000	75.112882
650.000000	75.182716
649.000000	75.421100
648.000000	75.751263
647.000000	76.061379
646.000000	76.249240
645.000000	76.260600
644.000000	76.109451
643.000000	75.875967
642.000000	75.678483
641.000000	75.620126
640.000000	75.742487
639.000000	76.013015
638.000000	76.339712
637.000000	76.605523
636.000000	76.713612
635.000000	76.627756
634.000000	76.392801
633.000000	76.116582
632.000000	75.921071
631.000000	75.894565
630.000000	76.058317
629.000000	76.355548
628.000000	76.673571
627.000000	76.890623
626.000000	76.927133
625.000000	76.779443
624.000000	76.519353
623.000000	76.266524
622.000000	76.142610
621.000000	76.216742
620.000000	76.471939
619.000000	76.814077
618.000000	77.114170
617.000000	77.260347
616.000000	77.200042
615.000000	76.964534
614.000000	76.662491
613.000000	76.431589
612.000000	76.374444
611.000000	76.519607
610.000000	76.816893
609.000000	77.154947
608.000000	77.398079
607.000000	77.441442
606.000000	77.264965
605.000000	76.944894
604.000000	76.612816
603.000000	76.397506
602.000000	76.376246
601.000000	76.541365
600.000000	76.794425
599.000000	76.984049
598.000000	76.979918
597.000000	76.733561
596.000000	76.293823
595.000000	75.792750
594.000000	75.404550
593.000000	75.271772
592.000000	75.438552
591.000000	75.834607
590.000000	76.313219
589.000000	76.715412
588.000000	76.922543
587.000000	76.894165
586.000000	76.690991
585.000000	76.452113
584.000000	76.324968
583.000000	76.400807
582.000000	76.688501
581.000000	77.112030
580.000000	77.529085
579.000000	77.788120
578.000000	77.805823
577.000000	77.602867
576.000000	77.283774
575.000000	76.996554
574.000000	76.878859
573.000000	76.995926
572.000000	77.309279
571.000000	77.693151
570.000000	77.989945
569.000000	78.077230
568.000000	77.911339
567.000000	77.548829
566.000000	77.139251
565.000000	76.857080
564.000000	76.811239
563.000000	77.004143
562.000000	77.346110
561.000000	77.693311
560.000000	77.893961
559.000000	77.846592
558.000000	77.557199
557.000000	77.140638
556.000000	76.756809
555.000000	76.542313
554.000000	76.567659
553.000000	76.810082
552.000000	77.152496
551.000000	77.427138
550.000000	77.498328
549.000000	77.328894
548.000000	76.981935
547.000000	76.587128
546.000000	76.301729
545.000000	76.249154
544.000000	76.458431
543.000000	76.850973
542.000000	77.276470
541.000000	77.572329
540.000000	77.624243
539.000000	77.419624
538.000000	77.069720
537.000000	76.759305
536.000000	76.649868
535.000000	76.812551
534.000000	77.215970
533.000000	77.740480
532.000000	78.212466
531.000000	78.469453
530.000000	78.444752
529.000000	78.200986
528.000000	77.882473
527.000000	77.653139
526.000000	77.650084
525.000000	77.921588
524.000000	78.383444
523.000000	78.856325
522.000000	79.161321
521.000000	79.195277
520.000000	78.954809
519.000000	78.534743
518.000000	78.105922
517.000000	77.844740
516.000000	77.839236
515.000000	78.048234
514.000000	78.334113
513.000000	78.519609
512.000000	78.447542
511.000000	78.051609
510.000000	77.407096
509.000000	76.688302
508.000000	76.068033
507.000000	75.655091
506.000000	75.475828
505.000000	75.468447
504.000000	75.498137
503.000000	75.405955
502.000000	75.086501
501.000000	74.554246
500.000000	73.930949
499.000000	73.376926
498.000000	73.048965
497.000000	73.055264
496.000000	73.395019
495.000000	73.947143
494.000000	74.525503
493.000000	74.956828
492.000000	75.142605
491.000000	75.106361
490.000000	74.995496
489.000000	75.000660
488.000000	75.255116
487.000000	75.787409
486.000000	76.520542
485.000000	77.282572
484.000000	77.849719
483.000000	78.051893
482.000000	77.883995
481.000000	77.505690
480.000000	77.132083
479.000000	76.937122
478.000000	77.017754
477.000000	77.371263
476.000000	77.882080
475.000000	78.361074
474.000000	78.635626
473.000000	78.622220
472.000000	78.365073
471.000000	78.040152
470.000000	77.868647
469.000000	77.997508
468.000000	78.445229
467.000000	79.088076
466.000000	79.712535
465.000000	80.124190
464.000000	80.218702
463.000000	80.005459
462.000000	79.626366
461.000000	79.302975
460.000000	79.214892
459.000000	79.445010
458.000000	79.960687
457.000000	80.572745
456.000000	81.015221
455.000000	81.118479
454.000000	80.883566
453.000000	80.449924
452.000000	80.022538
451.000000	79.785293
450.000000	79.842822
449.000000	80.206269
448.000000	80.772947
447.000000	81.323853
446.000000	81.639321
445.000000	81.635073
444.000000	81.367510
443.000000	80.978651
442.000000	80.665526
441.000000	80.605838
440.000000	80.850228
439.000000	81.303728
438.000000	81.805631
437.000000	82.195627
436.000000	82.333726
435.000000	82.164134
434.000000	81.799492
433.000000	81.466051
432.000000	81.356135
431.000000	81.545833
430.000000	81.992776
429.000000	82.566025
428.000000	83.066386
427.000000	83.286718
426.000000	83.146446
425.000000	82.755344
424.000000	82.318531
423.000000	82.018119
422.000000	81.969160
421.000000	82.209336
420.000000	82.686957
419.000000	83.164730
418.000000	83.312430
417.000000	83.116013
416.000000	82.740943
415.000000	82.285715
414.000000	81.905797
413.000000	81.820370
412.000000	82.107965
411.000000	82.624277
410.000000	83.152178
409.000000	83.546473
408.000000	83.704303
407.000000	83.543261
406.000000	83.145263
405.000000	82.774098
404.000000	82.642107
403.000000	82.753856
402.000000	83.069198
401.000000	83.549164
400.000000	84.094193
