PE IR       SUBTECH     SPECTRUM    ASCII       PEDS        4.00        
   -1
23ms260,273,274_nitrito.asc
24/09/02
17:00:32.00
24/09/02
17:00:32.00
Administrator
Sample 1084 By Administrator Date Monday, September 02 2024
400.000000
#HDR
-1
-1
#GR
cm-1
%T
1.0
0.0
4000.000000
-1.000000
3601
8
89.184065
6.659183
#DATA
4000.000000	72.075514
3999.000000	72.130450
3998.000000	72.182993
3997.000000	72.232525
3996.000000	72.279391
3995.000000	72.324640
3994.000000	72.369901
3993.000000	72.416941
3992.000000	72.466759
3991.000000	72.519016
3990.000000	72.572455
3989.000000	72.625920
3988.000000	72.678846
3987.000000	72.730889
3986.000000	72.781779
3985.000000	72.831833
3984.000000	72.882240
3983.000000	72.934311
3982.000000	72.988301
3981.000000	73.043124
3980.000000	73.097213
3979.000000	73.149646
3978.000000	73.200401
3977.000000	73.249709
3976.000000	73.297726
3975.000000	73.344860
3974.000000	73.392006
3973.000000	73.440127
3972.000000	73.489607
3971.000000	73.539852
3970.000000	73.589374
3969.000000	73.636696
3968.000000	73.681600
3967.000000	73.725418
3966.000000	73.770132
3965.000000	73.817260
3964.000000	73.867288
3963.000000	73.919678
3962.000000	73.972925
3961.000000	74.024865
3960.000000	74.073710
3959.000000	74.119000
3958.000000	74.161346
3957.000000	74.201934
3956.000000	74.242583
3955.000000	74.285322
3954.000000	74.331428
3953.000000	74.380984
3952.000000	74.433131
3951.000000	74.486460
3950.000000	74.539000
3949.000000	74.588967
3948.000000	74.635659
3947.000000	74.679873
3946.000000	74.724094
3945.000000	74.771291
3944.000000	74.822547
3943.000000	74.875774
3942.000000	74.928021
3941.000000	74.978327
3940.000000	75.027274
3939.000000	75.075110
3938.000000	75.121420
3937.000000	75.166635
3936.000000	75.213792
3935.000000	75.266997
3934.000000	75.326898
3933.000000	75.388687
3932.000000	75.445433
3931.000000	75.493938
3930.000000	75.536312
3929.000000	75.576837
3928.000000	75.619098
3927.000000	75.664730
3926.000000	75.713184
3925.000000	75.761795
3924.000000	75.808974
3923.000000	75.857136
3922.000000	75.909120
3921.000000	75.964061
3920.000000	76.018855
3919.000000	76.072122
3918.000000	76.124029
3917.000000	76.172524
3916.000000	76.214603
3915.000000	76.251151
3914.000000	76.287080
3913.000000	76.325973
3912.000000	76.367437
3911.000000	76.410213
3910.000000	76.454716
3909.000000	76.501876
3908.000000	76.552321
3907.000000	76.607498
3906.000000	76.669082
3905.000000	76.736390
3904.000000	76.804910
3903.000000	76.870391
3902.000000	76.930089
3901.000000	76.980217
3900.000000	77.017127
3899.000000	77.041501
3898.000000	77.061783
3897.000000	77.088289
3896.000000	77.125467
3895.000000	77.171592
3894.000000	77.223151
3893.000000	77.275770
3892.000000	77.324333
3891.000000	77.365451
3890.000000	77.401907
3889.000000	77.442179
3888.000000	77.494546
3887.000000	77.559394
3886.000000	77.623946
3885.000000	77.675500
3884.000000	77.718617
3883.000000	77.765640
3882.000000	77.816562
3881.000000	77.860147
3880.000000	77.891121
3879.000000	77.918210
3878.000000	77.953447
3877.000000	78.000286
3876.000000	78.052954
3875.000000	78.101423
3874.000000	78.140812
3873.000000	78.179103
3872.000000	78.229735
3871.000000	78.292603
3870.000000	78.350051
3869.000000	78.390506
3868.000000	78.425188
3867.000000	78.470551
3866.000000	78.526157
3865.000000	78.576043
3864.000000	78.610994
3863.000000	78.642067
3862.000000	78.682261
3861.000000	78.728907
3860.000000	78.771632
3859.000000	78.802450
3858.000000	78.818603
3857.000000	78.828334
3856.000000	78.854855
3855.000000	78.919866
3854.000000	79.003469
3853.000000	79.063415
3852.000000	79.102646
3851.000000	79.147182
3850.000000	79.199208
3849.000000	79.250735
3848.000000	79.299092
3847.000000	79.348643
3846.000000	79.402904
3845.000000	79.459199
3844.000000	79.513810
3843.000000	79.566271
3842.000000	79.616582
3841.000000	79.665216
3840.000000	79.713878
3839.000000	79.763365
3838.000000	79.813026
3837.000000	79.861224
3836.000000	79.905924
3835.000000	79.946528
3834.000000	79.983505
3833.000000	80.018448
3832.000000	80.052905
3831.000000	80.089379
3830.000000	80.132357
3829.000000	80.183282
3828.000000	80.237763
3827.000000	80.289728
3826.000000	80.337122
3825.000000	80.385466
3824.000000	80.444899
3823.000000	80.516427
3822.000000	80.580340
3821.000000	80.615823
3820.000000	80.634705
3819.000000	80.665657
3818.000000	80.715594
3817.000000	80.769663
3816.000000	80.809427
3815.000000	80.833500
3814.000000	80.859875
3813.000000	80.900554
3812.000000	80.948150
3811.000000	80.991984
3810.000000	81.033740
3809.000000	81.083160
3808.000000	81.142448
3807.000000	81.201405
3806.000000	81.253418
3805.000000	81.305317
3804.000000	81.363623
3803.000000	81.422625
3802.000000	81.468344
3801.000000	81.497924
3800.000000	81.531405
3799.000000	81.584263
3798.000000	81.644360
3797.000000	81.691231
3796.000000	81.720207
3795.000000	81.744615
3794.000000	81.779121
3793.000000	81.824930
3792.000000	81.873249
3791.000000	81.918078
3790.000000	81.961907
3789.000000	82.009091
3788.000000	82.059643
3787.000000	82.109706
3786.000000	82.155780
3785.000000	82.198337
3784.000000	82.242643
3783.000000	82.295670
3782.000000	82.359339
3781.000000	82.425000
3780.000000	82.478656
3779.000000	82.516141
3778.000000	82.547702
3777.000000	82.584424
3776.000000	82.627719
3775.000000	82.673148
3774.000000	82.718284
3773.000000	82.766324
3772.000000	82.821800
3771.000000	82.882262
3770.000000	82.939412
3769.000000	82.991462
3768.000000	83.044479
3767.000000	83.099182
3766.000000	83.148442
3765.000000	83.188048
3764.000000	83.224162
3763.000000	83.268873
3762.000000	83.327198
3761.000000	83.390519
3760.000000	83.445763
3759.000000	83.492037
3758.000000	83.538917
3757.000000	83.588011
3756.000000	83.632961
3755.000000	83.674633
3754.000000	83.721264
3753.000000	83.776161
3752.000000	83.831291
3751.000000	83.880711
3750.000000	83.932239
3749.000000	83.989395
3748.000000	84.042141
3747.000000	84.088579
3746.000000	84.140204
3745.000000	84.198381
3744.000000	84.249450
3743.000000	84.298253
3742.000000	84.363207
3741.000000	84.439709
3740.000000	84.508659
3739.000000	84.565217
3738.000000	84.621845
3737.000000	84.686095
3736.000000	84.747564
3735.000000	84.795786
3734.000000	84.834737
3733.000000	84.870514
3732.000000	84.902079
3731.000000	84.931308
3730.000000	84.964950
3729.000000	85.006625
3728.000000	85.054525
3727.000000	85.103016
3726.000000	85.148426
3725.000000	85.194208
3724.000000	85.245298
3723.000000	85.298689
3722.000000	85.347584
3721.000000	85.390820
3720.000000	85.431302
3719.000000	85.471175
3718.000000	85.511837
3717.000000	85.553479
3716.000000	85.598206
3715.000000	85.651543
3714.000000	85.715379
3713.000000	85.780945
3712.000000	85.834588
3711.000000	85.875941
3710.000000	85.918236
3709.000000	85.967687
3708.000000	86.020126
3707.000000	86.070535
3706.000000	86.117580
3705.000000	86.163458
3704.000000	86.209492
3703.000000	86.253466
3702.000000	86.292083
3701.000000	86.328806
3700.000000	86.371094
3699.000000	86.420847
3698.000000	86.472397
3697.000000	86.518347
3696.000000	86.557466
3695.000000	86.598272
3694.000000	86.650031
3693.000000	86.710775
3692.000000	86.770987
3691.000000	86.824257
3690.000000	86.870062
3689.000000	86.909703
3688.000000	86.947659
3687.000000	86.988913
3686.000000	87.033904
3685.000000	87.079555
3684.000000	87.121659
3683.000000	87.160054
3682.000000	87.197221
3681.000000	87.233731
3680.000000	87.266509
3679.000000	87.296453
3678.000000	87.333542
3677.000000	87.382854
3676.000000	87.426421
3675.000000	87.452989
3674.000000	87.486313
3673.000000	87.542140
3672.000000	87.604483
3671.000000	87.645980
3670.000000	87.652189
3669.000000	87.643167
3668.000000	87.653817
3667.000000	87.688840
3666.000000	87.728351
3665.000000	87.758168
3664.000000	87.778100
3663.000000	87.795229
3662.000000	87.813848
3661.000000	87.831418
3660.000000	87.844001
3659.000000	87.851698
3658.000000	87.856552
3657.000000	87.859694
3656.000000	87.865651
3655.000000	87.885572
3654.000000	87.926356
3653.000000	87.980017
3652.000000	88.027938
3651.000000	88.049317
3650.000000	88.032398
3649.000000	87.990039
3648.000000	87.951074
3647.000000	87.930254
3646.000000	87.922947
3645.000000	87.920032
3644.000000	87.913781
3643.000000	87.899798
3642.000000	87.877593
3641.000000	87.849856
3640.000000	87.821237
3639.000000	87.795050
3638.000000	87.771753
3637.000000	87.751108
3636.000000	87.733322
3635.000000	87.717124
3634.000000	87.698588
3633.000000	87.676482
3632.000000	87.655327
3631.000000	87.638127
3630.000000	87.615322
3629.000000	87.573991
3628.000000	87.528833
3627.000000	87.507416
3626.000000	87.506066
3625.000000	87.500975
3624.000000	87.479982
3623.000000	87.446636
3622.000000	87.408400
3621.000000	87.365826
3620.000000	87.314308
3619.000000	87.257752
3618.000000	87.210732
3617.000000	87.179170
3616.000000	87.152943
3615.000000	87.118485
3614.000000	87.069440
3613.000000	87.011394
3612.000000	86.958552
3611.000000	86.920007
3610.000000	86.890290
3609.000000	86.855937
3608.000000	86.811445
3607.000000	86.765314
3606.000000	86.726140
3605.000000	86.690815
3604.000000	86.650701
3603.000000	86.601270
3602.000000	86.544106
3601.000000	86.484390
3600.000000	86.427557
3599.000000	86.377253
3598.000000	86.332655
3597.000000	86.288328
3596.000000	86.240353
3595.000000	86.189678
3594.000000	86.139239
3593.000000	86.091319
3592.000000	86.047118
3591.000000	86.005856
3590.000000	85.965188
3589.000000	85.921233
3588.000000	85.872093
3587.000000	85.822838
3586.000000	85.779637
3585.000000	85.738648
3584.000000	85.690044
3583.000000	85.629040
3582.000000	85.557392
3581.000000	85.480525
3580.000000	85.405100
3579.000000	85.336385
3578.000000	85.274997
3577.000000	85.217712
3576.000000	85.162060
3575.000000	85.108435
3574.000000	85.057839
3573.000000	85.009848
3572.000000	84.963935
3571.000000	84.918789
3570.000000	84.871324
3569.000000	84.816768
3568.000000	84.752462
3567.000000	84.683315
3566.000000	84.620136
3565.000000	84.566941
3564.000000	84.516860
3563.000000	84.460983
3562.000000	84.394662
3561.000000	84.318712
3560.000000	84.238572
3559.000000	84.160448
3558.000000	84.086983
3557.000000	84.017520
3556.000000	83.951299
3555.000000	83.887870
3554.000000	83.825112
3553.000000	83.760325
3552.000000	83.694450
3551.000000	83.631467
3550.000000	83.572822
3549.000000	83.515881
3548.000000	83.457496
3547.000000	83.396043
3546.000000	83.330130
3545.000000	83.258551
3544.000000	83.181958
3543.000000	83.102539
3542.000000	83.021655
3541.000000	82.940213
3540.000000	82.860568
3539.000000	82.784870
3538.000000	82.711375
3537.000000	82.635378
3536.000000	82.555623
3535.000000	82.476262
3534.000000	82.401450
3533.000000	82.331049
3532.000000	82.262268
3531.000000	82.192579
3530.000000	82.120327
3529.000000	82.045575
3528.000000	81.971763
3527.000000	81.903451
3526.000000	81.840449
3525.000000	81.776137
3524.000000	81.703316
3523.000000	81.620765
3522.000000	81.533172
3521.000000	81.446039
3520.000000	81.361959
3519.000000	81.280432
3518.000000	81.199754
3517.000000	81.119438
3516.000000	81.040762
3515.000000	80.963917
3514.000000	80.885854
3513.000000	80.803215
3512.000000	80.716156
3511.000000	80.627158
3510.000000	80.537729
3509.000000	80.448705
3508.000000	80.362116
3507.000000	80.279447
3506.000000	80.198498
3505.000000	80.114480
3504.000000	80.024495
3503.000000	79.929410
3502.000000	79.831556
3501.000000	79.732734
3500.000000	79.633966
3499.000000	79.534550
3498.000000	79.431451
3497.000000	79.322682
3496.000000	79.211147
3495.000000	79.101934
3494.000000	78.996050
3493.000000	78.890184
3492.000000	78.782097
3491.000000	78.672492
3490.000000	78.561798
3489.000000	78.449115
3488.000000	78.334546
3487.000000	78.219510
3486.000000	78.104161
3485.000000	77.987192
3484.000000	77.868677
3483.000000	77.750208
3482.000000	77.631764
3481.000000	77.510794
3480.000000	77.384833
3479.000000	77.253411
3478.000000	77.117555
3477.000000	76.979566
3476.000000	76.842998
3475.000000	76.710614
3474.000000	76.582428
3473.000000	76.456912
3472.000000	76.333116
3471.000000	76.209355
3470.000000	76.081074
3469.000000	75.943483
3468.000000	75.796186
3467.000000	75.642990
3466.000000	75.487868
3465.000000	75.333143
3464.000000	75.180272
3463.000000	75.029102
3462.000000	74.876614
3461.000000	74.719183
3460.000000	74.556131
3459.000000	74.389623
3458.000000	74.222116
3457.000000	74.055791
3456.000000	73.892845
3455.000000	73.733116
3454.000000	73.572698
3453.000000	73.407542
3452.000000	73.237516
3451.000000	73.064779
3450.000000	72.889256
3449.000000	72.708963
3448.000000	72.524273
3447.000000	72.338862
3446.000000	72.155878
3445.000000	71.974683
3444.000000	71.791663
3443.000000	71.603007
3442.000000	71.407364
3441.000000	71.207613
3440.000000	71.008833
3439.000000	70.812994
3438.000000	70.616756
3437.000000	70.415505
3436.000000	70.207746
3435.000000	69.993988
3434.000000	69.774100
3433.000000	69.548234
3432.000000	69.317731
3431.000000	69.082977
3430.000000	68.842039
3429.000000	68.593911
3428.000000	68.341441
3427.000000	68.088304
3426.000000	67.835109
3425.000000	67.580423
3424.000000	67.323215
3423.000000	67.061719
3422.000000	66.792131
3421.000000	66.512246
3420.000000	66.225056
3419.000000	65.935739
3418.000000	65.646686
3417.000000	65.357369
3416.000000	65.066586
3415.000000	64.771768
3414.000000	64.468110
3413.000000	64.152313
3412.000000	63.825711
3411.000000	63.491552
3410.000000	63.150890
3409.000000	62.803346
3408.000000	62.450166
3407.000000	62.093210
3406.000000	61.732481
3405.000000	61.367000
3404.000000	60.996299
3403.000000	60.618959
3402.000000	60.231390
3401.000000	59.830800
3400.000000	59.418250
3399.000000	58.996833
3398.000000	58.568942
3397.000000	58.136624
3396.000000	57.701463
3395.000000	57.261718
3394.000000	56.811675
3393.000000	56.346939
3392.000000	55.868709
3391.000000	55.380833
3390.000000	54.885754
3389.000000	54.384597
3388.000000	53.878361
3387.000000	53.366122
3386.000000	52.844395
3385.000000	52.311393
3384.000000	51.769061
3383.000000	51.219534
3382.000000	50.662339
3381.000000	50.097016
3380.000000	49.525737
3379.000000	48.950397
3378.000000	48.369769
3377.000000	47.781743
3376.000000	47.185625
3375.000000	46.580829
3374.000000	45.965910
3373.000000	45.340964
3372.000000	44.708753
3371.000000	44.071301
3370.000000	43.428583
3369.000000	42.781097
3368.000000	42.130447
3367.000000	41.476198
3366.000000	40.815443
3365.000000	40.147318
3364.000000	39.474261
3363.000000	38.797886
3362.000000	38.117666
3361.000000	37.434657
3360.000000	36.752493
3359.000000	36.072866
3358.000000	35.393691
3357.000000	34.713407
3356.000000	34.032886
3355.000000	33.352009
3354.000000	32.668601
3353.000000	31.982511
3352.000000	31.297281
3351.000000	30.616375
3350.000000	29.940990
3349.000000	29.272110
3348.000000	28.610623
3347.000000	27.954408
3346.000000	27.299730
3345.000000	26.646437
3344.000000	25.998144
3343.000000	25.357100
3342.000000	24.722787
3341.000000	24.096021
3340.000000	23.479587
3339.000000	22.874187
3338.000000	22.278341
3337.000000	21.692307
3336.000000	21.118006
3335.000000	20.554733
3334.000000	19.999623
3333.000000	19.453071
3332.000000	18.918474
3331.000000	18.396912
3330.000000	17.886444
3329.000000	17.386411
3328.000000	16.898625
3327.000000	16.423656
3326.000000	15.961155
3325.000000	15.513330
3324.000000	15.082907
3323.000000	14.668715
3322.000000	14.267224
3321.000000	13.878156
3320.000000	13.504106
3319.000000	13.144597
3318.000000	12.796913
3317.000000	12.461052
3316.000000	12.139112
3315.000000	11.830485
3314.000000	11.532128
3313.000000	11.243662
3312.000000	10.966750
3311.000000	10.700321
3310.000000	10.442202
3309.000000	10.193922
3308.000000	9.959651
3307.000000	9.740843
3306.000000	9.536670
3305.000000	9.348676
3304.000000	9.178143
3303.000000	9.020923
3302.000000	8.870113
3301.000000	8.723096
3300.000000	8.581465
3299.000000	8.445053
3298.000000	8.312297
3297.000000	8.185187
3296.000000	8.067441
3295.000000	7.958932
3294.000000	7.856998
3293.000000	7.762687
3292.000000	7.679940
3291.000000	7.608590
3290.000000	7.544368
3289.000000	7.484599
3288.000000	7.429140
3287.000000	7.376688
3286.000000	7.325305
3285.000000	7.276578
3284.000000	7.233635
3283.000000	7.196031
3282.000000	7.161160
3281.000000	7.129289
3280.000000	7.102369
3279.000000	7.078865
3278.000000	7.055362
3277.000000	7.032320
3276.000000	7.012814
3275.000000	6.996575
3274.000000	6.980537
3273.000000	6.964937
3272.000000	6.953798
3271.000000	6.949520
3270.000000	6.951459
3269.000000	6.958728
3268.000000	6.969830
3267.000000	6.980772
3266.000000	6.988151
3265.000000	6.993535
3264.000000	7.000763
3263.000000	7.010113
3262.000000	7.019476
3261.000000	7.029194
3260.000000	7.040916
3259.000000	7.053223
3258.000000	7.063425
3257.000000	7.072736
3256.000000	7.084756
3255.000000	7.100002
3254.000000	7.116270
3253.000000	7.133092
3252.000000	7.151134
3251.000000	7.168518
3250.000000	7.182617
3249.000000	7.194715
3248.000000	7.208631
3247.000000	7.225613
3246.000000	7.244413
3245.000000	7.264814
3244.000000	7.286984
3243.000000	7.308834
3242.000000	7.328291
3241.000000	7.346784
3240.000000	7.366606
3239.000000	7.386388
3238.000000	7.403170
3237.000000	7.417115
3236.000000	7.430415
3235.000000	7.443660
3234.000000	7.457292
3233.000000	7.474274
3232.000000	7.496610
3231.000000	7.521076
3230.000000	7.542818
3229.000000	7.561364
3228.000000	7.578954
3227.000000	7.595327
3226.000000	7.608840
3225.000000	7.620789
3224.000000	7.633716
3223.000000	7.647025
3222.000000	7.658554
3221.000000	7.668862
3220.000000	7.679676
3219.000000	7.689838
3218.000000	7.697182
3217.000000	7.702678
3216.000000	7.708546
3215.000000	7.714076
3214.000000	7.717311
3213.000000	7.719009
3212.000000	7.720704
3211.000000	7.720890
3210.000000	7.717377
3209.000000	7.711406
3208.000000	7.705438
3207.000000	7.698862
3206.000000	7.689942
3205.000000	7.679895
3204.000000	7.670656
3203.000000	7.660767
3202.000000	7.647703
3201.000000	7.632229
3200.000000	7.616419
3199.000000	7.599407
3198.000000	7.579369
3197.000000	7.557564
3196.000000	7.536159
3195.000000	7.514209
3194.000000	7.489854
3193.000000	7.464325
3192.000000	7.439703
3191.000000	7.414828
3190.000000	7.387656
3189.000000	7.359337
3188.000000	7.331876
3187.000000	7.304066
3186.000000	7.273925
3185.000000	7.242963
3184.000000	7.213791
3183.000000	7.185730
3182.000000	7.156876
3181.000000	7.128160
3180.000000	7.101192
3179.000000	7.074461
3178.000000	7.045890
3177.000000	7.016931
3176.000000	6.989996
3175.000000	6.964189
3174.000000	6.937716
3173.000000	6.912037
3172.000000	6.889363
3171.000000	6.868418
3170.000000	6.846835
3169.000000	6.825483
3168.000000	6.806422
3167.000000	6.788836
3166.000000	6.771150
3165.000000	6.754700
3164.000000	6.741309
3163.000000	6.729632
3162.000000	6.717764
3161.000000	6.707033
3160.000000	6.699222
3159.000000	6.692689
3158.000000	6.685172
3157.000000	6.677684
3156.000000	6.671863
3155.000000	6.666497
3154.000000	6.660970
3153.000000	6.659183
3152.000000	6.665166
3151.000000	6.677274
3150.000000	6.690930
3149.000000	6.704690
3148.000000	6.719514
3147.000000	6.734711
3146.000000	6.749262
3145.000000	6.764814
3144.000000	6.782922
3143.000000	6.801583
3142.000000	6.818578
3141.000000	6.836201
3140.000000	6.858618
3139.000000	6.886512
3138.000000	6.918126
3137.000000	6.953017
3136.000000	6.990952
3135.000000	7.029512
3134.000000	7.066611
3133.000000	7.103598
3132.000000	7.142440
3131.000000	7.182445
3130.000000	7.222991
3129.000000	7.266352
3128.000000	7.314227
3127.000000	7.364219
3126.000000	7.413381
3125.000000	7.462289
3124.000000	7.512022
3123.000000	7.560664
3122.000000	7.606981
3121.000000	7.654413
3120.000000	7.707069
3119.000000	7.764341
3118.000000	7.823772
3117.000000	7.886331
3116.000000	7.954369
3115.000000	8.026784
3114.000000	8.100255
3113.000000	8.173230
3112.000000	8.245085
3111.000000	8.314251
3110.000000	8.381151
3109.000000	8.450333
3108.000000	8.525583
3107.000000	8.605087
3106.000000	8.684836
3105.000000	8.764081
3104.000000	8.843740
3103.000000	8.922651
3102.000000	8.999836
3101.000000	9.078001
3100.000000	9.160538
3099.000000	9.246807
3098.000000	9.334132
3097.000000	9.422152
3096.000000	9.511459
3095.000000	9.600362
3094.000000	9.686931
3093.000000	9.772435
3092.000000	9.859468
3091.000000	9.948540
3090.000000	10.039378
3089.000000	10.132923
3088.000000	10.228916
3087.000000	10.324303
3086.000000	10.417394
3085.000000	10.511071
3084.000000	10.608410
3083.000000	10.707837
3082.000000	10.806228
3081.000000	10.904139
3080.000000	11.004480
3079.000000	11.108350
3078.000000	11.215646
3077.000000	11.327239
3076.000000	11.442774
3075.000000	11.558639
3074.000000	11.671624
3073.000000	11.782556
3072.000000	11.893359
3071.000000	12.003099
3070.000000	12.110507
3069.000000	12.217983
3068.000000	12.329325
3067.000000	12.445332
3066.000000	12.564634
3065.000000	12.686807
3064.000000	12.811485
3063.000000	12.936514
3062.000000	13.060183
3061.000000	13.183378
3060.000000	13.307010
3059.000000	13.429701
3058.000000	13.550662
3057.000000	13.672361
3056.000000	13.797202
3055.000000	13.923895
3054.000000	14.050107
3053.000000	14.176432
3052.000000	14.304803
3051.000000	14.435098
3050.000000	14.566081
3049.000000	14.697506
3048.000000	14.828684
3047.000000	14.957369
3046.000000	15.082837
3045.000000	15.207896
3044.000000	15.335505
3043.000000	15.465752
3042.000000	15.598277
3041.000000	15.734447
3040.000000	15.874049
3039.000000	16.012749
3038.000000	16.146294
3037.000000	16.275281
3036.000000	16.403271
3035.000000	16.532509
3034.000000	16.663927
3033.000000	16.798572
3032.000000	16.935834
3031.000000	17.072490
3030.000000	17.206282
3029.000000	17.338338
3028.000000	17.470040
3027.000000	17.600439
3026.000000	17.729319
3025.000000	17.859587
3024.000000	17.993266
3023.000000	18.127758
3022.000000	18.259290
3021.000000	18.387751
3020.000000	18.515119
3019.000000	18.641545
3018.000000	18.766309
3017.000000	18.890528
3016.000000	19.015814
3015.000000	19.142057
3014.000000	19.269249
3013.000000	19.399436
3012.000000	19.533999
3011.000000	19.670952
3010.000000	19.807431
3009.000000	19.942946
3008.000000	20.077863
3007.000000	20.211131
3006.000000	20.342159
3005.000000	20.472736
3004.000000	20.604423
3003.000000	20.735779
3002.000000	20.864555
3001.000000	20.990667
3000.000000	21.115087
2999.000000	21.238144
2998.000000	21.361036
2997.000000	21.486356
2996.000000	21.614606
2995.000000	21.742748
2994.000000	21.868804
2993.000000	21.995293
2992.000000	22.125282
2991.000000	22.257561
2990.000000	22.388741
2989.000000	22.517915
2988.000000	22.646199
2987.000000	22.773751
2986.000000	22.900239
2985.000000	23.026490
2984.000000	23.152887
2983.000000	23.277881
2982.000000	23.400765
2981.000000	23.524087
2980.000000	23.650536
2979.000000	23.779055
2978.000000	23.906718
2977.000000	24.032837
2976.000000	24.158765
2975.000000	24.285271
2974.000000	24.412587
2973.000000	24.541325
2972.000000	24.670929
2971.000000	24.798841
2970.000000	24.923575
2969.000000	25.047050
2968.000000	25.171632
2967.000000	25.296808
2966.000000	25.420993
2965.000000	25.544589
2964.000000	25.668659
2963.000000	25.792442
2962.000000	25.914851
2961.000000	26.036647
2960.000000	26.158716
2959.000000	26.280089
2958.000000	26.399860
2957.000000	26.518983
2956.000000	26.637807
2955.000000	26.754352
2954.000000	26.867686
2953.000000	26.980549
2952.000000	27.095631
2951.000000	27.211330
2950.000000	27.324374
2949.000000	27.434727
2948.000000	27.544947
2947.000000	27.656454
2946.000000	27.769469
2945.000000	27.885063
2944.000000	28.003976
2943.000000	28.124247
2942.000000	28.242698
2941.000000	28.358172
2940.000000	28.471335
2939.000000	28.582682
2938.000000	28.692920
2937.000000	28.803875
2936.000000	28.916539
2935.000000	29.029122
2934.000000	29.139105
2933.000000	29.246068
2932.000000	29.350871
2931.000000	29.453863
2930.000000	29.556018
2929.000000	29.659964
2928.000000	29.767349
2927.000000	29.876573
2926.000000	29.985232
2925.000000	30.093036
2924.000000	30.200316
2923.000000	30.305687
2922.000000	30.407859
2921.000000	30.508001
2920.000000	30.607967
2919.000000	30.707856
2918.000000	30.807436
2917.000000	30.907996
2916.000000	31.010185
2915.000000	31.111588
2914.000000	31.208872
2913.000000	31.301224
2912.000000	31.389905
2911.000000	31.476071
2910.000000	31.561229
2909.000000	31.648257
2908.000000	31.739434
2907.000000	31.834130
2906.000000	31.929967
2905.000000	32.025201
2904.000000	32.118496
2903.000000	32.208148
2902.000000	32.293705
2901.000000	32.377220
2900.000000	32.461290
2899.000000	32.546817
2898.000000	32.633594
2897.000000	32.721462
2896.000000	32.809109
2895.000000	32.893662
2894.000000	32.973500
2893.000000	33.050220
2892.000000	33.126152
2891.000000	33.201555
2890.000000	33.275975
2889.000000	33.350551
2888.000000	33.426651
2887.000000	33.503409
2886.000000	33.578598
2885.000000	33.650859
2884.000000	33.719359
2883.000000	33.782739
2882.000000	33.840452
2881.000000	33.894133
2880.000000	33.945929
2879.000000	33.996597
2878.000000	34.046751
2877.000000	34.098227
2876.000000	34.151909
2875.000000	34.205347
2874.000000	34.254953
2873.000000	34.299973
2872.000000	34.342869
2871.000000	34.386995
2870.000000	34.435619
2869.000000	34.491884
2868.000000	34.557141
2867.000000	34.629702
2866.000000	34.706822
2865.000000	34.787196
2864.000000	34.870499
2863.000000	34.956010
2862.000000	35.043498
2861.000000	35.134254
2860.000000	35.229409
2859.000000	35.328166
2858.000000	35.429133
2857.000000	35.532066
2856.000000	35.636652
2855.000000	35.741015
2854.000000	35.843297
2853.000000	35.943635
2852.000000	36.043112
2851.000000	36.141989
2850.000000	36.240508
2849.000000	36.339827
2848.000000	36.440244
2847.000000	36.539639
2846.000000	36.635430
2845.000000	36.727091
2844.000000	36.815364
2843.000000	36.900464
2842.000000	36.982896
2841.000000	37.064825
2840.000000	37.148580
2839.000000	37.234402
2838.000000	37.320971
2837.000000	37.407144
2836.000000	37.491655
2835.000000	37.572399
2834.000000	37.648097
2833.000000	37.720162
2832.000000	37.791407
2831.000000	37.863624
2830.000000	37.937602
2829.000000	38.014193
2828.000000	38.093389
2827.000000	38.173035
2826.000000	38.250199
2825.000000	38.323462
2824.000000	38.392905
2823.000000	38.458902
2822.000000	38.522503
2821.000000	38.586062
2820.000000	38.651692
2819.000000	38.719491
2818.000000	38.788354
2817.000000	38.857556
2816.000000	38.926195
2815.000000	38.992226
2814.000000	39.054013
2813.000000	39.112414
2812.000000	39.170016
2811.000000	39.228911
2810.000000	39.290274
2809.000000	39.354911
2808.000000	39.422392
2807.000000	39.490354
2806.000000	39.556260
2805.000000	39.619495
2804.000000	39.680662
2803.000000	39.739929
2802.000000	39.797654
2801.000000	39.855647
2800.000000	39.915928
2799.000000	39.978558
2798.000000	40.041970
2797.000000	40.104753
2796.000000	40.165838
2795.000000	40.223951
2794.000000	40.278729
2793.000000	40.331951
2792.000000	40.386174
2791.000000	40.442507
2790.000000	40.500763
2789.000000	40.560707
2788.000000	40.621433
2787.000000	40.680357
2786.000000	40.734839
2785.000000	40.784744
2784.000000	40.832203
2783.000000	40.879457
2782.000000	40.928136
2781.000000	40.979646
2780.000000	41.034169
2779.000000	41.089468
2778.000000	41.142265
2777.000000	41.190776
2776.000000	41.235096
2775.000000	41.275986
2774.000000	41.314855
2773.000000	41.354365
2772.000000	41.397221
2771.000000	41.444260
2770.000000	41.494541
2769.000000	41.546563
2768.000000	41.598165
2767.000000	41.646210
2766.000000	41.688328
2765.000000	41.725004
2764.000000	41.758926
2763.000000	41.792808
2762.000000	41.828861
2761.000000	41.869219
2760.000000	41.914737
2759.000000	41.963438
2758.000000	42.011640
2757.000000	42.056561
2756.000000	42.097068
2755.000000	42.132923
2754.000000	42.165080
2753.000000	42.196294
2752.000000	42.229668
2751.000000	42.266525
2750.000000	42.306528
2749.000000	42.349020
2748.000000	42.392775
2747.000000	42.435168
2746.000000	42.473597
2745.000000	42.507794
2744.000000	42.539537
2743.000000	42.570536
2742.000000	42.601898
2741.000000	42.634912
2740.000000	42.670424
2739.000000	42.707424
2738.000000	42.743817
2737.000000	42.778598
2736.000000	42.812142
2735.000000	42.844856
2734.000000	42.877068
2733.000000	42.909893
2732.000000	42.944490
2731.000000	42.980381
2730.000000	43.015783
2729.000000	43.049527
2728.000000	43.081496
2727.000000	43.111540
2726.000000	43.139544
2725.000000	43.166594
2724.000000	43.194643
2723.000000	43.224805
2722.000000	43.256854
2721.000000	43.290027
2720.000000	43.323134
2719.000000	43.354157
2718.000000	43.381286
2717.000000	43.404672
2716.000000	43.426356
2715.000000	43.448700
2714.000000	43.473674
2713.000000	43.502887
2712.000000	43.536640
2711.000000	43.572858
2710.000000	43.608103
2709.000000	43.639661
2708.000000	43.666097
2707.000000	43.686753
2706.000000	43.702299
2705.000000	43.715617
2704.000000	43.730587
2703.000000	43.749632
2702.000000	43.772899
2701.000000	43.798919
2700.000000	43.824875
2699.000000	43.846893
2698.000000	43.862002
2697.000000	43.870298
2696.000000	43.874419
2695.000000	43.877393
2694.000000	43.881877
2693.000000	43.890391
2692.000000	43.904164
2691.000000	43.921492
2690.000000	43.938609
2689.000000	43.952349
2688.000000	43.961229
2687.000000	43.964813
2686.000000	43.963751
2685.000000	43.960423
2684.000000	43.957997
2683.000000	43.958407
2682.000000	43.961892
2681.000000	43.967872
2680.000000	43.974969
2679.000000	43.980635
2678.000000	43.982497
2677.000000	43.980483
2676.000000	43.976781
2675.000000	43.973889
2674.000000	43.973603
2673.000000	43.977361
2672.000000	43.985902
2671.000000	43.998547
2670.000000	44.013889
2669.000000	44.031275
2668.000000	44.051163
2667.000000	44.074366
2666.000000	44.102124
2665.000000	44.136341
2664.000000	44.178182
2663.000000	44.226776
2662.000000	44.279892
2661.000000	44.335681
2660.000000	44.393013
2659.000000	44.450763
2658.000000	44.508540
2657.000000	44.567695
2656.000000	44.630389
2655.000000	44.697684
2654.000000	44.769037
2653.000000	44.843121
2652.000000	44.917857
2651.000000	44.990166
2650.000000	45.057297
2649.000000	45.118645
2648.000000	45.175680
2647.000000	45.230580
2646.000000	45.285785
2645.000000	45.343876
2644.000000	45.406073
2643.000000	45.470593
2642.000000	45.533617
2641.000000	45.591872
2640.000000	45.643589
2639.000000	45.688099
2638.000000	45.726272
2637.000000	45.761325
2636.000000	45.797593
2635.000000	45.837840
2634.000000	45.882379
2633.000000	45.930047
2632.000000	45.978618
2631.000000	46.024679
2630.000000	46.064886
2629.000000	46.098138
2628.000000	46.125871
2627.000000	46.150494
2626.000000	46.174544
2625.000000	46.200660
2624.000000	46.230580
2623.000000	46.263663
2622.000000	46.297337
2621.000000	46.329188
2620.000000	46.357843
2619.000000	46.382556
2618.000000	46.403611
2617.000000	46.423198
2616.000000	46.444521
2615.000000	46.469506
2614.000000	46.497988
2613.000000	46.528639
2612.000000	46.559452
2611.000000	46.587758
2610.000000	46.611431
2609.000000	46.630542
2608.000000	46.646928
2607.000000	46.662105
2606.000000	46.676555
2605.000000	46.690336
2604.000000	46.702891
2603.000000	46.712350
2602.000000	46.716377
2601.000000	46.714263
2600.000000	46.707219
2599.000000	46.697047
2598.000000	46.685937
2597.000000	46.677048
2596.000000	46.673444
2595.000000	46.675992
2594.000000	46.683438
2593.000000	46.694525
2592.000000	46.709158
2591.000000	46.727697
2590.000000	46.751151
2589.000000	46.782327
2588.000000	46.824829
2587.000000	46.880854
2586.000000	46.950131
2585.000000	47.030876
2584.000000	47.120523
2583.000000	47.215098
2582.000000	47.310378
2581.000000	47.404229
2580.000000	47.497427
2579.000000	47.592346
2578.000000	47.691332
2577.000000	47.796435
2576.000000	47.908652
2575.000000	48.026591
2574.000000	48.146725
2573.000000	48.265201
2572.000000	48.379210
2571.000000	48.487175
2570.000000	48.589339
2569.000000	48.688603
2568.000000	48.789326
2567.000000	48.894367
2566.000000	49.003629
2565.000000	49.115311
2564.000000	49.227145
2563.000000	49.336366
2562.000000	49.440125
2561.000000	49.537175
2560.000000	49.628768
2559.000000	49.717442
2558.000000	49.805779
2557.000000	49.896076
2556.000000	49.989546
2555.000000	50.085019
2554.000000	50.179206
2553.000000	50.269142
2552.000000	50.353780
2551.000000	50.433261
2550.000000	50.508333
2549.000000	50.580861
2548.000000	50.653584
2547.000000	50.728027
2546.000000	50.803156
2545.000000	50.876666
2544.000000	50.946286
2543.000000	51.009835
2542.000000	51.065652
2541.000000	51.114099
2540.000000	51.158057
2539.000000	51.200517
2538.000000	51.242479
2537.000000	51.283144
2536.000000	51.320451
2535.000000	51.351087
2534.000000	51.370915
2533.000000	51.377270
2532.000000	51.370557
2531.000000	51.353022
2530.000000	51.327694
2529.000000	51.298348
2528.000000	51.268862
2527.000000	51.241184
2526.000000	51.214346
2525.000000	51.186688
2524.000000	51.158065
2523.000000	51.129812
2522.000000	51.104195
2521.000000	51.085119
2520.000000	51.077709
2519.000000	51.086053
2518.000000	51.111555
2517.000000	51.153119
2516.000000	51.208229
2515.000000	51.272521
2514.000000	51.340464
2513.000000	51.408125
2512.000000	51.474560
2511.000000	51.541021
2510.000000	51.609331
2509.000000	51.681547
2508.000000	51.759316
2507.000000	51.841798
2506.000000	51.925133
2505.000000	52.004776
2504.000000	52.077869
2503.000000	52.143202
2502.000000	52.200781
2501.000000	52.252566
2500.000000	52.302440
2499.000000	52.353827
2498.000000	52.407417
2497.000000	52.461924
2496.000000	52.515512
2495.000000	52.565821
2494.000000	52.610243
2493.000000	52.647675
2492.000000	52.679776
2491.000000	52.709432
2490.000000	52.738931
2489.000000	52.770004
2488.000000	52.803736
2487.000000	52.839147
2486.000000	52.872829
2485.000000	52.901507
2484.000000	52.924543
2483.000000	52.943200
2482.000000	52.959071
2481.000000	52.974301
2480.000000	52.991840
2479.000000	53.013630
2478.000000	53.038852
2477.000000	53.064919
2476.000000	53.089282
2475.000000	53.109707
2474.000000	53.124507
2473.000000	53.134120
2472.000000	53.141786
2471.000000	53.151361
2470.000000	53.165003
2469.000000	53.183358
2468.000000	53.206211
2467.000000	53.231538
2466.000000	53.255209
2465.000000	53.273426
2464.000000	53.285261
2463.000000	53.292334
2462.000000	53.297375
2461.000000	53.304018
2460.000000	53.316192
2459.000000	53.335647
2458.000000	53.360506
2457.000000	53.387082
2456.000000	53.412280
2455.000000	53.433721
2454.000000	53.449470
2453.000000	53.459697
2452.000000	53.467737
2451.000000	53.477967
2450.000000	53.493087
2449.000000	53.513885
2448.000000	53.539981
2447.000000	53.569232
2446.000000	53.597659
2445.000000	53.621834
2444.000000	53.641064
2443.000000	53.656748
2442.000000	53.670908
2441.000000	53.686264
2440.000000	53.706061
2439.000000	53.731865
2438.000000	53.762115
2437.000000	53.793874
2436.000000	53.824970
2435.000000	53.853726
2434.000000	53.878504
2433.000000	53.899398
2432.000000	53.919353
2431.000000	53.941892
2430.000000	53.968416
2429.000000	53.998532
2428.000000	54.031466
2427.000000	54.065679
2426.000000	54.098473
2425.000000	54.127987
2424.000000	54.154966
2423.000000	54.181505
2422.000000	54.209188
2421.000000	54.239459
2420.000000	54.274095
2419.000000	54.313317
2418.000000	54.354395
2417.000000	54.393751
2416.000000	54.429627
2415.000000	54.461749
2414.000000	54.490164
2413.000000	54.516378
2412.000000	54.544328
2411.000000	54.577859
2410.000000	54.617632
2409.000000	54.661564
2408.000000	54.707055
2407.000000	54.751376
2406.000000	54.791426
2405.000000	54.825620
2404.000000	54.855762
2403.000000	54.885635
2402.000000	54.918488
2401.000000	54.956698
2400.000000	55.002017
2399.000000	55.053943
2398.000000	55.108628
2397.000000	55.161307
2396.000000	55.209387
2395.000000	55.252493
2394.000000	55.291264
2393.000000	55.328044
2392.000000	55.367361
2391.000000	55.413421
2390.000000	55.467371
2389.000000	55.527699
2388.000000	55.592249
2387.000000	55.657923
2386.000000	55.720688
2385.000000	55.778579
2384.000000	55.833556
2383.000000	55.890070
2382.000000	55.951529
2381.000000	56.020003
2380.000000	56.097279
2379.000000	56.182529
2378.000000	56.271191
2377.000000	56.357571
2376.000000	56.438142
2375.000000	56.511728
2374.000000	56.578659
2373.000000	56.642016
2372.000000	56.707722
2371.000000	56.780159
2370.000000	56.858182
2369.000000	56.939132
2368.000000	57.022275
2367.000000	57.106120
2366.000000	57.185922
2365.000000	57.258746
2364.000000	57.329216
2363.000000	57.399561
2362.000000	57.469244
2361.000000	57.541445
2360.000000	57.617301
2359.000000	57.698580
2358.000000	57.779318
2357.000000	57.853324
2356.000000	57.921539
2355.000000	57.982546
2354.000000	58.040012
2353.000000	58.099983
2352.000000	58.176669
2351.000000	58.273641
2350.000000	58.371096
2349.000000	58.453479
2348.000000	58.519596
2347.000000	58.590173
2346.000000	58.674451
2345.000000	58.759665
2344.000000	58.833523
2343.000000	58.891732
2342.000000	58.950675
2341.000000	59.018639
2340.000000	59.096750
2339.000000	59.180446
2338.000000	59.264453
2337.000000	59.343896
2336.000000	59.417801
2335.000000	59.486970
2334.000000	59.555016
2333.000000	59.623295
2332.000000	59.695275
2331.000000	59.775471
2330.000000	59.859540
2329.000000	59.948498
2328.000000	60.034094
2327.000000	60.116221
2326.000000	60.190216
2325.000000	60.255159
2324.000000	60.317281
2323.000000	60.379557
2322.000000	60.447293
2321.000000	60.517737
2320.000000	60.593342
2319.000000	60.673879
2318.000000	60.756431
2317.000000	60.834959
2316.000000	60.905152
2315.000000	60.969155
2314.000000	61.028915
2313.000000	61.088954
2312.000000	61.152456
2311.000000	61.224606
2310.000000	61.304111
2309.000000	61.387167
2308.000000	61.468060
2307.000000	61.543593
2306.000000	61.610554
2305.000000	61.668153
2304.000000	61.720707
2303.000000	61.775763
2302.000000	61.838355
2301.000000	61.909753
2300.000000	61.988267
2299.000000	62.071292
2298.000000	62.151870
2297.000000	62.223781
2296.000000	62.284281
2295.000000	62.337028
2294.000000	62.386358
2293.000000	62.437284
2292.000000	62.495095
2291.000000	62.563412
2290.000000	62.639688
2289.000000	62.716681
2288.000000	62.788308
2287.000000	62.851491
2286.000000	62.904941
2285.000000	62.949515
2284.000000	62.991222
2283.000000	63.038158
2282.000000	63.095069
2281.000000	63.161371
2280.000000	63.234304
2279.000000	63.309167
2278.000000	63.378469
2277.000000	63.435182
2276.000000	63.478545
2275.000000	63.514188
2274.000000	63.548640
2273.000000	63.587305
2272.000000	63.635129
2271.000000	63.694571
2270.000000	63.761600
2269.000000	63.827443
2268.000000	63.884855
2267.000000	63.930613
2266.000000	63.963851
2265.000000	63.987096
2264.000000	64.008032
2263.000000	64.036195
2262.000000	64.075992
2261.000000	64.125386
2260.000000	64.179902
2259.000000	64.233473
2258.000000	64.277999
2257.000000	64.306799
2256.000000	64.320870
2255.000000	64.327889
2254.000000	64.335846
2253.000000	64.350335
2252.000000	64.375517
2251.000000	64.412266
2250.000000	64.454300
2249.000000	64.490810
2248.000000	64.514040
2247.000000	64.522128
2246.000000	64.516579
2245.000000	64.502298
2244.000000	64.488583
2243.000000	64.485053
2242.000000	64.494623
2241.000000	64.512868
2240.000000	64.532862
2239.000000	64.547303
2238.000000	64.548120
2237.000000	64.530236
2236.000000	64.497117
2235.000000	64.459036
2234.000000	64.425842
2233.000000	64.403599
2232.000000	64.395283
2231.000000	64.398912
2230.000000	64.405081
2229.000000	64.401545
2228.000000	64.381621
2227.000000	64.346158
2226.000000	64.299681
2225.000000	64.249378
2224.000000	64.206112
2223.000000	64.179681
2222.000000	64.171162
2221.000000	64.172696
2220.000000	64.174268
2219.000000	64.167681
2218.000000	64.146378
2217.000000	64.108153
2216.000000	64.059452
2215.000000	64.012837
2214.000000	63.979029
2213.000000	63.963010
2212.000000	63.965039
2211.000000	63.979937
2210.000000	63.995971
2209.000000	64.000193
2208.000000	63.986998
2207.000000	63.959790
2206.000000	63.926069
2205.000000	63.894934
2204.000000	63.877124
2203.000000	63.880520
2202.000000	63.903606
2201.000000	63.936248
2200.000000	63.966985
2199.000000	63.987330
2198.000000	63.991854
2197.000000	63.980732
2196.000000	63.963021
2195.000000	63.952659
2194.000000	63.959565
2193.000000	63.986005
2192.000000	64.028935
2191.000000	64.080663
2190.000000	64.128500
2189.000000	64.160241
2188.000000	64.172443
2187.000000	64.171197
2186.000000	64.166023
2185.000000	64.166494
2184.000000	64.181855
2183.000000	64.216738
2182.000000	64.265673
2181.000000	64.315673
2180.000000	64.354944
2179.000000	64.377112
2178.000000	64.380151
2177.000000	64.367697
2176.000000	64.351364
2175.000000	64.345653
2174.000000	64.358373
2173.000000	64.387873
2172.000000	64.427530
2171.000000	64.468189
2170.000000	64.498145
2169.000000	64.508141
2168.000000	64.498837
2167.000000	64.480299
2166.000000	64.464386
2165.000000	64.460464
2164.000000	64.475255
2163.000000	64.509585
2162.000000	64.554307
2161.000000	64.594435
2160.000000	64.618945
2159.000000	64.624783
2158.000000	64.614313
2157.000000	64.594974
2156.000000	64.580334
2155.000000	64.584231
2154.000000	64.611197
2153.000000	64.654825
2152.000000	64.704103
2151.000000	64.747349
2150.000000	64.772964
2149.000000	64.774513
2148.000000	64.757273
2147.000000	64.735746
2146.000000	64.723910
2145.000000	64.729981
2144.000000	64.757230
2143.000000	64.802250
2142.000000	64.852040
2141.000000	64.889492
2140.000000	64.904454
2139.000000	64.897498
2138.000000	64.875465
2137.000000	64.849074
2136.000000	64.832966
2135.000000	64.839848
2134.000000	64.871431
2133.000000	64.918032
2132.000000	64.966279
2131.000000	65.004042
2130.000000	65.021103
2129.000000	65.013451
2128.000000	64.989081
2127.000000	64.964604
2126.000000	64.954531
2125.000000	64.965748
2124.000000	64.999043
2123.000000	65.048682
2122.000000	65.100606
2121.000000	65.138267
2120.000000	65.153319
2119.000000	65.148568
2118.000000	65.132633
2117.000000	65.117018
2116.000000	65.115923
2115.000000	65.140332
2114.000000	65.189473
2113.000000	65.251519
2112.000000	65.312887
2111.000000	65.363739
2110.000000	65.397741
2109.000000	65.414685
2108.000000	65.424536
2107.000000	65.442979
2106.000000	65.480954
2105.000000	65.541069
2104.000000	65.621013
2103.000000	65.713909
2102.000000	65.806544
2101.000000	65.885080
2100.000000	65.945636
2099.000000	65.995382
2098.000000	66.044805
2097.000000	66.103485
2096.000000	66.180344
2095.000000	66.279595
2094.000000	66.394213
2093.000000	66.509002
2092.000000	66.611429
2091.000000	66.696199
2090.000000	66.762385
2089.000000	66.814102
2088.000000	66.863578
2087.000000	66.925395
2086.000000	67.005492
2085.000000	67.099117
2084.000000	67.197362
2083.000000	67.289898
2082.000000	67.363667
2081.000000	67.408484
2080.000000	67.426854
2079.000000	67.432727
2078.000000	67.440692
2077.000000	67.460630
2076.000000	67.498770
2075.000000	67.555298
2074.000000	67.618433
2073.000000	67.669560
2072.000000	67.696201
2071.000000	67.695900
2070.000000	67.672231
2069.000000	67.634721
2068.000000	67.601305
2067.000000	67.590771
2066.000000	67.609748
2065.000000	67.650971
2064.000000	67.702482
2063.000000	67.751899
2062.000000	67.785084
2061.000000	67.792123
2060.000000	67.777652
2059.000000	67.759027
2058.000000	67.753034
2057.000000	67.769272
2056.000000	67.812786
2055.000000	67.882906
2054.000000	67.967740
2053.000000	68.048711
2052.000000	68.113684
2051.000000	68.161408
2050.000000	68.195729
2049.000000	68.224343
2048.000000	68.261514
2047.000000	68.321699
2046.000000	68.408491
2045.000000	68.514094
2044.000000	68.628931
2043.000000	68.745250
2042.000000	68.853775
2041.000000	68.947495
2040.000000	69.030480
2039.000000	69.115551
2038.000000	69.212580
2037.000000	69.324784
2036.000000	69.453852
2035.000000	69.599105
2034.000000	69.751548
2033.000000	69.897607
2032.000000	70.030990
2031.000000	70.155514
2030.000000	70.276205
2029.000000	70.397375
2028.000000	70.526625
2027.000000	70.671591
2026.000000	70.829696
2025.000000	70.989350
2024.000000	71.141934
2023.000000	71.283696
2022.000000	71.410746
2021.000000	71.521932
2020.000000	71.627562
2019.000000	71.744664
2018.000000	71.881471
2017.000000	72.033455
2016.000000	72.192964
2015.000000	72.352230
2014.000000	72.498399
2013.000000	72.618989
2012.000000	72.714953
2011.000000	72.800198
2010.000000	72.887355
2009.000000	72.982894
2008.000000	73.092577
2007.000000	73.220428
2006.000000	73.358548
2005.000000	73.488941
2004.000000	73.599583
2003.000000	73.688171
2002.000000	73.756695
2001.000000	73.808730
2000.000000	73.857331
1999.000000	73.921322
1998.000000	74.006334
1997.000000	74.102730
1996.000000	74.200071
1995.000000	74.293593
1994.000000	74.376797
1993.000000	74.441424
1992.000000	74.489181
1991.000000	74.533374
1990.000000	74.582905
1989.000000	74.637461
1988.000000	74.699739
1987.000000	74.776936
1986.000000	74.867111
1985.000000	74.955777
1984.000000	75.030598
1983.000000	75.088052
1982.000000	75.128202
1981.000000	75.151472
1980.000000	75.167133
1979.000000	75.191392
1978.000000	75.231455
1977.000000	75.283661
1976.000000	75.344168
1975.000000	75.411311
1974.000000	75.475975
1973.000000	75.523965
1972.000000	75.550637
1971.000000	75.564262
1970.000000	75.574575
1969.000000	75.588266
1968.000000	75.613033
1967.000000	75.654285
1966.000000	75.707015
1965.000000	75.759111
1964.000000	75.803592
1963.000000	75.840917
1962.000000	75.870257
1961.000000	75.889464
1960.000000	75.904128
1959.000000	75.924132
1958.000000	75.951223
1957.000000	75.979829
1956.000000	76.007711
1955.000000	76.037090
1954.000000	76.064252
1953.000000	76.083564
1952.000000	76.097223
1951.000000	76.112241
1950.000000	76.132095
1949.000000	76.153365
1948.000000	76.172216
1947.000000	76.184644
1946.000000	76.183520
1945.000000	76.168183
1944.000000	76.153168
1943.000000	76.155683
1942.000000	76.178050
1941.000000	76.211513
1940.000000	76.248835
1939.000000	76.285800
1938.000000	76.316334
1937.000000	76.335591
1936.000000	76.347087
1935.000000	76.356824
1934.000000	76.360250
1933.000000	76.351814
1932.000000	76.337310
1931.000000	76.327765
1930.000000	76.328537
1929.000000	76.331730
1928.000000	76.333423
1927.000000	76.332538
1926.000000	76.326424
1925.000000	76.315479
1924.000000	76.299687
1923.000000	76.276576
1922.000000	76.241954
1921.000000	76.198206
1920.000000	76.159636
1919.000000	76.143800
1918.000000	76.155941
1917.000000	76.187077
1916.000000	76.224594
1915.000000	76.254296
1914.000000	76.256959
1913.000000	76.226255
1912.000000	76.180089
1911.000000	76.141960
1910.000000	76.117285
1909.000000	76.095704
1908.000000	76.080859
1907.000000	76.080189
1906.000000	76.085452
1905.000000	76.082186
1904.000000	76.064773
1903.000000	76.041593
1902.000000	76.017191
1901.000000	75.986126
1900.000000	75.952818
1899.000000	75.929833
1898.000000	75.921272
1897.000000	75.923680
1896.000000	75.933114
1895.000000	75.944673
1894.000000	75.943958
1893.000000	75.916714
1892.000000	75.870271
1891.000000	75.830474
1890.000000	75.812835
1889.000000	75.816646
1888.000000	75.841988
1887.000000	75.885155
1886.000000	75.926696
1885.000000	75.947020
1884.000000	75.946421
1883.000000	75.938803
1882.000000	75.927816
1881.000000	75.904422
1880.000000	75.873590
1879.000000	75.853056
1878.000000	75.846266
1877.000000	75.844921
1876.000000	75.846195
1875.000000	75.847273
1874.000000	75.830741
1873.000000	75.774589
1872.000000	75.682733
1871.000000	75.591286
1870.000000	75.537590
1869.000000	75.526377
1868.000000	75.543899
1867.000000	75.582998
1866.000000	75.625204
1865.000000	75.642852
1864.000000	75.631074
1863.000000	75.606912
1862.000000	75.579382
1861.000000	75.542434
1860.000000	75.498158
1859.000000	75.460527
1858.000000	75.433011
1857.000000	75.405753
1856.000000	75.377983
1855.000000	75.356523
1854.000000	75.339270
1853.000000	75.306854
1852.000000	75.256383
1851.000000	75.204338
1850.000000	75.147439
1849.000000	75.069457
1848.000000	74.974295
1847.000000	74.887997
1846.000000	74.821693
1845.000000	74.771033
1844.000000	74.741238
1843.000000	74.740885
1842.000000	74.758747
1841.000000	74.766202
1840.000000	74.748769
1839.000000	74.713108
1838.000000	74.672512
1837.000000	74.628315
1836.000000	74.570917
1835.000000	74.493389
1834.000000	74.388955
1833.000000	74.255377
1832.000000	74.123851
1831.000000	74.040098
1830.000000	73.999304
1829.000000	73.963560
1828.000000	73.918141
1827.000000	73.868986
1826.000000	73.818995
1825.000000	73.769367
1824.000000	73.730148
1823.000000	73.705287
1822.000000	73.672840
1821.000000	73.609941
1820.000000	73.531505
1819.000000	73.469980
1818.000000	73.434741
1817.000000	73.406693
1816.000000	73.362815
1815.000000	73.298931
1814.000000	73.211395
1813.000000	73.100064
1812.000000	72.984139
1811.000000	72.887894
1810.000000	72.823492
1809.000000	72.782670
1808.000000	72.752503
1807.000000	72.724122
1806.000000	72.675457
1805.000000	72.579792
1804.000000	72.436500
1803.000000	72.287131
1802.000000	72.168440
1801.000000	72.087702
1800.000000	72.044934
1799.000000	72.034161
1798.000000	72.029625
1797.000000	71.996642
1796.000000	71.926529
1795.000000	71.835530
1794.000000	71.730253
1793.000000	71.614471
1792.000000	71.510494
1791.000000	71.451757
1790.000000	71.439888
1789.000000	71.428465
1788.000000	71.379892
1787.000000	71.302410
1786.000000	71.224023
1785.000000	71.157320
1784.000000	71.097730
1783.000000	71.055361
1782.000000	71.022956
1781.000000	70.974843
1780.000000	70.912777
1779.000000	70.852532
1778.000000	70.790621
1777.000000	70.709557
1776.000000	70.630021
1775.000000	70.586352
1774.000000	70.559297
1773.000000	70.488142
1772.000000	70.350087
1771.000000	70.204187
1770.000000	70.114860
1769.000000	70.074554
1768.000000	70.038711
1767.000000	69.989056
1766.000000	69.921242
1765.000000	69.826205
1764.000000	69.705813
1763.000000	69.596613
1762.000000	69.528828
1761.000000	69.491661
1760.000000	69.455946
1759.000000	69.408921
1758.000000	69.347523
1757.000000	69.257061
1756.000000	69.153315
1755.000000	69.071520
1754.000000	69.008792
1753.000000	68.919026
1752.000000	68.791966
1751.000000	68.676029
1750.000000	68.607569
1749.000000	68.566000
1748.000000	68.514055
1747.000000	68.443428
1746.000000	68.341462
1745.000000	68.196909
1744.000000	68.025601
1743.000000	67.862339
1742.000000	67.733009
1741.000000	67.637574
1740.000000	67.551166
1739.000000	67.454843
1738.000000	67.361835
1737.000000	67.285842
1736.000000	67.196184
1735.000000	67.071715
1734.000000	66.909876
1733.000000	66.695442
1732.000000	66.459677
1731.000000	66.265790
1730.000000	66.123014
1729.000000	65.987623
1728.000000	65.838138
1727.000000	65.682954
1726.000000	65.508093
1725.000000	65.301514
1724.000000	65.072497
1723.000000	64.828958
1722.000000	64.575894
1721.000000	64.332616
1720.000000	64.138755
1719.000000	64.011777
1718.000000	63.878650
1717.000000	63.630985
1716.000000	63.290171
1715.000000	62.974486
1714.000000	62.738689
1713.000000	62.545271
1712.000000	62.340979
1711.000000	62.109501
1710.000000	61.843924
1709.000000	61.526303
1708.000000	61.177548
1707.000000	60.845641
1706.000000	60.530499
1705.000000	60.203871
1704.000000	59.892827
1703.000000	59.624079
1702.000000	59.323140
1701.000000	58.963963
1700.000000	58.663351
1699.000000	58.513915
1698.000000	58.472142
1697.000000	58.356855
1696.000000	58.012546
1695.000000	57.538139
1694.000000	57.113656
1693.000000	56.784075
1692.000000	56.502811
1691.000000	56.195341
1690.000000	55.838302
1689.000000	55.475138
1688.000000	55.184160
1687.000000	54.959555
1686.000000	54.672165
1685.000000	54.215433
1684.000000	53.619651
1683.000000	53.097348
1682.000000	52.763026
1681.000000	52.495980
1680.000000	52.173025
1679.000000	51.782277
1678.000000	51.361388
1677.000000	50.912597
1676.000000	50.437920
1675.000000	49.999390
1674.000000	49.634278
1673.000000	49.309357
1672.000000	48.977918
1671.000000	48.613731
1670.000000	48.206524
1669.000000	47.768342
1668.000000	47.351010
1667.000000	46.989333
1666.000000	46.655111
1665.000000	46.300199
1664.000000	45.909367
1663.000000	45.515135
1662.000000	45.143142
1661.000000	44.782214
1660.000000	44.417173
1659.000000	44.038455
1658.000000	43.640828
1657.000000	43.259417
1656.000000	42.944773
1655.000000	42.693243
1654.000000	42.419454
1653.000000	42.011190
1652.000000	41.514530
1651.000000	41.040049
1650.000000	40.638913
1649.000000	40.313423
1648.000000	39.997799
1647.000000	39.648235
1646.000000	39.299848
1645.000000	38.982020
1644.000000	38.678149
1643.000000	38.390470
1642.000000	38.107515
1641.000000	37.784649
1640.000000	37.429896
1639.000000	37.103550
1638.000000	36.829621
1637.000000	36.555297
1636.000000	36.235318
1635.000000	35.926037
1634.000000	35.686429
1633.000000	35.484015
1632.000000	35.274216
1631.000000	35.045840
1630.000000	34.800015
1629.000000	34.543095
1628.000000	34.292186
1627.000000	34.079085
1626.000000	33.911820
1625.000000	33.766149
1624.000000	33.626653
1623.000000	33.497241
1622.000000	33.376675
1621.000000	33.259091
1620.000000	33.164460
1619.000000	33.113953
1618.000000	33.086447
1617.000000	33.027036
1616.000000	32.918919
1615.000000	32.812744
1614.000000	32.750015
1613.000000	32.717878
1612.000000	32.685294
1611.000000	32.650674
1610.000000	32.628574
1609.000000	32.617997
1608.000000	32.617372
1607.000000	32.644470
1606.000000	32.705425
1605.000000	32.778229
1604.000000	32.847877
1603.000000	32.916607
1602.000000	32.981456
1601.000000	33.030673
1600.000000	33.068480
1599.000000	33.118494
1598.000000	33.194009
1597.000000	33.287873
1596.000000	33.392451
1595.000000	33.507490
1594.000000	33.622710
1593.000000	33.717383
1592.000000	33.786477
1591.000000	33.846803
1590.000000	33.912283
1589.000000	33.982821
1588.000000	34.062652
1587.000000	34.162816
1586.000000	34.282235
1585.000000	34.396307
1584.000000	34.490353
1583.000000	34.571068
1582.000000	34.634905
1581.000000	34.674166
1580.000000	34.719134
1579.000000	34.824276
1578.000000	34.999726
1577.000000	35.190591
1576.000000	35.320807
1575.000000	35.364527
1574.000000	35.356007
1573.000000	35.338745
1572.000000	35.329184
1571.000000	35.339020
1570.000000	35.392124
1569.000000	35.484248
1568.000000	35.599739
1567.000000	35.732056
1566.000000	35.874725
1565.000000	36.005711
1564.000000	36.112277
1563.000000	36.193258
1562.000000	36.236856
1561.000000	36.204162
1560.000000	36.230606
1559.000000	36.396207
1558.000000	36.601627
1557.000000	36.806140
1556.000000	37.003209
1555.000000	37.202067
1554.000000	37.382357
1553.000000	37.511570
1552.000000	37.612428
1551.000000	37.735877
1550.000000	37.911240
1549.000000	38.120533
1548.000000	38.329928
1547.000000	38.532083
1546.000000	38.748078
1545.000000	38.989216
1544.000000	39.243256
1543.000000	39.514316
1542.000000	39.853760
1541.000000	40.304054
1540.000000	40.795269
1539.000000	41.222318
1538.000000	41.526816
1537.000000	41.728999
1536.000000	41.922341
1535.000000	42.190762
1534.000000	42.563574
1533.000000	42.991767
1532.000000	43.406408
1531.000000	43.785583
1530.000000	44.139131
1529.000000	44.499355
1528.000000	44.905775
1527.000000	45.375115
1526.000000	45.870980
1525.000000	46.333134
1524.000000	46.756935
1523.000000	47.197512
1522.000000	47.684153
1521.000000	48.157985
1520.000000	48.561566
1519.000000	48.949153
1518.000000	49.418870
1517.000000	49.977997
1516.000000	50.541231
1515.000000	51.046770
1514.000000	51.482731
1513.000000	51.853330
1512.000000	52.175761
1511.000000	52.486352
1510.000000	52.843552
1509.000000	53.311115
1508.000000	53.965827
1507.000000	54.757160
1506.000000	55.534070
1505.000000	56.126341
1504.000000	56.475232
1503.000000	56.716085
1502.000000	56.962631
1501.000000	57.233083
1500.000000	57.559068
1499.000000	58.010159
1498.000000	58.605519
1497.000000	59.255957
1496.000000	59.820876
1495.000000	60.226038
1494.000000	60.483740
1493.000000	60.640870
1492.000000	60.775749
1491.000000	61.009320
1490.000000	61.398918
1489.000000	61.878046
1488.000000	62.375293
1487.000000	62.865355
1486.000000	63.313756
1485.000000	63.656312
1484.000000	63.884779
1483.000000	64.060442
1482.000000	64.222202
1481.000000	64.354496
1480.000000	64.443009
1479.000000	64.502344
1478.000000	64.527980
1477.000000	64.497396
1476.000000	64.408309
1475.000000	64.266833
1474.000000	64.002090
1473.000000	63.488283
1472.000000	62.752542
1471.000000	61.952891
1470.000000	61.093017
1469.000000	60.037141
1468.000000	58.692421
1467.000000	56.997826
1466.000000	54.811891
1465.000000	52.028255
1464.000000	48.871070
1463.000000	45.712471
1462.000000	42.652516
1461.000000	39.614023
1460.000000	36.575434
1459.000000	33.491991
1458.000000	30.152549
1457.000000	26.623820
1456.000000	23.639261
1455.000000	21.665258
1454.000000	20.395296
1453.000000	19.468036
1452.000000	18.815630
1451.000000	18.486208
1450.000000	18.458770
1449.000000	18.694239
1448.000000	19.214838
1447.000000	19.990715
1446.000000	20.891877
1445.000000	21.836105
1444.000000	22.859293
1443.000000	23.990126
1442.000000	25.171120
1441.000000	26.330210
1440.000000	27.461014
1439.000000	28.617932
1438.000000	29.910328
1437.000000	31.454706
1436.000000	33.173819
1435.000000	34.809235
1434.000000	36.254720
1433.000000	37.626059
1432.000000	39.058806
1431.000000	40.585332
1430.000000	42.143358
1429.000000	43.643384
1428.000000	44.988822
1427.000000	46.118776
1426.000000	47.059219
1425.000000	47.881219
1424.000000	48.608787
1423.000000	49.211962
1422.000000	49.702507
1421.000000	50.162387
1420.000000	50.710233
1419.000000	51.391953
1418.000000	52.128507
1417.000000	52.850629
1416.000000	53.546847
1415.000000	54.213462
1414.000000	54.865656
1413.000000	55.548775
1412.000000	56.296235
1411.000000	57.098556
1410.000000	57.931391
1409.000000	58.777701
1408.000000	59.603622
1407.000000	60.380909
1406.000000	61.131538
1405.000000	61.890603
1404.000000	62.630071
1403.000000	63.276349
1402.000000	63.817909
1401.000000	64.328532
1400.000000	64.874513
1399.000000	65.434287
1398.000000	65.946948
1397.000000	66.397003
1396.000000	66.794896
1395.000000	67.152754
1394.000000	67.497866
1393.000000	67.841789
1392.000000	68.142738
1391.000000	68.351553
1390.000000	68.469368
1389.000000	68.523271
1388.000000	68.503205
1387.000000	68.376454
1386.000000	68.179288
1385.000000	68.006413
1384.000000	67.914945
1383.000000	67.907325
1382.000000	67.970611
1381.000000	68.073873
1380.000000	68.151234
1379.000000	68.138775
1378.000000	68.023306
1377.000000	67.828376
1376.000000	67.569888
1375.000000	67.267157
1374.000000	66.974647
1373.000000	66.752225
1372.000000	66.591391
1371.000000	66.428874
1370.000000	66.222927
1369.000000	65.957003
1368.000000	65.602128
1367.000000	65.128300
1366.000000	64.541324
1365.000000	63.875670
1364.000000	63.167448
1363.000000	62.456872
1362.000000	61.804869
1361.000000	61.257147
1360.000000	60.795469
1359.000000	60.381014
1358.000000	60.020269
1357.000000	59.753147
1356.000000	59.609124
1355.000000	59.599966
1354.000000	59.726264
1353.000000	59.962576
1352.000000	60.240438
1351.000000	60.472185
1350.000000	60.578673
1349.000000	60.486107
1348.000000	60.123897
1347.000000	59.451872
1346.000000	58.480638
1345.000000	57.252946
1344.000000	55.819482
1343.000000	54.227123
1342.000000	52.509974
1341.000000	50.671699
1340.000000	48.694977
1339.000000	46.589975
1338.000000	44.395854
1337.000000	42.127117
1336.000000	39.767254
1335.000000	37.321973
1334.000000	34.838701
1333.000000	32.372631
1332.000000	29.972973
1331.000000	27.700525
1330.000000	25.616221
1329.000000	23.744169
1328.000000	22.073682
1327.000000	20.585966
1326.000000	19.253250
1325.000000	18.032531
1324.000000	16.888208
1323.000000	15.819108
1322.000000	14.839427
1321.000000	13.949897
1320.000000	13.157077
1319.000000	12.496857
1318.000000	12.017394
1317.000000	11.747225
1316.000000	11.698692
1315.000000	11.889393
1314.000000	12.325101
1313.000000	12.983230
1312.000000	13.829626
1311.000000	14.834729
1310.000000	15.970141
1309.000000	17.196886
1308.000000	18.475817
1307.000000	19.781284
1306.000000	21.094812
1305.000000	22.400992
1304.000000	23.693786
1303.000000	24.978179
1302.000000	26.257467
1301.000000	27.520646
1300.000000	28.743784
1299.000000	29.899463
1298.000000	30.962255
1297.000000	31.914096
1296.000000	32.759192
1295.000000	33.536260
1294.000000	34.311450
1293.000000	35.153592
1292.000000	36.110857
1291.000000	37.201135
1290.000000	38.414744
1289.000000	39.721476
1288.000000	41.081650
1287.000000	42.463681
1286.000000	43.855921
1285.000000	45.262609
1284.000000	46.688032
1283.000000	48.126869
1282.000000	49.564613
1281.000000	50.974903
1280.000000	52.315880
1279.000000	53.545180
1278.000000	54.646526
1277.000000	55.633587
1276.000000	56.534807
1275.000000	57.385750
1274.000000	58.229148
1273.000000	59.098518
1272.000000	59.989917
1271.000000	60.866105
1270.000000	61.687589
1269.000000	62.428226
1268.000000	63.072978
1267.000000	63.625467
1266.000000	64.123810
1265.000000	64.624607
1264.000000	65.164534
1263.000000	65.749571
1262.000000	66.369532
1261.000000	66.999183
1260.000000	67.588889
1259.000000	68.086624
1258.000000	68.480712
1257.000000	68.802330
1256.000000	69.092528
1255.000000	69.388778
1254.000000	69.729822
1253.000000	70.139166
1252.000000	70.597147
1251.000000	71.050732
1250.000000	71.453235
1249.000000	71.780867
1248.000000	72.024091
1247.000000	72.193373
1246.000000	72.333783
1245.000000	72.504990
1244.000000	72.738094
1243.000000	73.025290
1242.000000	73.341917
1241.000000	73.654666
1240.000000	73.916477
1239.000000	74.087274
1238.000000	74.170285
1237.000000	74.208533
1236.000000	74.247379
1235.000000	74.318658
1234.000000	74.447099
1233.000000	74.639256
1232.000000	74.862733
1231.000000	75.061284
1230.000000	75.197578
1229.000000	75.268542
1228.000000	75.288673
1227.000000	75.286636
1226.000000	75.313468
1225.000000	75.420331
1224.000000	75.619165
1223.000000	75.879584
1222.000000	76.159545
1221.000000	76.420311
1220.000000	76.622977
1219.000000	76.746627
1218.000000	76.816482
1217.000000	76.891910
1216.000000	77.023513
1215.000000	77.233946
1214.000000	77.526837
1213.000000	77.882259
1212.000000	78.243482
1211.000000	78.539211
1210.000000	78.732228
1209.000000	78.834096
1208.000000	78.881303
1207.000000	78.923044
1206.000000	79.021708
1205.000000	79.226085
1204.000000	79.531990
1203.000000	79.884584
1202.000000	80.218291
1201.000000	80.480157
1200.000000	80.631175
1199.000000	80.663875
1198.000000	80.625900
1197.000000	80.599750
1196.000000	80.650371
1195.000000	80.802609
1194.000000	81.052073
1193.000000	81.364231
1192.000000	81.666584
1191.000000	81.877330
1190.000000	81.958226
1189.000000	81.928260
1188.000000	81.835129
1187.000000	81.738685
1186.000000	81.708879
1185.000000	81.798158
1184.000000	82.001277
1183.000000	82.256259
1182.000000	82.486206
1181.000000	82.629320
1180.000000	82.647539
1179.000000	82.545525
1178.000000	82.384925
1177.000000	82.251335
1176.000000	82.200517
1175.000000	82.245056
1174.000000	82.373078
1173.000000	82.549429
1172.000000	82.708284
1171.000000	82.780875
1170.000000	82.743034
1169.000000	82.621749
1168.000000	82.462429
1167.000000	82.312076
1166.000000	82.220799
1165.000000	82.220873
1164.000000	82.295557
1163.000000	82.388020
1162.000000	82.444747
1161.000000	82.436454
1160.000000	82.350837
1159.000000	82.199478
1158.000000	82.032146
1157.000000	81.913070
1156.000000	81.875249
1155.000000	81.909835
1154.000000	81.988853
1153.000000	82.073241
1152.000000	82.109048
1151.000000	82.052953
1150.000000	81.911964
1149.000000	81.738407
1148.000000	81.587049
1147.000000	81.494105
1146.000000	81.482554
1145.000000	81.550633
1144.000000	81.652166
1143.000000	81.715378
1142.000000	81.691174
1141.000000	81.572596
1140.000000	81.379205
1139.000000	81.151232
1138.000000	80.952145
1137.000000	80.841168
1136.000000	80.831344
1135.000000	80.885270
1134.000000	80.947123
1133.000000	80.961562
1132.000000	80.876585
1131.000000	80.666585
1130.000000	80.361446
1129.000000	80.032232
1128.000000	79.744531
1127.000000	79.535735
1126.000000	79.419312
1125.000000	79.375133
1124.000000	79.337720
1123.000000	79.222813
1122.000000	78.978464
1121.000000	78.603978
1120.000000	78.130233
1119.000000	77.608461
1118.000000	77.106983
1117.000000	76.681048
1116.000000	76.335075
1115.000000	76.021516
1114.000000	75.675160
1113.000000	75.235542
1112.000000	74.650947
1111.000000	73.900603
1110.000000	73.015120
1109.000000	72.058515
1108.000000	71.085474
1107.000000	70.118471
1106.000000	69.154257
1105.000000	68.158127
1104.000000	67.061808
1103.000000	65.793613
1102.000000	64.313302
1101.000000	62.623833
1100.000000	60.751272
1099.000000	58.734157
1098.000000	56.617912
1097.000000	54.426618
1096.000000	52.151077
1095.000000	49.760256
1094.000000	47.224728
1093.000000	44.533555
1092.000000	41.700662
1091.000000	38.774846
1090.000000	35.831101
1089.000000	32.947473
1088.000000	30.189853
1087.000000	27.611119
1086.000000	25.240837
1085.000000	23.082621
1084.000000	21.133595
1083.000000	19.390223
1082.000000	17.847518
1081.000000	16.492374
1080.000000	15.314512
1079.000000	14.313439
1078.000000	13.473421
1077.000000	12.764774
1076.000000	12.160767
1075.000000	11.642956
1074.000000	11.192063
1073.000000	10.783873
1072.000000	10.410575
1071.000000	10.082184
1070.000000	9.804538
1069.000000	9.575854
1068.000000	9.399678
1067.000000	9.286492
1066.000000	9.234933
1065.000000	9.229068
1064.000000	9.261221
1063.000000	9.335182
1062.000000	9.450815
1061.000000	9.602742
1060.000000	9.795614
1059.000000	10.045263
1058.000000	10.356901
1057.000000	10.722269
1056.000000	11.137554
1055.000000	11.604981
1054.000000	12.120078
1053.000000	12.671134
1052.000000	13.257815
1051.000000	13.894829
1050.000000	14.592585
1049.000000	15.354861
1048.000000	16.187923
1047.000000	17.096757
1046.000000	18.071620
1045.000000	19.089532
1044.000000	20.134024
1043.000000	21.198838
1042.000000	22.279648
1041.000000	23.377324
1040.000000	24.504461
1039.000000	25.679819
1038.000000	26.910931
1037.000000	28.188118
1036.000000	29.491908
1035.000000	30.796485
1034.000000	32.072491
1033.000000	33.298496
1032.000000	34.474282
1031.000000	35.620376
1030.000000	36.765404
1029.000000	37.932348
1028.000000	39.129203
1027.000000	40.344710
1026.000000	41.549452
1025.000000	42.706994
1024.000000	43.787113
1023.000000	44.778391
1022.000000	45.696344
1021.000000	46.576789
1020.000000	47.460106
1019.000000	48.374900
1018.000000	49.328298
1017.000000	50.302858
1016.000000	51.257624
1015.000000	52.144700
1014.000000	52.933663
1013.000000	53.624792
1012.000000	54.245595
1011.000000	54.840556
1010.000000	55.460250
1009.000000	56.140910
1008.000000	56.882789
1007.000000	57.650936
1006.000000	58.394506
1005.000000	59.066607
1004.000000	59.636425
1003.000000	60.102590
1002.000000	60.502547
1001.000000	60.897195
1000.000000	61.339802
999.000000	61.856587
998.000000	62.443864
997.000000	63.068723
996.000000	63.672089
995.000000	64.192765
994.000000	64.602637
993.000000	64.917666
992.000000	65.181423
991.000000	65.448355
990.000000	65.772590
989.000000	66.186873
988.000000	66.679445
987.000000	67.199546
986.000000	67.686733
985.000000	68.094767
984.000000	68.400515
983.000000	68.613828
982.000000	68.783987
981.000000	68.978720
980.000000	69.245763
979.000000	69.595253
978.000000	70.006755
977.000000	70.437016
976.000000	70.825761
975.000000	71.120857
974.000000	71.312260
973.000000	71.434945
972.000000	71.542272
971.000000	71.684932
970.000000	71.901881
969.000000	72.204073
968.000000	72.557774
967.000000	72.898884
966.000000	73.171696
965.000000	73.351877
964.000000	73.444288
963.000000	73.482211
962.000000	73.526636
961.000000	73.639880
960.000000	73.846123
959.000000	74.122978
958.000000	74.422336
957.000000	74.687845
956.000000	74.864612
955.000000	74.924061
954.000000	74.891467
953.000000	74.835589
952.000000	74.826319
951.000000	74.906687
950.000000	75.089497
949.000000	75.352083
948.000000	75.629573
947.000000	75.838748
946.000000	75.926264
945.000000	75.891740
944.000000	75.775386
943.000000	75.643283
942.000000	75.574629
941.000000	75.629179
940.000000	75.810201
939.000000	76.063869
938.000000	76.311884
937.000000	76.479991
936.000000	76.513436
935.000000	76.400480
934.000000	76.192556
933.000000	75.982981
932.000000	75.854656
931.000000	75.849668
930.000000	75.968417
929.000000	76.168040
928.000000	76.362394
927.000000	76.454873
926.000000	76.392322
925.000000	76.185745
924.000000	75.890583
923.000000	75.584176
922.000000	75.349136
921.000000	75.242001
920.000000	75.258630
919.000000	75.335937
918.000000	75.389968
917.000000	75.347977
916.000000	75.163028
915.000000	74.832605
914.000000	74.412627
913.000000	73.992166
912.000000	73.642199
911.000000	73.390851
910.000000	73.227587
909.000000	73.106710
908.000000	72.952518
907.000000	72.689891
906.000000	72.288256
905.000000	71.771472
904.000000	71.191481
903.000000	70.606636
902.000000	70.071037
901.000000	69.613378
900.000000	69.213072
899.000000	68.808794
898.000000	68.338029
897.000000	67.762117
896.000000	67.069798
895.000000	66.281092
894.000000	65.447669
893.000000	64.628587
892.000000	63.853773
891.000000	63.113889
890.000000	62.375714
889.000000	61.594679
888.000000	60.724410
887.000000	59.735796
886.000000	58.637955
885.000000	57.472516
884.000000	56.285430
883.000000	55.110224
882.000000	53.962667
881.000000	52.833114
880.000000	51.683852
879.000000	50.466050
878.000000	49.149050
877.000000	47.732843
876.000000	46.242727
875.000000	44.719989
874.000000	43.209103
873.000000	41.740309
872.000000	40.317040
871.000000	38.918827
870.000000	37.514898
869.000000	36.077409
868.000000	34.592746
867.000000	33.068680
866.000000	31.532399
865.000000	30.019008
864.000000	28.560468
863.000000	27.175841
862.000000	25.864631
861.000000	24.611259
860.000000	23.397777
859.000000	22.217065
858.000000	21.076250
857.000000	19.999689
856.000000	19.032947
855.000000	18.225942
854.000000	17.612031
853.000000	17.195582
852.000000	16.955084
851.000000	16.850045
850.000000	16.821482
849.000000	16.810271
848.000000	16.778749
847.000000	16.716538
846.000000	16.632726
845.000000	16.547218
844.000000	16.488090
843.000000	16.480467
842.000000	16.533147
841.000000	16.641568
840.000000	16.799150
839.000000	17.001556
838.000000	17.244619
837.000000	17.528282
836.000000	17.864982
835.000000	18.272414
834.000000	18.760996
833.000000	19.330259
832.000000	19.971012
831.000000	20.665778
830.000000	21.388687
829.000000	22.116413
828.000000	22.840403
827.000000	23.566751
826.000000	24.312251
825.000000	25.100956
824.000000	25.955745
823.000000	26.882508
822.000000	27.862761
821.000000	28.864216
820.000000	29.854195
819.000000	30.807040
818.000000	31.711712
817.000000	32.578044
816.000000	33.431697
815.000000	34.299058
814.000000	35.195091
813.000000	36.117379
812.000000	37.044176
811.000000	37.939455
810.000000	38.770595
809.000000	39.526115
808.000000	40.217972
807.000000	40.875457
806.000000	41.538826
805.000000	42.246843
804.000000	43.016558
803.000000	43.832677
802.000000	44.659357
801.000000	45.457603
800.000000	46.194563
799.000000	46.853361
798.000000	47.447211
797.000000	48.018009
796.000000	48.611929
795.000000	49.256737
794.000000	49.958227
793.000000	50.701157
792.000000	51.447288
791.000000	52.146245
790.000000	52.763548
789.000000	53.297357
788.000000	53.770203
787.000000	54.217801
786.000000	54.684539
785.000000	55.207116
784.000000	55.789180
783.000000	56.396926
782.000000	56.984138
781.000000	57.514033
780.000000	57.962328
779.000000	58.324034
778.000000	58.628517
777.000000	58.932035
776.000000	59.282323
775.000000	59.694074
774.000000	60.155505
773.000000	60.638924
772.000000	61.101320
771.000000	61.497378
770.000000	61.809703
769.000000	62.060829
768.000000	62.292918
767.000000	62.547228
766.000000	62.859274
765.000000	63.247215
764.000000	63.691398
763.000000	64.137944
762.000000	64.533364
761.000000	64.849594
760.000000	65.080981
759.000000	65.243193
758.000000	65.382935
757.000000	65.563838
756.000000	65.825266
755.000000	66.159923
754.000000	66.530912
753.000000	66.892250
752.000000	67.192736
751.000000	67.390010
750.000000	67.481124
749.000000	67.509157
748.000000	67.531854
747.000000	67.593763
746.000000	67.723752
745.000000	67.929190
744.000000	68.178506
743.000000	68.408226
742.000000	68.563090
741.000000	68.623383
740.000000	68.597576
739.000000	68.514417
738.000000	68.427545
737.000000	68.399220
736.000000	68.460530
735.000000	68.595853
734.000000	68.768401
733.000000	68.941864
732.000000	69.077389
731.000000	69.142636
730.000000	69.143734
729.000000	69.129982
728.000000	69.155978
727.000000	69.251578
726.000000	69.425971
725.000000	69.672748
724.000000	69.957900
723.000000	70.226456
722.000000	70.439677
721.000000	70.596734
720.000000	70.719070
719.000000	70.836388
718.000000	70.990363
717.000000	71.219903
716.000000	71.524525
715.000000	71.858840
714.000000	72.172127
713.000000	72.436121
712.000000	72.635265
711.000000	72.765473
710.000000	72.858911
709.000000	72.979972
708.000000	73.176709
707.000000	73.450217
706.000000	73.772694
705.000000	74.107590
704.000000	74.404104
703.000000	74.606873
702.000000	74.699762
701.000000	74.724356
700.000000	74.743905
699.000000	74.811246
698.000000	74.968594
697.000000	75.238076
696.000000	75.588169
695.000000	75.934465
694.000000	76.198401
693.000000	76.348995
692.000000	76.386478
691.000000	76.331862
690.000000	76.249431
689.000000	76.239521
688.000000	76.370582
687.000000	76.630445
686.000000	76.961223
685.000000	77.302374
684.000000	77.582684
683.000000	77.727197
682.000000	77.716771
681.000000	77.614349
680.000000	77.510282
679.000000	77.468634
678.000000	77.537099
677.000000	77.743439
676.000000	78.049962
675.000000	78.364251
674.000000	78.605983
673.000000	78.746962
672.000000	78.800271
671.000000	78.803243
670.000000	78.815046
669.000000	78.893228
668.000000	79.018147
667.000000	79.139608
666.000000	79.270288
665.000000	79.407975
664.000000	79.522747
663.000000	79.583712
662.000000	79.576309
661.000000	79.525111
660.000000	79.480272
659.000000	79.491610
658.000000	79.589950
657.000000	79.766939
656.000000	79.973392
655.000000	80.156097
654.000000	80.277935
653.000000	80.321240
652.000000	80.300855
651.000000	80.267602
650.000000	80.281637
649.000000	80.371738
648.000000	80.523977
647.000000	80.698873
646.000000	80.849706
645.000000	80.937002
644.000000	80.942166
643.000000	80.880676
642.000000	80.804905
641.000000	80.779467
640.000000	80.845784
639.000000	81.005541
638.000000	81.222471
637.000000	81.433777
636.000000	81.571058
635.000000	81.588852
634.000000	81.492334
633.000000	81.338159
632.000000	81.206453
631.000000	81.171940
630.000000	81.279236
629.000000	81.517299
628.000000	81.814113
627.000000	82.067241
626.000000	82.192791
625.000000	82.158613
624.000000	81.986602
623.000000	81.747314
622.000000	81.549858
621.000000	81.499633
620.000000	81.639281
619.000000	81.927838
618.000000	82.269048
617.000000	82.552824
616.000000	82.685116
615.000000	82.620289
614.000000	82.392595
613.000000	82.107852
612.000000	81.890723
611.000000	81.834338
610.000000	81.974903
609.000000	82.276857
608.000000	82.634543
607.000000	82.911617
606.000000	83.008944
605.000000	82.905907
604.000000	82.651568
603.000000	82.341958
602.000000	82.098667
601.000000	82.020496
600.000000	82.124962
599.000000	82.334434
598.000000	82.527034
597.000000	82.596274
596.000000	82.479477
595.000000	82.180606
594.000000	81.791040
593.000000	81.457313
592.000000	81.302195
591.000000	81.372117
590.000000	81.637575
589.000000	82.015282
588.000000	82.388912
587.000000	82.648459
586.000000	82.746321
585.000000	82.716070
584.000000	82.633737
583.000000	82.577856
582.000000	82.621468
581.000000	82.806916
580.000000	83.100178
579.000000	83.395445
578.000000	83.593609
577.000000	83.659428
576.000000	83.607008
575.000000	83.480415
574.000000	83.360730
573.000000	83.339728
572.000000	83.459750
571.000000	83.688457
570.000000	83.949925
569.000000	84.163760
568.000000	84.256393
567.000000	84.186100
566.000000	83.993001
565.000000	83.793167
564.000000	83.699880
563.000000	83.765110
562.000000	83.982194
561.000000	84.294245
560.000000	84.591303
559.000000	84.745932
558.000000	84.696276
557.000000	84.485051
556.000000	84.216263
555.000000	84.004949
554.000000	83.958048
553.000000	84.134571
552.000000	84.493478
551.000000	84.898598
550.000000	85.198164
549.000000	85.297712
548.000000	85.171017
547.000000	84.864060
546.000000	84.515523
545.000000	84.308281
544.000000	84.355472
543.000000	84.644730
542.000000	85.074698
541.000000	85.503816
540.000000	85.775498
539.000000	85.771921
538.000000	85.499502
537.000000	85.098263
536.000000	84.745848
535.000000	84.573980
534.000000	84.653482
533.000000	84.976355
532.000000	85.430873
531.000000	85.828713
530.000000	86.005809
529.000000	85.903023
528.000000	85.563380
527.000000	85.109202
526.000000	84.734681
525.000000	84.623114
524.000000	84.810937
523.000000	85.170260
522.000000	85.525310
521.000000	85.740455
520.000000	85.722168
519.000000	85.430885
518.000000	84.938812
517.000000	84.424074
516.000000	84.056411
515.000000	83.904732
514.000000	83.941608
513.000000	84.070300
512.000000	84.139464
511.000000	83.992764
510.000000	83.563706
509.000000	82.908409
508.000000	82.150304
507.000000	81.422608
506.000000	80.841894
505.000000	80.461231
504.000000	80.234818
503.000000	80.052931
502.000000	79.815345
501.000000	79.474792
500.000000	79.034631
499.000000	78.545557
498.000000	78.131714
497.000000	77.949902
496.000000	78.082135
495.000000	78.486724
494.000000	79.045609
493.000000	79.628464
492.000000	80.113863
491.000000	80.425512
490.000000	80.595610
489.000000	80.750812
488.000000	81.022294
487.000000	81.479079
486.000000	82.122785
485.000000	82.878288
484.000000	83.576083
483.000000	84.008621
482.000000	84.071815
481.000000	83.835031
480.000000	83.461330
479.000000	83.117629
478.000000	82.959091
477.000000	83.086018
476.000000	83.455170
475.000000	83.881233
474.000000	84.176726
473.000000	84.257118
472.000000	84.129122
471.000000	83.864600
470.000000	83.605542
469.000000	83.529466
468.000000	83.765376
467.000000	84.302284
466.000000	84.985697
465.000000	85.599572
464.000000	85.949787
463.000000	85.921406
462.000000	85.554709
461.000000	85.040873
460.000000	84.589613
459.000000	84.375693
458.000000	84.554711
457.000000	85.131524
456.000000	85.839702
455.000000	86.314553
454.000000	86.375437
453.000000	86.092293
452.000000	85.654557
451.000000	85.241236
450.000000	85.007690
449.000000	85.088398
448.000000	85.512213
447.000000	86.119935
446.000000	86.659945
445.000000	86.956526
444.000000	86.946275
443.000000	86.657162
442.000000	86.253962
441.000000	85.990093
440.000000	86.012772
439.000000	86.291216
438.000000	86.734730
437.000000	87.261827
436.000000	87.723729
435.000000	87.908140
434.000000	87.740972
433.000000	87.370698
432.000000	87.015414
431.000000	86.836048
430.000000	86.932488
429.000000	87.330699
428.000000	87.898743
427.000000	88.350356
426.000000	88.450839
425.000000	88.198469
424.000000	87.750113
423.000000	87.262380
422.000000	86.867207
421.000000	86.691104
420.000000	86.862158
419.000000	87.377878
418.000000	87.982379
417.000000	88.463416
416.000000	88.685168
415.000000	88.529373
414.000000	88.094682
413.000000	87.722801
412.000000	87.674048
411.000000	87.920792
410.000000	88.314590
409.000000	88.766948
408.000000	89.138336
407.000000	89.184065
406.000000	88.836960
405.000000	88.371196
404.000000	88.022156
403.000000	87.816787
402.000000	87.655537
401.000000	88.274115
400.000000	88.909688
