PE IR       SUBTECH     SPECTRUM    ASCII       PEDS        4.00        
   -1
23ms070_072nitro.asc
24/09/12
16:31:54.00
24/09/12
16:31:54.00
Administrator
Sample 1179 By Administrator Date Thursday, September 12 2024
400.000000
#HDR
-1
-1
#GR
cm-1
%T
1.0
0.0
4000.000000
-1.000000
3601
8
84.226186
11.549873
#DATA
4000.000000	58.715466
3999.000000	58.749080
3998.000000	58.782305
3997.000000	58.815526
3996.000000	58.848983
3995.000000	58.882696
3994.000000	58.916558
3993.000000	58.950447
3992.000000	58.984244
3991.000000	59.017666
3990.000000	59.050232
3989.000000	59.081729
3988.000000	59.112698
3987.000000	59.144172
3986.000000	59.176811
3985.000000	59.210166
3984.000000	59.242932
3983.000000	59.273988
3982.000000	59.303378
3981.000000	59.332253
3980.000000	59.361839
3979.000000	59.392598
3978.000000	59.424050
3977.000000	59.455053
3976.000000	59.484461
3975.000000	59.511710
3974.000000	59.537218
3973.000000	59.562281
3972.000000	59.588327
3971.000000	59.616179
3970.000000	59.645555
3969.000000	59.675529
3968.000000	59.705298
3967.000000	59.734461
3966.000000	59.762970
3965.000000	59.791028
3964.000000	59.818862
3963.000000	59.846184
3962.000000	59.872320
3961.000000	59.896868
3960.000000	59.920538
3959.000000	59.945115
3958.000000	59.971824
3957.000000	60.000668
3956.000000	60.031033
3955.000000	60.062209
3954.000000	60.093427
3953.000000	60.123378
3952.000000	60.150799
3951.000000	60.175400
3950.000000	60.198022
3949.000000	60.219918
3948.000000	60.241823
3947.000000	60.264343
3946.000000	60.288888
3945.000000	60.317372
3944.000000	60.350269
3943.000000	60.384920
3942.000000	60.418105
3941.000000	60.449384
3940.000000	60.480784
3939.000000	60.514274
3938.000000	60.548581
3937.000000	60.580238
3936.000000	60.607646
3935.000000	60.632185
3934.000000	60.656621
3933.000000	60.681818
3932.000000	60.707236
3931.000000	60.732635
3930.000000	60.757992
3929.000000	60.784411
3928.000000	60.813224
3927.000000	60.845468
3926.000000	60.879904
3925.000000	60.911829
3924.000000	60.937580
3923.000000	60.958164
3922.000000	60.977063
3921.000000	60.997035
3920.000000	61.019375
3919.000000	61.045362
3918.000000	61.075739
3917.000000	61.109157
3916.000000	61.143249
3915.000000	61.176694
3914.000000	61.210817
3913.000000	61.247410
3912.000000	61.285747
3911.000000	61.323486
3910.000000	61.357485
3909.000000	61.386374
3908.000000	61.411569
3907.000000	61.433542
3906.000000	61.450473
3905.000000	61.458431
3904.000000	61.457216
3903.000000	61.454539
3902.000000	61.460474
3901.000000	61.480823
3900.000000	61.513561
3899.000000	61.550899
3898.000000	61.587237
3897.000000	61.622188
3896.000000	61.657547
3895.000000	61.695634
3894.000000	61.736672
3893.000000	61.778498
3892.000000	61.815394
3891.000000	61.840990
3890.000000	61.854680
3889.000000	61.864071
3888.000000	61.881978
3887.000000	61.915366
3886.000000	61.955057
3885.000000	61.984668
3884.000000	61.999419
3883.000000	62.009425
3882.000000	62.026938
3881.000000	62.054269
3880.000000	62.084040
3879.000000	62.109799
3878.000000	62.133289
3877.000000	62.161417
3876.000000	62.198003
3875.000000	62.236949
3874.000000	62.266207
3873.000000	62.281669
3872.000000	62.293038
3871.000000	62.311180
3870.000000	62.334544
3869.000000	62.355298
3868.000000	62.371745
3867.000000	62.390871
3866.000000	62.419576
3865.000000	62.455034
3864.000000	62.490348
3863.000000	62.523638
3862.000000	62.556032
3861.000000	62.589701
3860.000000	62.625738
3859.000000	62.664721
3858.000000	62.708178
3857.000000	62.755544
3856.000000	62.800659
3855.000000	62.827156
3854.000000	62.824868
3853.000000	62.812595
3852.000000	62.813809
3851.000000	62.830787
3850.000000	62.858374
3849.000000	62.895362
3848.000000	62.939603
3847.000000	62.988365
3846.000000	63.037298
3845.000000	63.080783
3844.000000	63.114333
3843.000000	63.135735
3842.000000	63.147754
3841.000000	63.159545
3840.000000	63.176930
3839.000000	63.200056
3838.000000	63.228556
3837.000000	63.260205
3836.000000	63.290790
3835.000000	63.317249
3834.000000	63.342082
3833.000000	63.370607
3832.000000	63.403334
3831.000000	63.436902
3830.000000	63.469767
3829.000000	63.503390
3828.000000	63.540150
3827.000000	63.579204
3826.000000	63.614069
3825.000000	63.641018
3824.000000	63.664387
3823.000000	63.692171
3822.000000	63.725146
3821.000000	63.751947
3820.000000	63.763834
3819.000000	63.767028
3818.000000	63.777175
3817.000000	63.804225
3816.000000	63.843283
3815.000000	63.884495
3814.000000	63.925833
3813.000000	63.967877
3812.000000	64.008045
3811.000000	64.045012
3810.000000	64.081141
3809.000000	64.119277
3808.000000	64.157631
3807.000000	64.188063
3806.000000	64.203777
3805.000000	64.208824
3804.000000	64.214249
3803.000000	64.231883
3802.000000	64.259462
3801.000000	64.284348
3800.000000	64.303480
3799.000000	64.323795
3798.000000	64.352709
3797.000000	64.390714
3796.000000	64.432465
3795.000000	64.474195
3794.000000	64.517209
3793.000000	64.562247
3792.000000	64.606686
3791.000000	64.647988
3790.000000	64.684814
3789.000000	64.716624
3788.000000	64.744778
3787.000000	64.772445
3786.000000	64.801948
3785.000000	64.831706
3784.000000	64.857927
3783.000000	64.880807
3782.000000	64.905264
3781.000000	64.935210
3780.000000	64.968799
3779.000000	65.001296
3778.000000	65.030677
3777.000000	65.059537
3776.000000	65.090995
3775.000000	65.125096
3774.000000	65.159260
3773.000000	65.191380
3772.000000	65.221998
3771.000000	65.251470
3770.000000	65.276805
3769.000000	65.295367
3768.000000	65.310210
3767.000000	65.329268
3766.000000	65.357849
3765.000000	65.391477
3764.000000	65.423107
3763.000000	65.453140
3762.000000	65.486429
3761.000000	65.523694
3760.000000	65.559396
3759.000000	65.591009
3758.000000	65.619401
3757.000000	65.643479
3756.000000	65.662495
3755.000000	65.678184
3754.000000	65.693826
3753.000000	65.709410
3752.000000	65.722936
3751.000000	65.738829
3750.000000	65.761664
3749.000000	65.785574
3748.000000	65.803713
3747.000000	65.823116
3746.000000	65.856779
3745.000000	65.903146
3744.000000	65.949333
3743.000000	65.990750
3742.000000	66.029314
3741.000000	66.066120
3740.000000	66.100730
3739.000000	66.134409
3738.000000	66.170843
3737.000000	66.210330
3736.000000	66.249521
3735.000000	66.283257
3734.000000	66.314198
3733.000000	66.351119
3732.000000	66.395842
3731.000000	66.442043
3730.000000	66.483349
3729.000000	66.521067
3728.000000	66.561388
3727.000000	66.604880
3726.000000	66.646522
3725.000000	66.683728
3724.000000	66.719586
3723.000000	66.756871
3722.000000	66.795269
3721.000000	66.835032
3720.000000	66.876022
3719.000000	66.918717
3718.000000	66.961274
3717.000000	66.999086
3716.000000	67.030550
3715.000000	67.057178
3714.000000	67.081691
3713.000000	67.105240
3712.000000	67.128878
3711.000000	67.156698
3710.000000	67.192650
3709.000000	67.236823
3708.000000	67.285017
3707.000000	67.331949
3706.000000	67.375622
3705.000000	67.417302
3704.000000	67.459109
3703.000000	67.501747
3702.000000	67.544075
3701.000000	67.584618
3700.000000	67.622135
3699.000000	67.658503
3698.000000	67.697899
3697.000000	67.739992
3696.000000	67.779062
3695.000000	67.810231
3694.000000	67.833481
3693.000000	67.852927
3692.000000	67.872896
3691.000000	67.895826
3690.000000	67.922772
3689.000000	67.954361
3688.000000	67.988916
3687.000000	68.022182
3686.000000	68.054206
3685.000000	68.088553
3684.000000	68.124917
3683.000000	68.160473
3682.000000	68.194514
3681.000000	68.225856
3680.000000	68.250100
3679.000000	68.261292
3678.000000	68.262639
3677.000000	68.266381
3676.000000	68.280460
3675.000000	68.302655
3674.000000	68.322760
3673.000000	68.336495
3672.000000	68.353125
3671.000000	68.384380
3670.000000	68.429599
3669.000000	68.480990
3668.000000	68.533596
3667.000000	68.583754
3666.000000	68.629296
3665.000000	68.671970
3664.000000	68.715019
3663.000000	68.761279
3662.000000	68.808746
3661.000000	68.849625
3660.000000	68.877885
3659.000000	68.892703
3658.000000	68.898645
3657.000000	68.901288
3656.000000	68.903885
3655.000000	68.906993
3654.000000	68.908326
3653.000000	68.907055
3652.000000	68.904390
3651.000000	68.897446
3650.000000	68.882035
3649.000000	68.866530
3648.000000	68.869202
3647.000000	68.895407
3646.000000	68.933229
3645.000000	68.971460
3644.000000	69.008786
3643.000000	69.048059
3642.000000	69.086950
3641.000000	69.120172
3640.000000	69.146813
3639.000000	69.169114
3638.000000	69.187414
3637.000000	69.199976
3636.000000	69.208219
3635.000000	69.215316
3634.000000	69.219671
3633.000000	69.215815
3632.000000	69.200642
3631.000000	69.177301
3630.000000	69.152153
3629.000000	69.133636
3628.000000	69.131245
3627.000000	69.147804
3626.000000	69.175473
3625.000000	69.205394
3624.000000	69.233275
3623.000000	69.257304
3622.000000	69.275353
3621.000000	69.282991
3620.000000	69.275954
3619.000000	69.257069
3618.000000	69.235532
3617.000000	69.217715
3616.000000	69.205584
3615.000000	69.199595
3614.000000	69.198285
3613.000000	69.198586
3612.000000	69.198643
3611.000000	69.199376
3610.000000	69.204348
3609.000000	69.217383
3608.000000	69.238137
3607.000000	69.263067
3606.000000	69.287915
3605.000000	69.308742
3604.000000	69.323622
3603.000000	69.332893
3602.000000	69.339341
3601.000000	69.345968
3600.000000	69.352408
3599.000000	69.355178
3598.000000	69.351988
3597.000000	69.344173
3596.000000	69.337348
3595.000000	69.336040
3594.000000	69.339902
3593.000000	69.344910
3592.000000	69.345290
3591.000000	69.337534
3590.000000	69.324150
3589.000000	69.313401
3588.000000	69.313626
3587.000000	69.327375
3586.000000	69.350135
3585.000000	69.375134
3584.000000	69.397949
3583.000000	69.417174
3582.000000	69.432317
3581.000000	69.442493
3580.000000	69.447726
3579.000000	69.449742
3578.000000	69.451140
3577.000000	69.453665
3576.000000	69.457631
3575.000000	69.463209
3574.000000	69.470270
3573.000000	69.477723
3572.000000	69.482286
3571.000000	69.478699
3570.000000	69.463166
3569.000000	69.438035
3568.000000	69.412673
3567.000000	69.398660
3566.000000	69.401831
3565.000000	69.419519
3564.000000	69.445593
3563.000000	69.475352
3562.000000	69.504897
3561.000000	69.530303
3560.000000	69.549486
3559.000000	69.563616
3558.000000	69.575130
3557.000000	69.584911
3556.000000	69.592284
3555.000000	69.597403
3554.000000	69.601846
3553.000000	69.606603
3552.000000	69.610551
3551.000000	69.611264
3550.000000	69.607826
3549.000000	69.603792
3548.000000	69.605565
3547.000000	69.617235
3546.000000	69.636154
3545.000000	69.655608
3544.000000	69.671031
3543.000000	69.682139
3542.000000	69.689892
3541.000000	69.695101
3540.000000	69.699754
3539.000000	69.706884
3538.000000	69.717628
3537.000000	69.728860
3536.000000	69.735955
3535.000000	69.736747
3534.000000	69.733053
3533.000000	69.728458
3532.000000	69.725403
3531.000000	69.723857
3530.000000	69.721690
3529.000000	69.717569
3528.000000	69.713530
3527.000000	69.714032
3526.000000	69.721829
3525.000000	69.734901
3524.000000	69.747270
3523.000000	69.753358
3522.000000	69.752230
3521.000000	69.748203
3520.000000	69.746809
3519.000000	69.749742
3518.000000	69.754590
3517.000000	69.758986
3516.000000	69.763194
3515.000000	69.767159
3514.000000	69.767375
3513.000000	69.759612
3512.000000	69.744284
3511.000000	69.727042
3510.000000	69.713764
3509.000000	69.706201
3508.000000	69.702371
3507.000000	69.699961
3506.000000	69.698267
3505.000000	69.697565
3504.000000	69.697037
3503.000000	69.693815
3502.000000	69.685008
3501.000000	69.671347
3500.000000	69.657532
3499.000000	69.647516
3498.000000	69.640466
3497.000000	69.632477
3496.000000	69.621358
3495.000000	69.607772
3494.000000	69.592329
3493.000000	69.574171
3492.000000	69.552783
3491.000000	69.529206
3490.000000	69.504917
3489.000000	69.480693
3488.000000	69.456290
3487.000000	69.430167
3486.000000	69.400131
3485.000000	69.365847
3484.000000	69.331205
3483.000000	69.302298
3482.000000	69.281884
3481.000000	69.266326
3480.000000	69.247964
3479.000000	69.220391
3478.000000	69.181935
3477.000000	69.135773
3476.000000	69.087109
3475.000000	69.039597
3474.000000	68.994658
3473.000000	68.953774
3472.000000	68.919547
3471.000000	68.892508
3470.000000	68.867762
3469.000000	68.837112
3468.000000	68.794478
3467.000000	68.738718
3466.000000	68.672616
3465.000000	68.601255
3464.000000	68.530958
3463.000000	68.466614
3462.000000	68.408431
3461.000000	68.351969
3460.000000	68.291871
3459.000000	68.225599
3458.000000	68.154104
3457.000000	68.080321
3456.000000	68.007420
3455.000000	67.936768
3454.000000	67.867445
3453.000000	67.797605
3452.000000	67.726258
3451.000000	67.653355
3450.000000	67.578357
3449.000000	67.500091
3448.000000	67.417963
3447.000000	67.332405
3446.000000	67.244217
3445.000000	67.154274
3444.000000	67.063599
3443.000000	66.972991
3442.000000	66.882803
3441.000000	66.794054
3440.000000	66.708810
3439.000000	66.627799
3438.000000	66.547768
3437.000000	66.462441
3436.000000	66.366491
3435.000000	66.257854
3434.000000	66.137943
3433.000000	66.011261
3432.000000	65.883436
3431.000000	65.757221
3430.000000	65.629822
3429.000000	65.496250
3428.000000	65.355283
3427.000000	65.210127
3426.000000	65.064078
3425.000000	64.917979
3424.000000	64.771513
3423.000000	64.624144
3422.000000	64.474088
3421.000000	64.318867
3420.000000	64.157778
3419.000000	63.992191
3418.000000	63.823582
3417.000000	63.652883
3416.000000	63.481335
3415.000000	63.309419
3414.000000	63.134534
3413.000000	62.952456
3412.000000	62.761456
3411.000000	62.563213
3410.000000	62.359294
3409.000000	62.148747
3408.000000	61.930165
3407.000000	61.704251
3406.000000	61.473907
3405.000000	61.243134
3404.000000	61.015418
3403.000000	60.790761
3402.000000	60.563253
3401.000000	60.323406
3400.000000	60.064578
3399.000000	59.787228
3398.000000	59.497753
3397.000000	59.204208
3396.000000	58.912258
3395.000000	58.623079
3394.000000	58.333129
3393.000000	58.036189
3392.000000	57.726426
3391.000000	57.400768
3390.000000	57.060701
3389.000000	56.711751
3388.000000	56.360065
3387.000000	56.008109
3386.000000	55.654016
3385.000000	55.295573
3384.000000	54.932716
3383.000000	54.565728
3382.000000	54.193048
3381.000000	53.812329
3380.000000	53.422775
3379.000000	53.025003
3378.000000	52.619902
3377.000000	52.208752
3376.000000	51.793151
3375.000000	51.374332
3374.000000	50.953354
3373.000000	50.532034
3372.000000	50.111727
3371.000000	49.689921
3370.000000	49.260429
3369.000000	48.817876
3368.000000	48.361113
3367.000000	47.892355
3366.000000	47.415145
3365.000000	46.934225
3364.000000	46.454539
3363.000000	45.978378
3362.000000	45.504491
3361.000000	45.030354
3360.000000	44.554138
3359.000000	44.074353
3358.000000	43.589882
3357.000000	43.101530
3356.000000	42.611713
3355.000000	42.122239
3354.000000	41.633802
3353.000000	41.147253
3352.000000	40.662917
3351.000000	40.178575
3350.000000	39.691004
3349.000000	39.200310
3348.000000	38.710361
3347.000000	38.224433
3346.000000	37.742741
3345.000000	37.264209
3344.000000	36.787966
3343.000000	36.312905
3342.000000	35.838585
3341.000000	35.367089
3340.000000	34.901216
3339.000000	34.440541
3338.000000	33.982096
3337.000000	33.525072
3336.000000	33.072046
3335.000000	32.625243
3334.000000	32.184573
3333.000000	31.749870
3332.000000	31.321577
3331.000000	30.898912
3330.000000	30.480261
3329.000000	30.065998
3328.000000	29.658593
3327.000000	29.259011
3326.000000	28.865924
3325.000000	28.478674
3324.000000	28.098162
3323.000000	27.724908
3322.000000	27.358474
3321.000000	26.999147
3320.000000	26.647785
3319.000000	26.303622
3318.000000	25.965410
3317.000000	25.633995
3316.000000	25.311412
3315.000000	24.997865
3314.000000	24.692029
3313.000000	24.394396
3312.000000	24.107090
3311.000000	23.830620
3310.000000	23.564015
3309.000000	23.307227
3308.000000	23.061227
3307.000000	22.825667
3306.000000	22.599122
3305.000000	22.381700
3304.000000	22.174078
3303.000000	21.975493
3302.000000	21.784993
3301.000000	21.603935
3300.000000	21.434879
3299.000000	21.278177
3298.000000	21.132575
3297.000000	20.997864
3296.000000	20.873821
3295.000000	20.758391
3294.000000	20.649450
3293.000000	20.547821
3292.000000	20.455587
3291.000000	20.371987
3290.000000	20.294872
3289.000000	20.224218
3288.000000	20.161466
3287.000000	20.106347
3286.000000	20.057170
3285.000000	20.013871
3284.000000	19.977084
3283.000000	19.945517
3282.000000	19.917142
3281.000000	19.891907
3280.000000	19.870761
3279.000000	19.852822
3278.000000	19.836602
3277.000000	19.822868
3276.000000	19.813121
3275.000000	19.806641
3274.000000	19.801917
3273.000000	19.799784
3272.000000	19.801937
3271.000000	19.807222
3270.000000	19.812703
3269.000000	19.817490
3268.000000	19.822662
3267.000000	19.828494
3266.000000	19.834651
3265.000000	19.842147
3264.000000	19.852169
3263.000000	19.863768
3262.000000	19.875500
3261.000000	19.888132
3260.000000	19.903179
3259.000000	19.919951
3258.000000	19.936746
3257.000000	19.953780
3256.000000	19.971960
3255.000000	19.990201
3254.000000	20.006823
3253.000000	20.022505
3252.000000	20.039093
3251.000000	20.056743
3250.000000	20.074945
3249.000000	20.094946
3248.000000	20.118090
3247.000000	20.142910
3246.000000	20.166708
3245.000000	20.188973
3244.000000	20.210704
3243.000000	20.231646
3242.000000	20.251122
3241.000000	20.270289
3240.000000	20.290673
3239.000000	20.311522
3238.000000	20.331341
3237.000000	20.350877
3236.000000	20.371951
3235.000000	20.394416
3234.000000	20.416798
3233.000000	20.438741
3232.000000	20.460313
3231.000000	20.480257
3230.000000	20.497522
3229.000000	20.513343
3228.000000	20.529414
3227.000000	20.545256
3226.000000	20.559696
3225.000000	20.573372
3224.000000	20.587267
3223.000000	20.600472
3222.000000	20.611909
3221.000000	20.622707
3220.000000	20.634186
3219.000000	20.645034
3218.000000	20.653285
3217.000000	20.659544
3216.000000	20.665486
3215.000000	20.670686
3214.000000	20.673624
3213.000000	20.674553
3212.000000	20.674556
3211.000000	20.673105
3210.000000	20.669250
3209.000000	20.663896
3208.000000	20.658433
3207.000000	20.652264
3206.000000	20.644027
3205.000000	20.634032
3204.000000	20.623025
3203.000000	20.610109
3202.000000	20.594267
3201.000000	20.576508
3200.000000	20.558240
3199.000000	20.538813
3198.000000	20.517049
3197.000000	20.493616
3196.000000	20.469594
3195.000000	20.444348
3194.000000	20.417044
3193.000000	20.388673
3192.000000	20.360323
3191.000000	20.331008
3190.000000	20.299577
3189.000000	20.266930
3188.000000	20.234151
3187.000000	20.200389
3186.000000	20.164912
3185.000000	20.129404
3184.000000	20.095583
3183.000000	20.062395
3182.000000	20.028088
3181.000000	19.993246
3180.000000	19.959228
3179.000000	19.925448
3178.000000	19.890781
3177.000000	19.856066
3176.000000	19.822654
3175.000000	19.790064
3174.000000	19.757456
3173.000000	19.725766
3172.000000	19.696070
3171.000000	19.667600
3170.000000	19.639613
3169.000000	19.613442
3168.000000	19.590392
3167.000000	19.569348
3166.000000	19.548794
3165.000000	19.529274
3164.000000	19.511623
3163.000000	19.494794
3162.000000	19.477740
3161.000000	19.461674
3160.000000	19.448110
3159.000000	19.436528
3158.000000	19.426187
3157.000000	19.418175
3156.000000	19.413592
3155.000000	19.411614
3154.000000	19.411423
3153.000000	19.413984
3152.000000	19.419599
3151.000000	19.426122
3150.000000	19.431887
3149.000000	19.438252
3148.000000	19.447025
3147.000000	19.457500
3146.000000	19.468511
3145.000000	19.481138
3144.000000	19.496830
3143.000000	19.515048
3142.000000	19.535089
3141.000000	19.558197
3140.000000	19.585263
3139.000000	19.614321
3138.000000	19.643034
3137.000000	19.671715
3136.000000	19.701713
3135.000000	19.732789
3134.000000	19.764450
3133.000000	19.798069
3132.000000	19.835070
3131.000000	19.874748
3130.000000	19.915998
3129.000000	19.959304
3128.000000	20.005052
3127.000000	20.051755
3126.000000	20.098137
3125.000000	20.145208
3124.000000	20.194306
3123.000000	20.245090
3122.000000	20.297182
3121.000000	20.351641
3120.000000	20.408970
3119.000000	20.467699
3118.000000	20.526950
3117.000000	20.588151
3116.000000	20.652192
3115.000000	20.717198
3114.000000	20.781209
3113.000000	20.845087
3112.000000	20.910740
3111.000000	20.978420
3110.000000	21.047623
3109.000000	21.118526
3108.000000	21.190857
3107.000000	21.263416
3106.000000	21.336352
3105.000000	21.411900
3104.000000	21.491200
3103.000000	21.572653
3102.000000	21.654743
3101.000000	21.737921
3100.000000	21.822222
3099.000000	21.905713
3098.000000	21.987435
3097.000000	22.069403
3096.000000	22.153624
3095.000000	22.239610
3094.000000	22.326699
3093.000000	22.416298
3092.000000	22.509545
3091.000000	22.604887
3090.000000	22.700208
3089.000000	22.795404
3088.000000	22.890941
3087.000000	22.985990
3086.000000	23.079893
3085.000000	23.173656
3084.000000	23.268170
3083.000000	23.362935
3082.000000	23.458194
3081.000000	23.556059
3080.000000	23.657727
3079.000000	23.761473
3078.000000	23.865038
3077.000000	23.968009
3076.000000	24.070370
3075.000000	24.171133
3074.000000	24.270125
3073.000000	24.368978
3072.000000	24.468768
3071.000000	24.568787
3070.000000	24.669060
3069.000000	24.771598
3068.000000	24.877360
3067.000000	24.984327
3066.000000	25.090411
3065.000000	25.196071
3064.000000	25.302248
3063.000000	25.408042
3062.000000	25.512374
3061.000000	25.615858
3060.000000	25.719184
3059.000000	25.821665
3058.000000	25.923132
3057.000000	26.025238
3056.000000	26.129164
3055.000000	26.234023
3054.000000	26.339205
3053.000000	26.446016
3052.000000	26.555084
3051.000000	26.664197
3050.000000	26.770765
3049.000000	26.874728
3048.000000	26.977340
3047.000000	27.078933
3046.000000	27.179719
3045.000000	27.281005
3044.000000	27.383685
3043.000000	27.487023
3042.000000	27.590349
3041.000000	27.694305
3040.000000	27.799070
3039.000000	27.903258
3038.000000	28.006156
3037.000000	28.109091
3036.000000	28.212942
3035.000000	28.316091
3034.000000	28.416528
3033.000000	28.514470
3032.000000	28.611440
3031.000000	28.708442
3030.000000	28.806425
3029.000000	28.906760
3028.000000	29.009703
3027.000000	29.113841
3026.000000	29.218050
3025.000000	29.322346
3024.000000	29.425975
3023.000000	29.526890
3022.000000	29.624467
3021.000000	29.720634
3020.000000	29.817090
3019.000000	29.913462
3018.000000	30.009514
3017.000000	30.106882
3016.000000	30.206916
3015.000000	30.308749
3014.000000	30.411040
3013.000000	30.513708
3012.000000	30.616334
3011.000000	30.716856
3010.000000	30.813695
3009.000000	30.907674
3008.000000	31.000341
3007.000000	31.092034
3006.000000	31.183010
3005.000000	31.274769
3004.000000	31.368637
3003.000000	31.464384
3002.000000	31.561553
3001.000000	31.660609
3000.000000	31.761398
2999.000000	31.861886
2998.000000	31.959809
2997.000000	32.054537
2996.000000	32.146510
2995.000000	32.236380
2994.000000	32.325587
2993.000000	32.416023
2992.000000	32.508040
2991.000000	32.600326
2990.000000	32.692599
2989.000000	32.786476
2988.000000	32.882671
2987.000000	32.979353
2986.000000	33.074504
2985.000000	33.168071
2984.000000	33.260521
2983.000000	33.351298
2982.000000	33.440234
2981.000000	33.528683
2980.000000	33.617754
2979.000000	33.707021
2978.000000	33.796414
2977.000000	33.887599
2976.000000	33.981827
2975.000000	34.077828
2974.000000	34.173358
2973.000000	34.267503
2972.000000	34.360189
2971.000000	34.451020
2970.000000	34.540198
2969.000000	34.629334
2968.000000	34.719803
2967.000000	34.811383
2966.000000	34.903603
2965.000000	34.997004
2964.000000	35.091756
2963.000000	35.186405
2962.000000	35.279405
2961.000000	35.370605
2960.000000	35.460051
2959.000000	35.546811
2958.000000	35.630260
2957.000000	35.711367
2956.000000	35.791587
2955.000000	35.871741
2954.000000	35.952673
2953.000000	36.035331
2952.000000	36.119352
2951.000000	36.203257
2950.000000	36.286946
2949.000000	36.372076
2948.000000	36.459050
2947.000000	36.545650
2946.000000	36.629839
2945.000000	36.711979
2944.000000	36.793137
2943.000000	36.873305
2942.000000	36.952934
2941.000000	37.034327
2940.000000	37.119605
2939.000000	37.208560
2938.000000	37.299870
2937.000000	37.392910
2936.000000	37.486808
2935.000000	37.579323
2934.000000	37.668610
2933.000000	37.755097
2932.000000	37.840125
2931.000000	37.923845
2930.000000	38.005923
2929.000000	38.087265
2928.000000	38.169604
2927.000000	38.254227
2926.000000	38.342016
2925.000000	38.433299
2924.000000	38.526386
2923.000000	38.617552
2922.000000	38.703690
2921.000000	38.783880
2920.000000	38.857509
2919.000000	38.922783
2918.000000	38.978612
2917.000000	39.026650
2916.000000	39.070044
2915.000000	39.111160
2914.000000	39.151713
2913.000000	39.193798
2912.000000	39.239413
2911.000000	39.289422
2910.000000	39.343836
2909.000000	39.402255
2908.000000	39.463347
2907.000000	39.524942
2906.000000	39.585538
2905.000000	39.645088
2904.000000	39.704027
2903.000000	39.762447
2902.000000	39.821294
2901.000000	39.882299
2900.000000	39.946715
2899.000000	40.014672
2898.000000	40.085647
2897.000000	40.158502
2896.000000	40.230592
2895.000000	40.298699
2894.000000	40.361696
2893.000000	40.421226
2892.000000	40.479287
2891.000000	40.536630
2890.000000	40.593949
2889.000000	40.652838
2888.000000	40.714452
2887.000000	40.778500
2886.000000	40.844418
2885.000000	40.912215
2884.000000	40.981275
2883.000000	41.049629
2882.000000	41.115460
2881.000000	41.178391
2880.000000	41.238752
2879.000000	41.297117
2878.000000	41.355617
2877.000000	41.418143
2876.000000	41.487313
2875.000000	41.561464
2874.000000	41.635720
2873.000000	41.705835
2872.000000	41.770695
2871.000000	41.832010
2870.000000	41.892420
2869.000000	41.953380
2868.000000	42.014075
2867.000000	42.072587
2866.000000	42.128357
2865.000000	42.183106
2864.000000	42.239642
2863.000000	42.300497
2862.000000	42.367319
2861.000000	42.439967
2860.000000	42.515836
2859.000000	42.591501
2858.000000	42.665537
2857.000000	42.738729
2856.000000	42.811472
2855.000000	42.882526
2854.000000	42.950596
2853.000000	43.015575
2852.000000	43.077678
2851.000000	43.136522
2850.000000	43.191515
2849.000000	43.242029
2848.000000	43.287177
2847.000000	43.327103
2846.000000	43.364701
2845.000000	43.404324
2844.000000	43.448344
2843.000000	43.496235
2842.000000	43.546814
2841.000000	43.599073
2840.000000	43.650428
2839.000000	43.697122
2838.000000	43.738353
2837.000000	43.778404
2836.000000	43.823054
2835.000000	43.874894
2834.000000	43.932958
2833.000000	43.995242
2832.000000	44.059841
2831.000000	44.124604
2830.000000	44.187623
2829.000000	44.247964
2828.000000	44.305211
2827.000000	44.359035
2826.000000	44.410120
2825.000000	44.460774
2824.000000	44.513606
2823.000000	44.569996
2822.000000	44.630336
2821.000000	44.694667
2820.000000	44.762042
2819.000000	44.830039
2818.000000	44.895963
2817.000000	44.958216
2816.000000	45.016078
2815.000000	45.069265
2814.000000	45.118729
2813.000000	45.167014
2812.000000	45.216602
2811.000000	45.268168
2810.000000	45.321128
2809.000000	45.375258
2808.000000	45.430815
2807.000000	45.487461
2806.000000	45.543944
2805.000000	45.598569
2804.000000	45.649555
2803.000000	45.695603
2802.000000	45.736986
2801.000000	45.775729
2800.000000	45.814068
2799.000000	45.853089
2798.000000	45.893361
2797.000000	45.936075
2796.000000	45.982605
2795.000000	46.033206
2794.000000	46.086759
2793.000000	46.141426
2792.000000	46.194943
2791.000000	46.244779
2790.000000	46.288964
2789.000000	46.327127
2788.000000	46.360744
2787.000000	46.392719
2786.000000	46.426726
2785.000000	46.465956
2784.000000	46.511610
2783.000000	46.562593
2782.000000	46.616767
2781.000000	46.671991
2780.000000	46.725969
2779.000000	46.776222
2778.000000	46.820921
2777.000000	46.859331
2776.000000	46.891201
2775.000000	46.916494
2774.000000	46.936344
2773.000000	46.953569
2772.000000	46.971224
2771.000000	46.990934
2770.000000	47.012767
2769.000000	47.035773
2768.000000	47.057930
2767.000000	47.076153
2766.000000	47.087555
2765.000000	47.090777
2764.000000	47.085949
2763.000000	47.074183
2762.000000	47.057664
2761.000000	47.039684
2760.000000	47.023610
2759.000000	47.011664
2758.000000	47.004895
2757.000000	47.003463
2756.000000	47.006148
2755.000000	47.010124
2754.000000	47.012040
2753.000000	47.009363
2752.000000	47.000485
2751.000000	46.984362
2750.000000	46.960815
2749.000000	46.930782
2748.000000	46.895786
2747.000000	46.857337
2746.000000	46.817158
2745.000000	46.777189
2744.000000	46.738296
2743.000000	46.699438
2742.000000	46.658735
2741.000000	46.615078
2740.000000	46.568517
2739.000000	46.519900
2738.000000	46.471103
2737.000000	46.425584
2736.000000	46.387988
2735.000000	46.363237
2734.000000	46.356084
2733.000000	46.369932
2732.000000	46.405413
2731.000000	46.460429
2730.000000	46.531598
2729.000000	46.615574
2728.000000	46.708275
2727.000000	46.804303
2726.000000	46.898839
2725.000000	46.989683
2724.000000	47.077370
2723.000000	47.163626
2722.000000	47.250189
2721.000000	47.338607
2720.000000	47.429858
2719.000000	47.523807
2718.000000	47.619164
2717.000000	47.713646
2716.000000	47.803968
2715.000000	47.886478
2714.000000	47.958355
2713.000000	48.018398
2712.000000	48.066722
2711.000000	48.104095
2710.000000	48.132455
2709.000000	48.155181
2708.000000	48.175959
2707.000000	48.197399
2706.000000	48.220571
2705.000000	48.245517
2704.000000	48.271201
2703.000000	48.295173
2702.000000	48.314403
2701.000000	48.326659
2700.000000	48.331258
2699.000000	48.328818
2698.000000	48.320972
2697.000000	48.310357
2696.000000	48.300019
2695.000000	48.292504
2694.000000	48.289384
2693.000000	48.291112
2692.000000	48.296818
2691.000000	48.304325
2690.000000	48.310889
2689.000000	48.314112
2688.000000	48.312273
2687.000000	48.304460
2686.000000	48.291042
2685.000000	48.273980
2684.000000	48.256232
2683.000000	48.240710
2682.000000	48.229765
2681.000000	48.224973
2680.000000	48.226592
2679.000000	48.233197
2678.000000	48.242283
2677.000000	48.251279
2676.000000	48.258101
2675.000000	48.261307
2674.000000	48.260421
2673.000000	48.256401
2672.000000	48.251612
2671.000000	48.249413
2670.000000	48.253473
2669.000000	48.266671
2668.000000	48.289972
2667.000000	48.322008
2666.000000	48.359780
2665.000000	48.399590
2664.000000	48.437439
2663.000000	48.469535
2662.000000	48.493155
2661.000000	48.507184
2660.000000	48.512117
2659.000000	48.510035
2658.000000	48.504484
2657.000000	48.499718
2656.000000	48.499296
2655.000000	48.505185
2654.000000	48.517968
2653.000000	48.537169
2652.000000	48.561049
2651.000000	48.586901
2650.000000	48.612351
2649.000000	48.636358
2648.000000	48.659217
2647.000000	48.682152
2646.000000	48.707261
2645.000000	48.737502
2644.000000	48.775717
2643.000000	48.823827
2642.000000	48.882585
2641.000000	48.951332
2640.000000	49.027722
2639.000000	49.107807
2638.000000	49.187291
2637.000000	49.262788
2636.000000	49.332010
2635.000000	49.393501
2634.000000	49.446781
2633.000000	49.492624
2632.000000	49.532832
2631.000000	49.569689
2630.000000	49.605282
2629.000000	49.641090
2628.000000	49.677491
2627.000000	49.713541
2626.000000	49.747571
2625.000000	49.777767
2624.000000	49.802646
2623.000000	49.821394
2622.000000	49.834199
2621.000000	49.842334
2620.000000	49.847435
2619.000000	49.850861
2618.000000	49.853590
2617.000000	49.856151
2616.000000	49.858405
2615.000000	49.859252
2614.000000	49.857013
2613.000000	49.850032
2612.000000	49.836784
2611.000000	49.816158
2610.000000	49.788027
2609.000000	49.753831
2608.000000	49.716533
2607.000000	49.679973
2606.000000	49.648290
2605.000000	49.625367
2604.000000	49.614027
2603.000000	49.615456
2602.000000	49.629485
2601.000000	49.654668
2600.000000	49.688402
2599.000000	49.727484
2598.000000	49.768962
2597.000000	49.811120
2596.000000	49.853343
2595.000000	49.895886
2594.000000	49.940033
2593.000000	49.987740
2592.000000	50.040875
2591.000000	50.100278
2590.000000	50.165579
2589.000000	50.235562
2588.000000	50.308316
2587.000000	50.381601
2586.000000	50.453365
2585.000000	50.522088
2584.000000	50.586838
2583.000000	50.647374
2582.000000	50.704634
2581.000000	50.760931
2580.000000	50.819256
2579.000000	50.882111
2578.000000	50.950735
2577.000000	51.025065
2576.000000	51.103965
2575.000000	51.185474
2574.000000	51.267052
2573.000000	51.345825
2572.000000	51.418966
2571.000000	51.484457
2570.000000	51.541938
2569.000000	51.592656
2568.000000	51.638565
2567.000000	51.681078
2566.000000	51.720778
2565.000000	51.758063
2564.000000	51.793072
2563.000000	51.825147
2562.000000	51.852189
2561.000000	51.870983
2560.000000	51.878371
2559.000000	51.871885
2558.000000	51.850674
2557.000000	51.816095
2556.000000	51.771866
2555.000000	51.723756
2554.000000	51.678751
2553.000000	51.644227
2552.000000	51.626791
2551.000000	51.630840
2550.000000	51.657316
2549.000000	51.704062
2548.000000	51.766621
2547.000000	51.839504
2546.000000	51.917667
2545.000000	51.997029
2544.000000	52.075159
2543.000000	52.151214
2542.000000	52.225517
2541.000000	52.299209
2540.000000	52.373462
2539.000000	52.448714
2538.000000	52.524227
2537.000000	52.598284
2536.000000	52.668676
2535.000000	52.733247
2534.000000	52.790248
2533.000000	52.838959
2532.000000	52.880257
2531.000000	52.916244
2530.000000	52.949518
2529.000000	52.982528
2528.000000	53.017376
2527.000000	53.055658
2526.000000	53.097967
2525.000000	53.143679
2524.000000	53.191113
2523.000000	53.237878
2522.000000	53.281383
2521.000000	53.319439
2520.000000	53.350942
2519.000000	53.376126
2518.000000	53.396385
2517.000000	53.413995
2516.000000	53.431519
2515.000000	53.451198
2514.000000	53.474593
2513.000000	53.502556
2512.000000	53.535052
2511.000000	53.570716
2510.000000	53.606989
2509.000000	53.641189
2508.000000	53.671534
2507.000000	53.697119
2506.000000	53.717439
2505.000000	53.732714
2504.000000	53.744519
2503.000000	53.755419
2502.000000	53.767855
2501.000000	53.783437
2500.000000	53.803003
2499.000000	53.826644
2498.000000	53.853443
2497.000000	53.881545
2496.000000	53.908690
2495.000000	53.932769
2494.000000	53.952247
2493.000000	53.966673
2492.000000	53.976972
2491.000000	53.984948
2490.000000	53.992486
2489.000000	54.001258
2488.000000	54.012679
2487.000000	54.027550
2486.000000	54.045587
2485.000000	54.065586
2484.000000	54.086025
2483.000000	54.105311
2482.000000	54.121867
2481.000000	54.134638
2480.000000	54.143679
2479.000000	54.150033
2478.000000	54.155069
2477.000000	54.160239
2476.000000	54.167081
2475.000000	54.176766
2474.000000	54.189482
2473.000000	54.204493
2472.000000	54.220737
2471.000000	54.237101
2470.000000	54.252334
2469.000000	54.265226
2468.000000	54.275050
2467.000000	54.281689
2466.000000	54.285559
2465.000000	54.287781
2464.000000	54.290300
2463.000000	54.295255
2462.000000	54.304050
2461.000000	54.316945
2460.000000	54.333203
2459.000000	54.351227
2458.000000	54.368883
2457.000000	54.384276
2456.000000	54.396388
2455.000000	54.404953
2454.000000	54.410128
2453.000000	54.412686
2452.000000	54.414245
2451.000000	54.416764
2450.000000	54.421825
2449.000000	54.430497
2448.000000	54.443378
2447.000000	54.460121
2446.000000	54.479112
2445.000000	54.498157
2444.000000	54.515423
2443.000000	54.529636
2442.000000	54.539957
2441.000000	54.546422
2440.000000	54.550334
2439.000000	54.553629
2438.000000	54.557907
2437.000000	54.564345
2436.000000	54.574016
2435.000000	54.587478
2434.000000	54.604062
2433.000000	54.622137
2432.000000	54.640114
2431.000000	54.656835
2430.000000	54.671355
2429.000000	54.683023
2428.000000	54.691871
2427.000000	54.698585
2426.000000	54.704250
2425.000000	54.710373
2424.000000	54.718669
2423.000000	54.730139
2422.000000	54.744454
2421.000000	54.760602
2420.000000	54.777760
2419.000000	54.795097
2418.000000	54.811214
2417.000000	54.824680
2416.000000	54.835101
2415.000000	54.843236
2414.000000	54.850331
2413.000000	54.857848
2412.000000	54.867501
2411.000000	54.880642
2410.000000	54.897505
2409.000000	54.917240
2408.000000	54.938430
2407.000000	54.959299
2406.000000	54.977990
2405.000000	54.993427
2404.000000	55.005819
2403.000000	55.015982
2402.000000	55.024637
2401.000000	55.032860
2400.000000	55.042557
2399.000000	55.055645
2398.000000	55.072941
2397.000000	55.094293
2396.000000	55.119155
2395.000000	55.146297
2394.000000	55.173461
2393.000000	55.198287
2392.000000	55.219465
2391.000000	55.236728
2390.000000	55.250532
2389.000000	55.262355
2388.000000	55.275214
2387.000000	55.292319
2386.000000	55.315760
2385.000000	55.346932
2384.000000	55.386538
2383.000000	55.434188
2382.000000	55.487122
2381.000000	55.541292
2380.000000	55.593616
2379.000000	55.641781
2378.000000	55.683967
2377.000000	55.719293
2376.000000	55.748424
2375.000000	55.773171
2374.000000	55.796327
2373.000000	55.821985
2372.000000	55.854627
2371.000000	55.896225
2370.000000	55.943936
2369.000000	55.993709
2368.000000	56.042864
2367.000000	56.089271
2366.000000	56.130233
2365.000000	56.164505
2364.000000	56.195641
2363.000000	56.224253
2362.000000	56.249663
2361.000000	56.276673
2360.000000	56.307442
2359.000000	56.344639
2358.000000	56.385925
2357.000000	56.427746
2356.000000	56.470671
2355.000000	56.510547
2354.000000	56.547541
2353.000000	56.582735
2352.000000	56.622198
2351.000000	56.667665
2350.000000	56.706189
2349.000000	56.733066
2348.000000	56.754736
2347.000000	56.792216
2346.000000	56.852193
2345.000000	56.916620
2344.000000	56.969291
2343.000000	57.003972
2342.000000	57.033998
2341.000000	57.064996
2340.000000	57.094671
2339.000000	57.120239
2338.000000	57.142289
2337.000000	57.163136
2336.000000	57.186314
2335.000000	57.215000
2334.000000	57.253868
2333.000000	57.301854
2332.000000	57.355007
2331.000000	57.410282
2330.000000	57.460710
2329.000000	57.508118
2328.000000	57.548733
2327.000000	57.585308
2326.000000	57.618616
2325.000000	57.647645
2324.000000	57.675983
2323.000000	57.702436
2322.000000	57.731482
2321.000000	57.761941
2320.000000	57.796644
2319.000000	57.837181
2318.000000	57.884012
2317.000000	57.934804
2316.000000	57.984994
2315.000000	58.032602
2314.000000	58.074566
2313.000000	58.109451
2312.000000	58.136002
2311.000000	58.157613
2310.000000	58.178167
2309.000000	58.201518
2308.000000	58.230364
2307.000000	58.266725
2306.000000	58.310663
2305.000000	58.358642
2304.000000	58.406921
2303.000000	58.452295
2302.000000	58.492530
2301.000000	58.525746
2300.000000	58.551512
2299.000000	58.572367
2298.000000	58.590843
2297.000000	58.609733
2296.000000	58.631411
2295.000000	58.659047
2294.000000	58.693491
2293.000000	58.732865
2292.000000	58.774261
2291.000000	58.815240
2290.000000	58.853344
2289.000000	58.885537
2288.000000	58.910683
2287.000000	58.930066
2286.000000	58.946276
2285.000000	58.961404
2284.000000	58.978397
2283.000000	59.000655
2282.000000	59.030288
2281.000000	59.066482
2280.000000	59.107066
2279.000000	59.149564
2278.000000	59.190790
2277.000000	59.227034
2276.000000	59.256023
2275.000000	59.278207
2274.000000	59.295114
2273.000000	59.308694
2272.000000	59.321914
2271.000000	59.338630
2270.000000	59.361416
2269.000000	59.390457
2268.000000	59.424885
2267.000000	59.463352
2266.000000	59.502849
2265.000000	59.539105
2264.000000	59.568735
2263.000000	59.590614
2262.000000	59.604610
2261.000000	59.611156
2260.000000	59.612924
2259.000000	59.614337
2258.000000	59.619221
2257.000000	59.629004
2256.000000	59.644070
2255.000000	59.664214
2254.000000	59.687239
2253.000000	59.708855
2252.000000	59.724571
2251.000000	59.731378
2250.000000	59.726896
2249.000000	59.709881
2248.000000	59.681676
2247.000000	59.645969
2246.000000	59.606555
2245.000000	59.566027
2244.000000	59.526713
2243.000000	59.490352
2242.000000	59.456332
2241.000000	59.421856
2240.000000	59.384276
2239.000000	59.342106
2238.000000	59.294038
2237.000000	59.239366
2236.000000	59.180105
2235.000000	59.120899
2234.000000	59.066421
2233.000000	59.020089
2232.000000	58.985186
2231.000000	58.964548
2230.000000	58.958215
2229.000000	58.962848
2228.000000	58.974036
2227.000000	58.987940
2226.000000	59.000523
2225.000000	59.007766
2224.000000	59.007775
2223.000000	59.001484
2222.000000	58.990788
2221.000000	58.977495
2220.000000	58.964344
2219.000000	58.954862
2218.000000	58.951164
2217.000000	58.953027
2216.000000	58.959370
2215.000000	58.968880
2214.000000	58.978879
2213.000000	58.985647
2212.000000	58.986905
2211.000000	58.982750
2210.000000	58.974069
2209.000000	58.962001
2208.000000	58.949390
2207.000000	58.940576
2206.000000	58.938605
2205.000000	58.943753
2204.000000	58.954897
2203.000000	58.970402
2202.000000	58.987184
2201.000000	59.000986
2200.000000	59.008730
2199.000000	59.009448
2198.000000	59.002903
2197.000000	58.989417
2196.000000	58.971625
2195.000000	58.954282
2194.000000	58.941331
2193.000000	58.934407
2192.000000	58.934096
2191.000000	58.940295
2190.000000	58.950510
2189.000000	58.959814
2188.000000	58.963715
2187.000000	58.959934
2186.000000	58.947391
2185.000000	58.925934
2184.000000	58.898060
2183.000000	58.869033
2182.000000	58.844148
2181.000000	58.827070
2180.000000	58.820685
2179.000000	58.827162
2178.000000	58.845947
2177.000000	58.873228
2176.000000	58.904327
2175.000000	58.935381
2174.000000	58.962633
2173.000000	58.982499
2172.000000	58.993865
2171.000000	58.999016
2170.000000	59.001690
2169.000000	59.005627
2168.000000	59.015006
2167.000000	59.033799
2166.000000	59.063360
2165.000000	59.101829
2164.000000	59.146244
2163.000000	59.193616
2162.000000	59.239817
2161.000000	59.279972
2160.000000	59.311278
2159.000000	59.334066
2158.000000	59.349857
2157.000000	59.360591
2156.000000	59.370146
2155.000000	59.383914
2154.000000	59.405439
2153.000000	59.434869
2152.000000	59.470883
2151.000000	59.511815
2150.000000	59.554330
2149.000000	59.593595
2148.000000	59.626244
2147.000000	59.651740
2146.000000	59.670534
2145.000000	59.683298
2144.000000	59.692774
2143.000000	59.703832
2142.000000	59.720357
2141.000000	59.743649
2140.000000	59.774166
2139.000000	59.812173
2138.000000	59.855720
2137.000000	59.900398
2136.000000	59.942424
2135.000000	59.980285
2134.000000	60.012950
2133.000000	60.039187
2132.000000	60.059854
2131.000000	60.078585
2130.000000	60.098919
2129.000000	60.122528
2128.000000	60.150583
2127.000000	60.184180
2126.000000	60.222233
2125.000000	60.261092
2124.000000	60.297381
2123.000000	60.329443
2122.000000	60.355877
2121.000000	60.375461
2120.000000	60.389513
2119.000000	60.401899
2118.000000	60.415859
2117.000000	60.433033
2116.000000	60.455715
2115.000000	60.486804
2114.000000	60.526220
2113.000000	60.569904
2112.000000	60.613421
2111.000000	60.654185
2110.000000	60.689650
2109.000000	60.716791
2108.000000	60.734971
2107.000000	60.746814
2106.000000	60.755206
2105.000000	60.761899
2104.000000	60.769558
2103.000000	60.781806
2102.000000	60.799606
2101.000000	60.820067
2100.000000	60.839855
2099.000000	60.857140
2098.000000	60.869563
2097.000000	60.873545
2096.000000	60.867218
2095.000000	60.851747
2094.000000	60.828925
2093.000000	60.800475
2092.000000	60.770666
2091.000000	60.746201
2090.000000	60.731671
2089.000000	60.727144
2088.000000	60.730957
2087.000000	60.742064
2086.000000	60.758407
2085.000000	60.776203
2084.000000	60.792945
2083.000000	60.808888
2082.000000	60.824525
2081.000000	60.839394
2080.000000	60.854612
2079.000000	60.873772
2078.000000	60.899547
2077.000000	60.931732
2076.000000	60.969666
2075.000000	61.013664
2074.000000	61.062570
2073.000000	61.112748
2072.000000	61.161261
2071.000000	61.207326
2070.000000	61.249536
2069.000000	61.285282
2068.000000	61.315336
2067.000000	61.346287
2066.000000	61.385814
2065.000000	61.436942
2064.000000	61.498174
2063.000000	61.566607
2062.000000	61.638711
2061.000000	61.710651
2060.000000	61.780182
2059.000000	61.846781
2058.000000	61.909200
2057.000000	61.965295
2056.000000	62.015331
2055.000000	62.062747
2054.000000	62.110473
2053.000000	62.159297
2052.000000	62.210586
2051.000000	62.266832
2050.000000	62.328114
2049.000000	62.391238
2048.000000	62.453365
2047.000000	62.513195
2046.000000	62.568030
2045.000000	62.614096
2044.000000	62.651752
2043.000000	62.686971
2042.000000	62.725861
2041.000000	62.770409
2040.000000	62.820593
2039.000000	62.876979
2038.000000	62.939370
2037.000000	63.006100
2036.000000	63.076290
2035.000000	63.149924
2034.000000	63.224776
2033.000000	63.296466
2032.000000	63.362598
2031.000000	63.424004
2030.000000	63.481282
2029.000000	63.534074
2028.000000	63.584519
2027.000000	63.637263
2026.000000	63.694701
2025.000000	63.755791
2024.000000	63.819915
2023.000000	63.886983
2022.000000	63.953240
2021.000000	64.012366
2020.000000	64.063129
2019.000000	64.112175
2018.000000	64.166849
2017.000000	64.228206
2016.000000	64.293196
2015.000000	64.359606
2014.000000	64.426087
2013.000000	64.491705
2012.000000	64.557918
2011.000000	64.627894
2010.000000	64.702495
2009.000000	64.779595
2008.000000	64.857683
2007.000000	64.936545
2006.000000	65.014107
2005.000000	65.086837
2004.000000	65.154562
2003.000000	65.220987
2002.000000	65.288803
2001.000000	65.358102
2000.000000	65.430425
1999.000000	65.508676
1998.000000	65.590376
1997.000000	65.666779
1996.000000	65.731220
1995.000000	65.784600
1994.000000	65.832910
1993.000000	65.882456
1992.000000	65.936639
1991.000000	65.995635
1990.000000	66.057799
1989.000000	66.122371
1988.000000	66.191540
1987.000000	66.266811
1986.000000	66.344404
1985.000000	66.418541
1984.000000	66.488263
1983.000000	66.555844
1982.000000	66.619574
1981.000000	66.674402
1980.000000	66.719732
1979.000000	66.759886
1978.000000	66.796530
1977.000000	66.828504
1976.000000	66.859074
1975.000000	66.895225
1974.000000	66.938798
1973.000000	66.984903
1972.000000	67.028937
1971.000000	67.068582
1970.000000	67.101076
1969.000000	67.128202
1968.000000	67.161331
1967.000000	67.209769
1966.000000	67.266616
1965.000000	67.316281
1964.000000	67.353056
1963.000000	67.383963
1962.000000	67.415862
1961.000000	67.449204
1960.000000	67.484252
1959.000000	67.523343
1958.000000	67.565375
1957.000000	67.606965
1956.000000	67.649724
1955.000000	67.697488
1954.000000	67.746567
1953.000000	67.788102
1952.000000	67.819232
1951.000000	67.843450
1950.000000	67.861379
1949.000000	67.870699
1948.000000	67.875444
1947.000000	67.884077
1946.000000	67.897205
1945.000000	67.909645
1944.000000	67.927064
1943.000000	67.963724
1942.000000	68.019466
1941.000000	68.078221
1940.000000	68.128998
1939.000000	68.172051
1938.000000	68.207966
1937.000000	68.234236
1936.000000	68.253439
1935.000000	68.274120
1934.000000	68.300445
1933.000000	68.329342
1932.000000	68.358770
1931.000000	68.390580
1930.000000	68.423764
1929.000000	68.451863
1928.000000	68.469370
1927.000000	68.473797
1926.000000	68.463180
1925.000000	68.442402
1924.000000	68.431657
1923.000000	68.452516
1922.000000	68.504977
1921.000000	68.569387
1920.000000	68.625712
1919.000000	68.666650
1918.000000	68.693745
1917.000000	68.710028
1916.000000	68.722182
1915.000000	68.737066
1914.000000	68.750325
1913.000000	68.750612
1912.000000	68.738890
1911.000000	68.733690
1910.000000	68.752104
1909.000000	68.793165
1908.000000	68.845700
1907.000000	68.901578
1906.000000	68.955259
1905.000000	69.000091
1904.000000	69.032697
1903.000000	69.056986
1902.000000	69.076561
1901.000000	69.088253
1900.000000	69.088942
1899.000000	69.081294
1898.000000	69.070667
1897.000000	69.064214
1896.000000	69.072308
1895.000000	69.100976
1894.000000	69.141345
1893.000000	69.174591
1892.000000	69.190087
1891.000000	69.196912
1890.000000	69.208075
1889.000000	69.219592
1888.000000	69.222705
1887.000000	69.220708
1886.000000	69.220434
1885.000000	69.223073
1884.000000	69.229121
1883.000000	69.242516
1882.000000	69.264361
1881.000000	69.289813
1880.000000	69.316438
1879.000000	69.346401
1878.000000	69.377877
1877.000000	69.402680
1876.000000	69.413759
1875.000000	69.410323
1874.000000	69.394689
1873.000000	69.367121
1872.000000	69.323864
1871.000000	69.262283
1870.000000	69.200383
1869.000000	69.174320
1868.000000	69.201660
1867.000000	69.271379
1866.000000	69.357917
1865.000000	69.431297
1864.000000	69.473783
1863.000000	69.488549
1862.000000	69.486284
1861.000000	69.472686
1860.000000	69.453799
1859.000000	69.439985
1858.000000	69.436454
1857.000000	69.438634
1856.000000	69.442435
1855.000000	69.451414
1854.000000	69.466309
1853.000000	69.477247
1852.000000	69.474607
1851.000000	69.454929
1850.000000	69.416701
1849.000000	69.367990
1848.000000	69.334306
1847.000000	69.338929
1846.000000	69.367907
1845.000000	69.378185
1844.000000	69.353276
1843.000000	69.321130
1842.000000	69.308424
1841.000000	69.311336
1840.000000	69.313185
1839.000000	69.308025
1838.000000	69.302128
1837.000000	69.295906
1836.000000	69.281276
1835.000000	69.256500
1834.000000	69.224085
1833.000000	69.177803
1832.000000	69.111134
1831.000000	69.045621
1830.000000	69.010923
1829.000000	69.003477
1828.000000	69.007105
1827.000000	69.009944
1826.000000	68.999455
1825.000000	68.972502
1824.000000	68.941289
1823.000000	68.920931
1822.000000	68.909234
1821.000000	68.890265
1820.000000	68.856970
1819.000000	68.816960
1818.000000	68.779366
1817.000000	68.744863
1816.000000	68.708261
1815.000000	68.662402
1814.000000	68.599603
1813.000000	68.522478
1812.000000	68.450539
1811.000000	68.400490
1810.000000	68.368173
1809.000000	68.340932
1808.000000	68.316202
1807.000000	68.298810
1806.000000	68.285716
1805.000000	68.263027
1804.000000	68.221656
1803.000000	68.170613
1802.000000	68.129349
1801.000000	68.107126
1800.000000	68.091767
1799.000000	68.062464
1798.000000	68.011556
1797.000000	67.953062
1796.000000	67.914133
1795.000000	67.906810
1794.000000	67.907075
1793.000000	67.891932
1792.000000	67.873132
1791.000000	67.870672
1790.000000	67.889075
1789.000000	67.918215
1788.000000	67.940079
1787.000000	67.934792
1786.000000	67.887943
1785.000000	67.799062
1784.000000	67.686306
1783.000000	67.575148
1782.000000	67.480504
1781.000000	67.406536
1780.000000	67.352713
1779.000000	67.311577
1778.000000	67.261760
1777.000000	67.182841
1776.000000	67.088844
1775.000000	67.013613
1774.000000	66.961536
1773.000000	66.919349
1772.000000	66.881986
1771.000000	66.843217
1770.000000	66.798249
1769.000000	66.743220
1768.000000	66.680983
1767.000000	66.627249
1766.000000	66.592911
1765.000000	66.573118
1764.000000	66.551663
1763.000000	66.511962
1762.000000	66.445680
1761.000000	66.358219
1760.000000	66.273059
1759.000000	66.210200
1758.000000	66.158338
1757.000000	66.087417
1756.000000	65.995698
1755.000000	65.908583
1754.000000	65.830080
1753.000000	65.726736
1752.000000	65.571718
1751.000000	65.399546
1750.000000	65.267501
1749.000000	65.185942
1748.000000	65.133002
1747.000000	65.086814
1746.000000	65.025220
1745.000000	64.940848
1744.000000	64.862406
1743.000000	64.825569
1742.000000	64.818953
1741.000000	64.784928
1740.000000	64.687967
1739.000000	64.558667
1738.000000	64.443926
1737.000000	64.359586
1736.000000	64.256682
1735.000000	64.065113
1734.000000	63.813728
1733.000000	63.591282
1732.000000	63.439623
1731.000000	63.349926
1730.000000	63.291264
1729.000000	63.222441
1728.000000	63.127501
1727.000000	63.015712
1726.000000	62.883328
1725.000000	62.717084
1724.000000	62.526135
1723.000000	62.340614
1722.000000	62.165484
1721.000000	61.959077
1720.000000	61.668081
1719.000000	61.308924
1718.000000	60.987015
1717.000000	60.771021
1716.000000	60.637143
1715.000000	60.531165
1714.000000	60.412912
1713.000000	60.267058
1712.000000	60.096437
1711.000000	59.909937
1710.000000	59.709135
1709.000000	59.487341
1708.000000	59.237202
1707.000000	58.961759
1706.000000	58.676347
1705.000000	58.416087
1704.000000	58.242834
1703.000000	58.203851
1702.000000	58.171734
1701.000000	57.885009
1700.000000	57.357390
1699.000000	56.860188
1698.000000	56.556360
1697.000000	56.425820
1696.000000	56.315467
1695.000000	56.125167
1694.000000	55.895065
1693.000000	55.654314
1692.000000	55.399226
1691.000000	55.122935
1690.000000	54.820099
1689.000000	54.503173
1688.000000	54.216272
1687.000000	54.005920
1686.000000	53.827941
1685.000000	53.612164
1684.000000	53.351055
1683.000000	53.077391
1682.000000	52.833249
1681.000000	52.620419
1680.000000	52.440067
1679.000000	52.306367
1678.000000	52.210142
1677.000000	52.083918
1676.000000	51.846300
1675.000000	51.517484
1674.000000	51.195526
1673.000000	50.932021
1672.000000	50.714192
1671.000000	50.514963
1670.000000	50.307902
1669.000000	50.069007
1668.000000	49.817958
1667.000000	49.603363
1666.000000	49.431774
1665.000000	49.257232
1664.000000	49.036213
1663.000000	48.781792
1662.000000	48.529115
1661.000000	48.287763
1660.000000	48.054804
1659.000000	47.832775
1658.000000	47.612108
1657.000000	47.388793
1656.000000	47.176252
1655.000000	46.967707
1654.000000	46.738022
1653.000000	46.428508
1652.000000	46.100362
1651.000000	45.867595
1650.000000	45.678691
1649.000000	45.472605
1648.000000	45.266730
1647.000000	45.090773
1646.000000	44.922130
1645.000000	44.742736
1644.000000	44.562936
1643.000000	44.389745
1642.000000	44.217963
1641.000000	44.027036
1640.000000	43.813112
1639.000000	43.605922
1638.000000	43.432605
1637.000000	43.294345
1636.000000	43.152790
1635.000000	42.970018
1634.000000	42.775234
1633.000000	42.598732
1632.000000	42.440841
1631.000000	42.295638
1630.000000	42.144954
1629.000000	41.974680
1628.000000	41.797139
1627.000000	41.642430
1626.000000	41.518527
1625.000000	41.396477
1624.000000	41.254838
1623.000000	41.107158
1622.000000	40.970599
1621.000000	40.842161
1620.000000	40.719089
1619.000000	40.612998
1618.000000	40.531636
1617.000000	40.461162
1616.000000	40.385996
1615.000000	40.317705
1614.000000	40.264941
1613.000000	40.213225
1612.000000	40.149858
1611.000000	40.082086
1610.000000	40.026449
1609.000000	39.985413
1608.000000	39.952775
1607.000000	39.929592
1606.000000	39.913986
1605.000000	39.893474
1604.000000	39.865358
1603.000000	39.845401
1602.000000	39.843212
1601.000000	39.846935
1600.000000	39.843671
1599.000000	39.836770
1598.000000	39.832439
1597.000000	39.828576
1596.000000	39.826873
1595.000000	39.838410
1594.000000	39.865614
1593.000000	39.894288
1592.000000	39.914289
1591.000000	39.932972
1590.000000	39.958008
1589.000000	39.981961
1588.000000	39.996285
1587.000000	40.006360
1586.000000	40.019398
1585.000000	40.029677
1584.000000	40.031728
1583.000000	40.032300
1582.000000	40.031179
1581.000000	40.008632
1580.000000	39.952123
1579.000000	39.881924
1578.000000	39.837610
1577.000000	39.839816
1576.000000	39.862527
1575.000000	39.876620
1574.000000	39.884124
1573.000000	39.891732
1572.000000	39.894056
1571.000000	39.880379
1570.000000	39.857738
1569.000000	39.830627
1568.000000	39.801941
1567.000000	39.788055
1566.000000	39.791123
1565.000000	39.786795
1564.000000	39.773158
1563.000000	39.778160
1562.000000	39.848918
1561.000000	39.890805
1560.000000	39.852997
1559.000000	39.905360
1558.000000	40.013961
1557.000000	40.096955
1556.000000	40.186182
1555.000000	40.304614
1554.000000	40.441562
1553.000000	40.560520
1552.000000	40.656918
1551.000000	40.758017
1550.000000	40.892279
1549.000000	41.048758
1548.000000	41.196606
1547.000000	41.313982
1546.000000	41.395059
1545.000000	41.464275
1544.000000	41.551749
1543.000000	41.655402
1542.000000	41.770576
1541.000000	41.979225
1540.000000	42.311080
1539.000000	42.637593
1538.000000	42.893856
1537.000000	43.102570
1536.000000	43.289214
1535.000000	43.477219
1534.000000	43.692083
1533.000000	43.936785
1532.000000	44.178693
1531.000000	44.414032
1530.000000	44.657629
1529.000000	44.906641
1528.000000	45.160677
1527.000000	45.433276
1526.000000	45.721178
1525.000000	45.995550
1524.000000	46.246413
1523.000000	46.522478
1522.000000	46.889986
1521.000000	47.312783
1520.000000	47.688789
1519.000000	48.001260
1518.000000	48.324176
1517.000000	48.718365
1516.000000	49.153469
1515.000000	49.572986
1514.000000	49.963099
1513.000000	50.310016
1512.000000	50.591093
1511.000000	50.795592
1510.000000	50.944472
1509.000000	51.081629
1508.000000	51.398697
1507.000000	52.051452
1506.000000	52.773938
1505.000000	53.305251
1504.000000	53.675970
1503.000000	53.994999
1502.000000	54.338646
1501.000000	54.700396
1500.000000	55.038988
1499.000000	55.352422
1498.000000	55.692736
1497.000000	56.088231
1496.000000	56.495384
1495.000000	56.867534
1494.000000	57.195606
1493.000000	57.471158
1492.000000	57.674346
1491.000000	57.843833
1490.000000	58.082894
1489.000000	58.418948
1488.000000	58.786965
1487.000000	59.139100
1486.000000	59.459603
1485.000000	59.730477
1484.000000	59.947766
1483.000000	60.139625
1482.000000	60.336739
1481.000000	60.537873
1480.000000	60.724412
1479.000000	60.884083
1478.000000	60.996204
1477.000000	61.038779
1476.000000	61.031545
1475.000000	61.030117
1474.000000	61.071699
1473.000000	61.142458
1472.000000	61.188597
1471.000000	61.181286
1470.000000	61.126638
1469.000000	61.022434
1468.000000	60.865279
1467.000000	60.653902
1466.000000	60.363832
1465.000000	59.959637
1464.000000	59.464739
1463.000000	58.965251
1462.000000	58.495972
1461.000000	58.014533
1460.000000	57.487387
1459.000000	56.925643
1458.000000	56.317597
1457.000000	55.577838
1456.000000	54.757559
1455.000000	54.019820
1454.000000	53.329419
1453.000000	52.544025
1452.000000	51.618779
1451.000000	50.594628
1450.000000	49.467035
1449.000000	48.155706
1448.000000	46.660112
1447.000000	45.101188
1446.000000	43.548798
1445.000000	41.956432
1444.000000	40.280552
1443.000000	38.524584
1442.000000	36.693352
1441.000000	34.824107
1440.000000	33.010502
1439.000000	31.257066
1438.000000	29.352455
1437.000000	27.122650
1436.000000	24.856004
1435.000000	23.012438
1434.000000	21.613892
1433.000000	20.418315
1432.000000	19.329926
1431.000000	18.399277
1430.000000	17.643359
1429.000000	17.037650
1428.000000	16.634683
1427.000000	16.493023
1426.000000	16.567782
1425.000000	16.806133
1424.000000	17.244026
1423.000000	17.889967
1422.000000	18.651748
1421.000000	19.479912
1420.000000	20.467986
1419.000000	21.678171
1418.000000	22.943611
1417.000000	24.100543
1416.000000	25.209576
1415.000000	26.366904
1414.000000	27.554143
1413.000000	28.731401
1412.000000	29.929959
1411.000000	31.179619
1410.000000	32.432199
1409.000000	33.636108
1408.000000	34.809530
1407.000000	35.991197
1406.000000	37.186183
1405.000000	38.386761
1404.000000	39.581845
1403.000000	40.732780
1402.000000	41.805629
1401.000000	42.826775
1400.000000	43.862845
1399.000000	44.925860
1398.000000	45.957609
1397.000000	46.949956
1396.000000	47.979972
1395.000000	49.085131
1394.000000	50.190064
1393.000000	51.213794
1392.000000	52.160761
1391.000000	53.062672
1390.000000	53.930714
1389.000000	54.783499
1388.000000	55.655906
1387.000000	56.542798
1386.000000	57.378710
1385.000000	58.113854
1384.000000	58.742781
1383.000000	59.259144
1382.000000	59.652248
1381.000000	59.928109
1380.000000	60.091741
1379.000000	60.119458
1378.000000	59.975753
1377.000000	59.635497
1376.000000	59.067040
1375.000000	58.232988
1374.000000	57.131933
1373.000000	55.828083
1372.000000	54.420874
1371.000000	53.000698
1370.000000	51.674019
1369.000000	50.605124
1368.000000	49.968164
1367.000000	49.841738
1366.000000	50.186483
1365.000000	50.920865
1364.000000	51.986505
1363.000000	53.325759
1362.000000	54.812951
1361.000000	56.282555
1360.000000	57.619601
1359.000000	58.771351
1358.000000	59.709893
1357.000000	60.413905
1356.000000	60.861741
1355.000000	61.030491
1354.000000	60.905343
1353.000000	60.483055
1352.000000	59.767702
1351.000000	58.766145
1350.000000	57.493289
1349.000000	55.976882
1348.000000	54.243579
1347.000000	52.312969
1346.000000	50.204723
1345.000000	47.948495
1344.000000	45.589542
1343.000000	43.172860
1342.000000	40.727769
1341.000000	38.292563
1340.000000	35.964173
1339.000000	33.896590
1338.000000	32.222040
1337.000000	30.977325
1336.000000	30.112755
1335.000000	29.532321
1334.000000	29.103424
1333.000000	28.671883
1332.000000	28.099343
1331.000000	27.292471
1330.000000	26.208336
1329.000000	24.851988
1328.000000	23.279383
1327.000000	21.589109
1326.000000	19.890951
1325.000000	18.280142
1324.000000	16.840995
1323.000000	15.646512
1322.000000	14.729859
1321.000000	14.072336
1320.000000	13.631236
1319.000000	13.354998
1318.000000	13.176166
1317.000000	13.023803
1316.000000	12.857096
1315.000000	12.674089
1314.000000	12.480896
1313.000000	12.277679
1312.000000	12.074684
1311.000000	11.892472
1310.000000	11.741689
1309.000000	11.622797
1308.000000	11.549873
1307.000000	11.550737
1306.000000	11.639441
1305.000000	11.812671
1304.000000	12.070757
1303.000000	12.418555
1302.000000	12.844818
1301.000000	13.322375
1300.000000	13.834573
1299.000000	14.378533
1298.000000	14.945259
1297.000000	15.519950
1296.000000	16.099220
1295.000000	16.689471
1294.000000	17.287583
1293.000000	17.881489
1292.000000	18.467172
1291.000000	19.046779
1290.000000	19.610481
1289.000000	20.137117
1288.000000	20.608863
1287.000000	21.008123
1286.000000	21.307744
1285.000000	21.483264
1284.000000	21.541243
1283.000000	21.527110
1282.000000	21.505335
1281.000000	21.540445
1280.000000	21.686533
1279.000000	21.970492
1278.000000	22.378154
1277.000000	22.869696
1276.000000	23.408880
1275.000000	23.971843
1274.000000	24.538482
1273.000000	25.093254
1272.000000	25.634390
1271.000000	26.166852
1270.000000	26.688250
1269.000000	27.192231
1268.000000	27.680652
1267.000000	28.160007
1266.000000	28.629762
1265.000000	29.084685
1264.000000	29.525097
1263.000000	29.955734
1262.000000	30.376755
1261.000000	30.786331
1260.000000	31.187818
1259.000000	31.584799
1258.000000	31.973852
1257.000000	32.349994
1256.000000	32.715615
1255.000000	33.076332
1254.000000	33.432429
1253.000000	33.781769
1252.000000	34.126118
1251.000000	34.467927
1250.000000	34.804855
1249.000000	35.133378
1248.000000	35.454531
1247.000000	35.770523
1246.000000	36.079999
1245.000000	36.381805
1244.000000	36.679018
1243.000000	36.974583
1242.000000	37.266548
1241.000000	37.552261
1240.000000	37.833212
1239.000000	38.111156
1238.000000	38.384080
1237.000000	38.649842
1236.000000	38.909871
1235.000000	39.165760
1234.000000	39.415789
1233.000000	39.658857
1232.000000	39.897844
1231.000000	40.135818
1230.000000	40.372654
1229.000000	40.607814
1228.000000	40.843137
1227.000000	41.080100
1226.000000	41.317685
1225.000000	41.555035
1224.000000	41.792376
1223.000000	42.027906
1222.000000	42.257821
1221.000000	42.481055
1220.000000	42.700602
1219.000000	42.918783
1218.000000	43.135195
1217.000000	43.350105
1216.000000	43.565546
1215.000000	43.782309
1214.000000	43.999504
1213.000000	44.217640
1212.000000	44.437949
1211.000000	44.658038
1210.000000	44.872780
1209.000000	45.079882
1208.000000	45.280830
1207.000000	45.476784
1206.000000	45.667803
1205.000000	45.856277
1204.000000	46.046298
1203.000000	46.239357
1202.000000	46.434502
1201.000000	46.631922
1200.000000	46.832356
1199.000000	47.032983
1198.000000	47.227797
1197.000000	47.411879
1196.000000	47.580741
1195.000000	47.727603
1194.000000	47.844753
1193.000000	47.926626
1192.000000	47.969491
1191.000000	47.968456
1190.000000	47.921798
1189.000000	47.837780
1188.000000	47.735007
1187.000000	47.638259
1186.000000	47.574139
1185.000000	47.565747
1184.000000	47.623937
1183.000000	47.741528
1182.000000	47.897568
1181.000000	48.071574
1180.000000	48.252996
1179.000000	48.440300
1178.000000	48.636632
1177.000000	48.844272
1176.000000	49.061166
1175.000000	49.281273
1174.000000	49.499348
1173.000000	49.713892
1172.000000	49.923742
1171.000000	50.125240
1170.000000	50.315678
1169.000000	50.496459
1168.000000	50.669571
1167.000000	50.834999
1166.000000	50.994461
1165.000000	51.153948
1164.000000	51.318895
1163.000000	51.489697
1162.000000	51.665243
1161.000000	51.846559
1160.000000	52.033158
1159.000000	52.219903
1158.000000	52.401336
1157.000000	52.575901
1156.000000	52.742780
1155.000000	52.899210
1154.000000	53.044919
1153.000000	53.184243
1152.000000	53.320764
1151.000000	53.454375
1150.000000	53.586706
1149.000000	53.724161
1148.000000	53.871092
1147.000000	54.024867
1146.000000	54.180893
1145.000000	54.336995
1144.000000	54.489589
1143.000000	54.631541
1142.000000	54.758877
1141.000000	54.874822
1140.000000	54.983443
1139.000000	55.085337
1138.000000	55.182486
1137.000000	55.281360
1136.000000	55.387065
1135.000000	55.499507
1134.000000	55.618521
1133.000000	55.746263
1132.000000	55.880771
1131.000000	56.013523
1130.000000	56.137753
1129.000000	56.253928
1128.000000	56.363954
1127.000000	56.466790
1126.000000	56.563718
1125.000000	56.660962
1124.000000	56.763111
1123.000000	56.869862
1122.000000	56.982221
1121.000000	57.104535
1120.000000	57.236367
1119.000000	57.369449
1118.000000	57.496625
1117.000000	57.617230
1116.000000	57.730776
1115.000000	57.833602
1114.000000	57.926259
1113.000000	58.016474
1112.000000	58.110195
1111.000000	58.207098
1110.000000	58.307760
1109.000000	58.416718
1108.000000	58.534245
1107.000000	58.652614
1106.000000	58.764860
1105.000000	58.869433
1104.000000	58.963471
1103.000000	59.040572
1102.000000	59.099715
1101.000000	59.148409
1100.000000	59.193288
1099.000000	59.236324
1098.000000	59.281801
1097.000000	59.338215
1096.000000	59.408666
1095.000000	59.487701
1094.000000	59.570432
1093.000000	59.656023
1092.000000	59.739454
1091.000000	59.810426
1090.000000	59.864980
1089.000000	59.909816
1088.000000	59.951931
1087.000000	59.993456
1086.000000	60.039305
1085.000000	60.099330
1084.000000	60.177885
1083.000000	60.269178
1082.000000	60.366058
1081.000000	60.464653
1080.000000	60.558181
1079.000000	60.636721
1078.000000	60.697643
1077.000000	60.746943
1076.000000	60.788003
1075.000000	60.818878
1074.000000	60.842836
1073.000000	60.870616
1072.000000	60.907492
1071.000000	60.947663
1070.000000	60.983589
1069.000000	61.009538
1068.000000	61.013961
1067.000000	60.978395
1066.000000	60.890918
1065.000000	60.754335
1064.000000	60.579848
1063.000000	60.385204
1062.000000	60.200266
1061.000000	60.061917
1060.000000	59.995465
1059.000000	60.006713
1058.000000	60.089514
1057.000000	60.232726
1056.000000	60.417335
1055.000000	60.617225
1054.000000	60.812415
1053.000000	60.993491
1052.000000	61.153477
1051.000000	61.285599
1050.000000	61.393043
1049.000000	61.490100
1048.000000	61.588835
1047.000000	61.693408
1046.000000	61.808384
1045.000000	61.940227
1044.000000	62.086496
1043.000000	62.234465
1042.000000	62.374015
1041.000000	62.502795
1040.000000	62.617011
1039.000000	62.709226
1038.000000	62.779875
1037.000000	62.840686
1036.000000	62.902687
1035.000000	62.970846
1034.000000	63.052177
1033.000000	63.156878
1032.000000	63.286543
1031.000000	63.430907
1030.000000	63.579411
1029.000000	63.726326
1028.000000	63.862594
1027.000000	63.975199
1026.000000	64.059794
1025.000000	64.124270
1024.000000	64.176835
1023.000000	64.221332
1022.000000	64.266622
1021.000000	64.327322
1020.000000	64.410646
1019.000000	64.511956
1018.000000	64.625737
1017.000000	64.749885
1016.000000	64.876547
1015.000000	64.991258
1014.000000	65.086105
1013.000000	65.164239
1012.000000	65.229063
1011.000000	65.280736
1010.000000	65.325847
1009.000000	65.378143
1008.000000	65.445395
1007.000000	65.525519
1006.000000	65.617371
1005.000000	65.723455
1004.000000	65.839211
1003.000000	65.951317
1002.000000	66.050892
1001.000000	66.138613
1000.000000	66.215166
999.000000	66.278250
998.000000	66.332292
997.000000	66.389388
996.000000	66.456745
995.000000	66.532711
994.000000	66.616953
993.000000	66.713120
992.000000	66.818468
991.000000	66.922230
990.000000	67.017530
989.000000	67.104977
988.000000	67.182535
987.000000	67.244568
986.000000	67.293995
985.000000	67.344051
984.000000	67.404183
983.000000	67.474746
982.000000	67.557032
981.000000	67.655853
980.000000	67.768590
979.000000	67.883189
978.000000	67.990929
977.000000	68.090505
976.000000	68.177780
975.000000	68.244072
974.000000	68.289182
973.000000	68.324163
972.000000	68.358566
971.000000	68.395490
970.000000	68.440949
969.000000	68.504895
968.000000	68.588949
967.000000	68.684147
966.000000	68.783642
965.000000	68.886605
964.000000	68.987260
963.000000	69.073589
962.000000	69.140787
961.000000	69.194977
960.000000	69.240584
959.000000	69.276852
958.000000	69.308691
957.000000	69.347986
956.000000	69.400212
955.000000	69.461456
954.000000	69.530985
953.000000	69.613700
952.000000	69.707169
951.000000	69.798962
950.000000	69.881021
949.000000	69.954595
948.000000	70.018963
947.000000	70.068448
946.000000	70.104242
945.000000	70.135758
944.000000	70.167638
943.000000	70.197406
942.000000	70.228049
941.000000	70.269285
940.000000	70.323019
939.000000	70.380777
938.000000	70.437922
937.000000	70.497529
936.000000	70.557456
935.000000	70.607903
934.000000	70.645198
933.000000	70.675174
932.000000	70.699984
931.000000	70.715595
930.000000	70.724462
929.000000	70.736799
928.000000	70.755901
927.000000	70.775049
926.000000	70.791734
925.000000	70.810388
924.000000	70.829024
923.000000	70.837190
922.000000	70.830550
921.000000	70.814264
920.000000	70.789359
919.000000	70.750098
918.000000	70.697532
917.000000	70.640771
916.000000	70.582713
915.000000	70.517519
914.000000	70.444168
913.000000	70.368258
912.000000	70.286713
911.000000	70.186593
910.000000	70.061112
909.000000	69.913802
908.000000	69.745162
907.000000	69.549165
906.000000	69.327135
905.000000	69.089563
904.000000	68.841181
903.000000	68.578202
902.000000	68.300481
901.000000	68.013339
900.000000	67.714285
899.000000	67.390868
898.000000	67.035141
897.000000	66.645935
896.000000	66.218102
895.000000	65.743059
894.000000	65.221248
893.000000	64.662950
892.000000	64.073168
891.000000	63.450204
890.000000	62.797836
889.000000	62.123922
888.000000	61.427639
887.000000	60.697793
886.000000	59.926068
885.000000	59.110636
884.000000	58.245403
883.000000	57.321392
882.000000	56.337673
881.000000	55.302461
880.000000	54.223261
879.000000	53.104374
878.000000	51.955665
877.000000	50.791090
876.000000	49.619313
875.000000	48.443618
874.000000	47.269825
873.000000	46.106751
872.000000	44.959729
871.000000	43.831246
870.000000	42.726647
869.000000	41.655064
868.000000	40.623760
867.000000	39.638098
866.000000	38.706163
865.000000	37.836235
864.000000	37.032758
863.000000	36.293949
862.000000	35.615014
861.000000	34.991088
860.000000	34.414369
859.000000	33.875520
858.000000	33.366058
857.000000	32.880554
856.000000	32.417611
855.000000	31.978414
854.000000	31.568218
853.000000	31.195004
852.000000	30.866428
851.000000	30.589281
850.000000	30.367773
849.000000	30.203666
848.000000	30.095540
847.000000	30.039603
846.000000	30.033557
845.000000	30.075485
844.000000	30.164668
843.000000	30.303972
842.000000	30.500123
841.000000	30.761739
840.000000	31.093822
839.000000	31.500831
838.000000	31.989731
837.000000	32.564846
836.000000	33.224083
835.000000	33.960083
834.000000	34.761389
833.000000	35.598291
832.000000	36.403929
831.000000	37.037519
830.000000	37.240736
829.000000	36.630961
828.000000	34.866422
827.000000	31.988670
826.000000	28.632318
825.000000	25.791173
824.000000	24.242258
823.000000	24.132661
822.000000	25.078324
821.000000	26.575224
820.000000	28.262544
819.000000	29.925327
818.000000	31.439169
817.000000	32.757749
816.000000	33.907245
815.000000	34.930189
814.000000	35.853386
813.000000	36.700061
812.000000	37.497992
811.000000	38.259269
810.000000	38.977413
809.000000	39.649821
808.000000	40.281792
807.000000	40.872110
806.000000	41.414014
805.000000	41.913989
804.000000	42.388868
803.000000	42.843734
802.000000	43.274175
801.000000	43.686656
800.000000	44.098031
799.000000	44.515934
798.000000	44.937060
797.000000	45.362218
796.000000	45.794055
795.000000	46.223258
794.000000	46.634867
793.000000	47.025576
792.000000	47.400369
791.000000	47.757848
790.000000	48.095157
789.000000	48.421737
788.000000	48.751960
787.000000	49.089381
786.000000	49.431579
785.000000	49.783154
784.000000	50.148700
783.000000	50.518744
782.000000	50.876936
781.000000	51.215565
780.000000	51.532071
779.000000	51.819724
778.000000	52.076387
777.000000	52.315457
776.000000	52.554264
775.000000	52.798394
774.000000	53.048696
773.000000	53.312955
772.000000	53.596359
771.000000	53.888598
770.000000	54.173901
769.000000	54.446373
768.000000	54.703506
767.000000	54.935177
766.000000	55.133876
765.000000	55.307349
764.000000	55.468923
763.000000	55.623966
762.000000	55.777839
761.000000	55.945686
760.000000	56.139821
759.000000	56.355329
758.000000	56.579610
757.000000	56.806272
756.000000	57.028247
755.000000	57.229204
754.000000	57.396757
753.000000	57.535730
752.000000	57.657519
751.000000	57.767700
750.000000	57.874747
749.000000	57.997741
748.000000	58.151021
747.000000	58.331383
746.000000	58.530792
745.000000	58.748323
744.000000	58.976666
743.000000	59.191395
742.000000	59.369224
741.000000	59.506877
740.000000	59.610977
739.000000	59.684149
738.000000	59.734843
737.000000	59.785982
736.000000	59.858060
735.000000	59.953613
734.000000	60.069246
733.000000	60.207283
732.000000	60.361958
731.000000	60.508955
730.000000	60.624102
729.000000	60.700014
728.000000	60.735117
727.000000	60.723727
726.000000	60.671417
725.000000	60.606559
724.000000	60.560911
723.000000	60.549465
722.000000	60.579787
721.000000	60.664306
720.000000	60.806634
719.000000	60.989317
718.000000	61.189953
717.000000	61.396409
716.000000	61.594939
715.000000	61.763239
714.000000	61.892219
713.000000	61.998706
712.000000	62.102752
711.000000	62.208951
710.000000	62.323418
709.000000	62.467136
708.000000	62.654710
707.000000	62.876455
706.000000	63.114699
705.000000	63.360776
704.000000	63.601730
703.000000	63.809935
702.000000	63.967393
701.000000	64.084273
700.000000	64.177311
699.000000	64.252299
698.000000	64.320844
697.000000	64.411942
696.000000	64.545237
695.000000	64.709152
694.000000	64.885426
693.000000	65.071801
692.000000	65.260366
691.000000	65.422989
690.000000	65.541006
689.000000	65.629108
688.000000	65.707239
687.000000	65.771857
686.000000	65.823951
685.000000	65.894063
684.000000	66.008287
683.000000	66.156301
682.000000	66.319701
681.000000	66.500799
680.000000	66.694561
679.000000	66.865325
678.000000	66.985827
677.000000	67.063852
676.000000	67.111590
675.000000	67.132868
674.000000	67.145177
673.000000	67.190197
672.000000	67.303583
671.000000	67.491918
670.000000	67.751536
669.000000	68.068964
668.000000	68.350743
667.000000	68.498477
666.000000	68.554885
665.000000	68.581777
664.000000	68.596993
663.000000	68.598916
662.000000	68.587307
661.000000	68.579595
660.000000	68.600999
659.000000	68.671094
658.000000	68.801616
657.000000	68.990747
656.000000	69.220086
655.000000	69.469703
654.000000	69.716951
653.000000	69.933277
652.000000	70.097191
651.000000	70.202799
650.000000	70.256027
649.000000	70.268189
648.000000	70.258140
647.000000	70.255533
646.000000	70.293059
645.000000	70.393491
644.000000	70.559462
643.000000	70.773836
642.000000	71.012496
641.000000	71.253896
640.000000	71.476664
639.000000	71.657707
638.000000	71.781234
637.000000	71.849123
636.000000	71.879192
635.000000	71.895533
634.000000	71.924578
633.000000	71.990378
632.000000	72.104854
631.000000	72.266250
630.000000	72.466727
629.000000	72.693130
628.000000	72.921737
627.000000	73.125506
626.000000	73.292068
625.000000	73.426904
624.000000	73.532970
623.000000	73.605218
622.000000	73.653508
621.000000	73.710009
620.000000	73.801233
619.000000	73.929900
618.000000	74.092128
617.000000	74.292716
616.000000	74.528022
615.000000	74.772124
614.000000	74.995654
613.000000	75.185310
612.000000	75.333414
611.000000	75.429166
610.000000	75.473782
609.000000	75.482348
608.000000	75.457393
607.000000	75.368814
606.000000	75.168472
605.000000	74.792877
604.000000	74.126611
603.000000	72.988267
602.000000	71.152627
601.000000	68.422163
600.000000	64.739481
599.000000	60.333260
598.000000	55.770837
597.000000	51.790025
596.000000	49.018093
595.000000	47.756974
594.000000	47.919105
593.000000	49.132507
592.000000	50.960643
591.000000	53.030204
590.000000	55.064850
589.000000	56.920700
588.000000	58.565841
587.000000	60.021451
586.000000	61.312986
585.000000	62.462396
584.000000	63.487294
583.000000	64.404701
582.000000	65.240956
581.000000	66.030653
580.000000	66.788022
579.000000	67.486480
578.000000	68.097849
577.000000	68.629033
576.000000	69.100303
575.000000	69.509631
574.000000	69.843928
573.000000	70.115690
572.000000	70.355802
571.000000	70.588784
570.000000	70.836352
569.000000	71.122452
568.000000	71.451363
567.000000	71.794105
566.000000	72.116236
565.000000	72.405509
564.000000	72.653247
563.000000	72.837544
562.000000	72.949998
561.000000	73.017672
560.000000	73.076921
559.000000	73.146539
558.000000	73.244708
557.000000	73.401378
556.000000	73.630660
555.000000	73.910265
554.000000	74.207360
553.000000	74.502257
552.000000	74.770049
551.000000	74.969054
550.000000	75.077312
549.000000	75.115956
548.000000	75.116008
547.000000	75.095261
546.000000	75.084808
545.000000	75.138167
544.000000	75.285857
543.000000	75.512270
542.000000	75.791416
541.000000	76.112488
540.000000	76.448514
539.000000	76.739699
538.000000	76.940389
537.000000	77.055595
536.000000	77.105949
535.000000	77.094167
534.000000	77.035055
533.000000	76.981145
532.000000	76.983690
531.000000	77.057327
530.000000	77.202071
529.000000	77.422681
528.000000	77.703008
527.000000	77.994720
526.000000	78.258254
525.000000	78.479599
524.000000	78.628924
523.000000	78.647261
522.000000	78.502715
521.000000	78.220680
520.000000	77.841694
519.000000	77.386480
518.000000	76.888188
517.000000	76.421290
516.000000	76.056364
515.000000	75.820585
514.000000	75.721959
513.000000	75.769532
512.000000	75.932315
511.000000	76.118266
510.000000	76.230135
509.000000	76.218389
508.000000	76.048792
507.000000	75.670533
506.000000	75.045012
505.000000	74.163124
504.000000	73.021525
503.000000	71.658474
502.000000	70.260191
501.000000	69.119978
500.000000	68.433324
499.000000	68.206901
498.000000	68.358620
497.000000	68.792270
496.000000	69.383038
495.000000	69.984848
494.000000	70.496236
493.000000	70.910800
492.000000	71.275027
491.000000	71.634534
490.000000	72.031127
489.000000	72.498372
488.000000	73.018504
487.000000	73.526910
486.000000	73.989536
485.000000	74.443924
484.000000	74.936721
483.000000	75.465792
482.000000	76.019603
481.000000	76.614189
480.000000	77.245579
479.000000	77.857780
478.000000	78.397029
477.000000	78.853443
476.000000	79.214495
475.000000	79.431255
474.000000	79.492071
473.000000	79.488996
472.000000	79.533355
471.000000	79.634381
470.000000	79.759868
469.000000	79.939289
468.000000	80.213636
467.000000	80.555784
466.000000	80.893340
465.000000	81.182667
464.000000	81.388276
463.000000	81.457232
462.000000	81.389471
461.000000	81.265786
460.000000	81.135462
459.000000	80.964683
458.000000	80.774722
457.000000	80.704782
456.000000	80.813746
455.000000	81.001837
454.000000	81.176711
453.000000	81.345815
452.000000	81.524313
451.000000	81.627420
450.000000	81.543343
449.000000	81.249255
448.000000	80.779245
447.000000	80.149880
446.000000	79.378173
445.000000	78.497901
444.000000	77.490873
443.000000	76.272137
442.000000	74.785024
441.000000	73.062297
440.000000	71.152029
439.000000	69.081382
438.000000	66.939095
437.000000	64.958497
436.000000	63.436539
435.000000	62.557329
434.000000	62.326818
433.000000	62.672881
432.000000	63.531141
431.000000	64.777877
430.000000	66.234125
429.000000	67.776444
428.000000	69.332650
427.000000	70.796069
426.000000	72.078581
425.000000	73.220478
424.000000	74.287480
423.000000	75.222322
422.000000	75.949550
421.000000	76.549081
420.000000	77.168342
419.000000	77.916503
418.000000	78.783649
417.000000	79.624656
416.000000	80.357909
415.000000	80.920830
414.000000	81.287992
413.000000	81.584429
412.000000	81.909245
411.000000	82.157523
410.000000	82.246060
409.000000	82.336711
408.000000	82.596655
407.000000	82.919174
406.000000	83.194994
405.000000	83.518461
404.000000	83.943779
403.000000	84.226186
402.000000	84.126171
401.000000	83.750316
400.000000	83.300081
